Data from QEP037381__23__10-26-10-304.txt Node

Date: Fri Apr 28 10:26:10 EDT 2023
User: dcclab
Spectrometer: QEP03738
Trigger mode: 4
Integration Time (sec): 1.000000E1
Scans to average: 1
Electric dark correction enabled: true
Nonlinearity correction enabled: false
Boxcar width: 0
XAxis mode: Wavelengths
Number of Pixels in Spectrum: 1044
>>>>>Begin Spectral Data<<<<<
784.041	11.5
784.3	0.5
784.558	0.5
784.817	-3.5
785.075	66215.5
785.334	13124.5
785.592	6753.5
785.851	4775.5
786.109	3638.5
786.368	2888.5
786.626	2295.5
786.884	1956.5
787.143	1639.5
787.401	1403.5
787.659	1264.5
787.917	1067.5
788.175	990.5
788.433	863.5
788.691	797.5
788.949	733.5
789.207	706.5
789.465	617.5
789.723	606.5
789.98	549.5
790.238	599.5
790.496	553.5
790.753	536.5
791.011	592.5
791.268	521.5
791.526	527.5
791.783	523.5
792.041	509.5
792.298	430.5
792.556	485.5
792.813	460.5
793.07	453.5
793.327	439.5
793.584	517.5
793.841	440.5
794.099	457.5
794.356	519.5
794.613	421.5
794.869	469.5
795.126	416.5
795.383	403.5
795.64	432.5
795.897	393.5
796.153	450.5
796.41	437.5
796.667	422.5
796.923	432.5
797.18	423.5
797.436	449.5
797.693	425.5
797.949	473.5
798.206	504.5
798.462	409.5
798.718	469.5
798.974	455.5
799.231	491.5
799.487	474.5
799.743	503.5
799.999	539.5
800.255	517.5
800.511	499.5
800.767	572.5
801.023	563.5
801.279	598.5
801.534	645.5
801.79	721.5
802.046	780.5
802.302	973.5
802.557	1148.5
802.813	1542.5
803.068	1986.5
803.324	2860.5
803.579	3959.5
803.835	5492.5
804.09	7409.5
804.345	9340.5
804.601	11261.5
804.856	13073.5
805.111	14324.5
805.366	15364.5
805.621	15972.5
805.876	16458.5
806.131	16853.5
806.386	17133.5
806.641	17349.5
806.896	17555.5
807.151	17902.5
807.406	18170.5
807.661	18475.5
807.915	18845.5
808.17	19059.5
808.425	19293.5
808.679	19517.5
808.934	19810.5
809.188	19966.5
809.443	20120.5
809.697	20343.5
809.951	20550.5
810.206	20657.5
810.46	20865.5
810.714	21058.5
810.968	21270.5
811.223	21283.5
811.477	21536.5
811.731	21774.5
811.985	21646.5
812.239	21879.5
812.493	21876.5
812.747	22033.5
813	21970.5
813.254	22249.5
813.508	22274.5
813.762	22469.5
814.015	22447.5
814.269	22690.5
814.522	22854.5
814.776	23042.5
815.03	23305.5
815.283	23618.5
815.536	23866.5
815.79	24309.5
816.043	24647.5
816.296	24898.5
816.55	25099.5
816.803	25323.5
817.056	25841.5
817.309	26143.5
817.562	26422.5
817.815	26617.5
818.068	26822.5
818.321	27004.5
818.574	27485.5
818.827	27956.5
819.079	28192.5
819.332	28832.5
819.585	29258.5
819.838	29493.5
820.09	29553.5
820.343	29739.5
820.595	29913.5
820.848	29998.5
821.1	30293.5
821.353	30382.5
821.605	30195.5
821.857	30258.5
822.11	29977.5
822.362	29973.5
822.614	29916.5
822.866	30018.5
823.118	30016.5
823.37	30112.5
823.622	30310.5
823.874	30423.5
824.126	30454.5
824.378	30596.5
824.63	30661.5
824.882	30795.5
825.134	30686.5
825.385	30480.5
825.637	30468.5
825.888	30422.5
826.14	30377.5
826.392	30054.5
826.643	30112.5
826.895	29980.5
827.146	29904.5
827.397	29755.5
827.649	29849.5
827.9	29784.5
828.151	29829.5
828.402	29932.5
828.653	30028.5
828.905	30059.5
829.156	30111.5
829.407	30013.5
829.658	30238.5
829.909	30426.5
830.159	30430.5
830.41	30151.5
830.661	29907.5
830.912	29754.5
831.162	29624.5
831.413	29675.5
831.664	29624.5
831.914	29556.5
832.165	29551.5
832.415	29486.5
832.666	29487.5
832.916	29603.5
833.167	29473.5
833.417	29559.5
833.667	29467.5
833.917	29377.5
834.168	29132.5
834.418	29168.5
834.668	28999.5
834.918	28880.5
835.168	28765.5
835.418	28644.5
835.668	28630.5
835.918	28418.5
836.167	28509.5
836.417	28313.5
836.667	28478.5
836.917	28364.5
837.166	28356.5
837.416	28455.5
837.666	28345.5
837.915	28416.5
838.165	28245.5
838.414	28128.5
838.663	28104.5
838.913	28196.5
839.162	28103.5
839.411	28026.5
839.661	27918.5
839.91	27781.5
840.159	27778.5
840.408	27934.5
840.657	27892.5
840.906	27907.5
841.155	27959.5
841.404	27777.5
841.653	28001.5
841.902	27958.5
842.15	28025.5
842.399	28037.5
842.648	27973.5
842.897	27942.5
843.145	27673.5
843.394	27464.5
843.642	27297.5
843.891	27300.5
844.139	26954.5
844.388	26814.5
844.636	26797.5
844.884	26774.5
845.133	26768.5
845.381	26723.5
845.629	26789.5
845.877	26676.5
846.125	26657.5
846.373	26607.5
846.621	26580.5
846.869	26490.5
847.117	26316.5
847.365	26327.5
847.613	26114.5
847.861	26052.5
848.108	26086.5
848.356	26024.5
848.604	25985.5
848.851	25958.5
849.099	26001.5
849.346	26212.5
849.594	26214.5
849.841	26266.5
850.089	26372.5
850.336	26224.5
850.583	26382.5
850.831	26168.5
851.078	25981.5
851.325	26002.5
851.572	25975.5
851.819	25635.5
852.066	25139.5
852.313	24974.5
852.56	24789.5
852.807	24667.5
853.054	24638.5
853.301	24697.5
853.548	24711.5
853.794	24812.5
854.041	24873.5
854.288	25034.5
854.534	25227.5
854.781	25102.5
855.028	25088.5
855.274	25137.5
855.52	25076.5
855.767	25146.5
856.013	25261.5
856.26	25504.5
856.506	24758.5
856.752	24703.5
856.998	24746.5
857.244	24770.5
857.49	24860.5
857.736	24897.5
857.982	24963.5
858.228	24821.5
858.474	24445.5
858.72	24373.5
858.966	24080.5
859.212	23870.5
859.458	23676.5
859.703	23472.5
859.949	23179.5
860.195	23031.5
860.44	23032.5
860.686	23014.5
860.931	23084.5
861.177	22810.5
861.422	22722.5
861.667	22465.5
861.913	22426.5
862.158	22576.5
862.403	22613.5
862.648	22464.5
862.893	22733.5
863.138	22490.5
863.384	22392.5
863.629	22447.5
863.873	22254.5
864.118	22335.5
864.363	22221.5
864.608	22103.5
864.853	21942.5
865.098	21859.5
865.342	21695.5
865.587	21603.5
865.832	21647.5
866.076	21542.5
866.321	21405.5
866.565	21389.5
866.81	21460.5
867.054	21331.5
867.298	21307.5
867.543	21192.5
867.787	21282.5
868.031	21249.5
868.275	21125.5
868.519	21099.5
868.764	21157.5
869.008	21162.5
869.252	21087.5
869.496	21118.5
869.739	21010.5
869.983	21113.5
870.227	21131.5
870.471	21223.5
870.715	21280.5
870.958	21246.5
871.202	21355.5
871.446	21429.5
871.689	21367.5
871.933	21454.5
872.176	21297.5
872.42	21288.5
872.663	21254.5
872.906	21211.5
873.15	21252.5
873.393	21397.5
873.636	21354.5
873.879	21087.5
874.122	20677.5
874.366	20438.5
874.609	20245.5
874.852	19989.5
875.095	19891.5
875.337	19695.5
875.58	19600.5
875.823	19704.5
876.066	19516.5
876.309	19506.5
876.551	19386.5
876.794	19212.5
877.037	19256.5
877.279	19113.5
877.522	19126.5
877.764	19127.5
878.007	19098.5
878.249	19144.5
878.491	18937.5
878.734	18910.5
878.976	18967.5
879.218	18824.5
879.46	18687.5
879.702	18565.5
879.945	18416.5
880.187	18111.5
880.429	18001.5
880.671	17999.5
880.912	17884.5
881.154	17917.5
881.396	17836.5
881.638	17852.5
881.88	17690.5
882.121	17770.5
882.363	17621.5
882.605	17715.5
882.846	17808.5
883.088	17811.5
883.329	17755.5
883.571	18015.5
883.812	18458.5
884.053	18936.5
884.295	19323.5
884.536	19589.5
884.777	19505.5
885.018	19259.5
885.259	18947.5
885.5	18834.5
885.742	19101.5
885.982	18684.5
886.223	18555.5
886.464	18383.5
886.705	18076.5
886.946	17827.5
887.187	17421.5
887.428	17187.5
887.668	16829.5
887.909	16590.5
888.15	16387.5
888.39	16264.5
888.631	16164.5
888.871	16017.5
889.111	15852.5
889.352	15843.5
889.592	15529.5
889.833	15411.5
890.073	15381.5
890.313	15337.5
890.553	15091.5
890.793	15093.5
891.033	15011.5
891.273	14924.5
891.513	14850.5
891.753	14906.5
891.993	14833.5
892.233	14829.5
892.473	14873.5
892.713	14823.5
892.952	14839.5
893.192	14903.5
893.432	14822.5
893.671	14894.5
893.911	14618.5
894.15	14628.5
894.39	14459.5
894.629	14377.5
894.869	14327.5
895.108	14231.5
895.347	14149.5
895.587	14180.5
895.826	14071.5
896.065	14079.5
896.304	14040.5
896.543	13990.5
896.782	13918.5
897.021	13944.5
897.26	13856.5
897.499	13924.5
897.738	13878.5
897.977	13723.5
898.216	13597.5
898.454	13587.5
898.693	13440.5
898.932	13511.5
899.17	13395.5
899.409	13328.5
899.647	13358.5
899.886	13339.5
900.124	13310.5
900.363	13363.5
900.601	13457.5
900.839	13464.5
901.078	13576.5
901.316	13530.5
901.554	13662.5
901.792	13758.5
902.03	13741.5
902.268	13686.5
902.506	13709.5
902.744	13589.5
902.982	13411.5
903.22	13187.5
903.458	13042.5
903.695	12812.5
903.933	12671.5
904.171	12393.5
904.409	12181.5
904.646	12108.5
904.884	12044.5
905.121	11759.5
905.359	11626.5
905.596	11579.5
905.833	11496.5
906.071	11398.5
906.308	11480.5
906.545	11412.5
906.783	11286.5
907.02	11281.5
907.257	11298.5
907.494	11233.5
907.731	11278.5
907.968	11121.5
908.205	11132.5
908.442	11027.5
908.679	10997.5
908.915	10850.5
909.152	10845.5
909.389	10639.5
909.626	10568.5
909.862	10472.5
910.099	10532.5
910.335	10471.5
910.572	10385.5
910.808	10380.5
911.045	10314.5
911.281	10231.5
911.518	10272.5
911.754	10072.5
911.99	10078.5
912.226	9978.5
912.463	9912.5
912.699	9858.5
912.935	9907.5
913.171	9680.5
913.407	9654.5
913.643	9602.5
913.879	9474.5
914.114	9431.5
914.35	9319.5
914.586	9285.5
914.822	9164.5
915.057	9234.5
915.293	8989.5
915.529	8932.5
915.764	9101.5
916	8996.5
916.235	8976.5
916.471	9001.5
916.706	8918.5
916.941	8849.5
917.177	8905.5
917.412	8883.5
917.647	8906.5
917.882	8821.5
918.117	8825.5
918.352	8786.5
918.588	8823.5
918.823	8652.5
919.057	8573.5
919.292	8427.5
919.527	8517.5
919.762	8323.5
919.997	8249.5
920.232	8079.5
920.466	8094.5
920.701	8043.5
920.935	7991.5
921.17	8036.5
921.405	7822.5
921.639	7892.5
921.873	7779.5
922.108	7788.5
922.342	7756.5
922.576	7732.5
922.811	7700.5
923.045	7730.5
923.279	7703.5
923.513	7544.5
923.747	7639.5
923.981	7536.5
924.215	7449.5
924.449	7424.5
924.683	7390.5
924.917	7326.5
925.151	7315.5
925.385	7363.5
925.618	7310.5
925.852	7291.5
926.086	7172.5
926.319	7231.5
926.553	7234.5
926.786	7210.5
927.02	7219.5
927.253	7160.5
927.486	7180.5
927.72	7110.5
927.953	7187.5
928.186	7123.5
928.42	7109.5
928.653	6967.5
928.886	6970.5
929.119	6982.5
929.352	6906.5
929.585	6863.5
929.818	6761.5
930.051	6799.5
930.284	6789.5
930.516	6624.5
930.749	6620.5
930.982	6559.5
931.215	6601.5
931.447	6477.5
931.68	6465.5
931.912	6468.5
932.145	6492.5
932.377	6507.5
932.61	6564.5
932.842	6397.5
933.074	6452.5
933.307	6400.5
933.539	6520.5
933.771	6449.5
934.003	6485.5
934.236	6482.5
934.468	6481.5
934.7	6323.5
934.932	6400.5
935.164	6337.5
935.395	6289.5
935.627	6401.5
935.859	6283.5
936.091	6263.5
936.323	6216.5
936.554	6299.5
936.786	6137.5
937.017	6109.5
937.249	6211.5
937.481	6086.5
937.712	6109.5
937.943	6108.5
938.175	6059.5
938.406	6108.5
938.637	6085.5
938.869	6010.5
939.1	6056.5
939.331	6002.5
939.562	6002.5
939.793	5983.5
940.024	6016.5
940.255	5915.5
940.486	5850.5
940.717	5855.5
940.948	5856.5
941.179	5810.5
941.409	5835.5
941.64	5770.5
941.871	5820.5
942.102	5735.5
942.332	5772.5
942.563	5835.5
942.793	5763.5
943.024	5725.5
943.254	5754.5
943.484	5783.5
943.715	5808.5
943.945	5698.5
944.175	5670.5
944.405	5650.5
944.636	5648.5
944.866	5699.5
945.096	5712.5
945.326	5623.5
945.556	5600.5
945.786	5640.5
946.016	5527.5
946.245	5461.5
946.475	5472.5
946.705	5443.5
946.935	5408.5
947.164	5385.5
947.394	5350.5
947.624	5378.5
947.853	5388.5
948.083	5285.5
948.312	5302.5
948.542	5200.5
948.771	5224.5
949	5231.5
949.23	5213.5
949.459	5190.5
949.688	5286.5
949.917	5221.5
950.146	5221.5
950.375	5287.5
950.604	5116.5
950.833	5227.5
951.062	5211.5
951.291	5110.5
951.52	5159.5
951.749	5077.5
951.978	5070.5
952.206	5040.5
952.435	5060.5
952.664	5059.5
952.892	5050.5
953.121	5000.5
953.349	5026.5
953.578	5007.5
953.806	4961.5
954.035	4934.5
954.263	4897.5
954.491	4779.5
954.719	4811.5
954.948	4800.5
955.176	4751.5
955.404	4748.5
955.632	4725.5
955.86	4787.5
956.088	4711.5
956.316	4710.5
956.544	4723.5
956.772	4688.5
956.999	4562.5
957.227	4688.5
957.455	4574.5
957.683	4552.5
957.91	4554.5
958.138	4501.5
958.365	4467.5
958.593	4493.5
958.82	4411.5
959.048	4483.5
959.275	4409.5
959.502	4348.5
959.73	4379.5
959.957	4411.5
960.184	4409.5
960.411	4323.5
960.638	4397.5
960.865	4332.5
961.092	4362.5
961.319	4319.5
961.546	4371.5
961.773	4337.5
962	4269.5
962.227	4358.5
962.454	4304.5
962.68	4256.5
962.907	4256.5
963.134	4237.5
963.36	4167.5
963.587	4181.5
963.813	4107.5
964.04	4156.5
964.266	4081.5
964.493	4186.5
964.719	4111.5
964.945	4137.5
965.171	3982.5
965.398	4017.5
965.624	4009.5
965.85	3917.5
966.076	3916.5
966.302	3998.5
966.528	3893.5
966.754	3929.5
966.98	3902.5
967.206	3902.5
967.431	3869.5
967.657	3911.5
967.883	3878.5
968.109	3867.5
968.334	3781.5
968.56	3823.5
968.785	3747.5
969.011	3721.5
969.236	3812.5
969.462	3718.5
969.687	3750.5
969.912	3796.5
970.138	3810.5
970.363	3722.5
970.588	3700.5
970.813	3690.5
971.038	3616.5
971.263	3712.5
971.488	3655.5
971.713	3647.5
971.938	3611.5
972.163	3515.5
972.388	3588.5
972.613	3530.5
972.838	3549.5
973.062	3519.5
973.287	3483.5
973.512	3439.5
973.736	3485.5
973.961	3454.5
974.185	3409.5
974.41	3406.5
974.634	3347.5
974.858	3329.5
975.083	3361.5
975.307	3415.5
975.531	3302.5
975.755	3260.5
975.98	3243.5
976.204	3161.5
976.428	3196.5
976.652	3162.5
976.876	3152.5
977.1	3162.5
977.324	3126.5
977.547	3169.5
977.771	3178.5
977.995	3110.5
978.219	3075.5
978.442	3186.5
978.666	3100.5
978.89	3083.5
979.113	3112.5
979.337	3080.5
979.56	3024.5
979.783	3099.5
980.007	3000.5
980.23	3041.5
980.453	2975.5
980.677	3008.5
980.9	2974.5
981.123	2916.5
981.346	3035.5
981.569	2966.5
981.792	2978.5
982.015	2872.5
982.238	2880.5
982.461	2882.5
982.684	2841.5
982.907	2813.5
983.129	2792.5
983.352	2844.5
983.575	2835.5
983.797	2839.5
984.02	2767.5
984.242	2754.5
984.465	2789.5
984.687	2793.5
984.91	2780.5
985.132	2750.5
985.354	2768.5
985.577	2724.5
985.799	2699.5
986.021	2640.5
986.243	2682.5
986.465	2689.5
986.687	2678.5
986.909	2751.5
987.131	2667.5
987.353	2653.5
987.575	2654.5
987.797	2595.5
988.019	2563.5
988.241	2613.5
988.462	2573.5
988.684	2607.5
988.906	2637.5
989.127	2654.5
989.349	2492.5
989.57	2572.5
989.792	2593.5
990.013	2579.5
990.234	2583.5
990.456	2630.5
990.677	2583.5
990.898	2523.5
991.119	2512.5
991.341	2541.5
991.562	2437.5
991.783	2518.5
992.004	2439.5
992.225	2385.5
992.446	2460.5
992.667	2339.5
992.887	2443.5
993.108	2309.5
993.329	2448.5
993.55	2403.5
993.77	2339.5
993.991	2320.5
994.212	2375.5
994.432	2316.5
994.653	2345.5
994.873	2311.5
995.093	2188.5
995.314	2237.5
995.534	2337.5
995.754	2308.5
995.975	2333.5
996.195	2217.5
996.415	2254.5
996.635	2225.5
996.855	2307.5
997.075	2232.5
997.295	2239.5
997.515	2251.5
997.735	2288.5
997.955	2255.5
998.174	2215.5
998.394	2189.5
998.614	2231.5
998.834	2221.5
999.053	2280.5
999.273	2254.5
999.492	2252.5
999.712	2215.5
999.931	2153.5
1000.151	2184.5
1000.37	2136.5
1000.589	2189.5
1000.809	2108.5
1001.028	2228.5
1001.247	2136.5
1001.466	2048.5
1001.685	2184.5
1001.904	2094.5
1002.123	2090.5
1002.342	2061.5
1002.561	2040.5
1002.78	2057.5
1002.999	2108.5
1003.218	2038.5
1003.436	2031.5
1003.655	2044.5
1003.874	1984.5
1004.092	2010.5
1004.311	2050.5
1004.53	2010.5
1004.748	2080.5
1004.966	1979.5
1005.185	2041.5
1005.403	2038.5
1005.622	2010.5
1005.84	2083.5
1006.058	1977.5
1006.276	2011.5
1006.494	2365.5
1006.712	2016.5
1006.931	2077.5
1007.149	1996.5
1007.367	1998.5
1007.584	2051.5
1007.802	2077.5
1008.02	2015.5
1008.238	2151.5
1008.456	2124.5
1008.673	2052.5
1008.891	2156.5
1009.109	2129.5
1009.326	2259.5
1009.544	2366.5
1009.761	2299.5
1009.979	2446.5
1010.196	2519.5
1010.413	2665.5
1010.631	2795.5
1010.848	2831.5
1011.065	2875.5
1011.282	2815.5
1011.5	2751.5
1011.717	2816.5
1011.934	2710.5
1012.151	2779.5
1012.368	2787.5
1012.585	2710.5
1012.801	2738.5
1013.018	2746.5
1013.235	2696.5
1013.452	2753.5
1013.669	2753.5
1013.885	2760.5
1014.102	2841.5
1014.318	2807.5
1014.535	2726.5
1014.751	2730.5
1014.968	2741.5
1015.184	2719.5
1015.401	2612.5
1015.617	2613.5
1015.833	2559.5
1016.049	2520.5
1016.266	2506.5
1016.482	2494.5
1016.698	2390.5
1016.914	2442.5
1017.13	2393.5
1017.346	2380.5
1017.562	2401.5
1017.778	2343.5
1017.993	2325.5
1018.209	2363.5
1018.425	2334.5
1018.641	2285.5
1018.856	2236.5
1019.072	2298.5
1019.288	2354.5
1019.503	2290.5
1019.719	2159.5
1019.934	2211.5
1020.149	2247.5
1020.365	2177.5
1020.58	2103.5
1020.795	2104.5
1021.011	1998.5
1021.226	1984.5
1021.441	1938.5
1021.656	1888.5
1021.871	1776.5
1022.086	1765.5
1022.301	1782.5
1022.516	1731.5
1022.731	1739.5
1022.946	1668.5
1023.16	1618.5
1023.375	1588.5
1023.59	1561.5
1023.804	1483.5
1024.019	1586.5
1024.234	1426.5
1024.448	1436.5
1024.663	1365.5
1024.877	1369.5
1025.092	1398.5
1025.306	1383.5
1025.52	1274.5
1025.734	1316.5
1025.949	1237.5
1026.163	1205.5
1026.377	1147.5
1026.591	1185.5
1026.805	1111.5
1027.019	1082.5
1027.233	1065.5
1027.447	994.5
1027.661	1101.5
1027.875	1016.5
1028.088	1023.5
1028.302	937.5
1028.516	926.5
1028.73	915.5
1028.943	890.5
1029.157	823.5
1029.37	787.5
1029.584	-2.5
1029.797	-2.5
1030.011	-0.5
1030.224	-3.5
