Data from QEP037381__32__10-27-40-306.txt Node

Date: Fri Apr 28 10:27:40 EDT 2023
User: dcclab
Spectrometer: QEP03738
Trigger mode: 4
Integration Time (sec): 1.000000E1
Scans to average: 1
Electric dark correction enabled: true
Nonlinearity correction enabled: false
Boxcar width: 0
XAxis mode: Wavelengths
Number of Pixels in Spectrum: 1044
>>>>>Begin Spectral Data<<<<<
784.041	13
784.3	0
784.558	-4
784.817	-3
785.075	64938
785.334	13074
785.592	6825
785.851	4799
786.109	3685
786.368	2906
786.626	2348
786.884	1965
787.143	1648
787.401	1375
787.659	1234
787.917	1072
788.175	993
788.433	885
788.691	799
788.949	735
789.207	699
789.465	601
789.723	600
789.98	568
790.238	584
790.496	547
790.753	545
791.011	584
791.268	532
791.526	509
791.783	525
792.041	525
792.298	433
792.556	490
792.813	456
793.07	462
793.327	455
793.584	518
793.841	455
794.099	461
794.356	533
794.613	422
794.869	485
795.126	417
795.383	423
795.64	450
795.897	408
796.153	461
796.41	437
796.667	424
796.923	429
797.18	433
797.436	467
797.693	426
797.949	487
798.206	520
798.462	443
798.718	483
798.974	466
799.231	510
799.487	512
799.743	527
799.999	550
800.255	554
800.511	551
800.767	584
801.023	584
801.279	632
801.534	698
801.79	767
802.046	825
802.302	1029
802.557	1190
802.813	1589
803.068	2066
803.324	2945
803.579	4207
803.835	5859
804.09	8007
804.345	10395
804.601	12630
804.856	14843
805.111	16418
805.366	17530
805.621	18277
805.876	18846
806.131	19284
806.386	19490
806.641	19889
806.896	20127
807.151	20580
807.406	20818
807.661	21198
807.915	21614
808.17	21960
808.425	22150
808.679	22324
808.934	22765
809.188	22817
809.443	23250
809.697	23460
809.951	23658
810.206	23895
810.46	24180
810.714	24300
810.968	24705
811.223	24668
811.477	24973
811.731	25164
811.985	25290
812.239	25471
812.493	25645
812.747	25719
813	25789
813.254	25915
813.508	26279
813.762	26280
814.015	26412
814.269	26626
814.522	26896
814.776	27053
815.03	27348
815.283	27818
815.536	28220
815.79	28693
816.043	29084
816.296	29442
816.55	29769
816.803	30191
817.056	30717
817.309	30953
817.562	31278
817.815	31565
818.068	31950
818.321	32511
818.574	32716
818.827	33240
819.079	33804
819.332	34388
819.585	34777
819.838	35307
820.09	35601
820.343	35814
820.595	36179
820.848	36380
821.1	36507
821.353	36403
821.605	36423
821.857	36548
822.11	36344
822.362	36354
822.614	36238
822.866	36464
823.118	36295
823.37	36525
823.622	36693
823.874	36840
824.126	36945
824.378	36858
824.63	37175
824.882	37348
825.134	37380
825.385	37353
825.637	37286
825.888	37202
826.14	37141
826.392	37013
826.643	36884
826.895	36747
827.146	36755
827.397	36623
827.649	36672
827.9	36597
828.151	36696
828.402	36770
828.653	36788
828.905	37033
829.156	37246
829.407	37161
829.658	37404
829.909	37364
830.159	37256
830.41	37059
830.661	36746
830.912	36589
831.162	36506
831.413	36469
831.664	36527
831.914	36508
832.165	36493
832.415	36533
832.666	36524
832.916	36588
833.167	36572
833.417	36458
833.667	36362
833.917	36316
834.168	36156
834.418	36229
834.668	36052
834.918	36004
835.168	35801
835.418	35720
835.668	35379
835.918	35509
836.167	35490
836.417	35363
836.667	35471
836.917	35370
837.166	35304
837.416	35382
837.666	35297
837.915	35313
838.165	35218
838.414	35232
838.663	35230
838.913	35176
839.162	34994
839.411	35129
839.661	35074
839.91	34881
840.159	34807
840.408	34962
840.657	34888
840.906	35035
841.155	35006
841.404	35004
841.653	34940
841.902	34935
842.15	35155
842.399	35175
842.648	35029
842.897	35022
843.145	34647
843.394	34662
843.642	34476
843.891	34256
844.139	34164
844.388	33928
844.636	33869
844.884	33746
845.133	33819
845.381	33803
845.629	33724
845.877	33787
846.125	33701
846.373	33688
846.621	33550
846.869	33567
847.117	33316
847.365	33277
847.613	33120
847.861	33087
848.108	33078
848.356	33059
848.604	32951
848.851	33045
849.099	33006
849.346	33234
849.594	33282
849.841	33381
850.089	33455
850.336	33548
850.583	33578
850.831	33311
851.078	33149
851.325	33086
851.572	33064
851.819	32610
852.066	32263
852.313	31854
852.56	31791
852.807	31661
853.054	31502
853.301	31543
853.548	31392
853.794	31800
854.041	31939
854.288	31998
854.534	32236
854.781	32276
855.028	32107
855.274	32186
855.52	31992
855.767	31910
856.013	32042
856.26	32198
856.506	31556
856.752	31628
856.998	31652
857.244	31659
857.49	31926
857.736	32009
857.982	31947
858.228	31744
858.474	31595
858.72	31439
858.966	31045
859.212	30893
859.458	30538
859.703	30380
859.949	30090
860.195	29958
860.44	29810
860.686	29734
860.931	29636
861.177	29531
861.422	29327
861.667	29219
861.913	29237
862.158	29333
862.403	29467
862.648	29579
862.893	29617
863.138	29494
863.384	29484
863.629	29380
863.873	29391
864.118	29338
864.363	29093
864.608	28946
864.853	28827
865.098	28747
865.342	28647
865.587	28574
865.832	28501
866.076	28409
866.321	28278
866.565	28308
866.81	28287
867.054	28162
867.298	28123
867.543	28025
867.787	28116
868.031	28003
868.275	27990
868.519	27943
868.764	27976
869.008	27849
869.252	27983
869.496	27896
869.739	27848
869.983	27809
870.227	27860
870.471	27807
870.715	28026
870.958	28120
871.202	28051
871.446	28122
871.689	28108
871.933	27967
872.176	28097
872.42	28079
872.663	28014
872.906	27960
873.15	27980
873.393	27971
873.636	27876
873.879	27369
874.122	27085
874.366	26814
874.609	26597
874.852	26453
875.095	26299
875.337	26192
875.58	26095
875.823	26184
876.066	26079
876.309	25993
876.551	25846
876.794	25625
877.037	25863
877.279	25590
877.522	25694
877.764	25732
878.007	25663
878.249	25600
878.491	25538
878.734	25622
878.976	25569
879.218	25264
879.46	25199
879.702	25140
879.945	24983
880.187	24603
880.429	24525
880.671	24407
880.912	24328
881.154	24291
881.396	24229
881.638	24310
881.88	24345
882.121	24246
882.363	24127
882.605	24232
882.846	24235
883.088	24054
883.329	24171
883.571	24158
883.812	24373
884.053	24724
884.295	25192
884.536	25553
884.777	25228
885.018	25135
885.259	24994
885.5	24821
885.742	25028
885.982	24869
886.223	24557
886.464	24366
886.705	24249
886.946	24004
887.187	23679
887.428	23494
887.668	23036
887.909	22776
888.15	22581
888.39	22420
888.631	22346
888.871	22167
889.111	21881
889.352	21881
889.592	21708
889.833	21472
890.073	21264
890.313	21275
890.553	20914
890.793	21033
891.033	20974
891.273	20871
891.513	20768
891.753	20724
891.993	20731
892.233	20809
892.473	20934
892.713	20771
892.952	20843
893.192	20814
893.432	20774
893.671	20821
893.911	20726
894.15	20590
894.39	20367
894.629	20307
894.869	20221
895.108	20036
895.347	19929
895.587	19962
895.826	19823
896.065	19790
896.304	19827
896.543	19827
896.782	19700
897.021	19640
897.26	19666
897.499	19659
897.738	19646
897.977	19370
898.216	19336
898.454	19069
898.693	18957
898.932	18982
899.17	18895
899.409	18851
899.647	18856
899.886	18901
900.124	18909
900.363	18895
900.601	18938
900.839	18937
901.078	19014
901.316	19102
901.554	19209
901.792	19175
902.03	19165
902.268	19102
902.506	19114
902.744	19018
902.982	18851
903.22	18731
903.458	18458
903.695	18184
903.933	18085
904.171	17776
904.409	17460
904.646	17261
904.884	17064
905.121	16976
905.359	16708
905.596	16624
905.833	16464
906.071	16434
906.308	16411
906.545	16380
906.783	16299
907.02	16367
907.257	16304
907.494	16299
907.731	16198
907.968	16099
908.205	16054
908.442	16022
908.679	15884
908.915	15794
909.152	15672
909.389	15471
909.626	15484
909.862	15275
910.099	15329
910.335	15182
910.572	15101
910.808	15085
911.045	15113
911.281	14955
911.518	15049
911.754	14789
911.99	14669
912.226	14626
912.463	14603
912.699	14503
912.935	14358
913.171	14318
913.407	14162
913.643	14023
913.879	13960
914.114	13858
914.35	13695
914.586	13633
914.822	13492
915.057	13497
915.293	13327
915.529	13284
915.764	13294
916	13332
916.235	13257
916.471	13242
916.706	13187
916.941	13142
917.177	13116
917.412	13164
917.647	13065
917.882	13047
918.117	13116
918.352	12997
918.588	13014
918.823	12811
919.057	12755
919.292	12512
919.527	12576
919.762	12327
919.997	12304
920.232	12130
920.466	12132
920.701	11840
920.935	11897
921.17	11844
921.405	11740
921.639	11766
921.873	11640
922.108	11667
922.342	11706
922.576	11582
922.811	11536
923.045	11557
923.279	11462
923.513	11325
923.747	11410
923.981	11299
924.215	11180
924.449	11159
924.683	11094
924.917	10968
925.151	11017
925.385	10943
925.618	10941
925.852	10881
926.086	10799
926.319	10899
926.553	10881
926.786	10769
927.02	10782
927.253	10783
927.486	10819
927.72	10682
927.953	10783
928.186	10737
928.42	10670
928.653	10583
928.886	10483
929.119	10527
929.352	10447
929.585	10443
929.818	10399
930.051	10280
930.284	10174
930.516	10022
930.749	10002
930.982	9970
931.215	10014
931.447	9881
931.68	9835
931.912	9846
932.145	9847
932.377	9855
932.61	9967
932.842	9756
933.074	9846
933.307	9783
933.539	9947
933.771	9864
934.003	9787
934.236	9902
934.468	9836
934.7	9735
934.932	9738
935.164	9664
935.395	9672
935.627	9638
935.859	9590
936.091	9547
936.323	9534
936.554	9460
936.786	9451
937.017	9340
937.249	9425
937.481	9366
937.712	9369
937.943	9341
938.175	9340
938.406	9327
938.637	9355
938.869	9238
939.1	9303
939.331	9218
939.562	9268
939.793	9215
940.024	9132
940.255	9105
940.486	9041
940.717	9022
940.948	9038
941.179	8949
941.409	8957
941.64	8901
941.871	8955
942.102	8865
942.332	8850
942.563	8983
942.793	8944
943.024	8900
943.254	8856
943.484	8933
943.715	8990
943.945	8878
944.175	8821
944.405	8845
944.636	8826
944.866	8794
945.096	8867
945.326	8718
945.556	8721
945.786	8694
946.016	8696
946.245	8506
946.475	8547
946.705	8437
946.935	8349
947.164	8458
947.394	8276
947.624	8373
947.853	8337
948.083	8245
948.312	8196
948.542	8174
948.771	8137
949	8134
949.23	8140
949.459	8121
949.688	8176
949.917	8130
950.146	8113
950.375	8183
950.604	8057
950.833	8145
951.062	8112
951.291	8071
951.52	8019
951.749	8048
951.978	7987
952.206	7909
952.435	7915
952.664	7957
952.892	7941
953.121	7862
953.349	7839
953.578	7778
953.806	7770
954.035	7691
954.263	7708
954.491	7639
954.719	7572
954.948	7580
955.176	7560
955.404	7415
955.632	7498
955.86	7527
956.088	7445
956.316	7451
956.544	7445
956.772	7401
956.999	7320
957.227	7324
957.455	7211
957.683	7182
957.91	7089
958.138	7087
958.365	7067
958.593	7032
958.82	7043
959.048	7016
959.275	6995
959.502	6964
959.73	6948
959.957	7000
960.184	7017
960.411	6904
960.638	6966
960.865	6895
961.092	6929
961.319	6805
961.546	6911
961.773	6912
962	6834
962.227	6869
962.454	6800
962.68	6733
962.907	6771
963.134	6676
963.36	6628
963.587	6721
963.813	6567
964.04	6619
964.266	6429
964.493	6537
964.719	6502
964.945	6442
965.171	6317
965.398	6346
965.624	6378
965.85	6242
966.076	6198
966.302	6255
966.528	6209
966.754	6222
966.98	6174
967.206	6105
967.431	6094
967.657	6158
967.883	6153
968.109	6085
968.334	6049
968.56	6016
968.785	5991
969.011	5938
969.236	6020
969.462	5903
969.687	5964
969.912	5983
970.138	5963
970.363	5845
970.588	5883
970.813	5827
971.038	5845
971.263	5823
971.488	5792
971.713	5856
971.938	5724
972.163	5617
972.388	5676
972.613	5654
972.838	5643
973.062	5597
973.287	5566
973.512	5503
973.736	5532
973.961	5481
974.185	5437
974.41	5474
974.634	5289
974.858	5308
975.083	5362
975.307	5323
975.531	5249
975.755	5226
975.98	5205
976.204	5110
976.428	5051
976.652	5083
976.876	5114
977.1	5081
977.324	4993
977.547	5106
977.771	5002
977.995	5009
978.219	4952
978.442	5056
978.666	5041
978.89	4962
979.113	4906
979.337	4950
979.56	4875
979.783	4973
980.007	4858
980.23	4836
980.453	4786
980.677	4828
980.9	4823
981.123	4640
981.346	4724
981.569	4729
981.792	4699
982.015	4678
982.238	4626
982.461	4640
982.684	4566
982.907	4515
983.129	4498
983.352	4562
983.575	4495
983.797	4441
984.02	4434
984.242	4407
984.465	4362
984.687	4359
984.91	4399
985.132	4365
985.354	4348
985.577	4280
985.799	4323
986.021	4218
986.243	4217
986.465	4205
986.687	4287
986.909	4288
987.131	4196
987.353	4145
987.575	4183
987.797	4134
988.019	4044
988.241	4108
988.462	4101
988.684	4126
988.906	4143
989.127	4141
989.349	4030
989.57	4041
989.792	4068
990.013	4045
990.234	4078
990.456	4095
990.677	4042
990.898	3939
991.119	3968
991.341	3958
991.562	3855
991.783	3899
992.004	3805
992.225	3825
992.446	3826
992.667	3730
992.887	3765
993.108	3700
993.329	3772
993.55	3741
993.77	3594
993.991	3615
994.212	3626
994.432	3595
994.653	3651
994.873	3573
995.093	3445
995.314	3532
995.534	3571
995.754	3562
995.975	3600
996.195	3479
996.415	3503
996.635	3486
996.855	3492
997.075	3461
997.295	3472
997.515	3409
997.735	3503
997.955	3471
998.174	3429
998.394	3422
998.614	3468
998.834	3397
999.053	3478
999.273	3372
999.492	3430
999.712	3351
999.931	3301
1000.151	3367
1000.37	3280
1000.589	3344
1000.809	3198
1001.028	3329
1001.247	3215
1001.466	3147
1001.685	3239
1001.904	3176
1002.123	3113
1002.342	3121
1002.561	3108
1002.78	3090
1002.999	3112
1003.218	3062
1003.436	3062
1003.655	3093
1003.874	3031
1004.092	2984
1004.311	3020
1004.53	2976
1004.748	3037
1004.966	2964
1005.185	2993
1005.403	2961
1005.622	2952
1005.84	3033
1006.058	2925
1006.276	2960
1006.494	3325
1006.712	2951
1006.931	3004
1007.149	2933
1007.367	2925
1007.584	2985
1007.802	3004
1008.02	2994
1008.238	3066
1008.456	3053
1008.673	2998
1008.891	3085
1009.109	3145
1009.326	3171
1009.544	3277
1009.761	3267
1009.979	3424
1010.196	3501
1010.413	3699
1010.631	3815
1010.848	3873
1011.065	3964
1011.282	3828
1011.5	3812
1011.717	3849
1011.934	3786
1012.151	3751
1012.368	3801
1012.585	3696
1012.801	3776
1013.018	3761
1013.235	3722
1013.452	3781
1013.669	3755
1013.885	3787
1014.102	3883
1014.318	3800
1014.535	3749
1014.751	3771
1014.968	3740
1015.184	3727
1015.401	3597
1015.617	3635
1015.833	3524
1016.049	3506
1016.266	3476
1016.482	3425
1016.698	3317
1016.914	3345
1017.13	3311
1017.346	3294
1017.562	3353
1017.778	3264
1017.993	3212
1018.209	3290
1018.425	3212
1018.641	3184
1018.856	3151
1019.072	3197
1019.288	3232
1019.503	3141
1019.719	3053
1019.934	3049
1020.149	3131
1020.365	3024
1020.58	2944
1020.795	2913
1021.011	2812
1021.226	2793
1021.441	2737
1021.656	2638
1021.871	2528
1022.086	2527
1022.301	2484
1022.516	2437
1022.731	2477
1022.946	2351
1023.16	2300
1023.375	2247
1023.59	2226
1023.804	2159
1024.019	2177
1024.234	2045
1024.448	2041
1024.663	1974
1024.877	1977
1025.092	1941
1025.306	1926
1025.52	1802
1025.734	1863
1025.949	1777
1026.163	1722
1026.377	1653
1026.591	1669
1026.805	1585
1027.019	1576
1027.233	1488
1027.447	1452
1027.661	1542
1027.875	1492
1028.088	1461
1028.302	1363
1028.516	1302
1028.73	1291
1028.943	1262
1029.157	1185
1029.37	1110
1029.584	-2
1029.797	0
1030.011	-2
1030.224	-2
