Data from QEP037381__9__10-23-50-304.txt Node

Date: Fri Apr 28 10:23:50 EDT 2023
User: dcclab
Spectrometer: QEP03738
Trigger mode: 4
Integration Time (sec): 1.000000E1
Scans to average: 1
Electric dark correction enabled: true
Nonlinearity correction enabled: false
Boxcar width: 0
XAxis mode: Wavelengths
Number of Pixels in Spectrum: 1044
>>>>>Begin Spectral Data<<<<<
784.041	13.5
784.3	1.5
784.558	0.5
784.817	-7.5
785.075	69711.5
785.334	13994.5
785.592	7281.5
785.851	5136.5
786.109	3925.5
786.368	3091.5
786.626	2507.5
786.884	2088.5
787.143	1776.5
787.401	1483.5
787.659	1353.5
787.917	1127.5
788.175	1055.5
788.433	907.5
788.691	841.5
788.949	764.5
789.207	733.5
789.465	640.5
789.723	616.5
789.98	560.5
790.238	601.5
790.496	554.5
790.753	525.5
791.011	593.5
791.268	515.5
791.526	501.5
791.783	525.5
792.041	499.5
792.298	415.5
792.556	498.5
792.813	479.5
793.07	450.5
793.327	438.5
793.584	516.5
793.841	433.5
794.099	441.5
794.356	525.5
794.613	417.5
794.869	474.5
795.126	420.5
795.383	415.5
795.64	432.5
795.897	388.5
796.153	443.5
796.41	427.5
796.667	419.5
796.923	439.5
797.18	421.5
797.436	459.5
797.693	423.5
797.949	489.5
798.206	502.5
798.462	415.5
798.718	487.5
798.974	478.5
799.231	498.5
799.487	483.5
799.743	493.5
799.999	535.5
800.255	529.5
800.511	519.5
800.767	550.5
801.023	568.5
801.279	595.5
801.534	664.5
801.79	735.5
802.046	763.5
802.302	966.5
802.557	1136.5
802.813	1501.5
803.068	1993.5
803.324	2838.5
803.579	3984.5
803.835	5421.5
804.09	7326.5
804.345	9380.5
804.601	11299.5
804.856	12982.5
805.111	14373.5
805.366	15330.5
805.621	16086.5
805.876	16542.5
806.131	16828.5
806.386	17090.5
806.641	17323.5
806.896	17619.5
807.151	17789.5
807.406	18212.5
807.661	18415.5
807.915	18813.5
808.17	19066.5
808.425	19425.5
808.679	19464.5
808.934	19706.5
809.188	19875.5
809.443	20227.5
809.697	20324.5
809.951	20521.5
810.206	20578.5
810.46	20867.5
810.714	21029.5
810.968	21257.5
811.223	21395.5
811.477	21485.5
811.731	21689.5
811.985	21759.5
812.239	21746.5
812.493	21964.5
812.747	22008.5
813	22028.5
813.254	22108.5
813.508	22342.5
813.762	22312.5
814.015	22395.5
814.269	22614.5
814.522	22729.5
814.776	22974.5
815.03	23294.5
815.283	23497.5
815.536	23854.5
815.79	24165.5
816.043	24504.5
816.296	24649.5
816.55	25146.5
816.803	25385.5
817.056	25810.5
817.309	26019.5
817.562	26092.5
817.815	26508.5
818.068	26704.5
818.321	26933.5
818.574	27299.5
818.827	27710.5
819.079	28041.5
819.332	28643.5
819.585	28949.5
819.838	29325.5
820.09	29447.5
820.343	29741.5
820.595	29626.5
820.848	30020.5
821.1	30170.5
821.353	30111.5
821.605	30019.5
821.857	30100.5
822.11	29857.5
822.362	29901.5
822.614	29902.5
822.866	29944.5
823.118	29942.5
823.37	29908.5
823.622	30023.5
823.874	30152.5
824.126	30350.5
824.378	30194.5
824.63	30396.5
824.882	30492.5
825.134	30475.5
825.385	30493.5
825.637	30339.5
825.888	30229.5
826.14	30212.5
826.392	30052.5
826.643	30048.5
826.895	29800.5
827.146	29617.5
827.397	29544.5
827.649	29630.5
827.9	29533.5
828.151	29587.5
828.402	29624.5
828.653	29680.5
828.905	29852.5
829.156	29788.5
829.407	29850.5
829.658	30012.5
829.909	30127.5
830.159	30243.5
830.41	30019.5
830.661	29796.5
830.912	29401.5
831.162	29475.5
831.413	29355.5
831.664	29498.5
831.914	29176.5
832.165	29343.5
832.415	29170.5
832.666	29264.5
832.916	29346.5
833.167	29267.5
833.417	29450.5
833.667	29230.5
833.917	29154.5
834.168	29042.5
834.418	29005.5
834.668	28694.5
834.918	28660.5
835.168	28618.5
835.418	28424.5
835.668	28348.5
835.918	28234.5
836.167	28149.5
836.417	28058.5
836.667	28004.5
836.917	28166.5
837.166	28101.5
837.416	28119.5
837.666	28140.5
837.915	28099.5
838.165	27909.5
838.414	27919.5
838.663	27862.5
838.913	27860.5
839.162	27768.5
839.411	27783.5
839.661	27794.5
839.91	27620.5
840.159	27600.5
840.408	27691.5
840.657	27728.5
840.906	27782.5
841.155	27678.5
841.404	27471.5
841.653	27617.5
841.902	27724.5
842.15	27788.5
842.399	27824.5
842.648	27844.5
842.897	27612.5
843.145	27597.5
843.394	27264.5
843.642	27035.5
843.891	26862.5
844.139	26744.5
844.388	26535.5
844.636	26387.5
844.884	26407.5
845.133	26388.5
845.381	26432.5
845.629	26495.5
845.877	26454.5
846.125	26427.5
846.373	26309.5
846.621	26198.5
846.869	26225.5
847.117	26022.5
847.365	25832.5
847.613	25831.5
847.861	25722.5
848.108	25679.5
848.356	25804.5
848.604	25698.5
848.851	25747.5
849.099	25723.5
849.346	25786.5
849.594	25786.5
849.841	25977.5
850.089	25864.5
850.336	25953.5
850.583	25883.5
850.831	25783.5
851.078	25631.5
851.325	25579.5
851.572	25561.5
851.819	25336.5
852.066	24934.5
852.313	24561.5
852.56	24455.5
852.807	24323.5
853.054	24276.5
853.301	24226.5
853.548	24297.5
853.794	24572.5
854.041	24481.5
854.288	24709.5
854.534	24898.5
854.781	24876.5
855.028	24792.5
855.274	24800.5
855.52	24745.5
855.767	24805.5
856.013	24953.5
856.26	25117.5
856.506	24585.5
856.752	24274.5
856.998	24317.5
857.244	24382.5
857.49	24580.5
857.736	24712.5
857.982	24615.5
858.228	24405.5
858.474	24248.5
858.72	23966.5
858.966	23744.5
859.212	23474.5
859.458	23324.5
859.703	23010.5
859.949	22869.5
860.195	22678.5
860.44	22602.5
860.686	22625.5
860.931	22657.5
861.177	22429.5
861.422	22319.5
861.667	22085.5
861.913	22085.5
862.158	22014.5
862.403	22118.5
862.648	22122.5
862.893	22214.5
863.138	22149.5
863.384	21966.5
863.629	22018.5
863.873	21896.5
864.118	21904.5
864.363	21690.5
864.608	21583.5
864.853	21578.5
865.098	21450.5
865.342	21318.5
865.587	21224.5
865.832	21254.5
866.076	21134.5
866.321	20979.5
866.565	21053.5
866.81	21041.5
867.054	20840.5
867.298	20856.5
867.543	20791.5
867.787	20820.5
868.031	20777.5
868.275	20734.5
868.519	20867.5
868.764	20811.5
869.008	20735.5
869.252	20764.5
869.496	20680.5
869.739	20640.5
869.983	20689.5
870.227	20703.5
870.471	20689.5
870.715	20826.5
870.958	20841.5
871.202	20993.5
871.446	20882.5
871.689	20994.5
871.933	20909.5
872.176	20971.5
872.42	20911.5
872.663	20821.5
872.906	20922.5
873.15	20973.5
873.393	21089.5
873.636	21045.5
873.879	20713.5
874.122	20318.5
874.366	20028.5
874.609	19823.5
874.852	19540.5
875.095	19499.5
875.337	19333.5
875.58	19273.5
875.823	19218.5
876.066	19133.5
876.309	19024.5
876.551	18896.5
876.794	18764.5
877.037	18827.5
877.279	18757.5
877.522	18719.5
877.764	18799.5
878.007	18655.5
878.249	18646.5
878.491	18523.5
878.734	18554.5
878.976	18559.5
879.218	18274.5
879.46	18217.5
879.702	18095.5
879.945	17938.5
880.187	17755.5
880.429	17644.5
880.671	17575.5
880.912	17489.5
881.154	17405.5
881.396	17338.5
881.638	17320.5
881.88	17348.5
882.121	17270.5
882.363	17233.5
882.605	17326.5
882.846	17360.5
883.088	17401.5
883.329	17371.5
883.571	17623.5
883.812	18063.5
884.053	18504.5
884.295	18930.5
884.536	19257.5
884.777	19112.5
885.018	18815.5
885.259	18694.5
885.5	18502.5
885.742	18564.5
885.982	18214.5
886.223	18074.5
886.464	17929.5
886.705	17691.5
886.946	17416.5
887.187	16999.5
887.428	16828.5
887.668	16520.5
887.909	16286.5
888.15	15940.5
888.39	15873.5
888.631	15800.5
888.871	15611.5
889.111	15479.5
889.352	15286.5
889.592	15248.5
889.833	15081.5
890.073	15031.5
890.313	15022.5
890.553	14779.5
890.793	14591.5
891.033	14671.5
891.273	14659.5
891.513	14615.5
891.753	14462.5
891.993	14348.5
892.233	14499.5
892.473	14607.5
892.713	14439.5
892.952	14426.5
893.192	14536.5
893.432	14407.5
893.671	14387.5
893.911	14358.5
894.15	14254.5
894.39	14073.5
894.629	14039.5
894.869	13985.5
895.108	13783.5
895.347	13711.5
895.587	13746.5
895.826	13707.5
896.065	13663.5
896.304	13672.5
896.543	13704.5
896.782	13500.5
897.021	13572.5
897.26	13540.5
897.499	13565.5
897.738	13435.5
897.977	13315.5
898.216	13291.5
898.454	13214.5
898.693	13125.5
898.932	13163.5
899.17	13059.5
899.409	12971.5
899.647	12961.5
899.886	12909.5
900.124	12961.5
900.363	13017.5
900.601	13034.5
900.839	13087.5
901.078	13152.5
901.316	13239.5
901.554	13232.5
901.792	13380.5
902.03	13401.5
902.268	13255.5
902.506	13279.5
902.744	13288.5
902.982	13196.5
903.22	12837.5
903.458	12595.5
903.695	12380.5
903.933	12288.5
904.171	12078.5
904.409	11850.5
904.646	11751.5
904.884	11555.5
905.121	11492.5
905.359	11369.5
905.596	11224.5
905.833	11121.5
906.071	11097.5
906.308	11173.5
906.545	11050.5
906.783	11007.5
907.02	11000.5
907.257	10996.5
907.494	10950.5
907.731	10932.5
907.968	10841.5
908.205	10686.5
908.442	10772.5
908.679	10684.5
908.915	10583.5
909.152	10466.5
909.389	10406.5
909.626	10320.5
909.862	10252.5
910.099	10244.5
910.335	10237.5
910.572	10099.5
910.808	10107.5
911.045	10041.5
911.281	9965.5
911.518	9951.5
911.754	9899.5
911.99	9845.5
912.226	9746.5
912.463	9660.5
912.699	9606.5
912.935	9557.5
913.171	9429.5
913.407	9420.5
913.643	9353.5
913.879	9278.5
914.114	9123.5
914.35	9102.5
914.586	9015.5
914.822	8963.5
915.057	8962.5
915.293	8776.5
915.529	8736.5
915.764	8835.5
916	8799.5
916.235	8748.5
916.471	8720.5
916.706	8693.5
916.941	8666.5
917.177	8673.5
917.412	8652.5
917.647	8675.5
917.882	8570.5
918.117	8674.5
918.352	8594.5
918.588	8585.5
918.823	8422.5
919.057	8386.5
919.292	8184.5
919.527	8224.5
919.762	8113.5
919.997	8179.5
920.232	7969.5
920.466	7959.5
920.701	7774.5
920.935	7828.5
921.17	7714.5
921.405	7712.5
921.639	7740.5
921.873	7630.5
922.108	7621.5
922.342	7613.5
922.576	7467.5
922.811	7467.5
923.045	7555.5
923.279	7591.5
923.513	7356.5
923.747	7426.5
923.981	7346.5
924.215	7315.5
924.449	7264.5
924.683	7196.5
924.917	7128.5
925.151	7114.5
925.385	7201.5
925.618	7102.5
925.852	7134.5
926.086	7024.5
926.319	7054.5
926.553	7016.5
926.786	7043.5
927.02	7019.5
927.253	7005.5
927.486	7042.5
927.72	6915.5
927.953	6985.5
928.186	6921.5
928.42	6891.5
928.653	6861.5
928.886	6756.5
929.119	6842.5
929.352	6821.5
929.585	6739.5
929.818	6548.5
930.051	6650.5
930.284	6629.5
930.516	6447.5
930.749	6388.5
930.982	6468.5
931.215	6371.5
931.447	6297.5
931.68	6312.5
931.912	6308.5
932.145	6275.5
932.377	6266.5
932.61	6437.5
932.842	6222.5
933.074	6367.5
933.307	6178.5
933.539	6339.5
933.771	6316.5
934.003	6282.5
934.236	6331.5
934.468	6322.5
934.7	6222.5
934.932	6268.5
935.164	6264.5
935.395	6165.5
935.627	6174.5
935.859	6161.5
936.091	6035.5
936.323	6124.5
936.554	6111.5
936.786	6043.5
937.017	6005.5
937.249	6016.5
937.481	5947.5
937.712	6003.5
937.943	5941.5
938.175	5912.5
938.406	5915.5
938.637	5947.5
938.869	5840.5
939.1	5945.5
939.331	5808.5
939.562	5851.5
939.793	5816.5
940.024	5829.5
940.255	5787.5
940.486	5764.5
940.717	5674.5
940.948	5681.5
941.179	5624.5
941.409	5693.5
941.64	5614.5
941.871	5669.5
942.102	5629.5
942.332	5635.5
942.563	5661.5
942.793	5595.5
943.024	5606.5
943.254	5579.5
943.484	5632.5
943.715	5656.5
943.945	5624.5
944.175	5547.5
944.405	5509.5
944.636	5536.5
944.866	5503.5
945.096	5550.5
945.326	5458.5
945.556	5512.5
945.786	5524.5
946.016	5411.5
946.245	5356.5
946.475	5352.5
946.705	5318.5
946.935	5302.5
947.164	5282.5
947.394	5209.5
947.624	5192.5
947.853	5277.5
948.083	5172.5
948.312	5138.5
948.542	5112.5
948.771	5044.5
949	5088.5
949.23	5102.5
949.459	5094.5
949.688	5129.5
949.917	5061.5
950.146	5101.5
950.375	5155.5
950.604	4992.5
950.833	5103.5
951.062	5110.5
951.291	4999.5
951.52	4968.5
951.749	5002.5
951.978	4949.5
952.206	4890.5
952.435	4948.5
952.664	4964.5
952.892	4963.5
953.121	4880.5
953.349	4883.5
953.578	4910.5
953.806	4813.5
954.035	4747.5
954.263	4781.5
954.491	4755.5
954.719	4793.5
954.948	4748.5
955.176	4693.5
955.404	4604.5
955.632	4651.5
955.86	4611.5
956.088	4633.5
956.316	4630.5
956.544	4571.5
956.772	4558.5
956.999	4469.5
957.227	4585.5
957.455	4482.5
957.683	4467.5
957.91	4431.5
958.138	4391.5
958.365	4404.5
958.593	4346.5
958.82	4268.5
959.048	4360.5
959.275	4380.5
959.502	4273.5
959.73	4321.5
959.957	4350.5
960.184	4333.5
960.411	4296.5
960.638	4365.5
960.865	4228.5
961.092	4284.5
961.319	4194.5
961.546	4261.5
961.773	4271.5
962	4158.5
962.227	4228.5
962.454	4217.5
962.68	4158.5
962.907	4143.5
963.134	4125.5
963.36	4123.5
963.587	4077.5
963.813	4021.5
964.04	4059.5
964.266	3966.5
964.493	4022.5
964.719	4064.5
964.945	4009.5
965.171	3905.5
965.398	3943.5
965.624	3918.5
965.85	3830.5
966.076	3850.5
966.302	3865.5
966.528	3871.5
966.754	3807.5
966.98	3865.5
967.206	3868.5
967.431	3725.5
967.657	3832.5
967.883	3794.5
968.109	3771.5
968.334	3712.5
968.56	3755.5
968.785	3688.5
969.011	3625.5
969.236	3733.5
969.462	3627.5
969.687	3688.5
969.912	3689.5
970.138	3693.5
970.363	3656.5
970.588	3634.5
970.813	3594.5
971.038	3569.5
971.263	3603.5
971.488	3597.5
971.713	3599.5
971.938	3535.5
972.163	3484.5
972.388	3503.5
972.613	3435.5
972.838	3468.5
973.062	3484.5
973.287	3440.5
973.512	3385.5
973.736	3366.5
973.961	3384.5
974.185	3343.5
974.41	3334.5
974.634	3236.5
974.858	3279.5
975.083	3273.5
975.307	3307.5
975.531	3248.5
975.755	3140.5
975.98	3166.5
976.204	3099.5
976.428	3115.5
976.652	3130.5
976.876	3077.5
977.1	3154.5
977.324	3101.5
977.547	3143.5
977.771	3111.5
977.995	3106.5
978.219	2991.5
978.442	3126.5
978.666	3074.5
978.89	3030.5
979.113	3015.5
979.337	3067.5
979.56	2952.5
979.783	3061.5
980.007	2951.5
980.23	2953.5
980.453	2965.5
980.677	2965.5
980.9	2969.5
981.123	2851.5
981.346	2917.5
981.569	2918.5
981.792	2932.5
982.015	2851.5
982.238	2801.5
982.461	2804.5
982.684	2778.5
982.907	2763.5
983.129	2753.5
983.352	2802.5
983.575	2760.5
983.797	2720.5
984.02	2720.5
984.242	2734.5
984.465	2701.5
984.687	2738.5
984.91	2732.5
985.132	2718.5
985.354	2736.5
985.577	2705.5
985.799	2696.5
986.021	2598.5
986.243	2614.5
986.465	2606.5
986.687	2653.5
986.909	2677.5
987.131	2630.5
987.353	2579.5
987.575	2625.5
987.797	2576.5
988.019	2516.5
988.241	2531.5
988.462	2532.5
988.684	2555.5
988.906	2585.5
989.127	2623.5
989.349	2496.5
989.57	2534.5
989.792	2557.5
990.013	2543.5
990.234	2536.5
990.456	2559.5
990.677	2543.5
990.898	2475.5
991.119	2468.5
991.341	2526.5
991.562	2404.5
991.783	2468.5
992.004	2387.5
992.225	2369.5
992.446	2443.5
992.667	2311.5
992.887	2399.5
993.108	2307.5
993.329	2407.5
993.55	2362.5
993.77	2251.5
993.991	2283.5
994.212	2321.5
994.432	2259.5
994.653	2269.5
994.873	2292.5
995.093	2163.5
995.314	2186.5
995.534	2289.5
995.754	2293.5
995.975	2300.5
996.195	2221.5
996.415	2260.5
996.635	2221.5
996.855	2226.5
997.075	2206.5
997.295	2203.5
997.515	2187.5
997.735	2252.5
997.955	2224.5
998.174	2211.5
998.394	2153.5
998.614	2197.5
998.834	2157.5
999.053	2250.5
999.273	2182.5
999.492	2223.5
999.712	2181.5
999.931	2135.5
1000.151	2146.5
1000.37	2117.5
1000.589	2164.5
1000.809	2066.5
1001.028	2186.5
1001.247	2101.5
1001.466	2016.5
1001.685	2150.5
1001.904	2074.5
1002.123	2059.5
1002.342	2056.5
1002.561	1982.5
1002.78	2032.5
1002.999	2082.5
1003.218	2026.5
1003.436	1989.5
1003.655	2044.5
1003.874	1947.5
1004.092	1962.5
1004.311	2027.5
1004.53	1985.5
1004.748	2024.5
1004.966	1960.5
1005.185	2043.5
1005.403	2019.5
1005.622	2001.5
1005.84	2055.5
1006.058	1950.5
1006.276	1978.5
1006.494	2312.5
1006.712	1991.5
1006.931	2044.5
1007.149	1918.5
1007.367	1963.5
1007.584	2027.5
1007.802	2053.5
1008.02	2017.5
1008.238	2131.5
1008.456	2123.5
1008.673	1984.5
1008.891	2149.5
1009.109	2127.5
1009.326	2194.5
1009.544	2309.5
1009.761	2289.5
1009.979	2402.5
1010.196	2476.5
1010.413	2634.5
1010.631	2707.5
1010.848	2771.5
1011.065	2825.5
1011.282	2775.5
1011.5	2692.5
1011.717	2769.5
1011.934	2691.5
1012.151	2712.5
1012.368	2710.5
1012.585	2650.5
1012.801	2708.5
1013.018	2683.5
1013.235	2653.5
1013.452	2700.5
1013.669	2714.5
1013.885	2726.5
1014.102	2759.5
1014.318	2716.5
1014.535	2641.5
1014.751	2703.5
1014.968	2703.5
1015.184	2687.5
1015.401	2585.5
1015.617	2600.5
1015.833	2529.5
1016.049	2521.5
1016.266	2436.5
1016.482	2413.5
1016.698	2355.5
1016.914	2419.5
1017.13	2323.5
1017.346	2333.5
1017.562	2400.5
1017.778	2296.5
1017.993	2253.5
1018.209	2314.5
1018.425	2264.5
1018.641	2246.5
1018.856	2188.5
1019.072	2261.5
1019.288	2295.5
1019.503	2206.5
1019.719	2165.5
1019.934	2144.5
1020.149	2217.5
1020.365	2106.5
1020.58	2059.5
1020.795	2072.5
1021.011	2016.5
1021.226	1949.5
1021.441	1923.5
1021.656	1823.5
1021.871	1778.5
1022.086	1728.5
1022.301	1729.5
1022.516	1703.5
1022.731	1724.5
1022.946	1617.5
1023.16	1598.5
1023.375	1539.5
1023.59	1524.5
1023.804	1480.5
1024.019	1564.5
1024.234	1412.5
1024.448	1421.5
1024.663	1336.5
1024.877	1346.5
1025.092	1354.5
1025.306	1334.5
1025.52	1240.5
1025.734	1326.5
1025.949	1228.5
1026.163	1196.5
1026.377	1119.5
1026.591	1138.5
1026.805	1098.5
1027.019	1051.5
1027.233	1021.5
1027.447	987.5
1027.661	1070.5
1027.875	1001.5
1028.088	1010.5
1028.302	951.5
1028.516	891.5
1028.73	870.5
1028.943	877.5
1029.157	817.5
1029.37	768.5
1029.584	-0.5
1029.797	-3.5
1030.011	-3.5
1030.224	-0.5
