Data from QEP037381__27__10-26-50-305.txt Node

Date: Fri Apr 28 10:26:50 EDT 2023
User: dcclab
Spectrometer: QEP03738
Trigger mode: 4
Integration Time (sec): 1.000000E1
Scans to average: 1
Electric dark correction enabled: true
Nonlinearity correction enabled: false
Boxcar width: 0
XAxis mode: Wavelengths
Number of Pixels in Spectrum: 1044
>>>>>Begin Spectral Data<<<<<
784.041	15.25
784.3	-4.75
784.558	-0.75
784.817	-1.75
785.075	60602.25
785.334	12639.25
785.592	6596.25
785.851	4690.25
786.109	3575.25
786.368	2777.25
786.626	2297.25
786.884	1921.25
787.143	1624.25
787.401	1315.25
787.659	1211.25
787.917	1056.25
788.175	989.25
788.433	868.25
788.691	787.25
788.949	727.25
789.207	698.25
789.465	630.25
789.723	607.25
789.98	547.25
790.238	604.25
790.496	559.25
790.753	523.25
791.011	598.25
791.268	508.25
791.526	490.25
791.783	528.25
792.041	508.25
792.298	432.25
792.556	487.25
792.813	477.25
793.07	463.25
793.327	444.25
793.584	525.25
793.841	437.25
794.099	462.25
794.356	539.25
794.613	430.25
794.869	469.25
795.126	429.25
795.383	415.25
795.64	438.25
795.897	402.25
796.153	450.25
796.41	458.25
796.667	429.25
796.923	449.25
797.18	451.25
797.436	461.25
797.693	435.25
797.949	473.25
798.206	525.25
798.462	433.25
798.718	494.25
798.974	464.25
799.231	519.25
799.487	499.25
799.743	510.25
799.999	551.25
800.255	559.25
800.511	567.25
800.767	583.25
801.023	577.25
801.279	625.25
801.534	691.25
801.79	771.25
802.046	825.25
802.302	1033.25
802.557	1223.25
802.813	1617.25
803.068	2114.25
803.324	2999.25
803.579	4250.25
803.835	5909.25
804.09	8059.25
804.345	10383.25
804.601	12639.25
804.856	14617.25
805.111	16313.25
805.366	17412.25
805.621	18170.25
805.876	18689.25
806.131	19124.25
806.386	19485.25
806.641	19638.25
806.896	19891.25
807.151	20322.25
807.406	20557.25
807.661	20919.25
807.915	21313.25
808.17	21692.25
808.425	21913.25
808.679	22175.25
808.934	22410.25
809.188	22732.25
809.443	22972.25
809.697	23278.25
809.951	23438.25
810.206	23556.25
810.46	23838.25
810.714	24095.25
810.968	24230.25
811.223	24408.25
811.477	24611.25
811.731	24889.25
811.985	24964.25
812.239	24997.25
812.493	25200.25
812.747	25306.25
813	25369.25
813.254	25625.25
813.508	25713.25
813.762	25821.25
814.015	25950.25
814.269	26131.25
814.522	26373.25
814.776	26653.25
815.03	26852.25
815.283	27341.25
815.536	27714.25
815.79	28002.25
816.043	28430.25
816.296	28787.25
816.55	29143.25
816.803	29644.25
817.056	29997.25
817.309	30189.25
817.562	30547.25
817.815	30941.25
818.068	31209.25
818.321	31535.25
818.574	31997.25
818.827	32543.25
819.079	32762.25
819.332	33672.25
819.585	34012.25
819.838	34432.25
820.09	34743.25
820.343	34929.25
820.595	34897.25
820.848	35394.25
821.1	35455.25
821.353	35495.25
821.605	35553.25
821.857	35395.25
822.11	35407.25
822.362	35362.25
822.614	35143.25
822.866	35305.25
823.118	35283.25
823.37	35457.25
823.622	35649.25
823.874	35898.25
824.126	35946.25
824.378	36068.25
824.63	36177.25
824.882	36186.25
825.134	36180.25
825.385	36258.25
825.637	35946.25
825.888	35987.25
826.14	36045.25
826.392	35908.25
826.643	35595.25
826.895	35552.25
827.146	35490.25
827.397	35446.25
827.649	35472.25
827.9	35403.25
828.151	35525.25
828.402	35601.25
828.653	35784.25
828.905	35712.25
829.156	35959.25
829.407	35802.25
829.658	36091.25
829.909	36134.25
830.159	36013.25
830.41	35823.25
830.661	35758.25
830.912	35465.25
831.162	35438.25
831.413	35265.25
831.664	35411.25
831.914	35310.25
832.165	35241.25
832.415	35183.25
832.666	35371.25
832.916	35397.25
833.167	35292.25
833.417	35314.25
833.667	35038.25
833.917	35099.25
834.168	34984.25
834.418	34938.25
834.668	34862.25
834.918	34667.25
835.168	34576.25
835.418	34410.25
835.668	34307.25
835.918	34218.25
836.167	34232.25
836.417	34162.25
836.667	34232.25
836.917	34097.25
837.166	34089.25
837.416	34198.25
837.666	34184.25
837.915	34003.25
838.165	34067.25
838.414	33929.25
838.663	33825.25
838.913	33910.25
839.162	33731.25
839.411	33846.25
839.661	33667.25
839.91	33665.25
840.159	33709.25
840.408	33847.25
840.657	33741.25
840.906	33599.25
841.155	33753.25
841.404	33657.25
841.653	33796.25
841.902	33662.25
842.15	33880.25
842.399	33963.25
842.648	34011.25
842.897	33729.25
843.145	33584.25
843.394	33471.25
843.642	33156.25
843.891	32974.25
844.139	32871.25
844.388	32674.25
844.636	32533.25
844.884	32459.25
845.133	32523.25
845.381	32624.25
845.629	32621.25
845.877	32481.25
846.125	32541.25
846.373	32387.25
846.621	32243.25
846.869	32207.25
847.117	32167.25
847.365	31860.25
847.613	31782.25
847.861	31886.25
848.108	31785.25
848.356	31864.25
848.604	31745.25
848.851	31923.25
849.099	31869.25
849.346	31852.25
849.594	31950.25
849.841	32103.25
850.089	32105.25
850.336	32211.25
850.583	32288.25
850.831	32058.25
851.078	31779.25
851.325	31867.25
851.572	31767.25
851.819	31473.25
852.066	30891.25
852.313	30541.25
852.56	30374.25
852.807	30384.25
853.054	30321.25
853.301	30322.25
853.548	30301.25
853.794	30375.25
854.041	30685.25
854.288	30829.25
854.534	31144.25
854.781	31014.25
855.028	30929.25
855.274	30930.25
855.52	30944.25
855.767	30882.25
856.013	30964.25
856.26	31183.25
856.506	30561.25
856.752	30430.25
856.998	30477.25
857.244	30583.25
857.49	30751.25
857.736	30736.25
857.982	30867.25
858.228	30524.25
858.474	30432.25
858.72	30097.25
858.966	29866.25
859.212	29693.25
859.458	29275.25
859.703	28977.25
859.949	28804.25
860.195	28631.25
860.44	28554.25
860.686	28596.25
860.931	28492.25
861.177	28310.25
861.422	28196.25
861.667	28027.25
861.913	27889.25
862.158	28066.25
862.403	28206.25
862.648	28266.25
862.893	28278.25
863.138	28105.25
863.384	28074.25
863.629	28066.25
863.873	28026.25
864.118	27889.25
864.363	27737.25
864.608	27610.25
864.853	27588.25
865.098	27417.25
865.342	27282.25
865.587	27233.25
865.832	27187.25
866.076	27095.25
866.321	27103.25
866.565	27012.25
866.81	26864.25
867.054	26886.25
867.298	26754.25
867.543	26753.25
867.787	26847.25
868.031	26735.25
868.275	26678.25
868.519	26676.25
868.764	26672.25
869.008	26574.25
869.252	26597.25
869.496	26559.25
869.739	26647.25
869.983	26634.25
870.227	26773.25
870.471	26603.25
870.715	26772.25
870.958	26927.25
871.202	26933.25
871.446	26975.25
871.689	26959.25
871.933	26792.25
872.176	26855.25
872.42	26829.25
872.663	26730.25
872.906	26915.25
873.15	26941.25
873.393	26936.25
873.636	26867.25
873.879	26452.25
874.122	26183.25
874.366	25703.25
874.609	25543.25
874.852	25364.25
875.095	25135.25
875.337	25024.25
875.58	24955.25
875.823	24957.25
876.066	24834.25
876.309	24780.25
876.551	24709.25
876.794	24529.25
877.037	24509.25
877.279	24555.25
877.522	24444.25
877.764	24530.25
878.007	24352.25
878.249	24417.25
878.491	24324.25
878.734	24389.25
878.976	24193.25
879.218	24050.25
879.46	23926.25
879.702	23739.25
879.945	23561.25
880.187	23372.25
880.429	23351.25
880.671	23140.25
880.912	23059.25
881.154	22927.25
881.396	22823.25
881.638	22926.25
881.88	22990.25
882.121	22917.25
882.363	22899.25
882.605	22900.25
882.846	22873.25
883.088	22821.25
883.329	22915.25
883.571	23049.25
883.812	23447.25
884.053	23998.25
884.295	24499.25
884.536	24795.25
884.777	24614.25
885.018	24331.25
885.259	24126.25
885.5	23965.25
885.742	24111.25
885.982	23842.25
886.223	23703.25
886.464	23350.25
886.705	23168.25
886.946	23049.25
887.187	22482.25
887.428	22372.25
887.668	21790.25
887.909	21622.25
888.15	21340.25
888.39	21170.25
888.631	21120.25
888.871	20783.25
889.111	20633.25
889.352	20624.25
889.592	20392.25
889.833	20310.25
890.073	20182.25
890.313	20064.25
890.553	19771.25
890.793	19779.25
891.033	19681.25
891.273	19678.25
891.513	19501.25
891.753	19543.25
891.993	19543.25
892.233	19570.25
892.473	19547.25
892.713	19619.25
892.952	19568.25
893.192	19619.25
893.432	19464.25
893.671	19580.25
893.911	19439.25
894.15	19293.25
894.39	19146.25
894.629	19079.25
894.869	18955.25
895.108	18833.25
895.347	18611.25
895.587	18621.25
895.826	18627.25
896.065	18645.25
896.304	18572.25
896.543	18578.25
896.782	18430.25
897.021	18436.25
897.26	18348.25
897.499	18332.25
897.738	18311.25
897.977	18223.25
898.216	18065.25
898.454	17919.25
898.693	17828.25
898.932	17832.25
899.17	17788.25
899.409	17684.25
899.647	17756.25
899.886	17743.25
900.124	17772.25
900.363	17688.25
900.601	17757.25
900.839	17931.25
901.078	17842.25
901.316	18036.25
901.554	18161.25
901.792	18224.25
902.03	18127.25
902.268	18159.25
902.506	18183.25
902.744	18030.25
902.982	17869.25
903.22	17534.25
903.458	17317.25
903.695	17176.25
903.933	16928.25
904.171	16574.25
904.409	16308.25
904.646	16101.25
904.884	15934.25
905.121	15940.25
905.359	15644.25
905.596	15566.25
905.833	15314.25
906.071	15282.25
906.308	15363.25
906.545	15282.25
906.783	15290.25
907.02	15223.25
907.257	15198.25
907.494	15216.25
907.731	15103.25
907.968	15110.25
908.205	14921.25
908.442	14959.25
908.679	14803.25
908.915	14721.25
909.152	14634.25
909.389	14374.25
909.626	14340.25
909.862	14260.25
910.099	14276.25
910.335	14301.25
910.572	14047.25
910.808	14160.25
911.045	14044.25
911.281	13869.25
911.518	13944.25
911.754	13765.25
911.99	13754.25
912.226	13708.25
912.463	13488.25
912.699	13466.25
912.935	13360.25
913.171	13239.25
913.407	13071.25
913.643	13136.25
913.879	13011.25
914.114	12816.25
914.35	12687.25
914.586	12614.25
914.822	12532.25
915.057	12560.25
915.293	12362.25
915.529	12311.25
915.764	12315.25
916	12371.25
916.235	12314.25
916.471	12296.25
916.706	12246.25
916.941	12192.25
917.177	12169.25
917.412	12205.25
917.647	12214.25
917.882	12128.25
918.117	12137.25
918.352	12002.25
918.588	12018.25
918.823	11961.25
919.057	11765.25
919.292	11645.25
919.527	11585.25
919.762	11481.25
919.997	11401.25
920.232	11224.25
920.466	11228.25
920.701	11018.25
920.935	11019.25
921.17	10986.25
921.405	10892.25
921.639	10904.25
921.873	10794.25
922.108	10807.25
922.342	10808.25
922.576	10604.25
922.811	10680.25
923.045	10625.25
923.279	10651.25
923.513	10476.25
923.747	10484.25
923.981	10467.25
924.215	10273.25
924.449	10325.25
924.683	10240.25
924.917	10218.25
925.151	10163.25
925.385	10279.25
925.618	10116.25
925.852	10100.25
926.086	10001.25
926.319	10069.25
926.553	10056.25
926.786	10064.25
927.02	9994.25
927.253	10022.25
927.486	10020.25
927.72	9928.25
927.953	10000.25
928.186	9856.25
928.42	9855.25
928.653	9754.25
928.886	9728.25
929.119	9673.25
929.352	9598.25
929.585	9617.25
929.818	9496.25
930.051	9469.25
930.284	9444.25
930.516	9285.25
930.749	9283.25
930.982	9274.25
931.215	9248.25
931.447	9076.25
931.68	9042.25
931.912	9082.25
932.145	9020.25
932.377	9132.25
932.61	9198.25
932.842	9029.25
933.074	9080.25
933.307	9046.25
933.539	9122.25
933.771	9089.25
934.003	9035.25
934.236	9109.25
934.468	9130.25
934.7	8939.25
934.932	8969.25
935.164	8897.25
935.395	8881.25
935.627	8884.25
935.859	8912.25
936.091	8811.25
936.323	8843.25
936.554	8830.25
936.786	8727.25
937.017	8685.25
937.249	8756.25
937.481	8537.25
937.712	8655.25
937.943	8641.25
938.175	8558.25
938.406	8589.25
938.637	8601.25
938.869	8580.25
939.1	8546.25
939.331	8424.25
939.562	8531.25
939.793	8453.25
940.024	8428.25
940.255	8456.25
940.486	8334.25
940.717	8328.25
940.948	8278.25
941.179	8209.25
941.409	8246.25
941.64	8266.25
941.871	8225.25
942.102	8155.25
942.332	8199.25
942.563	8267.25
942.793	8234.25
943.024	8216.25
943.254	8221.25
943.484	8240.25
943.715	8203.25
943.945	8147.25
944.175	8087.25
944.405	8119.25
944.636	8103.25
944.866	8148.25
945.096	8104.25
945.326	7983.25
945.556	8059.25
945.786	8078.25
946.016	8018.25
946.245	7859.25
946.475	7833.25
946.705	7801.25
946.935	7796.25
947.164	7749.25
947.394	7622.25
947.624	7624.25
947.853	7695.25
948.083	7561.25
948.312	7567.25
948.542	7550.25
948.771	7397.25
949	7504.25
949.23	7491.25
949.459	7446.25
949.688	7500.25
949.917	7487.25
950.146	7473.25
950.375	7499.25
950.604	7398.25
950.833	7468.25
951.062	7440.25
951.291	7419.25
951.52	7347.25
951.749	7299.25
951.978	7323.25
952.206	7307.25
952.435	7285.25
952.664	7290.25
952.892	7307.25
953.121	7267.25
953.349	7260.25
953.578	7180.25
953.806	7197.25
954.035	7018.25
954.263	7078.25
954.491	6936.25
954.719	7040.25
954.948	6911.25
955.176	6938.25
955.404	6821.25
955.632	6953.25
955.86	6916.25
956.088	6838.25
956.316	6806.25
956.544	6838.25
956.772	6667.25
956.999	6658.25
957.227	6716.25
957.455	6594.25
957.683	6612.25
957.91	6468.25
958.138	6542.25
958.365	6415.25
958.593	6476.25
958.82	6420.25
959.048	6449.25
959.275	6474.25
959.502	6409.25
959.73	6366.25
959.957	6401.25
960.184	6392.25
960.411	6348.25
960.638	6368.25
960.865	6280.25
961.092	6286.25
961.319	6208.25
961.546	6314.25
961.773	6294.25
962	6210.25
962.227	6346.25
962.454	6230.25
962.68	6192.25
962.907	6155.25
963.134	6127.25
963.36	6136.25
963.587	6134.25
963.813	5992.25
964.04	5988.25
964.266	5914.25
964.493	6071.25
964.719	5879.25
964.945	5914.25
965.171	5777.25
965.398	5858.25
965.624	5861.25
965.85	5730.25
966.076	5724.25
966.302	5768.25
966.528	5662.25
966.754	5712.25
966.98	5663.25
967.206	5662.25
967.431	5569.25
967.657	5685.25
967.883	5621.25
968.109	5617.25
968.334	5519.25
968.56	5468.25
968.785	5522.25
969.011	5482.25
969.236	5543.25
969.462	5415.25
969.687	5448.25
969.912	5477.25
970.138	5487.25
970.363	5377.25
970.588	5379.25
970.813	5374.25
971.038	5316.25
971.263	5332.25
971.488	5305.25
971.713	5291.25
971.938	5256.25
972.163	5145.25
972.388	5175.25
972.613	5166.25
972.838	5178.25
973.062	5123.25
973.287	5114.25
973.512	4999.25
973.736	5063.25
973.961	5025.25
974.185	4952.25
974.41	4994.25
974.634	4883.25
974.858	4857.25
975.083	4919.25
975.307	4937.25
975.531	4828.25
975.755	4745.25
975.98	4757.25
976.204	4684.25
976.428	4676.25
976.652	4592.25
976.876	4641.25
977.1	4652.25
977.324	4627.25
977.547	4679.25
977.771	4628.25
977.995	4590.25
978.219	4533.25
978.442	4631.25
978.666	4566.25
978.89	4556.25
979.113	4551.25
979.337	4501.25
979.56	4455.25
979.783	4546.25
980.007	4418.25
980.23	4475.25
980.453	4408.25
980.677	4403.25
980.9	4404.25
981.123	4265.25
981.346	4363.25
981.569	4303.25
981.792	4363.25
982.015	4272.25
982.238	4207.25
982.461	4202.25
982.684	4166.25
982.907	4099.25
983.129	4073.25
983.352	4167.25
983.575	4123.25
983.797	4129.25
984.02	4066.25
984.242	4046.25
984.465	4033.25
984.687	4092.25
984.91	4053.25
985.132	4005.25
985.354	3991.25
985.577	3973.25
985.799	3982.25
986.021	3846.25
986.243	3910.25
986.465	3881.25
986.687	3937.25
986.909	3963.25
987.131	3854.25
987.353	3809.25
987.575	3881.25
987.797	3811.25
988.019	3760.25
988.241	3819.25
988.462	3753.25
988.684	3803.25
988.906	3808.25
989.127	3839.25
989.349	3697.25
989.57	3713.25
989.792	3745.25
990.013	3742.25
990.234	3754.25
990.456	3766.25
990.677	3686.25
990.898	3679.25
991.119	3629.25
991.341	3671.25
991.562	3570.25
991.783	3609.25
992.004	3499.25
992.225	3497.25
992.446	3545.25
992.667	3446.25
992.887	3522.25
993.108	3400.25
993.329	3484.25
993.55	3427.25
993.77	3365.25
993.991	3364.25
994.212	3396.25
994.432	3354.25
994.653	3306.25
994.873	3334.25
995.093	3214.25
995.314	3220.25
995.534	3283.25
995.754	3324.25
995.975	3327.25
996.195	3202.25
996.415	3278.25
996.635	3230.25
996.855	3297.25
997.075	3268.25
997.295	3245.25
997.515	3233.25
997.735	3297.25
997.955	3226.25
998.174	3207.25
998.394	3230.25
998.614	3195.25
998.834	3137.25
999.053	3214.25
999.273	3186.25
999.492	3219.25
999.712	3104.25
999.931	3040.25
1000.151	3150.25
1000.37	3031.25
1000.589	3091.25
1000.809	3004.25
1001.028	3095.25
1001.247	3008.25
1001.466	2897.25
1001.685	3026.25
1001.904	2952.25
1002.123	2970.25
1002.342	2934.25
1002.561	2863.25
1002.78	2881.25
1002.999	2922.25
1003.218	2877.25
1003.436	2809.25
1003.655	2850.25
1003.874	2795.25
1004.092	2818.25
1004.311	2830.25
1004.53	2819.25
1004.748	2840.25
1004.966	2792.25
1005.185	2818.25
1005.403	2820.25
1005.622	2759.25
1005.84	2837.25
1006.058	2756.25
1006.276	2791.25
1006.494	3162.25
1006.712	2769.25
1006.931	2871.25
1007.149	2757.25
1007.367	2802.25
1007.584	2825.25
1007.802	2883.25
1008.02	2820.25
1008.238	2944.25
1008.456	2979.25
1008.673	2880.25
1008.891	3024.25
1009.109	2966.25
1009.326	3116.25
1009.544	3275.25
1009.761	3230.25
1009.979	3433.25
1010.196	3572.25
1010.413	3769.25
1010.631	3892.25
1010.848	4033.25
1011.065	4055.25
1011.282	4054.25
1011.5	3965.25
1011.717	3988.25
1011.934	3900.25
1012.151	3930.25
1012.368	3930.25
1012.585	3842.25
1012.801	3888.25
1013.018	3913.25
1013.235	3878.25
1013.452	3909.25
1013.669	3935.25
1013.885	3940.25
1014.102	3977.25
1014.318	3996.25
1014.535	3926.25
1014.751	3935.25
1014.968	3859.25
1015.184	3894.25
1015.401	3769.25
1015.617	3780.25
1015.833	3697.25
1016.049	3640.25
1016.266	3615.25
1016.482	3546.25
1016.698	3459.25
1016.914	3481.25
1017.13	3358.25
1017.346	3374.25
1017.562	3394.25
1017.778	3333.25
1017.993	3316.25
1018.209	3321.25
1018.425	3315.25
1018.641	3245.25
1018.856	3227.25
1019.072	3250.25
1019.288	3307.25
1019.503	3250.25
1019.719	3066.25
1019.934	3122.25
1020.149	3188.25
1020.365	3073.25
1020.58	2979.25
1020.795	2988.25
1021.011	2901.25
1021.226	2743.25
1021.441	2777.25
1021.656	2638.25
1021.871	2556.25
1022.086	2524.25
1022.301	2465.25
1022.516	2444.25
1022.731	2474.25
1022.946	2323.25
1023.16	2276.25
1023.375	2275.25
1023.59	2215.25
1023.804	2122.25
1024.019	2202.25
1024.234	2008.25
1024.448	2031.25
1024.663	1926.25
1024.877	1920.25
1025.092	1892.25
1025.306	1861.25
1025.52	1736.25
1025.734	1816.25
1025.949	1699.25
1026.163	1674.25
1026.377	1569.25
1026.591	1606.25
1026.805	1533.25
1027.019	1493.25
1027.233	1467.25
1027.447	1413.25
1027.661	1511.25
1027.875	1413.25
1028.088	1394.25
1028.302	1297.25
1028.516	1278.25
1028.73	1254.25
1028.943	1204.25
1029.157	1126.25
1029.37	1068.25
1029.584	1.25
1029.797	-3.75
1030.011	-1.75
1030.224	-3.75
