Data from QEP037381__29__10-27-10-306.txt Node

Date: Fri Apr 28 10:27:10 EDT 2023
User: dcclab
Spectrometer: QEP03738
Trigger mode: 4
Integration Time (sec): 1.000000E1
Scans to average: 1
Electric dark correction enabled: true
Nonlinearity correction enabled: false
Boxcar width: 0
XAxis mode: Wavelengths
Number of Pixels in Spectrum: 1044
>>>>>Begin Spectral Data<<<<<
784.041	10.75
784.3	-0.25
784.558	-1.25
784.817	-5.25
785.075	63693.75
785.334	12666.75
785.592	6600.75
785.851	4685.75
786.109	3555.75
786.368	2793.75
786.626	2263.75
786.884	1904.75
787.143	1593.75
787.401	1310.75
787.659	1208.75
787.917	1031.75
788.175	949.75
788.433	849.75
788.691	750.75
788.949	714.75
789.207	703.75
789.465	600.75
789.723	598.75
789.98	536.75
790.238	576.75
790.496	557.75
790.753	511.75
791.011	563.75
791.268	508.75
791.526	498.75
791.783	523.75
792.041	500.75
792.298	422.75
792.556	479.75
792.813	472.75
793.07	445.75
793.327	427.75
793.584	519.75
793.841	435.75
794.099	450.75
794.356	521.75
794.613	418.75
794.869	478.75
795.126	425.75
795.383	420.75
795.64	436.75
795.897	400.75
796.153	455.75
796.41	440.75
796.667	431.75
796.923	431.75
797.18	428.75
797.436	461.75
797.693	420.75
797.949	484.75
798.206	507.75
798.462	426.75
798.718	481.75
798.974	460.75
799.231	500.75
799.487	490.75
799.743	509.75
799.999	543.75
800.255	545.75
800.511	524.75
800.767	578.75
801.023	581.75
801.279	625.75
801.534	670.75
801.79	743.75
802.046	804.75
802.302	1000.75
802.557	1211.75
802.813	1554.75
803.068	2066.75
803.324	2974.75
803.579	4200.75
803.835	5849.75
804.09	7976.75
804.345	10266.75
804.601	12431.75
804.856	14353.75
805.111	15807.75
805.366	16890.75
805.621	17542.75
805.876	18006.75
806.131	18335.75
806.386	18557.75
806.641	18938.75
806.896	19163.75
807.151	19516.75
807.406	19745.75
807.661	20267.75
807.915	20578.75
808.17	20859.75
808.425	21096.75
808.679	21295.75
808.934	21548.75
809.188	21728.75
809.443	22037.75
809.697	22389.75
809.951	22478.75
810.206	22730.75
810.46	22989.75
810.714	22986.75
810.968	23343.75
811.223	23423.75
811.477	23535.75
811.731	23949.75
811.985	23846.75
812.239	23980.75
812.493	24278.75
812.747	24358.75
813	24327.75
813.254	24549.75
813.508	24705.75
813.762	24782.75
814.015	24906.75
814.269	25079.75
814.522	25254.75
814.776	25609.75
815.03	25825.75
815.283	26169.75
815.536	26621.75
815.79	26952.75
816.043	27308.75
816.296	27671.75
816.55	27945.75
816.803	28306.75
817.056	28716.75
817.309	28997.75
817.562	29342.75
817.815	29634.75
818.068	29967.75
818.321	30205.75
818.574	30606.75
818.827	31133.75
819.079	31660.75
819.332	32100.75
819.585	32690.75
819.838	33090.75
820.09	33274.75
820.343	33510.75
820.595	33655.75
820.848	33898.75
821.1	34082.75
821.353	34087.75
821.605	34101.75
821.857	34097.75
822.11	33912.75
822.362	33889.75
822.614	33854.75
822.866	33917.75
823.118	33909.75
823.37	34136.75
823.622	34263.75
823.874	34240.75
824.126	34509.75
824.378	34468.75
824.63	34677.75
824.882	34770.75
825.134	34722.75
825.385	34799.75
825.637	34685.75
825.888	34606.75
826.14	34443.75
826.392	34468.75
826.643	34258.75
826.895	34203.75
827.146	34053.75
827.397	34042.75
827.649	34041.75
827.9	34003.75
828.151	33971.75
828.402	34141.75
828.653	34301.75
828.905	34341.75
829.156	34438.75
829.407	34352.75
829.658	34566.75
829.909	34675.75
830.159	34586.75
830.41	34309.75
830.661	34260.75
830.912	34123.75
831.162	33943.75
831.413	33823.75
831.664	33954.75
831.914	33685.75
832.165	33856.75
832.415	33749.75
832.666	33931.75
832.916	33876.75
833.167	33847.75
833.417	33762.75
833.667	33504.75
833.917	33640.75
834.168	33560.75
834.418	33522.75
834.668	33429.75
834.918	33238.75
835.168	33155.75
835.418	32961.75
835.668	32946.75
835.918	32786.75
836.167	32831.75
836.417	32704.75
836.667	32805.75
836.917	32702.75
837.166	32658.75
837.416	32748.75
837.666	32799.75
837.915	32717.75
838.165	32559.75
838.414	32558.75
838.663	32483.75
838.913	32489.75
839.162	32480.75
839.411	32432.75
839.661	32287.75
839.91	32220.75
840.159	32133.75
840.408	32170.75
840.657	32252.75
840.906	32299.75
841.155	32270.75
841.404	32130.75
841.653	32217.75
841.902	32381.75
842.15	32465.75
842.399	32419.75
842.648	32339.75
842.897	32319.75
843.145	32038.75
843.394	31920.75
843.642	31713.75
843.891	31636.75
844.139	31506.75
844.388	31270.75
844.636	31031.75
844.884	31146.75
845.133	31063.75
845.381	31150.75
845.629	31051.75
845.877	31069.75
846.125	31123.75
846.373	31124.75
846.621	30871.75
846.869	30927.75
847.117	30733.75
847.365	30610.75
847.613	30432.75
847.861	30301.75
848.108	30350.75
848.356	30413.75
848.604	30275.75
848.851	30315.75
849.099	30390.75
849.346	30548.75
849.594	30676.75
849.841	30673.75
850.089	30798.75
850.336	30679.75
850.583	30852.75
850.831	30622.75
851.078	30525.75
851.325	30475.75
851.572	30551.75
851.819	29993.75
852.066	29405.75
852.313	29267.75
852.56	29082.75
852.807	28955.75
853.054	28817.75
853.301	28991.75
853.548	28922.75
853.794	29143.75
854.041	29126.75
854.288	29398.75
854.534	29644.75
854.781	29502.75
855.028	29502.75
855.274	29603.75
855.52	29411.75
855.767	29283.75
856.013	29423.75
856.26	29538.75
856.506	29045.75
856.752	28952.75
856.998	29048.75
857.244	29111.75
857.49	29148.75
857.736	29270.75
857.982	29187.75
858.228	29180.75
858.474	28981.75
858.72	28764.75
858.966	28480.75
859.212	28204.75
859.458	28028.75
859.703	27762.75
859.949	27376.75
860.195	27310.75
860.44	27314.75
860.686	27162.75
860.931	27193.75
861.177	26960.75
861.422	26879.75
861.667	26718.75
861.913	26780.75
862.158	26843.75
862.403	26975.75
862.648	26951.75
862.893	27139.75
863.138	26926.75
863.384	26957.75
863.629	26842.75
863.873	26822.75
864.118	26587.75
864.363	26595.75
864.608	26452.75
864.853	26210.75
865.098	26207.75
865.342	26064.75
865.587	25921.75
865.832	25956.75
866.076	26014.75
866.321	25861.75
866.565	25885.75
866.81	25674.75
867.054	25707.75
867.298	25623.75
867.543	25598.75
867.787	25664.75
868.031	25484.75
868.275	25454.75
868.519	25516.75
868.764	25545.75
869.008	25445.75
869.252	25590.75
869.496	25487.75
869.739	25415.75
869.983	25337.75
870.227	25424.75
870.471	25467.75
870.715	25508.75
870.958	25673.75
871.202	25610.75
871.446	25804.75
871.689	25785.75
871.933	25695.75
872.176	25588.75
872.42	25662.75
872.663	25574.75
872.906	25504.75
873.15	25552.75
873.393	25491.75
873.636	25285.75
873.879	25031.75
874.122	24796.75
874.366	24409.75
874.609	24299.75
874.852	24083.75
875.095	24106.75
875.337	23884.75
875.58	23775.75
875.823	23790.75
876.066	23768.75
876.309	23632.75
876.551	23490.75
876.794	23523.75
877.037	23372.75
877.279	23351.75
877.522	23354.75
877.764	23407.75
878.007	23294.75
878.249	23388.75
878.491	23256.75
878.734	23179.75
878.976	23185.75
879.218	23047.75
879.46	22887.75
879.702	22778.75
879.945	22644.75
880.187	22377.75
880.429	22355.75
880.671	22077.75
880.912	22059.75
881.154	22041.75
881.396	21996.75
881.638	22029.75
881.88	21948.75
882.121	21918.75
882.363	21954.75
882.605	21889.75
882.846	21874.75
883.088	21965.75
883.329	21921.75
883.571	22036.75
883.812	22392.75
884.053	22600.75
884.295	22966.75
884.536	23260.75
884.777	23093.75
885.018	22876.75
885.259	22819.75
885.5	22665.75
885.742	22824.75
885.982	22630.75
886.223	22345.75
886.464	22371.75
886.705	22000.75
886.946	21866.75
887.187	21524.75
887.428	21204.75
887.668	20956.75
887.909	20692.75
888.15	20373.75
888.39	20260.75
888.631	20175.75
888.871	20034.75
889.111	19862.75
889.352	19709.75
889.592	19653.75
889.833	19494.75
890.073	19362.75
890.313	19282.75
890.553	18982.75
890.793	19061.75
891.033	18934.75
891.273	18884.75
891.513	18742.75
891.753	19003.75
891.993	18753.75
892.233	18817.75
892.473	18905.75
892.713	18861.75
892.952	18855.75
893.192	18933.75
893.432	18732.75
893.671	18696.75
893.911	18644.75
894.15	18529.75
894.39	18380.75
894.629	18392.75
894.869	18256.75
895.108	18101.75
895.347	18004.75
895.587	18063.75
895.826	17930.75
896.065	17824.75
896.304	17845.75
896.543	17738.75
896.782	17752.75
897.021	17817.75
897.26	17674.75
897.499	17773.75
897.738	17637.75
897.977	17515.75
898.216	17389.75
898.454	17261.75
898.693	17272.75
898.932	17120.75
899.17	17149.75
899.409	17072.75
899.647	17117.75
899.886	16981.75
900.124	17036.75
900.363	17064.75
900.601	17139.75
900.839	17210.75
901.078	17178.75
901.316	17261.75
901.554	17365.75
901.792	17460.75
902.03	17359.75
902.268	17354.75
902.506	17293.75
902.744	17180.75
902.982	17148.75
903.22	16847.75
903.458	16619.75
903.695	16413.75
903.933	16210.75
904.171	15914.75
904.409	15729.75
904.646	15585.75
904.884	15394.75
905.121	15296.75
905.359	15078.75
905.596	14949.75
905.833	14833.75
906.071	14821.75
906.308	14837.75
906.545	14704.75
906.783	14630.75
907.02	14652.75
907.257	14675.75
907.494	14642.75
907.731	14605.75
907.968	14572.75
908.205	14439.75
908.442	14428.75
908.679	14348.75
908.915	14207.75
909.152	14147.75
909.389	13932.75
909.626	13970.75
909.862	13795.75
910.099	13728.75
910.335	13737.75
910.572	13564.75
910.808	13560.75
911.045	13448.75
911.281	13425.75
911.518	13554.75
911.754	13291.75
911.99	13201.75
912.226	13149.75
912.463	13050.75
912.699	12988.75
912.935	12910.75
913.171	12823.75
913.407	12600.75
913.643	12709.75
913.879	12521.75
914.114	12433.75
914.35	12296.75
914.586	12308.75
914.822	12093.75
915.057	12106.75
915.293	11943.75
915.529	11877.75
915.764	11982.75
916	11910.75
916.235	11877.75
916.471	11905.75
916.706	11719.75
916.941	11754.75
917.177	11705.75
917.412	11805.75
917.647	11781.75
917.882	11773.75
918.117	11705.75
918.352	11659.75
918.588	11708.75
918.823	11441.75
919.057	11434.75
919.292	11274.75
919.527	11312.75
919.762	10981.75
919.997	11035.75
920.232	10889.75
920.466	10895.75
920.701	10724.75
920.935	10681.75
921.17	10636.75
921.405	10519.75
921.639	10537.75
921.873	10458.75
922.108	10392.75
922.342	10428.75
922.576	10407.75
922.811	10390.75
923.045	10384.75
923.279	10312.75
923.513	10173.75
923.747	10102.75
923.981	10049.75
924.215	10053.75
924.449	9943.75
924.683	9882.75
924.917	9880.75
925.151	9818.75
925.385	9830.75
925.618	9803.75
925.852	9797.75
926.086	9641.75
926.319	9700.75
926.553	9726.75
926.786	9659.75
927.02	9756.75
927.253	9751.75
927.486	9674.75
927.72	9577.75
927.953	9630.75
928.186	9613.75
928.42	9550.75
928.653	9442.75
928.886	9368.75
929.119	9388.75
929.352	9339.75
929.585	9239.75
929.818	9125.75
930.051	9122.75
930.284	9081.75
930.516	8955.75
930.749	8931.75
930.982	8855.75
931.215	8878.75
931.447	8755.75
931.68	8852.75
931.912	8772.75
932.145	8793.75
932.377	8770.75
932.61	8900.75
932.842	8741.75
933.074	8818.75
933.307	8732.75
933.539	8778.75
933.771	8747.75
934.003	8669.75
934.236	8836.75
934.468	8824.75
934.7	8727.75
934.932	8732.75
935.164	8628.75
935.395	8554.75
935.627	8596.75
935.859	8555.75
936.091	8494.75
936.323	8506.75
936.554	8523.75
936.786	8484.75
937.017	8347.75
937.249	8391.75
937.481	8299.75
937.712	8370.75
937.943	8325.75
938.175	8312.75
938.406	8325.75
938.637	8335.75
938.869	8199.75
939.1	8291.75
939.331	8201.75
939.562	8196.75
939.793	8222.75
940.024	8210.75
940.255	8180.75
940.486	8060.75
940.717	8051.75
940.948	7996.75
941.179	7969.75
941.409	8000.75
941.64	7999.75
941.871	7926.75
942.102	7942.75
942.332	7953.75
942.563	7999.75
942.793	7965.75
943.024	7878.75
943.254	7912.75
943.484	7984.75
943.715	7910.75
943.945	7928.75
944.175	7884.75
944.405	7818.75
944.636	7856.75
944.866	7850.75
945.096	7871.75
945.326	7682.75
945.556	7817.75
945.786	7751.75
946.016	7686.75
946.245	7644.75
946.475	7479.75
946.705	7560.75
946.935	7515.75
947.164	7484.75
947.394	7391.75
947.624	7436.75
947.853	7387.75
948.083	7372.75
948.312	7349.75
948.542	7207.75
948.771	7211.75
949	7186.75
949.23	7220.75
949.459	7173.75
949.688	7305.75
949.917	7260.75
950.146	7189.75
950.375	7261.75
950.604	7214.75
950.833	7260.75
951.062	7221.75
951.291	7112.75
951.52	7177.75
951.749	7159.75
951.978	7051.75
952.206	7051.75
952.435	7058.75
952.664	7021.75
952.892	7042.75
953.121	6999.75
953.349	6954.75
953.578	6976.75
953.806	6926.75
954.035	6798.75
954.263	6795.75
954.491	6760.75
954.719	6792.75
954.948	6750.75
955.176	6725.75
955.404	6558.75
955.632	6676.75
955.86	6665.75
956.088	6626.75
956.316	6585.75
956.544	6604.75
956.772	6537.75
956.999	6446.75
957.227	6492.75
957.455	6429.75
957.683	6426.75
957.91	6342.75
958.138	6281.75
958.365	6223.75
958.593	6275.75
958.82	6196.75
959.048	6295.75
959.275	6144.75
959.502	6156.75
959.73	6145.75
959.957	6195.75
960.184	6165.75
960.411	6165.75
960.638	6255.75
960.865	6116.75
961.092	6117.75
961.319	6004.75
961.546	6088.75
961.773	6127.75
962	6084.75
962.227	6026.75
962.454	6006.75
962.68	6010.75
962.907	5979.75
963.134	5907.75
963.36	5919.75
963.587	5887.75
963.813	5821.75
964.04	5845.75
964.266	5773.75
964.493	5762.75
964.719	5758.75
964.945	5721.75
965.171	5656.75
965.398	5597.75
965.624	5643.75
965.85	5597.75
966.076	5517.75
966.302	5560.75
966.528	5527.75
966.754	5540.75
966.98	5501.75
967.206	5519.75
967.431	5380.75
967.657	5483.75
967.883	5417.75
968.109	5438.75
968.334	5342.75
968.56	5351.75
968.785	5341.75
969.011	5268.75
969.236	5329.75
969.462	5321.75
969.687	5245.75
969.912	5279.75
970.138	5276.75
970.363	5207.75
970.588	5186.75
970.813	5168.75
971.038	5086.75
971.263	5156.75
971.488	5117.75
971.713	5159.75
971.938	5070.75
972.163	4997.75
972.388	5056.75
972.613	5000.75
972.838	4986.75
973.062	5016.75
973.287	4932.75
973.512	4855.75
973.736	4899.75
973.961	4844.75
974.185	4824.75
974.41	4863.75
974.634	4752.75
974.858	4689.75
975.083	4759.75
975.307	4744.75
975.531	4645.75
975.755	4582.75
975.98	4612.75
976.204	4586.75
976.428	4535.75
976.652	4534.75
976.876	4504.75
977.1	4502.75
977.324	4475.75
977.547	4483.75
977.771	4445.75
977.995	4447.75
978.219	4367.75
978.442	4448.75
978.666	4428.75
978.89	4424.75
979.113	4386.75
979.337	4358.75
979.56	4332.75
979.783	4331.75
980.007	4287.75
980.23	4266.75
980.453	4251.75
980.677	4252.75
980.9	4243.75
981.123	4135.75
981.346	4220.75
981.569	4141.75
981.792	4188.75
982.015	4144.75
982.238	4116.75
982.461	4075.75
982.684	4030.75
982.907	4037.75
983.129	4022.75
983.352	4009.75
983.575	3977.75
983.797	3953.75
984.02	3952.75
984.242	3867.75
984.465	3893.75
984.687	3918.75
984.91	3918.75
985.132	3884.75
985.354	3863.75
985.577	3856.75
985.799	3812.75
986.021	3695.75
986.243	3790.75
986.465	3762.75
986.687	3774.75
986.909	3849.75
987.131	3734.75
987.353	3747.75
987.575	3735.75
987.797	3688.75
988.019	3633.75
988.241	3657.75
988.462	3635.75
988.684	3705.75
988.906	3670.75
989.127	3674.75
989.349	3555.75
989.57	3583.75
989.792	3609.75
990.013	3630.75
990.234	3630.75
990.456	3650.75
990.677	3599.75
990.898	3539.75
991.119	3487.75
991.341	3515.75
991.562	3439.75
991.783	3505.75
992.004	3399.75
992.225	3370.75
992.446	3394.75
992.667	3332.75
992.887	3379.75
993.108	3261.75
993.329	3359.75
993.55	3337.75
993.77	3219.75
993.991	3225.75
994.212	3254.75
994.432	3233.75
994.653	3242.75
994.873	3178.75
995.093	3128.75
995.314	3130.75
995.534	3213.75
995.754	3173.75
995.975	3209.75
996.195	3104.75
996.415	3166.75
996.635	3145.75
996.855	3150.75
997.075	3142.75
997.295	3118.75
997.515	3088.75
997.735	3113.75
997.955	3115.75
998.174	3076.75
998.394	3037.75
998.614	3119.75
998.834	3048.75
999.053	3083.75
999.273	3014.75
999.492	3078.75
999.712	3006.75
999.931	2921.75
1000.151	2995.75
1000.37	2935.75
1000.589	2967.75
1000.809	2887.75
1001.028	2983.75
1001.247	2913.75
1001.466	2789.75
1001.685	2923.75
1001.904	2848.75
1002.123	2770.75
1002.342	2809.75
1002.561	2750.75
1002.78	2789.75
1002.999	2822.75
1003.218	2765.75
1003.436	2737.75
1003.655	2754.75
1003.874	2725.75
1004.092	2708.75
1004.311	2734.75
1004.53	2682.75
1004.748	2765.75
1004.966	2656.75
1005.185	2672.75
1005.403	2731.75
1005.622	2733.75
1005.84	2770.75
1006.058	2653.75
1006.276	2691.75
1006.494	3049.75
1006.712	2673.75
1006.931	2713.75
1007.149	2667.75
1007.367	2650.75
1007.584	2706.75
1007.802	2764.75
1008.02	2716.75
1008.238	2803.75
1008.456	2839.75
1008.673	2740.75
1008.891	2822.75
1009.109	2807.75
1009.326	2934.75
1009.544	3047.75
1009.761	2991.75
1009.979	3189.75
1010.196	3270.75
1010.413	3497.75
1010.631	3564.75
1010.848	3700.75
1011.065	3701.75
1011.282	3661.75
1011.5	3555.75
1011.717	3682.75
1011.934	3600.75
1012.151	3649.75
1012.368	3564.75
1012.585	3533.75
1012.801	3589.75
1013.018	3554.75
1013.235	3521.75
1013.452	3596.75
1013.669	3618.75
1013.885	3592.75
1014.102	3666.75
1014.318	3643.75
1014.535	3590.75
1014.751	3577.75
1014.968	3578.75
1015.184	3553.75
1015.401	3409.75
1015.617	3421.75
1015.833	3375.75
1016.049	3344.75
1016.266	3331.75
1016.482	3299.75
1016.698	3193.75
1016.914	3246.75
1017.13	3143.75
1017.346	3154.75
1017.562	3174.75
1017.778	3085.75
1017.993	3050.75
1018.209	3115.75
1018.425	3065.75
1018.641	3050.75
1018.856	2971.75
1019.072	3025.75
1019.288	3054.75
1019.503	2983.75
1019.719	2897.75
1019.934	2920.75
1020.149	2993.75
1020.365	2866.75
1020.58	2778.75
1020.795	2783.75
1021.011	2681.75
1021.226	2627.75
1021.441	2637.75
1021.656	2509.75
1021.871	2395.75
1022.086	2355.75
1022.301	2348.75
1022.516	2336.75
1022.731	2313.75
1022.946	2227.75
1023.16	2142.75
1023.375	2122.75
1023.59	2082.75
1023.804	2006.75
1024.019	2074.75
1024.234	1928.75
1024.448	1925.75
1024.663	1840.75
1024.877	1830.75
1025.092	1790.75
1025.306	1820.75
1025.52	1674.75
1025.734	1744.75
1025.949	1640.75
1026.163	1609.75
1026.377	1533.75
1026.591	1554.75
1026.805	1481.75
1027.019	1461.75
1027.233	1412.75
1027.447	1324.75
1027.661	1425.75
1027.875	1364.75
1028.088	1370.75
1028.302	1251.75
1028.516	1234.75
1028.73	1191.75
1028.943	1151.75
1029.157	1093.75
1029.37	1020.75
1029.584	-2.25
1029.797	-3.25
1030.011	0.75
1030.224	0.75
