Data from QEP037381__18__10-25-20-304.txt Node

Date: Fri Apr 28 10:25:20 EDT 2023
User: dcclab
Spectrometer: QEP03738
Trigger mode: 4
Integration Time (sec): 1.000000E1
Scans to average: 1
Electric dark correction enabled: true
Nonlinearity correction enabled: false
Boxcar width: 0
XAxis mode: Wavelengths
Number of Pixels in Spectrum: 1044
>>>>>Begin Spectral Data<<<<<
784.041	13.25
784.3	-1.75
784.558	-3.75
784.817	-1.75
785.075	65996.25
785.334	13171.25
785.592	6773.25
785.851	4793.25
786.109	3641.25
786.368	2853.25
786.626	2316.25
786.884	1977.25
787.143	1668.25
787.401	1399.25
787.659	1248.25
787.917	1074.25
788.175	984.25
788.433	888.25
788.691	802.25
788.949	748.25
789.207	708.25
789.465	626.25
789.723	605.25
789.98	559.25
790.238	585.25
790.496	558.25
790.753	537.25
791.011	589.25
791.268	531.25
791.526	516.25
791.783	544.25
792.041	510.25
792.298	438.25
792.556	494.25
792.813	479.25
793.07	450.25
793.327	448.25
793.584	540.25
793.841	441.25
794.099	479.25
794.356	525.25
794.613	437.25
794.869	464.25
795.126	438.25
795.383	415.25
795.64	441.25
795.897	402.25
796.153	469.25
796.41	441.25
796.667	426.25
796.923	441.25
797.18	435.25
797.436	472.25
797.693	420.25
797.949	468.25
798.206	503.25
798.462	423.25
798.718	486.25
798.974	476.25
799.231	506.25
799.487	497.25
799.743	505.25
799.999	547.25
800.255	528.25
800.511	536.25
800.767	579.25
801.023	587.25
801.279	621.25
801.534	679.25
801.79	756.25
802.046	810.25
802.302	1017.25
802.557	1215.25
802.813	1580.25
803.068	2060.25
803.324	2994.25
803.579	4185.25
803.835	5836.25
804.09	7905.25
804.345	10017.25
804.601	12181.25
804.856	14166.25
805.111	15594.25
805.366	16636.25
805.621	17316.25
805.876	17856.25
806.131	18185.25
806.386	18415.25
806.641	18784.25
806.896	19116.25
807.151	19357.25
807.406	19682.25
807.661	19911.25
807.915	20309.25
808.17	20617.25
808.425	20847.25
808.679	20981.25
808.934	21304.25
809.188	21526.25
809.443	21858.25
809.697	22126.25
809.951	22242.25
810.206	22334.25
810.46	22581.25
810.714	22784.25
810.968	22977.25
811.223	23238.25
811.477	23269.25
811.731	23518.25
811.985	23515.25
812.239	23667.25
812.493	23801.25
812.747	23894.25
813	24027.25
813.254	24092.25
813.508	24432.25
813.762	24374.25
814.015	24487.25
814.269	24662.25
814.522	24911.25
814.776	25006.25
815.03	25277.25
815.283	25683.25
815.536	26044.25
815.79	26383.25
816.043	26712.25
816.296	27166.25
816.55	27423.25
816.803	27736.25
817.056	28105.25
817.309	28393.25
817.562	28740.25
817.815	29032.25
818.068	29342.25
818.321	29531.25
818.574	29973.25
818.827	30366.25
819.079	30777.25
819.332	31369.25
819.585	31798.25
819.838	32203.25
820.09	32358.25
820.343	32670.25
820.595	32782.25
820.848	32954.25
821.1	33166.25
821.353	33157.25
821.605	33113.25
821.857	32974.25
822.11	32998.25
822.362	32949.25
822.614	32955.25
822.866	32934.25
823.118	32899.25
823.37	33124.25
823.622	33272.25
823.874	33431.25
824.126	33573.25
824.378	33496.25
824.63	33734.25
824.882	33862.25
825.134	33707.25
825.385	33756.25
825.637	33745.25
825.888	33489.25
826.14	33421.25
826.392	33347.25
826.643	33172.25
826.895	33095.25
827.146	33063.25
827.397	33032.25
827.649	33068.25
827.9	32918.25
828.151	32935.25
828.402	33171.25
828.653	33287.25
828.905	33204.25
829.156	33258.25
829.407	33433.25
829.658	33413.25
829.909	33537.25
830.159	33611.25
830.41	33226.25
830.661	33097.25
830.912	32992.25
831.162	32829.25
831.413	32793.25
831.664	32877.25
831.914	32782.25
832.165	32792.25
832.415	32753.25
832.666	32792.25
832.916	32758.25
833.167	32596.25
833.417	32733.25
833.667	32700.25
833.917	32583.25
834.168	32414.25
834.418	32448.25
834.668	32428.25
834.918	32099.25
835.168	32111.25
835.418	31843.25
835.668	31867.25
835.918	31796.25
836.167	31755.25
836.417	31676.25
836.667	31646.25
836.917	31689.25
837.166	31665.25
837.416	31632.25
837.666	31672.25
837.915	31573.25
838.165	31470.25
838.414	31422.25
838.663	31467.25
838.913	31423.25
839.162	31420.25
839.411	31348.25
839.661	31155.25
839.91	31220.25
840.159	31206.25
840.408	31114.25
840.657	31185.25
840.906	31289.25
841.155	31138.25
841.404	31166.25
841.653	31302.25
841.902	31176.25
842.15	31379.25
842.399	31380.25
842.648	31480.25
842.897	31212.25
843.145	31073.25
843.394	30854.25
843.642	30724.25
843.891	30559.25
844.139	30447.25
844.388	30204.25
844.636	30028.25
844.884	30159.25
845.133	30055.25
845.381	30050.25
845.629	30012.25
845.877	30061.25
846.125	30011.25
846.373	29921.25
846.621	29802.25
846.869	29781.25
847.117	29670.25
847.365	29427.25
847.613	29324.25
847.861	29393.25
848.108	29472.25
848.356	29442.25
848.604	29306.25
848.851	29377.25
849.099	29342.25
849.346	29397.25
849.594	29502.25
849.841	29583.25
850.089	29629.25
850.336	29754.25
850.583	29799.25
850.831	29366.25
851.078	29401.25
851.325	29403.25
851.572	29296.25
851.819	29026.25
852.066	28461.25
852.313	28096.25
852.56	27919.25
852.807	27925.25
853.054	27852.25
853.301	27930.25
853.548	27900.25
853.794	28078.25
854.041	28135.25
854.288	28230.25
854.534	28660.25
854.781	28500.25
855.028	28552.25
855.274	28646.25
855.52	28455.25
855.767	28480.25
856.013	28621.25
856.26	28738.25
856.506	28084.25
856.752	28037.25
856.998	28102.25
857.244	27991.25
857.49	28338.25
857.736	28373.25
857.982	28315.25
858.228	28199.25
858.474	27997.25
858.72	27821.25
858.966	27469.25
859.212	27133.25
859.458	26936.25
859.703	26656.25
859.949	26426.25
860.195	26514.25
860.44	26402.25
860.686	26267.25
860.931	26215.25
861.177	26101.25
861.422	25892.25
861.667	25743.25
861.913	25820.25
862.158	25792.25
862.403	25796.25
862.648	25945.25
862.893	25782.25
863.138	25917.25
863.384	25749.25
863.629	25630.25
863.873	25706.25
864.118	25604.25
864.363	25470.25
864.608	25241.25
864.853	25256.25
865.098	25131.25
865.342	24972.25
865.587	24984.25
865.832	24928.25
866.076	24798.25
866.321	24771.25
866.565	24719.25
866.81	24696.25
867.054	24617.25
867.298	24490.25
867.543	24514.25
867.787	24475.25
868.031	24392.25
868.275	24508.25
868.519	24409.25
868.764	24405.25
869.008	24392.25
869.252	24408.25
869.496	24344.25
869.739	24287.25
869.983	24428.25
870.227	24376.25
870.471	24425.25
870.715	24545.25
870.958	24646.25
871.202	24564.25
871.446	24672.25
871.689	24681.25
871.933	24725.25
872.176	24587.25
872.42	24603.25
872.663	24572.25
872.906	24666.25
873.15	24717.25
873.393	24773.25
873.636	24784.25
873.879	24360.25
874.122	23982.25
874.366	23609.25
874.609	23273.25
874.852	23200.25
875.095	22945.25
875.337	23009.25
875.58	22765.25
875.823	22743.25
876.066	22744.25
876.309	22602.25
876.551	22532.25
876.794	22457.25
877.037	22465.25
877.279	22253.25
877.522	22318.25
877.764	22453.25
878.007	22378.25
878.249	22217.25
878.491	22201.25
878.734	22191.25
878.976	22077.25
879.218	21950.25
879.46	21819.25
879.702	21799.25
879.945	21471.25
880.187	21263.25
880.429	21066.25
880.671	21107.25
880.912	20995.25
881.154	20822.25
881.396	20918.25
881.638	20979.25
881.88	20932.25
882.121	20900.25
882.363	20836.25
882.605	20885.25
882.846	20811.25
883.088	20948.25
883.329	20920.25
883.571	21169.25
883.812	21624.25
884.053	22015.25
884.295	22716.25
884.536	22869.25
884.777	22709.25
885.018	22418.25
885.259	22174.25
885.5	22147.25
885.742	22243.25
885.982	21934.25
886.223	21688.25
886.464	21482.25
886.705	21322.25
886.946	20919.25
887.187	20511.25
887.428	20339.25
887.668	19918.25
887.909	19632.25
888.15	19389.25
888.39	19304.25
888.631	19156.25
888.871	18957.25
889.111	18812.25
889.352	18697.25
889.592	18603.25
889.833	18341.25
890.073	18202.25
890.313	18211.25
890.553	17944.25
890.793	18010.25
891.033	17868.25
891.273	17798.25
891.513	17720.25
891.753	17728.25
891.993	17644.25
892.233	17606.25
892.473	17795.25
892.713	17851.25
892.952	17664.25
893.192	17713.25
893.432	17754.25
893.671	17584.25
893.911	17511.25
894.15	17419.25
894.39	17269.25
894.629	17145.25
894.869	17093.25
895.108	17042.25
895.347	16925.25
895.587	16898.25
895.826	16785.25
896.065	16789.25
896.304	16742.25
896.543	16803.25
896.782	16648.25
897.021	16702.25
897.26	16664.25
897.499	16663.25
897.738	16537.25
897.977	16467.25
898.216	16301.25
898.454	16267.25
898.693	16149.25
898.932	16120.25
899.17	16079.25
899.409	15939.25
899.647	15983.25
899.886	15975.25
900.124	16125.25
900.363	15955.25
900.601	16162.25
900.839	16189.25
901.078	16251.25
901.316	16381.25
901.554	16382.25
901.792	16486.25
902.03	16491.25
902.268	16507.25
902.506	16374.25
902.744	16332.25
902.982	16202.25
903.22	15911.25
903.458	15765.25
903.695	15486.25
903.933	15185.25
904.171	14979.25
904.409	14743.25
904.646	14566.25
904.884	14373.25
905.121	14315.25
905.359	14145.25
905.596	14040.25
905.833	13837.25
906.071	13780.25
906.308	13803.25
906.545	13783.25
906.783	13691.25
907.02	13664.25
907.257	13754.25
907.494	13700.25
907.731	13635.25
907.968	13582.25
908.205	13457.25
908.442	13404.25
908.679	13186.25
908.915	13181.25
909.152	13134.25
909.389	12992.25
909.626	12986.25
909.862	12860.25
910.099	12831.25
910.335	12825.25
910.572	12612.25
910.808	12667.25
911.045	12610.25
911.281	12525.25
911.518	12555.25
911.754	12437.25
911.99	12339.25
912.226	12308.25
912.463	12207.25
912.699	12093.25
912.935	12009.25
913.171	11906.25
913.407	11820.25
913.643	11746.25
913.879	11696.25
914.114	11549.25
914.35	11499.25
914.586	11411.25
914.822	11232.25
915.057	11241.25
915.293	11023.25
915.529	10992.25
915.764	11125.25
916	11043.25
916.235	11072.25
916.471	11001.25
916.706	10933.25
916.941	10965.25
917.177	10906.25
917.412	10938.25
917.647	10973.25
917.882	10819.25
918.117	10879.25
918.352	10900.25
918.588	10876.25
918.823	10662.25
919.057	10564.25
919.292	10491.25
919.527	10481.25
919.762	10282.25
919.997	10202.25
920.232	10104.25
920.466	10092.25
920.701	9892.25
920.935	9912.25
921.17	9820.25
921.405	9699.25
921.639	9802.25
921.873	9668.25
922.108	9717.25
922.342	9725.25
922.576	9589.25
922.811	9508.25
923.045	9569.25
923.279	9575.25
923.513	9366.25
923.747	9444.25
923.981	9323.25
924.215	9300.25
924.449	9289.25
924.683	9151.25
924.917	9092.25
925.151	9048.25
925.385	9145.25
925.618	9005.25
925.852	9037.25
926.086	8911.25
926.319	8961.25
926.553	9009.25
926.786	8960.25
927.02	8976.25
927.253	8955.25
927.486	8922.25
927.72	8854.25
927.953	8915.25
928.186	8866.25
928.42	8820.25
928.653	8724.25
928.886	8654.25
929.119	8653.25
929.352	8562.25
929.585	8610.25
929.818	8543.25
930.051	8450.25
930.284	8447.25
930.516	8326.25
930.749	8223.25
930.982	8328.25
931.215	8195.25
931.447	8176.25
931.68	8146.25
931.912	8103.25
932.145	8123.25
932.377	8132.25
932.61	8194.25
932.842	8099.25
933.074	8063.25
933.307	8093.25
933.539	8139.25
933.771	8114.25
934.003	8082.25
934.236	8144.25
934.468	8116.25
934.7	8000.25
934.932	8065.25
935.164	7900.25
935.395	8001.25
935.627	7933.25
935.859	7905.25
936.091	7822.25
936.323	7845.25
936.554	7884.25
936.786	7762.25
937.017	7740.25
937.249	7693.25
937.481	7630.25
937.712	7676.25
937.943	7687.25
938.175	7671.25
938.406	7603.25
938.637	7663.25
938.869	7553.25
939.1	7613.25
939.331	7561.25
939.562	7582.25
939.793	7549.25
940.024	7547.25
940.255	7512.25
940.486	7419.25
940.717	7394.25
940.948	7378.25
941.179	7343.25
941.409	7292.25
941.64	7325.25
941.871	7370.25
942.102	7318.25
942.332	7293.25
942.563	7345.25
942.793	7283.25
943.024	7289.25
943.254	7252.25
943.484	7315.25
943.715	7331.25
943.945	7268.25
944.175	7194.25
944.405	7182.25
944.636	7195.25
944.866	7257.25
945.096	7210.25
945.326	7152.25
945.556	7193.25
945.786	7180.25
946.016	7053.25
946.245	7062.25
946.475	6953.25
946.705	6890.25
946.935	6901.25
947.164	6857.25
947.394	6794.25
947.624	6817.25
947.853	6865.25
948.083	6785.25
948.312	6735.25
948.542	6650.25
948.771	6585.25
949	6619.25
949.23	6630.25
949.459	6591.25
949.688	6674.25
949.917	6584.25
950.146	6666.25
950.375	6642.25
950.604	6509.25
950.833	6634.25
951.062	6619.25
951.291	6536.25
951.52	6531.25
951.749	6558.25
951.978	6477.25
952.206	6456.25
952.435	6465.25
952.664	6494.25
952.892	6416.25
953.121	6445.25
953.349	6428.25
953.578	6374.25
953.806	6286.25
954.035	6275.25
954.263	6292.25
954.491	6165.25
954.719	6238.25
954.948	6142.25
955.176	6170.25
955.404	6049.25
955.632	6112.25
955.86	6101.25
956.088	6052.25
956.316	6109.25
956.544	5990.25
956.772	5927.25
956.999	5867.25
957.227	5947.25
957.455	5874.25
957.683	5805.25
957.91	5772.25
958.138	5721.25
958.365	5726.25
958.593	5761.25
958.82	5720.25
959.048	5733.25
959.275	5690.25
959.502	5654.25
959.73	5636.25
959.957	5682.25
960.184	5710.25
960.411	5595.25
960.638	5686.25
960.865	5585.25
961.092	5562.25
961.319	5505.25
961.546	5623.25
961.773	5568.25
962	5507.25
962.227	5584.25
962.454	5501.25
962.68	5512.25
962.907	5459.25
963.134	5390.25
963.36	5446.25
963.587	5501.25
963.813	5301.25
964.04	5300.25
964.266	5254.25
964.493	5311.25
964.719	5274.25
964.945	5246.25
965.171	5100.25
965.398	5139.25
965.624	5196.25
965.85	5062.25
966.076	5048.25
966.302	5059.25
966.528	4994.25
966.754	5029.25
966.98	5015.25
967.206	5040.25
967.431	4933.25
967.657	4962.25
967.883	4950.25
968.109	4948.25
968.334	4859.25
968.56	4903.25
968.785	4856.25
969.011	4841.25
969.236	4873.25
969.462	4785.25
969.687	4796.25
969.912	4820.25
970.138	4838.25
970.363	4751.25
970.588	4750.25
970.813	4720.25
971.038	4669.25
971.263	4720.25
971.488	4704.25
971.713	4705.25
971.938	4703.25
972.163	4579.25
972.388	4547.25
972.613	4549.25
972.838	4558.25
973.062	4527.25
973.287	4512.25
973.512	4444.25
973.736	4512.25
973.961	4435.25
974.185	4438.25
974.41	4460.25
974.634	4294.25
974.858	4297.25
975.083	4338.25
975.307	4303.25
975.531	4248.25
975.755	4175.25
975.98	4213.25
976.204	4177.25
976.428	4112.25
976.652	4161.25
976.876	4088.25
977.1	4108.25
977.324	4073.25
977.547	4113.25
977.771	4075.25
977.995	4056.25
978.219	4000.25
978.442	4106.25
978.666	4024.25
978.89	4042.25
979.113	3984.25
979.337	3957.25
979.56	3942.25
979.783	3993.25
980.007	3889.25
980.23	3934.25
980.453	3884.25
980.677	3892.25
980.9	3869.25
981.123	3773.25
981.346	3849.25
981.569	3806.25
981.792	3813.25
982.015	3763.25
982.238	3738.25
982.461	3764.25
982.684	3728.25
982.907	3662.25
983.129	3640.25
983.352	3640.25
983.575	3616.25
983.797	3659.25
984.02	3602.25
984.242	3612.25
984.465	3533.25
984.687	3594.25
984.91	3616.25
985.132	3535.25
985.354	3529.25
985.577	3479.25
985.799	3486.25
986.021	3426.25
986.243	3393.25
986.465	3449.25
986.687	3468.25
986.909	3491.25
987.131	3422.25
987.353	3403.25
987.575	3428.25
987.797	3348.25
988.019	3303.25
988.241	3361.25
988.462	3299.25
988.684	3394.25
988.906	3374.25
989.127	3380.25
989.349	3294.25
989.57	3320.25
989.792	3337.25
990.013	3333.25
990.234	3302.25
990.456	3350.25
990.677	3302.25
990.898	3226.25
991.119	3227.25
991.341	3263.25
991.562	3148.25
991.783	3218.25
992.004	3136.25
992.225	3104.25
992.446	3140.25
992.667	3029.25
992.887	3137.25
993.108	2996.25
993.329	3114.25
993.55	3064.25
993.77	2967.25
993.991	2982.25
994.212	3000.25
994.432	3010.25
994.653	3018.25
994.873	2975.25
995.093	2875.25
995.314	2893.25
995.534	2960.25
995.754	2968.25
995.975	2999.25
996.195	2853.25
996.415	2929.25
996.635	2921.25
996.855	2931.25
997.075	2897.25
997.295	2899.25
997.515	2875.25
997.735	2917.25
997.955	2902.25
998.174	2875.25
998.394	2878.25
998.614	2884.25
998.834	2849.25
999.053	2911.25
999.273	2833.25
999.492	2876.25
999.712	2810.25
999.931	2773.25
1000.151	2789.25
1000.37	2734.25
1000.589	2780.25
1000.809	2663.25
1001.028	2795.25
1001.247	2722.25
1001.466	2600.25
1001.685	2703.25
1001.904	2637.25
1002.123	2602.25
1002.342	2598.25
1002.561	2535.25
1002.78	2559.25
1002.999	2605.25
1003.218	2540.25
1003.436	2579.25
1003.655	2536.25
1003.874	2481.25
1004.092	2511.25
1004.311	2566.25
1004.53	2482.25
1004.748	2562.25
1004.966	2490.25
1005.185	2531.25
1005.403	2542.25
1005.622	2517.25
1005.84	2582.25
1006.058	2499.25
1006.276	2493.25
1006.494	2879.25
1006.712	2502.25
1006.931	2576.25
1007.149	2510.25
1007.367	2522.25
1007.584	2569.25
1007.802	2638.25
1008.02	2591.25
1008.238	2682.25
1008.456	2724.25
1008.673	2601.25
1008.891	2731.25
1009.109	2774.25
1009.326	2847.25
1009.544	3023.25
1009.761	3021.25
1009.979	3168.25
1010.196	3313.25
1010.413	3527.25
1010.631	3654.25
1010.848	3774.25
1011.065	3783.25
1011.282	3784.25
1011.5	3672.25
1011.717	3790.25
1011.934	3712.25
1012.151	3738.25
1012.368	3684.25
1012.585	3593.25
1012.801	3667.25
1013.018	3664.25
1013.235	3645.25
1013.452	3741.25
1013.669	3720.25
1013.885	3705.25
1014.102	3787.25
1014.318	3778.25
1014.535	3715.25
1014.751	3733.25
1014.968	3682.25
1015.184	3707.25
1015.401	3516.25
1015.617	3556.25
1015.833	3458.25
1016.049	3416.25
1016.266	3423.25
1016.482	3384.25
1016.698	3268.25
1016.914	3348.25
1017.13	3253.25
1017.346	3173.25
1017.562	3203.25
1017.778	3158.25
1017.993	3042.25
1018.209	3139.25
1018.425	3089.25
1018.641	3061.25
1018.856	3002.25
1019.072	3051.25
1019.288	3073.25
1019.503	3000.25
1019.719	2958.25
1019.934	2930.25
1020.149	2985.25
1020.365	2882.25
1020.58	2795.25
1020.795	2805.25
1021.011	2661.25
1021.226	2607.25
1021.441	2578.25
1021.656	2434.25
1021.871	2354.25
1022.086	2314.25
1022.301	2320.25
1022.516	2312.25
1022.731	2272.25
1022.946	2154.25
1023.16	2130.25
1023.375	2066.25
1023.59	2003.25
1023.804	1952.25
1024.019	2039.25
1024.234	1852.25
1024.448	1873.25
1024.663	1753.25
1024.877	1750.25
1025.092	1746.25
1025.306	1739.25
1025.52	1601.25
1025.734	1661.25
1025.949	1582.25
1026.163	1523.25
1026.377	1458.25
1026.591	1491.25
1026.805	1387.25
1027.019	1379.25
1027.233	1329.25
1027.447	1271.25
1027.661	1352.25
1027.875	1275.25
1028.088	1259.25
1028.302	1208.25
1028.516	1147.25
1028.73	1152.25
1028.943	1106.25
1029.157	1046.25
1029.37	966.25
1029.584	-0.75
1029.797	-2.75
1030.011	-2.75
1030.224	0.25
