Data from QEP037381__217__11-33-59-425.txt Node

Date: Fri Apr 28 11:33:59 EDT 2023
User: dcclab
Spectrometer: QEP03738
Trigger mode: 4
Integration Time (sec): 1.000000E1
Scans to average: 1
Electric dark correction enabled: true
Nonlinearity correction enabled: false
Boxcar width: 0
XAxis mode: Wavelengths
Number of Pixels in Spectrum: 1044
>>>>>Begin Spectral Data<<<<<
784.041	9.25
784.3	-0.75
784.558	0.25
784.817	-3.75
785.075	64066.25
785.334	12642.25
785.592	6485.25
785.851	4554.25
786.109	3486.25
786.368	2744.25
786.626	2213.25
786.884	1849.25
787.143	1571.25
787.401	1306.25
787.659	1174.25
787.917	1021.25
788.175	960.25
788.433	824.25
788.691	748.25
788.949	693.25
789.207	682.25
789.465	595.25
789.723	564.25
789.98	522.25
790.238	559.25
790.496	536.25
790.753	503.25
791.011	565.25
791.268	494.25
791.526	476.25
791.783	494.25
792.041	479.25
792.298	390.25
792.556	463.25
792.813	448.25
793.07	415.25
793.327	411.25
793.584	488.25
793.841	409.25
794.099	443.25
794.356	490.25
794.613	397.25
794.869	439.25
795.126	389.25
795.383	388.25
795.64	403.25
795.897	369.25
796.153	418.25
796.41	396.25
796.667	389.25
796.923	381.25
797.18	383.25
797.436	417.25
797.693	382.25
797.949	438.25
798.206	467.25
798.462	371.25
798.718	441.25
798.974	404.25
799.231	447.25
799.487	443.25
799.743	455.25
799.999	464.25
800.255	453.25
800.511	450.25
800.767	491.25
801.023	485.25
801.279	500.25
801.534	530.25
801.79	581.25
802.046	597.25
802.302	738.25
802.557	826.25
802.813	1018.25
803.068	1252.25
803.324	1784.25
803.579	2384.25
803.835	3268.25
804.09	4451.25
804.345	5605.25
804.601	6780.25
804.856	7903.25
805.111	8680.25
805.366	9263.25
805.621	9680.25
805.876	9949.25
806.131	10202.25
806.386	10390.25
806.641	10464.25
806.896	10643.25
807.151	10831.25
807.406	10980.25
807.661	11202.25
807.915	11355.25
808.17	11531.25
808.425	11711.25
808.679	11764.25
808.934	11959.25
809.188	12060.25
809.443	12208.25
809.697	12382.25
809.951	12537.25
810.206	12548.25
810.46	12723.25
810.714	12874.25
810.968	12982.25
811.223	12952.25
811.477	13045.25
811.731	13221.25
811.985	13239.25
812.239	13208.25
812.493	13270.25
812.747	13358.25
813	13393.25
813.254	13328.25
813.508	13560.25
813.762	13554.25
814.015	13632.25
814.269	13648.25
814.522	13806.25
814.776	13971.25
815.03	14181.25
815.283	14330.25
815.536	14528.25
815.79	14776.25
816.043	14984.25
816.296	15167.25
816.55	15290.25
816.803	15576.25
817.056	15738.25
817.309	15875.25
817.562	16013.25
817.815	16268.25
818.068	16403.25
818.321	16572.25
818.574	16754.25
818.827	16979.25
819.079	17205.25
819.332	17636.25
819.585	17669.25
819.838	18004.25
820.09	17988.25
820.343	18106.25
820.595	18156.25
820.848	18275.25
821.1	18459.25
821.353	18387.25
821.605	18358.25
821.857	18306.25
822.11	18087.25
822.362	18160.25
822.614	18093.25
822.866	18186.25
823.118	18080.25
823.37	18224.25
823.622	18302.25
823.874	18415.25
824.126	18522.25
824.378	18402.25
824.63	18417.25
824.882	18440.25
825.134	18367.25
825.385	18383.25
825.637	18290.25
825.888	18167.25
826.14	18243.25
826.392	18107.25
826.643	17925.25
826.895	17968.25
827.146	17862.25
827.397	17859.25
827.649	17693.25
827.9	17659.25
828.151	17687.25
828.402	17782.25
828.653	17849.25
828.905	17839.25
829.156	17979.25
829.407	17855.25
829.658	17916.25
829.909	18038.25
830.159	18046.25
830.41	17843.25
830.661	17687.25
830.912	17539.25
831.162	17571.25
831.413	17418.25
831.664	17515.25
831.914	17421.25
832.165	17365.25
832.415	17374.25
832.666	17483.25
832.916	17367.25
833.167	17348.25
833.417	17392.25
833.667	17235.25
833.917	17050.25
834.168	17193.25
834.418	17071.25
834.668	17097.25
834.918	16937.25
835.168	16810.25
835.418	16767.25
835.668	16711.25
835.918	16709.25
836.167	16656.25
836.417	16626.25
836.667	16536.25
836.917	16562.25
837.166	16519.25
837.416	16496.25
837.666	16470.25
837.915	16377.25
838.165	16398.25
838.414	16134.25
838.663	16129.25
838.913	16286.25
839.162	16116.25
839.411	16226.25
839.661	16089.25
839.91	16188.25
840.159	16009.25
840.408	16074.25
840.657	16136.25
840.906	16186.25
841.155	16131.25
841.404	16058.25
841.653	16023.25
841.902	16050.25
842.15	16057.25
842.399	16031.25
842.648	16030.25
842.897	15966.25
843.145	15803.25
843.394	15739.25
843.642	15549.25
843.891	15543.25
844.139	15438.25
844.388	15392.25
844.636	15273.25
844.884	15269.25
845.133	15199.25
845.381	15188.25
845.629	15192.25
845.877	15062.25
846.125	15016.25
846.373	15090.25
846.621	14968.25
846.869	14970.25
847.117	14933.25
847.365	14834.25
847.613	14762.25
847.861	14761.25
848.108	14821.25
848.356	14782.25
848.604	14652.25
848.851	14676.25
849.099	14691.25
849.346	14728.25
849.594	14651.25
849.841	14742.25
850.089	14820.25
850.336	14738.25
850.583	14866.25
850.831	14813.25
851.078	14731.25
851.325	14794.25
851.572	14950.25
851.819	14721.25
852.066	14224.25
852.313	13880.25
852.56	13741.25
852.807	13854.25
853.054	13792.25
853.301	13709.25
853.548	13846.25
853.794	14002.25
854.041	13916.25
854.288	13968.25
854.534	14077.25
854.781	14038.25
855.028	13999.25
855.274	13991.25
855.52	14026.25
855.767	13897.25
856.013	13880.25
856.26	14139.25
856.506	13707.25
856.752	13558.25
856.998	13564.25
857.244	13633.25
857.49	13779.25
857.736	13649.25
857.982	13708.25
858.228	13654.25
858.474	13549.25
858.72	13400.25
858.966	13360.25
859.212	13133.25
859.458	12862.25
859.703	12822.25
859.949	12610.25
860.195	12672.25
860.44	12645.25
860.686	12595.25
860.931	12571.25
861.177	12445.25
861.422	12326.25
861.667	12228.25
861.913	12233.25
862.158	12290.25
862.403	12345.25
862.648	12352.25
862.893	12477.25
863.138	12312.25
863.384	12304.25
863.629	12260.25
863.873	12270.25
864.118	12198.25
864.363	12123.25
864.608	12077.25
864.853	11997.25
865.098	11802.25
865.342	11826.25
865.587	11724.25
865.832	11743.25
866.076	11784.25
866.321	11738.25
866.565	11690.25
866.81	11659.25
867.054	11618.25
867.298	11632.25
867.543	11519.25
867.787	11585.25
868.031	11490.25
868.275	11491.25
868.519	11538.25
868.764	11497.25
869.008	11481.25
869.252	11466.25
869.496	11413.25
869.739	11492.25
869.983	11521.25
870.227	11562.25
870.471	11431.25
870.715	11594.25
870.958	11587.25
871.202	11604.25
871.446	11657.25
871.689	11630.25
871.933	11567.25
872.176	11446.25
872.42	11433.25
872.663	11471.25
872.906	11485.25
873.15	11446.25
873.393	11407.25
873.636	11404.25
873.879	11322.25
874.122	11116.25
874.366	10968.25
874.609	10884.25
874.852	10803.25
875.095	10725.25
875.337	10650.25
875.58	10545.25
875.823	10563.25
876.066	10551.25
876.309	10480.25
876.551	10349.25
876.794	10367.25
877.037	10385.25
877.279	10186.25
877.522	10283.25
877.764	10264.25
878.007	10101.25
878.249	10187.25
878.491	10059.25
878.734	10093.25
878.976	10015.25
879.218	9935.25
879.46	9947.25
879.702	9850.25
879.945	9685.25
880.187	9586.25
880.429	9490.25
880.671	9525.25
880.912	9472.25
881.154	9510.25
881.396	9448.25
881.638	9350.25
881.88	9432.25
882.121	9331.25
882.363	9415.25
882.605	9443.25
882.846	9422.25
883.088	9457.25
883.329	9467.25
883.571	9515.25
883.812	9593.25
884.053	9884.25
884.295	10208.25
884.536	10357.25
884.777	10320.25
885.018	10192.25
885.259	10139.25
885.5	9975.25
885.742	10189.25
885.982	9934.25
886.223	9820.25
886.464	9678.25
886.705	9516.25
886.946	9342.25
887.187	9082.25
887.428	8991.25
887.668	8765.25
887.909	8670.25
888.15	8605.25
888.39	8511.25
888.631	8491.25
888.871	8441.25
889.111	8291.25
889.352	8197.25
889.592	8080.25
889.833	7987.25
890.073	7955.25
890.313	8007.25
890.553	7887.25
890.793	7823.25
891.033	7808.25
891.273	7690.25
891.513	7704.25
891.753	7743.25
891.993	7771.25
892.233	7725.25
892.473	7862.25
892.713	7835.25
892.952	7729.25
893.192	7829.25
893.432	7736.25
893.671	7751.25
893.911	7719.25
894.15	7627.25
894.39	7499.25
894.629	7545.25
894.869	7566.25
895.108	7535.25
895.347	7468.25
895.587	7452.25
895.826	7417.25
896.065	7340.25
896.304	7369.25
896.543	7438.25
896.782	7302.25
897.021	7308.25
897.26	7311.25
897.499	7474.25
897.738	7438.25
897.977	7344.25
898.216	7284.25
898.454	7259.25
898.693	7106.25
898.932	7127.25
899.17	7126.25
899.409	7132.25
899.647	7066.25
899.886	7082.25
900.124	7158.25
900.363	7113.25
900.601	7150.25
900.839	7194.25
901.078	7280.25
901.316	7348.25
901.554	7311.25
901.792	7452.25
902.03	7426.25
902.268	7443.25
902.506	7472.25
902.744	7265.25
902.982	7197.25
903.22	7078.25
903.458	6895.25
903.695	6831.25
903.933	6652.25
904.171	6523.25
904.409	6388.25
904.646	6328.25
904.884	6192.25
905.121	6186.25
905.359	6033.25
905.596	5990.25
905.833	5945.25
906.071	5909.25
906.308	5908.25
906.545	5892.25
906.783	5787.25
907.02	5842.25
907.257	5769.25
907.494	5775.25
907.731	5757.25
907.968	5767.25
908.205	5616.25
908.442	5654.25
908.679	5649.25
908.915	5551.25
909.152	5538.25
909.389	5405.25
909.626	5414.25
909.862	5333.25
910.099	5360.25
910.335	5377.25
910.572	5229.25
910.808	5258.25
911.045	5155.25
911.281	5200.25
911.518	5187.25
911.754	5155.25
911.99	5111.25
912.226	5076.25
912.463	4970.25
912.699	5012.25
912.935	4957.25
913.171	4907.25
913.407	4843.25
913.643	4866.25
913.879	4851.25
914.114	4835.25
914.35	4736.25
914.586	4708.25
914.822	4602.25
915.057	4690.25
915.293	4518.25
915.529	4475.25
915.764	4588.25
916	4566.25
916.235	4566.25
916.471	4598.25
916.706	4500.25
916.941	4545.25
917.177	4502.25
917.412	4520.25
917.647	4488.25
917.882	4426.25
918.117	4459.25
918.352	4448.25
918.588	4477.25
918.823	4416.25
919.057	4355.25
919.292	4192.25
919.527	4328.25
919.762	4182.25
919.997	4234.25
920.232	4137.25
920.466	4148.25
920.701	3992.25
920.935	4040.25
921.17	4011.25
921.405	3991.25
921.639	4007.25
921.873	3927.25
922.108	3994.25
922.342	3981.25
922.576	3894.25
922.811	3904.25
923.045	3900.25
923.279	3966.25
923.513	3768.25
923.747	3905.25
923.981	3851.25
924.215	3832.25
924.449	3798.25
924.683	3695.25
924.917	3730.25
925.151	3693.25
925.385	3727.25
925.618	3746.25
925.852	3735.25
926.086	3624.25
926.319	3673.25
926.553	3665.25
926.786	3618.25
927.02	3626.25
927.253	3711.25
927.486	3690.25
927.72	3657.25
927.953	3667.25
928.186	3570.25
928.42	3629.25
928.653	3590.25
928.886	3552.25
929.119	3581.25
929.352	3567.25
929.585	3544.25
929.818	3452.25
930.051	3474.25
930.284	3490.25
930.516	3371.25
930.749	3381.25
930.982	3422.25
931.215	3401.25
931.447	3335.25
931.68	3346.25
931.912	3306.25
932.145	3312.25
932.377	3371.25
932.61	3422.25
932.842	3275.25
933.074	3337.25
933.307	3256.25
933.539	3396.25
933.771	3355.25
934.003	3266.25
934.236	3328.25
934.468	3395.25
934.7	3229.25
934.932	3331.25
935.164	3205.25
935.395	3207.25
935.627	3244.25
935.859	3271.25
936.091	3156.25
936.323	3240.25
936.554	3219.25
936.786	3172.25
937.017	3127.25
937.249	3176.25
937.481	3080.25
937.712	3156.25
937.943	3176.25
938.175	3100.25
938.406	3120.25
938.637	3200.25
938.869	3062.25
939.1	3163.25
939.331	3113.25
939.562	3085.25
939.793	3095.25
940.024	3110.25
940.255	3103.25
940.486	3078.25
940.717	3036.25
940.948	3045.25
941.179	3000.25
941.409	3012.25
941.64	3005.25
941.871	3006.25
942.102	2974.25
942.332	2963.25
942.563	3033.25
942.793	3009.25
943.024	2957.25
943.254	2956.25
943.484	3046.25
943.715	3011.25
943.945	2986.25
944.175	2910.25
944.405	2938.25
944.636	2920.25
944.866	2960.25
945.096	2938.25
945.326	2866.25
945.556	2941.25
945.786	2943.25
946.016	2907.25
946.245	2813.25
946.475	2822.25
946.705	2839.25
946.935	2793.25
947.164	2801.25
947.394	2778.25
947.624	2765.25
947.853	2805.25
948.083	2785.25
948.312	2717.25
948.542	2672.25
948.771	2641.25
949	2681.25
949.23	2677.25
949.459	2684.25
949.688	2738.25
949.917	2699.25
950.146	2735.25
950.375	2770.25
950.604	2665.25
950.833	2739.25
951.062	2726.25
951.291	2671.25
951.52	2659.25
951.749	2650.25
951.978	2627.25
952.206	2622.25
952.435	2601.25
952.664	2641.25
952.892	2645.25
953.121	2592.25
953.349	2627.25
953.578	2627.25
953.806	2570.25
954.035	2507.25
954.263	2539.25
954.491	2495.25
954.719	2554.25
954.948	2461.25
955.176	2500.25
955.404	2433.25
955.632	2492.25
955.86	2475.25
956.088	2469.25
956.316	2469.25
956.544	2538.25
956.772	2438.25
956.999	2420.25
957.227	2503.25
957.455	2390.25
957.683	2421.25
957.91	2340.25
958.138	2334.25
958.365	2347.25
958.593	2349.25
958.82	2310.25
959.048	2374.25
959.275	2347.25
959.502	2330.25
959.73	2279.25
959.957	2344.25
960.184	2374.25
960.411	2274.25
960.638	2358.25
960.865	2298.25
961.092	2294.25
961.319	2205.25
961.546	2350.25
961.773	2299.25
962	2294.25
962.227	2319.25
962.454	2290.25
962.68	2274.25
962.907	2252.25
963.134	2186.25
963.36	2237.25
963.587	2289.25
963.813	2156.25
964.04	2189.25
964.266	2135.25
964.493	2205.25
964.719	2182.25
964.945	2192.25
965.171	2118.25
965.398	2170.25
965.624	2167.25
965.85	2095.25
966.076	2094.25
966.302	2160.25
966.528	2108.25
966.754	2124.25
966.98	2108.25
967.206	2096.25
967.431	2020.25
967.657	2104.25
967.883	2069.25
968.109	2065.25
968.334	2003.25
968.56	2034.25
968.785	2035.25
969.011	1963.25
969.236	2067.25
969.462	1976.25
969.687	2045.25
969.912	2017.25
970.138	2092.25
970.363	1965.25
970.588	2010.25
970.813	1978.25
971.038	1981.25
971.263	1962.25
971.488	2019.25
971.713	2007.25
971.938	1981.25
972.163	1908.25
972.388	1894.25
972.613	1894.25
972.838	1916.25
973.062	1897.25
973.287	1898.25
973.512	1834.25
973.736	1856.25
973.961	1884.25
974.185	1852.25
974.41	1881.25
974.634	1809.25
974.858	1791.25
975.083	1852.25
975.307	1834.25
975.531	1750.25
975.755	1730.25
975.98	1744.25
976.204	1715.25
976.428	1720.25
976.652	1712.25
976.876	1697.25
977.1	1729.25
977.324	1708.25
977.547	1706.25
977.771	1722.25
977.995	1711.25
978.219	1643.25
978.442	1766.25
978.666	1696.25
978.89	1680.25
979.113	1688.25
979.337	1683.25
979.56	1634.25
979.783	1754.25
980.007	1645.25
980.23	1671.25
980.453	1607.25
980.677	1662.25
980.9	1655.25
981.123	1562.25
981.346	1661.25
981.569	1610.25
981.792	1650.25
982.015	1627.25
982.238	1580.25
982.461	1633.25
982.684	1583.25
982.907	1551.25
983.129	1577.25
983.352	1596.25
983.575	1576.25
983.797	1590.25
984.02	1548.25
984.242	1553.25
984.465	1518.25
984.687	1556.25
984.91	1586.25
985.132	1562.25
985.354	1573.25
985.577	1562.25
985.799	1519.25
986.021	1455.25
986.243	1486.25
986.465	1491.25
986.687	1577.25
986.909	1576.25
987.131	1509.25
987.353	1498.25
987.575	1516.25
987.797	1490.25
988.019	1450.25
988.241	1495.25
988.462	1452.25
988.684	1545.25
988.906	1548.25
989.127	1578.25
989.349	1463.25
989.57	1479.25
989.792	1500.25
990.013	1513.25
990.234	1505.25
990.456	1540.25
990.677	1521.25
990.898	1472.25
991.119	1445.25
991.341	1486.25
991.562	1441.25
991.783	1481.25
992.004	1394.25
992.225	1411.25
992.446	1449.25
992.667	1370.25
992.887	1443.25
993.108	1360.25
993.329	1475.25
993.55	1423.25
993.77	1362.25
993.991	1378.25
994.212	1382.25
994.432	1407.25
994.653	1405.25
994.873	1403.25
995.093	1293.25
995.314	1337.25
995.534	1418.25
995.754	1421.25
995.975	1430.25
996.195	1317.25
996.415	1383.25
996.635	1389.25
996.855	1378.25
997.075	1352.25
997.295	1350.25
997.515	1341.25
997.735	1418.25
997.955	1354.25
998.174	1360.25
998.394	1332.25
998.614	1379.25
998.834	1344.25
999.053	1407.25
999.273	1371.25
999.492	1416.25
999.712	1335.25
999.931	1327.25
1000.151	1362.25
1000.37	1356.25
1000.589	1395.25
1000.809	1314.25
1001.028	1424.25
1001.247	1352.25
1001.466	1277.25
1001.685	1402.25
1001.904	1362.25
1002.123	1329.25
1002.342	1344.25
1002.561	1298.25
1002.78	1318.25
1002.999	1400.25
1003.218	1328.25
1003.436	1302.25
1003.655	1371.25
1003.874	1306.25
1004.092	1320.25
1004.311	1378.25
1004.53	1316.25
1004.748	1380.25
1004.966	1325.25
1005.185	1370.25
1005.403	1362.25
1005.622	1335.25
1005.84	1420.25
1006.058	1295.25
1006.276	1339.25
1006.494	1702.25
1006.712	1339.25
1006.931	1421.25
1007.149	1330.25
1007.367	1318.25
1007.584	1360.25
1007.802	1401.25
1008.02	1351.25
1008.238	1451.25
1008.456	1432.25
1008.673	1315.25
1008.891	1431.25
1009.109	1412.25
1009.326	1448.25
1009.544	1577.25
1009.761	1483.25
1009.979	1586.25
1010.196	1627.25
1010.413	1703.25
1010.631	1777.25
1010.848	1800.25
1011.065	1810.25
1011.282	1784.25
1011.5	1708.25
1011.717	1835.25
1011.934	1761.25
1012.151	1805.25
1012.368	1785.25
1012.585	1728.25
1012.801	1809.25
1013.018	1758.25
1013.235	1730.25
1013.452	1768.25
1013.669	1739.25
1013.885	1732.25
1014.102	1818.25
1014.318	1788.25
1014.535	1734.25
1014.751	1748.25
1014.968	1752.25
1015.184	1771.25
1015.401	1679.25
1015.617	1732.25
1015.833	1645.25
1016.049	1675.25
1016.266	1650.25
1016.482	1658.25
1016.698	1582.25
1016.914	1650.25
1017.13	1575.25
1017.346	1599.25
1017.562	1656.25
1017.778	1589.25
1017.993	1571.25
1018.209	1605.25
1018.425	1605.25
1018.641	1571.25
1018.856	1538.25
1019.072	1578.25
1019.288	1628.25
1019.503	1563.25
1019.719	1477.25
1019.934	1509.25
1020.149	1554.25
1020.365	1483.25
1020.58	1464.25
1020.795	1489.25
1021.011	1412.25
1021.226	1366.25
1021.441	1396.25
1021.656	1330.25
1021.871	1255.25
1022.086	1256.25
1022.301	1243.25
1022.516	1232.25
1022.731	1300.25
1022.946	1176.25
1023.16	1161.25
1023.375	1123.25
1023.59	1110.25
1023.804	1074.25
1024.019	1187.25
1024.234	1061.25
1024.448	1077.25
1024.663	1003.25
1024.877	1009.25
1025.092	1039.25
1025.306	1039.25
1025.52	931.25
1025.734	1024.25
1025.949	940.25
1026.163	906.25
1026.377	847.25
1026.591	927.25
1026.805	848.25
1027.019	836.25
1027.233	783.25
1027.447	756.25
1027.661	837.25
1027.875	802.25
1028.088	804.25
1028.302	726.25
1028.516	728.25
1028.73	710.25
1028.943	695.25
1029.157	660.25
1029.37	629.25
1029.584	-0.75
1029.797	-0.75
1030.011	1.25
1030.224	-4.75
