Data from QEP037381__247__11-38-59-425.txt Node

Date: Fri Apr 28 11:38:59 EDT 2023
User: dcclab
Spectrometer: QEP03738
Trigger mode: 4
Integration Time (sec): 1.000000E1
Scans to average: 1
Electric dark correction enabled: true
Nonlinearity correction enabled: false
Boxcar width: 0
XAxis mode: Wavelengths
Number of Pixels in Spectrum: 1044
>>>>>Begin Spectral Data<<<<<
784.041	12.12
784.3	-0.88
784.558	-2.88
784.817	-2.88
785.075	66924.12
785.334	13127.12
785.592	6634.12
785.851	4740.12
786.109	3598.12
786.368	2817.12
786.626	2280.12
786.884	1939.12
787.143	1623.12
787.401	1342.12
787.659	1221.12
787.917	1040.12
788.175	953.12
788.433	830.12
788.691	747.12
788.949	731.12
789.207	670.12
789.465	596.12
789.723	556.12
789.98	533.12
790.238	552.12
790.496	537.12
790.753	507.12
791.011	563.12
791.268	494.12
791.526	471.12
791.783	502.12
792.041	479.12
792.298	388.12
792.556	463.12
792.813	441.12
793.07	420.12
793.327	399.12
793.584	486.12
793.841	401.12
794.099	414.12
794.356	476.12
794.613	387.12
794.869	420.12
795.126	373.12
795.383	379.12
795.64	406.12
795.897	354.12
796.153	407.12
796.41	384.12
796.667	364.12
796.923	380.12
797.18	383.12
797.436	409.12
797.693	363.12
797.949	420.12
798.206	449.12
798.462	362.12
798.718	422.12
798.974	387.12
799.231	424.12
799.487	427.12
799.743	423.12
799.999	452.12
800.255	442.12
800.511	412.12
800.767	455.12
801.023	432.12
801.279	448.12
801.534	464.12
801.79	506.12
802.046	505.12
802.302	613.12
802.557	661.12
802.813	818.12
803.068	944.12
803.324	1311.12
803.579	1695.12
803.835	2293.12
804.09	3116.12
804.345	3925.12
804.601	4745.12
804.856	5579.12
805.111	6116.12
805.366	6576.12
805.621	6814.12
805.876	7054.12
806.131	7187.12
806.386	7269.12
806.641	7384.12
806.896	7550.12
807.151	7680.12
807.406	7723.12
807.661	7875.12
807.915	8045.12
808.17	8142.12
808.425	8260.12
808.679	8323.12
808.934	8493.12
809.188	8535.12
809.443	8653.12
809.697	8788.12
809.951	8838.12
810.206	8869.12
810.46	9011.12
810.714	9050.12
810.968	9161.12
811.223	9090.12
811.477	9235.12
811.731	9316.12
811.985	9375.12
812.239	9356.12
812.493	9401.12
812.747	9421.12
813	9468.12
813.254	9527.12
813.508	9574.12
813.762	9621.12
814.015	9585.12
814.269	9634.12
814.522	9714.12
814.776	9890.12
815.03	10020.12
815.283	10084.12
815.536	10298.12
815.79	10419.12
816.043	10543.12
816.296	10679.12
816.55	10830.12
816.803	10944.12
817.056	11079.12
817.309	11183.12
817.562	11195.12
817.815	11484.12
818.068	11553.12
818.321	11646.12
818.574	11821.12
818.827	11986.12
819.079	12142.12
819.332	12400.12
819.585	12497.12
819.838	12733.12
820.09	12713.12
820.343	12851.12
820.595	12737.12
820.848	12983.12
821.1	12948.12
821.353	12963.12
821.605	12946.12
821.857	12936.12
822.11	12853.12
822.362	12807.12
822.614	12710.12
822.866	12749.12
823.118	12758.12
823.37	12844.12
823.622	12970.12
823.874	13009.12
824.126	13019.12
824.378	12954.12
824.63	13040.12
824.882	13145.12
825.134	12990.12
825.385	13005.12
825.637	12899.12
825.888	12843.12
826.14	12801.12
826.392	12703.12
826.643	12646.12
826.895	12555.12
827.146	12630.12
827.397	12553.12
827.649	12607.12
827.9	12403.12
828.151	12475.12
828.402	12543.12
828.653	12564.12
828.905	12574.12
829.156	12646.12
829.407	12587.12
829.658	12581.12
829.909	12640.12
830.159	12631.12
830.41	12608.12
830.661	12499.12
830.912	12462.12
831.162	12338.12
831.413	12354.12
831.664	12371.12
831.914	12295.12
832.165	12278.12
832.415	12251.12
832.666	12309.12
832.916	12303.12
833.167	12212.12
833.417	12280.12
833.667	12185.12
833.917	12130.12
834.168	12111.12
834.418	12140.12
834.668	12082.12
834.918	11978.12
835.168	11918.12
835.418	11799.12
835.668	11896.12
835.918	11771.12
836.167	11847.12
836.417	11658.12
836.667	11703.12
836.917	11597.12
837.166	11649.12
837.416	11724.12
837.666	11712.12
837.915	11576.12
838.165	11586.12
838.414	11484.12
838.663	11489.12
838.913	11567.12
839.162	11397.12
839.411	11556.12
839.661	11410.12
839.91	11478.12
840.159	11384.12
840.408	11382.12
840.657	11464.12
840.906	11394.12
841.155	11445.12
841.404	11376.12
841.653	11380.12
841.902	11388.12
842.15	11471.12
842.399	11377.12
842.648	11418.12
842.897	11333.12
843.145	11199.12
843.394	11187.12
843.642	11088.12
843.891	11069.12
844.139	10996.12
844.388	10860.12
844.636	10744.12
844.884	10831.12
845.133	10770.12
845.381	10824.12
845.629	10856.12
845.877	10726.12
846.125	10826.12
846.373	10779.12
846.621	10635.12
846.869	10696.12
847.117	10615.12
847.365	10568.12
847.613	10521.12
847.861	10476.12
848.108	10504.12
848.356	10459.12
848.604	10448.12
848.851	10524.12
849.099	10446.12
849.346	10498.12
849.594	10591.12
849.841	10550.12
850.089	10546.12
850.336	10531.12
850.583	10592.12
850.831	10566.12
851.078	10504.12
851.325	10661.12
851.572	10751.12
851.819	10607.12
852.066	10190.12
852.313	9987.12
852.56	9920.12
852.807	9800.12
853.054	9806.12
853.301	9831.12
853.548	9853.12
853.794	10033.12
854.041	10006.12
854.288	9984.12
854.534	10131.12
854.781	10056.12
855.028	9989.12
855.274	9997.12
855.52	9972.12
855.767	9905.12
856.013	9942.12
856.26	10212.12
856.506	9762.12
856.752	9720.12
856.998	9769.12
857.244	9752.12
857.49	9793.12
857.736	9853.12
857.982	9838.12
858.228	9775.12
858.474	9693.12
858.72	9573.12
858.966	9505.12
859.212	9335.12
859.458	9281.12
859.703	9210.12
859.949	9060.12
860.195	9054.12
860.44	9097.12
860.686	8997.12
860.931	9063.12
861.177	8918.12
861.422	8854.12
861.667	8763.12
861.913	8817.12
862.158	8810.12
862.403	8842.12
862.648	8863.12
862.893	8862.12
863.138	8885.12
863.384	8762.12
863.629	8798.12
863.873	8813.12
864.118	8758.12
864.363	8653.12
864.608	8640.12
864.853	8647.12
865.098	8541.12
865.342	8552.12
865.587	8426.12
865.832	8571.12
866.076	8427.12
866.321	8397.12
866.565	8437.12
866.81	8305.12
867.054	8372.12
867.298	8321.12
867.543	8309.12
867.787	8319.12
868.031	8301.12
868.275	8372.12
868.519	8307.12
868.764	8299.12
869.008	8287.12
869.252	8242.12
869.496	8220.12
869.739	8294.12
869.983	8372.12
870.227	8353.12
870.471	8281.12
870.715	8317.12
870.958	8369.12
871.202	8422.12
871.446	8365.12
871.689	8425.12
871.933	8355.12
872.176	8281.12
872.42	8279.12
872.663	8283.12
872.906	8342.12
873.15	8265.12
873.393	8247.12
873.636	8323.12
873.879	8166.12
874.122	8104.12
874.366	7903.12
874.609	7825.12
874.852	7778.12
875.095	7669.12
875.337	7733.12
875.58	7662.12
875.823	7634.12
876.066	7676.12
876.309	7700.12
876.551	7518.12
876.794	7488.12
877.037	7586.12
877.279	7444.12
877.522	7440.12
877.764	7463.12
878.007	7366.12
878.249	7348.12
878.491	7328.12
878.734	7356.12
878.976	7293.12
879.218	7160.12
879.46	7220.12
879.702	7155.12
879.945	7136.12
880.187	6985.12
880.429	6981.12
880.671	6982.12
880.912	6925.12
881.154	6865.12
881.396	6790.12
881.638	6875.12
881.88	6855.12
882.121	6833.12
882.363	6845.12
882.605	6833.12
882.846	6852.12
883.088	6897.12
883.329	6822.12
883.571	6895.12
883.812	7066.12
884.053	7205.12
884.295	7416.12
884.536	7595.12
884.777	7437.12
885.018	7457.12
885.259	7397.12
885.5	7279.12
885.742	7478.12
885.982	7202.12
886.223	7106.12
886.464	7071.12
886.705	6898.12
886.946	6879.12
887.187	6594.12
887.428	6564.12
887.668	6452.12
887.909	6321.12
888.15	6140.12
888.39	6242.12
888.631	6227.12
888.871	6107.12
889.111	6027.12
889.352	6028.12
889.592	5881.12
889.833	5816.12
890.073	5831.12
890.313	5907.12
890.553	5731.12
890.793	5745.12
891.033	5670.12
891.273	5615.12
891.513	5642.12
891.753	5734.12
891.993	5617.12
892.233	5664.12
892.473	5748.12
892.713	5707.12
892.952	5661.12
893.192	5612.12
893.432	5636.12
893.671	5659.12
893.911	5594.12
894.15	5662.12
894.39	5513.12
894.629	5489.12
894.869	5542.12
895.108	5470.12
895.347	5444.12
895.587	5445.12
895.826	5450.12
896.065	5381.12
896.304	5433.12
896.543	5402.12
896.782	5335.12
897.021	5390.12
897.26	5349.12
897.499	5502.12
897.738	5454.12
897.977	5404.12
898.216	5348.12
898.454	5275.12
898.693	5253.12
898.932	5265.12
899.17	5235.12
899.409	5202.12
899.647	5203.12
899.886	5172.12
900.124	5216.12
900.363	5213.12
900.601	5251.12
900.839	5244.12
901.078	5286.12
901.316	5320.12
901.554	5358.12
901.792	5483.12
902.03	5432.12
902.268	5471.12
902.506	5422.12
902.744	5334.12
902.982	5354.12
903.22	5164.12
903.458	5053.12
903.695	4998.12
903.933	4895.12
904.171	4786.12
904.409	4723.12
904.646	4668.12
904.884	4584.12
905.121	4580.12
905.359	4467.12
905.596	4449.12
905.833	4376.12
906.071	4380.12
906.308	4385.12
906.545	4375.12
906.783	4267.12
907.02	4282.12
907.257	4282.12
907.494	4327.12
907.731	4239.12
907.968	4265.12
908.205	4165.12
908.442	4195.12
908.679	4167.12
908.915	4119.12
909.152	4098.12
909.389	3983.12
909.626	4015.12
909.862	3957.12
910.099	3973.12
910.335	3971.12
910.572	3895.12
910.808	3915.12
911.045	3897.12
911.281	3835.12
911.518	3914.12
911.754	3866.12
911.99	3824.12
912.226	3800.12
912.463	3751.12
912.699	3721.12
912.935	3689.12
913.171	3690.12
913.407	3624.12
913.643	3672.12
913.879	3609.12
914.114	3533.12
914.35	3494.12
914.586	3506.12
914.822	3451.12
915.057	3478.12
915.293	3416.12
915.529	3354.12
915.764	3453.12
916	3403.12
916.235	3404.12
916.471	3434.12
916.706	3325.12
916.941	3360.12
917.177	3348.12
917.412	3395.12
917.647	3333.12
917.882	3331.12
918.117	3366.12
918.352	3304.12
918.588	3401.12
918.823	3293.12
919.057	3243.12
919.292	3129.12
919.527	3220.12
919.762	3151.12
919.997	3215.12
920.232	3104.12
920.466	3152.12
920.701	3025.12
920.935	3076.12
921.17	3046.12
921.405	2975.12
921.639	3016.12
921.873	2966.12
922.108	2952.12
922.342	2990.12
922.576	2952.12
922.811	2950.12
923.045	2970.12
923.279	2990.12
923.513	2857.12
923.747	2936.12
923.981	2890.12
924.215	2867.12
924.449	2844.12
924.683	2805.12
924.917	2823.12
925.151	2807.12
925.385	2874.12
925.618	2793.12
925.852	2798.12
926.086	2720.12
926.319	2781.12
926.553	2803.12
926.786	2811.12
927.02	2778.12
927.253	2798.12
927.486	2803.12
927.72	2724.12
927.953	2774.12
928.186	2716.12
928.42	2759.12
928.653	2702.12
928.886	2702.12
929.119	2728.12
929.352	2666.12
929.585	2692.12
929.818	2602.12
930.051	2623.12
930.284	2667.12
930.516	2522.12
930.749	2538.12
930.982	2568.12
931.215	2581.12
931.447	2471.12
931.68	2527.12
931.912	2505.12
932.145	2486.12
932.377	2531.12
932.61	2638.12
932.842	2438.12
933.074	2537.12
933.307	2446.12
933.539	2592.12
933.771	2553.12
934.003	2529.12
934.236	2573.12
934.468	2575.12
934.7	2496.12
934.932	2543.12
935.164	2458.12
935.395	2416.12
935.627	2455.12
935.859	2478.12
936.091	2402.12
936.323	2465.12
936.554	2491.12
936.786	2413.12
937.017	2364.12
937.249	2418.12
937.481	2339.12
937.712	2435.12
937.943	2374.12
938.175	2362.12
938.406	2363.12
938.637	2428.12
938.869	2337.12
939.1	2399.12
939.331	2373.12
939.562	2361.12
939.793	2362.12
940.024	2376.12
940.255	2378.12
940.486	2309.12
940.717	2323.12
940.948	2300.12
941.179	2272.12
941.409	2318.12
941.64	2281.12
941.871	2323.12
942.102	2292.12
942.332	2279.12
942.563	2302.12
942.793	2333.12
943.024	2226.12
943.254	2273.12
943.484	2340.12
943.715	2318.12
943.945	2272.12
944.175	2237.12
944.405	2215.12
944.636	2199.12
944.866	2254.12
945.096	2245.12
945.326	2203.12
945.556	2246.12
945.786	2272.12
946.016	2188.12
946.245	2139.12
946.475	2145.12
946.705	2172.12
946.935	2140.12
947.164	2163.12
947.394	2121.12
947.624	2146.12
947.853	2164.12
948.083	2127.12
948.312	2090.12
948.542	2064.12
948.771	2059.12
949	2097.12
949.23	2078.12
949.459	2093.12
949.688	2148.12
949.917	2106.12
950.146	2114.12
950.375	2158.12
950.604	2066.12
950.833	2149.12
951.062	2110.12
951.291	2046.12
951.52	2029.12
951.749	2058.12
951.978	1991.12
952.206	1996.12
952.435	2005.12
952.664	2060.12
952.892	2053.12
953.121	2039.12
953.349	2064.12
953.578	2041.12
953.806	2004.12
954.035	1958.12
954.263	2005.12
954.491	1936.12
954.719	1990.12
954.948	1943.12
955.176	1916.12
955.404	1870.12
955.632	1952.12
955.86	1944.12
956.088	1909.12
956.316	1939.12
956.544	1963.12
956.772	1927.12
956.999	1869.12
957.227	1983.12
957.455	1849.12
957.683	1855.12
957.91	1850.12
958.138	1869.12
958.365	1814.12
958.593	1867.12
958.82	1761.12
959.048	1850.12
959.275	1843.12
959.502	1792.12
959.73	1773.12
959.957	1807.12
960.184	1837.12
960.411	1814.12
960.638	1864.12
960.865	1802.12
961.092	1846.12
961.319	1751.12
961.546	1812.12
961.773	1829.12
962	1773.12
962.227	1842.12
962.454	1796.12
962.68	1767.12
962.907	1804.12
963.134	1731.12
963.36	1757.12
963.587	1777.12
963.813	1713.12
964.04	1769.12
964.266	1711.12
964.493	1776.12
964.719	1758.12
964.945	1752.12
965.171	1624.12
965.398	1696.12
965.624	1703.12
965.85	1658.12
966.076	1670.12
966.302	1702.12
966.528	1684.12
966.754	1700.12
966.98	1675.12
967.206	1660.12
967.431	1612.12
967.657	1706.12
967.883	1684.12
968.109	1678.12
968.334	1624.12
968.56	1620.12
968.785	1594.12
969.011	1587.12
969.236	1646.12
969.462	1563.12
969.687	1590.12
969.912	1622.12
970.138	1633.12
970.363	1563.12
970.588	1589.12
970.813	1567.12
971.038	1580.12
971.263	1587.12
971.488	1585.12
971.713	1608.12
971.938	1625.12
972.163	1540.12
972.388	1557.12
972.613	1534.12
972.838	1561.12
973.062	1561.12
973.287	1510.12
973.512	1440.12
973.736	1513.12
973.961	1522.12
974.185	1484.12
974.41	1521.12
974.634	1413.12
974.858	1439.12
975.083	1474.12
975.307	1507.12
975.531	1432.12
975.755	1414.12
975.98	1420.12
976.204	1368.12
976.428	1374.12
976.652	1384.12
976.876	1368.12
977.1	1392.12
977.324	1344.12
977.547	1409.12
977.771	1427.12
977.995	1386.12
978.219	1328.12
978.442	1445.12
978.666	1376.12
978.89	1382.12
979.113	1383.12
979.337	1374.12
979.56	1337.12
979.783	1430.12
980.007	1300.12
980.23	1363.12
980.453	1344.12
980.677	1349.12
980.9	1359.12
981.123	1263.12
981.346	1368.12
981.569	1341.12
981.792	1364.12
982.015	1319.12
982.238	1289.12
982.461	1341.12
982.684	1293.12
982.907	1267.12
983.129	1262.12
983.352	1305.12
983.575	1293.12
983.797	1302.12
984.02	1261.12
984.242	1287.12
984.465	1261.12
984.687	1295.12
984.91	1327.12
985.132	1286.12
985.354	1326.12
985.577	1287.12
985.799	1288.12
986.021	1204.12
986.243	1225.12
986.465	1256.12
986.687	1300.12
986.909	1332.12
987.131	1250.12
987.353	1237.12
987.575	1252.12
987.797	1238.12
988.019	1175.12
988.241	1241.12
988.462	1178.12
988.684	1267.12
988.906	1274.12
989.127	1297.12
989.349	1204.12
989.57	1201.12
989.792	1278.12
990.013	1284.12
990.234	1277.12
990.456	1291.12
990.677	1288.12
990.898	1214.12
991.119	1214.12
991.341	1261.12
991.562	1192.12
991.783	1239.12
992.004	1193.12
992.225	1168.12
992.446	1232.12
992.667	1129.12
992.887	1216.12
993.108	1101.12
993.329	1267.12
993.55	1196.12
993.77	1139.12
993.991	1154.12
994.212	1187.12
994.432	1166.12
994.653	1190.12
994.873	1159.12
995.093	1069.12
995.314	1115.12
995.534	1173.12
995.754	1193.12
995.975	1233.12
996.195	1119.12
996.415	1187.12
996.635	1155.12
996.855	1187.12
997.075	1148.12
997.295	1162.12
997.515	1123.12
997.735	1156.12
997.955	1167.12
998.174	1144.12
998.394	1127.12
998.614	1184.12
998.834	1105.12
999.053	1201.12
999.273	1186.12
999.492	1223.12
999.712	1118.12
999.931	1131.12
1000.151	1170.12
1000.37	1156.12
1000.589	1197.12
1000.809	1124.12
1001.028	1235.12
1001.247	1173.12
1001.466	1070.12
1001.685	1231.12
1001.904	1173.12
1002.123	1141.12
1002.342	1184.12
1002.561	1116.12
1002.78	1177.12
1002.999	1196.12
1003.218	1177.12
1003.436	1129.12
1003.655	1182.12
1003.874	1137.12
1004.092	1146.12
1004.311	1175.12
1004.53	1135.12
1004.748	1223.12
1004.966	1132.12
1005.185	1244.12
1005.403	1166.12
1005.622	1163.12
1005.84	1233.12
1006.058	1145.12
1006.276	1194.12
1006.494	1551.12
1006.712	1172.12
1006.931	1236.12
1007.149	1157.12
1007.367	1136.12
1007.584	1201.12
1007.802	1238.12
1008.02	1160.12
1008.238	1264.12
1008.456	1257.12
1008.673	1150.12
1008.891	1239.12
1009.109	1227.12
1009.326	1255.12
1009.544	1362.12
1009.761	1270.12
1009.979	1342.12
1010.196	1393.12
1010.413	1471.12
1010.631	1494.12
1010.848	1547.12
1011.065	1549.12
1011.282	1510.12
1011.5	1426.12
1011.717	1531.12
1011.934	1463.12
1012.151	1511.12
1012.368	1481.12
1012.585	1429.12
1012.801	1506.12
1013.018	1481.12
1013.235	1476.12
1013.452	1464.12
1013.669	1472.12
1013.885	1470.12
1014.102	1519.12
1014.318	1472.12
1014.535	1430.12
1014.751	1476.12
1014.968	1470.12
1015.184	1511.12
1015.401	1396.12
1015.617	1452.12
1015.833	1383.12
1016.049	1422.12
1016.266	1381.12
1016.482	1383.12
1016.698	1338.12
1016.914	1372.12
1017.13	1305.12
1017.346	1322.12
1017.562	1384.12
1017.778	1323.12
1017.993	1292.12
1018.209	1343.12
1018.425	1371.12
1018.641	1322.12
1018.856	1300.12
1019.072	1307.12
1019.288	1375.12
1019.503	1328.12
1019.719	1214.12
1019.934	1245.12
1020.149	1319.12
1020.365	1278.12
1020.58	1215.12
1020.795	1248.12
1021.011	1196.12
1021.226	1221.12
1021.441	1211.12
1021.656	1137.12
1021.871	1069.12
1022.086	1035.12
1022.301	1072.12
1022.516	1022.12
1022.731	1122.12
1022.946	1006.12
1023.16	1018.12
1023.375	971.12
1023.59	956.12
1023.804	913.12
1024.019	1030.12
1024.234	903.12
1024.448	928.12
1024.663	871.12
1024.877	867.12
1025.092	898.12
1025.306	902.12
1025.52	793.12
1025.734	914.12
1025.949	820.12
1026.163	803.12
1026.377	744.12
1026.591	781.12
1026.805	733.12
1027.019	703.12
1027.233	686.12
1027.447	636.12
1027.661	747.12
1027.875	681.12
1028.088	698.12
1028.302	626.12
1028.516	623.12
1028.73	623.12
1028.943	628.12
1029.157	570.12
1029.37	518.12
1029.584	-1.88
1029.797	0.12
1030.011	-0.88
1030.224	-2.88
