Data from QEP037381__250__11-39-29-425.txt Node

Date: Fri Apr 28 11:39:29 EDT 2023
User: dcclab
Spectrometer: QEP03738
Trigger mode: 4
Integration Time (sec): 1.000000E1
Scans to average: 1
Electric dark correction enabled: true
Nonlinearity correction enabled: false
Boxcar width: 0
XAxis mode: Wavelengths
Number of Pixels in Spectrum: 1044
>>>>>Begin Spectral Data<<<<<
784.041	10.75
784.3	0.75
784.558	-4.25
784.817	-2.25
785.075	66198.75
785.334	12962.75
785.592	6766.75
785.851	4714.75
786.109	3592.75
786.368	2850.75
786.626	2300.75
786.884	1906.75
787.143	1631.75
787.401	1323.75
787.659	1205.75
787.917	1045.75
788.175	970.75
788.433	833.75
788.691	756.75
788.949	714.75
789.207	669.75
789.465	585.75
789.723	578.75
789.98	533.75
790.238	565.75
790.496	522.75
790.753	492.75
791.011	542.75
791.268	483.75
791.526	469.75
791.783	465.75
792.041	476.75
792.298	396.75
792.556	454.75
792.813	451.75
793.07	419.75
793.327	394.75
793.584	487.75
793.841	400.75
794.099	431.75
794.356	498.75
794.613	380.75
794.869	422.75
795.126	396.75
795.383	379.75
795.64	401.75
795.897	353.75
796.153	404.75
796.41	388.75
796.667	382.75
796.923	382.75
797.18	385.75
797.436	402.75
797.693	374.75
797.949	420.75
798.206	440.75
798.462	349.75
798.718	408.75
798.974	387.75
799.231	422.75
799.487	418.75
799.743	406.75
799.999	431.75
800.255	428.75
800.511	421.75
800.767	460.75
801.023	445.75
801.279	454.75
801.534	495.75
801.79	509.75
802.046	516.75
802.302	635.75
802.557	687.75
802.813	827.75
803.068	982.75
803.324	1359.75
803.579	1779.75
803.835	2358.75
804.09	3184.75
804.345	3885.75
804.601	4687.75
804.856	5409.75
805.111	6012.75
805.366	6336.75
805.621	6578.75
805.876	6827.75
806.131	6903.75
806.386	7049.75
806.641	7092.75
806.896	7225.75
807.151	7357.75
807.406	7381.75
807.661	7576.75
807.915	7721.75
808.17	7831.75
808.425	7944.75
808.679	7985.75
808.934	8137.75
809.188	8134.75
809.443	8290.75
809.697	8472.75
809.951	8429.75
810.206	8445.75
810.46	8594.75
810.714	8701.75
810.968	8717.75
811.223	8757.75
811.477	8904.75
811.731	8937.75
811.985	8881.75
812.239	8911.75
812.493	8969.75
812.747	8918.75
813	9016.75
813.254	9090.75
813.508	9126.75
813.762	9097.75
814.015	9149.75
814.269	9153.75
814.522	9264.75
814.776	9372.75
815.03	9459.75
815.283	9605.75
815.536	9670.75
815.79	9874.75
816.043	9968.75
816.296	10019.75
816.55	10249.75
816.803	10357.75
817.056	10449.75
817.309	10519.75
817.562	10618.75
817.815	10821.75
818.068	10830.75
818.321	10957.75
818.574	11087.75
818.827	11220.75
819.079	11256.75
819.332	11686.75
819.585	11736.75
819.838	11905.75
820.09	11852.75
820.343	11900.75
820.595	11879.75
820.848	12066.75
821.1	12126.75
821.353	12101.75
821.605	12071.75
821.857	11983.75
822.11	11777.75
822.362	11837.75
822.614	11797.75
822.866	11884.75
823.118	11839.75
823.37	12010.75
823.622	11978.75
823.874	12148.75
824.126	12095.75
824.378	12039.75
824.63	12148.75
824.882	12154.75
825.134	12007.75
825.385	11989.75
825.637	11809.75
825.888	11903.75
826.14	11814.75
826.392	11702.75
826.643	11660.75
826.895	11549.75
827.146	11515.75
827.397	11497.75
827.649	11526.75
827.9	11441.75
828.151	11422.75
828.402	11477.75
828.653	11594.75
828.905	11574.75
829.156	11680.75
829.407	11632.75
829.658	11659.75
829.909	11879.75
830.159	11968.75
830.41	11832.75
830.661	11680.75
830.912	11560.75
831.162	11492.75
831.413	11534.75
831.664	11566.75
831.914	11494.75
832.165	11453.75
832.415	11423.75
832.666	11384.75
832.916	11484.75
833.167	11434.75
833.417	11483.75
833.667	11341.75
833.917	11271.75
834.168	11303.75
834.418	11272.75
834.668	11230.75
834.918	11130.75
835.168	11145.75
835.418	10918.75
835.668	10952.75
835.918	10950.75
836.167	10902.75
836.417	10789.75
836.667	10849.75
836.917	10920.75
837.166	10932.75
837.416	10918.75
837.666	10898.75
837.915	10902.75
838.165	10758.75
838.414	10737.75
838.663	10700.75
838.913	10819.75
839.162	10756.75
839.411	10854.75
839.661	10816.75
839.91	10814.75
840.159	10893.75
840.408	10787.75
840.657	10838.75
840.906	10846.75
841.155	10803.75
841.404	10754.75
841.653	10822.75
841.902	10796.75
842.15	10867.75
842.399	10934.75
842.648	10832.75
842.897	10792.75
843.145	10667.75
843.394	10607.75
843.642	10577.75
843.891	10418.75
844.139	10381.75
844.388	10338.75
844.636	10180.75
844.884	10190.75
845.133	10103.75
845.381	10167.75
845.629	10219.75
845.877	10235.75
846.125	10202.75
846.373	10194.75
846.621	10124.75
846.869	10120.75
847.117	10032.75
847.365	9982.75
847.613	9912.75
847.861	9994.75
848.108	10002.75
848.356	10049.75
848.604	9931.75
848.851	9963.75
849.099	10005.75
849.346	9963.75
849.594	10003.75
849.841	9998.75
850.089	10097.75
850.336	10070.75
850.583	10150.75
850.831	10089.75
851.078	10107.75
851.325	10284.75
851.572	10325.75
851.819	10265.75
852.066	9816.75
852.313	9540.75
852.56	9390.75
852.807	9353.75
853.054	9460.75
853.301	9433.75
853.548	9463.75
853.794	9582.75
854.041	9542.75
854.288	9536.75
854.534	9746.75
854.781	9625.75
855.028	9613.75
855.274	9746.75
855.52	9656.75
855.767	9787.75
856.013	9903.75
856.26	10175.75
856.506	9690.75
856.752	9625.75
856.998	9608.75
857.244	9591.75
857.49	9706.75
857.736	9743.75
857.982	9671.75
858.228	9602.75
858.474	9352.75
858.72	9342.75
858.966	9251.75
859.212	9085.75
859.458	9050.75
859.703	8917.75
859.949	8817.75
860.195	8802.75
860.44	8835.75
860.686	8802.75
860.931	8892.75
861.177	8713.75
861.422	8589.75
861.667	8441.75
861.913	8403.75
862.158	8342.75
862.403	8464.75
862.648	8409.75
862.893	8526.75
863.138	8478.75
863.384	8344.75
863.629	8328.75
863.873	8420.75
864.118	8403.75
864.363	8359.75
864.608	8310.75
864.853	8303.75
865.098	8230.75
865.342	8165.75
865.587	8139.75
865.832	8207.75
866.076	8146.75
866.321	8056.75
866.565	8023.75
866.81	7978.75
867.054	8019.75
867.298	8002.75
867.543	7976.75
867.787	8020.75
868.031	7959.75
868.275	8038.75
868.519	8000.75
868.764	8056.75
869.008	8012.75
869.252	8096.75
869.496	8046.75
869.739	8098.75
869.983	8158.75
870.227	8255.75
870.471	8203.75
870.715	8273.75
870.958	8375.75
871.202	8417.75
871.446	8410.75
871.689	8329.75
871.933	8340.75
872.176	8292.75
872.42	8210.75
872.663	8274.75
872.906	8355.75
873.15	8448.75
873.393	8518.75
873.636	8564.75
873.879	8391.75
874.122	8287.75
874.366	8004.75
874.609	7937.75
874.852	7782.75
875.095	7678.75
875.337	7692.75
875.58	7609.75
875.823	7554.75
876.066	7581.75
876.309	7562.75
876.551	7401.75
876.794	7384.75
877.037	7408.75
877.279	7300.75
877.522	7307.75
877.764	7281.75
878.007	7195.75
878.249	7225.75
878.491	7091.75
878.734	7096.75
878.976	7064.75
879.218	6992.75
879.46	7029.75
879.702	6892.75
879.945	6850.75
880.187	6681.75
880.429	6716.75
880.671	6706.75
880.912	6631.75
881.154	6641.75
881.396	6533.75
881.638	6637.75
881.88	6647.75
882.121	6626.75
882.363	6598.75
882.605	6691.75
882.846	6673.75
883.088	6739.75
883.329	6815.75
883.571	6949.75
883.812	7285.75
884.053	7633.75
884.295	8044.75
884.536	8298.75
884.777	8136.75
885.018	7964.75
885.259	7925.75
885.5	7777.75
885.742	7891.75
885.982	7634.75
886.223	7482.75
886.464	7360.75
886.705	7111.75
886.946	6983.75
887.187	6671.75
887.428	6596.75
887.668	6341.75
887.909	6183.75
888.15	6055.75
888.39	6014.75
888.631	5946.75
888.871	5882.75
889.111	5838.75
889.352	5735.75
889.592	5612.75
889.833	5614.75
890.073	5539.75
890.313	5636.75
890.553	5437.75
890.793	5458.75
891.033	5453.75
891.273	5339.75
891.513	5390.75
891.753	5452.75
891.993	5395.75
892.233	5367.75
892.473	5487.75
892.713	5408.75
892.952	5408.75
893.192	5406.75
893.432	5389.75
893.671	5419.75
893.911	5367.75
894.15	5342.75
894.39	5287.75
894.629	5241.75
894.869	5258.75
895.108	5230.75
895.347	5201.75
895.587	5212.75
895.826	5160.75
896.065	5199.75
896.304	5231.75
896.543	5225.75
896.782	5165.75
897.021	5211.75
897.26	5195.75
897.499	5353.75
897.738	5310.75
897.977	5233.75
898.216	5169.75
898.454	5138.75
898.693	5090.75
898.932	5210.75
899.17	5114.75
899.409	5084.75
899.647	5123.75
899.886	5105.75
900.124	5217.75
900.363	5154.75
900.601	5223.75
900.839	5277.75
901.078	5343.75
901.316	5409.75
901.554	5506.75
901.792	5592.75
902.03	5547.75
902.268	5581.75
902.506	5599.75
902.744	5460.75
902.982	5463.75
903.22	5254.75
903.458	5023.75
903.695	4976.75
903.933	4799.75
904.171	4671.75
904.409	4559.75
904.646	4536.75
904.884	4401.75
905.121	4398.75
905.359	4281.75
905.596	4298.75
905.833	4158.75
906.071	4154.75
906.308	4153.75
906.545	4136.75
906.783	4073.75
907.02	4062.75
907.257	4004.75
907.494	4038.75
907.731	4006.75
907.968	4043.75
908.205	4004.75
908.442	3964.75
908.679	3927.75
908.915	3881.75
909.152	3883.75
909.389	3748.75
909.626	3774.75
909.862	3680.75
910.099	3711.75
910.335	3744.75
910.572	3646.75
910.808	3658.75
911.045	3623.75
911.281	3583.75
911.518	3676.75
911.754	3529.75
911.99	3571.75
912.226	3512.75
912.463	3482.75
912.699	3454.75
912.935	3438.75
913.171	3449.75
913.407	3415.75
913.643	3406.75
913.879	3368.75
914.114	3365.75
914.35	3279.75
914.586	3245.75
914.822	3190.75
915.057	3272.75
915.293	3161.75
915.529	3115.75
915.764	3251.75
916	3193.75
916.235	3165.75
916.471	3168.75
916.706	3102.75
916.941	3127.75
917.177	3116.75
917.412	3149.75
917.647	3147.75
917.882	3108.75
918.117	3139.75
918.352	3095.75
918.588	3136.75
918.823	3019.75
919.057	3032.75
919.292	2934.75
919.527	3021.75
919.762	2946.75
919.997	2973.75
920.232	2871.75
920.466	2889.75
920.701	2773.75
920.935	2857.75
921.17	2822.75
921.405	2793.75
921.639	2820.75
921.873	2770.75
922.108	2810.75
922.342	2816.75
922.576	2717.75
922.811	2724.75
923.045	2769.75
923.279	2763.75
923.513	2605.75
923.747	2772.75
923.981	2657.75
924.215	2646.75
924.449	2661.75
924.683	2575.75
924.917	2632.75
925.151	2601.75
925.385	2659.75
925.618	2611.75
925.852	2622.75
926.086	2559.75
926.319	2618.75
926.553	2608.75
926.786	2636.75
927.02	2587.75
927.253	2587.75
927.486	2608.75
927.72	2500.75
927.953	2568.75
928.186	2549.75
928.42	2538.75
928.653	2536.75
928.886	2482.75
929.119	2549.75
929.352	2469.75
929.585	2498.75
929.818	2411.75
930.051	2455.75
930.284	2458.75
930.516	2376.75
930.749	2387.75
930.982	2423.75
931.215	2409.75
931.447	2304.75
931.68	2359.75
931.912	2326.75
932.145	2314.75
932.377	2382.75
932.61	2456.75
932.842	2305.75
933.074	2373.75
933.307	2322.75
933.539	2444.75
933.771	2400.75
934.003	2326.75
934.236	2464.75
934.468	2453.75
934.7	2381.75
934.932	2479.75
935.164	2402.75
935.395	2453.75
935.627	2457.75
935.859	2432.75
936.091	2358.75
936.323	2355.75
936.554	2380.75
936.786	2278.75
937.017	2228.75
937.249	2291.75
937.481	2209.75
937.712	2291.75
937.943	2232.75
938.175	2264.75
938.406	2224.75
938.637	2303.75
938.869	2241.75
939.1	2247.75
939.331	2223.75
939.562	2262.75
939.793	2230.75
940.024	2229.75
940.255	2241.75
940.486	2195.75
940.717	2194.75
940.948	2177.75
941.179	2154.75
941.409	2181.75
941.64	2170.75
941.871	2160.75
942.102	2134.75
942.332	2115.75
942.563	2168.75
942.793	2141.75
943.024	2093.75
943.254	2129.75
943.484	2179.75
943.715	2165.75
943.945	2147.75
944.175	2064.75
944.405	2053.75
944.636	2078.75
944.866	2104.75
945.096	2121.75
945.326	2049.75
945.556	2100.75
945.786	2142.75
946.016	2074.75
946.245	2034.75
946.475	2011.75
946.705	2052.75
946.935	2027.75
947.164	2035.75
947.394	1992.75
947.624	2003.75
947.853	2036.75
948.083	1975.75
948.312	1952.75
948.542	1928.75
948.771	1921.75
949	1912.75
949.23	1946.75
949.459	1940.75
949.688	1974.75
949.917	1941.75
950.146	1932.75
950.375	2013.75
950.604	1894.75
950.833	1985.75
951.062	1982.75
951.291	1947.75
951.52	1876.75
951.749	1918.75
951.978	1881.75
952.206	1879.75
952.435	1860.75
952.664	1927.75
952.892	1937.75
953.121	1896.75
953.349	1924.75
953.578	1903.75
953.806	1854.75
954.035	1803.75
954.263	1849.75
954.491	1799.75
954.719	1866.75
954.948	1806.75
955.176	1770.75
955.404	1733.75
955.632	1797.75
955.86	1798.75
956.088	1792.75
956.316	1807.75
956.544	1787.75
956.772	1774.75
956.999	1727.75
957.227	1837.75
957.455	1713.75
957.683	1725.75
957.91	1714.75
958.138	1691.75
958.365	1701.75
958.593	1730.75
958.82	1660.75
959.048	1689.75
959.275	1676.75
959.502	1699.75
959.73	1634.75
959.957	1696.75
960.184	1724.75
960.411	1637.75
960.638	1722.75
960.865	1667.75
961.092	1719.75
961.319	1599.75
961.546	1681.75
961.773	1684.75
962	1669.75
962.227	1682.75
962.454	1655.75
962.68	1650.75
962.907	1662.75
963.134	1620.75
963.36	1631.75
963.587	1663.75
963.813	1605.75
964.04	1640.75
964.266	1581.75
964.493	1689.75
964.719	1616.75
964.945	1626.75
965.171	1531.75
965.398	1584.75
965.624	1601.75
965.85	1565.75
966.076	1548.75
966.302	1593.75
966.528	1541.75
966.754	1588.75
966.98	1554.75
967.206	1581.75
967.431	1490.75
967.657	1607.75
967.883	1560.75
968.109	1574.75
968.334	1521.75
968.56	1491.75
968.785	1493.75
969.011	1472.75
969.236	1527.75
969.462	1469.75
969.687	1498.75
969.912	1531.75
970.138	1568.75
970.363	1475.75
970.588	1494.75
970.813	1472.75
971.038	1427.75
971.263	1499.75
971.488	1502.75
971.713	1499.75
971.938	1524.75
972.163	1412.75
972.388	1470.75
972.613	1412.75
972.838	1438.75
973.062	1416.75
973.287	1469.75
973.512	1343.75
973.736	1422.75
973.961	1407.75
974.185	1382.75
974.41	1433.75
974.634	1315.75
974.858	1344.75
975.083	1361.75
975.307	1435.75
975.531	1341.75
975.755	1278.75
975.98	1317.75
976.204	1276.75
976.428	1271.75
976.652	1281.75
976.876	1287.75
977.1	1323.75
977.324	1278.75
977.547	1311.75
977.771	1308.75
977.995	1286.75
978.219	1246.75
978.442	1362.75
978.666	1306.75
978.89	1297.75
979.113	1273.75
979.337	1282.75
979.56	1250.75
979.783	1318.75
980.007	1240.75
980.23	1261.75
980.453	1230.75
980.677	1281.75
980.9	1260.75
981.123	1186.75
981.346	1286.75
981.569	1259.75
981.792	1282.75
982.015	1247.75
982.238	1212.75
982.461	1230.75
982.684	1210.75
982.907	1201.75
983.129	1225.75
983.352	1249.75
983.575	1233.75
983.797	1213.75
984.02	1181.75
984.242	1192.75
984.465	1217.75
984.687	1242.75
984.91	1251.75
985.132	1220.75
985.354	1245.75
985.577	1220.75
985.799	1207.75
986.021	1124.75
986.243	1163.75
986.465	1179.75
986.687	1239.75
986.909	1280.75
987.131	1202.75
987.353	1161.75
987.575	1213.75
987.797	1171.75
988.019	1112.75
988.241	1157.75
988.462	1143.75
988.684	1205.75
988.906	1229.75
989.127	1252.75
989.349	1118.75
989.57	1162.75
989.792	1199.75
990.013	1221.75
990.234	1224.75
990.456	1229.75
990.677	1232.75
990.898	1185.75
991.119	1172.75
991.341	1214.75
991.562	1142.75
991.783	1198.75
992.004	1125.75
992.225	1104.75
992.446	1176.75
992.667	1116.75
992.887	1184.75
993.108	1078.75
993.329	1214.75
993.55	1156.75
993.77	1082.75
993.991	1105.75
994.212	1149.75
994.432	1136.75
994.653	1150.75
994.873	1153.75
995.093	1049.75
995.314	1097.75
995.534	1187.75
995.754	1164.75
995.975	1234.75
996.195	1105.75
996.415	1159.75
996.635	1122.75
996.855	1152.75
997.075	1140.75
997.295	1150.75
997.515	1131.75
997.735	1184.75
997.955	1150.75
998.174	1168.75
998.394	1129.75
998.614	1178.75
998.834	1125.75
999.053	1189.75
999.273	1166.75
999.492	1216.75
999.712	1125.75
999.931	1105.75
1000.151	1166.75
1000.37	1138.75
1000.589	1194.75
1000.809	1125.75
1001.028	1219.75
1001.247	1179.75
1001.466	1071.75
1001.685	1220.75
1001.904	1139.75
1002.123	1138.75
1002.342	1146.75
1002.561	1100.75
1002.78	1118.75
1002.999	1189.75
1003.218	1155.75
1003.436	1132.75
1003.655	1166.75
1003.874	1092.75
1004.092	1112.75
1004.311	1175.75
1004.53	1116.75
1004.748	1205.75
1004.966	1138.75
1005.185	1205.75
1005.403	1200.75
1005.622	1185.75
1005.84	1248.75
1006.058	1166.75
1006.276	1177.75
1006.494	1540.75
1006.712	1182.75
1006.931	1230.75
1007.149	1161.75
1007.367	1176.75
1007.584	1214.75
1007.802	1269.75
1008.02	1203.75
1008.238	1318.75
1008.456	1334.75
1008.673	1215.75
1008.891	1325.75
1009.109	1326.75
1009.326	1402.75
1009.544	1492.75
1009.761	1433.75
1009.979	1556.75
1010.196	1581.75
1010.413	1727.75
1010.631	1785.75
1010.848	1857.75
1011.065	1874.75
1011.282	1836.75
1011.5	1766.75
1011.717	1870.75
1011.934	1799.75
1012.151	1859.75
1012.368	1815.75
1012.585	1776.75
1012.801	1830.75
1013.018	1811.75
1013.235	1800.75
1013.452	1831.75
1013.669	1814.75
1013.885	1841.75
1014.102	1864.75
1014.318	1801.75
1014.535	1801.75
1014.751	1857.75
1014.968	1852.75
1015.184	1847.75
1015.401	1773.75
1015.617	1791.75
1015.833	1721.75
1016.049	1742.75
1016.266	1685.75
1016.482	1709.75
1016.698	1636.75
1016.914	1715.75
1017.13	1646.75
1017.346	1595.75
1017.562	1688.75
1017.778	1621.75
1017.993	1569.75
1018.209	1654.75
1018.425	1617.75
1018.641	1574.75
1018.856	1570.75
1019.072	1604.75
1019.288	1645.75
1019.503	1560.75
1019.719	1517.75
1019.934	1509.75
1020.149	1564.75
1020.365	1500.75
1020.58	1447.75
1020.795	1481.75
1021.011	1397.75
1021.226	1378.75
1021.441	1385.75
1021.656	1311.75
1021.871	1235.75
1022.086	1234.75
1022.301	1208.75
1022.516	1199.75
1022.731	1273.75
1022.946	1177.75
1023.16	1133.75
1023.375	1093.75
1023.59	1084.75
1023.804	1024.75
1024.019	1129.75
1024.234	990.75
1024.448	1021.75
1024.663	949.75
1024.877	975.75
1025.092	980.75
1025.306	976.75
1025.52	872.75
1025.734	975.75
1025.949	869.75
1026.163	864.75
1026.377	799.75
1026.591	867.75
1026.805	780.75
1027.019	770.75
1027.233	756.75
1027.447	690.75
1027.661	807.75
1027.875	735.75
1028.088	750.75
1028.302	687.75
1028.516	663.75
1028.73	673.75
1028.943	662.75
1029.157	614.75
1029.37	580.75
1029.584	-1.25
1029.797	2.75
1030.011	-4.25
1030.224	-2.25
