Data from QEP037381__242__11-38-09-424.txt Node

Date: Fri Apr 28 11:38:09 EDT 2023
User: dcclab
Spectrometer: QEP03738
Trigger mode: 4
Integration Time (sec): 1.000000E1
Scans to average: 1
Electric dark correction enabled: true
Nonlinearity correction enabled: false
Boxcar width: 0
XAxis mode: Wavelengths
Number of Pixels in Spectrum: 1044
>>>>>Begin Spectral Data<<<<<
784.041	13.5
784.3	-0.5
784.558	-5.5
784.817	-0.5
785.075	64119.5
785.334	12968.5
785.592	6875.5
785.851	4906.5
786.109	3734.5
786.368	2899.5
786.626	2361.5
786.884	1980.5
787.143	1645.5
787.401	1366.5
787.659	1246.5
787.917	1052.5
788.175	959.5
788.433	859.5
788.691	773.5
788.949	723.5
789.207	683.5
789.465	592.5
789.723	573.5
789.98	533.5
790.238	566.5
790.496	529.5
790.753	511.5
791.011	555.5
791.268	486.5
791.526	480.5
791.783	508.5
792.041	478.5
792.298	405.5
792.556	464.5
792.813	456.5
793.07	421.5
793.327	417.5
793.584	475.5
793.841	417.5
794.099	440.5
794.356	493.5
794.613	393.5
794.869	430.5
795.126	386.5
795.383	392.5
795.64	400.5
795.897	362.5
796.153	417.5
796.41	390.5
796.667	358.5
796.923	390.5
797.18	388.5
797.436	402.5
797.693	372.5
797.949	422.5
798.206	452.5
798.462	362.5
798.718	410.5
798.974	395.5
799.231	424.5
799.487	429.5
799.743	414.5
799.999	455.5
800.255	432.5
800.511	412.5
800.767	466.5
801.023	448.5
801.279	461.5
801.534	487.5
801.79	520.5
802.046	528.5
802.302	633.5
802.557	714.5
802.813	844.5
803.068	981.5
803.324	1402.5
803.579	1846.5
803.835	2511.5
804.09	3372.5
804.345	4210.5
804.601	5049.5
804.856	5824.5
805.111	6475.5
805.366	6900.5
805.621	7223.5
805.876	7438.5
806.131	7544.5
806.386	7625.5
806.641	7781.5
806.896	7948.5
807.151	8055.5
807.406	8113.5
807.661	8303.5
807.915	8461.5
808.17	8486.5
808.425	8655.5
808.679	8716.5
808.934	8941.5
809.188	8921.5
809.443	9091.5
809.697	9179.5
809.951	9276.5
810.206	9297.5
810.46	9435.5
810.714	9546.5
810.968	9540.5
811.223	9624.5
811.477	9641.5
811.731	9812.5
811.985	9825.5
812.239	9787.5
812.493	9882.5
812.747	9943.5
813	9918.5
813.254	9977.5
813.508	10030.5
813.762	10035.5
814.015	10165.5
814.269	10166.5
814.522	10247.5
814.776	10308.5
815.03	10358.5
815.283	10595.5
815.536	10774.5
815.79	10840.5
816.043	10948.5
816.296	11128.5
816.55	11208.5
816.803	11335.5
817.056	11607.5
817.309	11655.5
817.562	11823.5
817.815	11940.5
818.068	11993.5
818.321	12136.5
818.574	12312.5
818.827	12424.5
819.079	12603.5
819.332	12971.5
819.585	13091.5
819.838	13228.5
820.09	13148.5
820.343	13293.5
820.595	13308.5
820.848	13491.5
821.1	13505.5
821.353	13480.5
821.605	13389.5
821.857	13499.5
822.11	13387.5
822.362	13266.5
822.614	13241.5
822.866	13246.5
823.118	13309.5
823.37	13407.5
823.622	13345.5
823.874	13428.5
824.126	13486.5
824.378	13461.5
824.63	13586.5
824.882	13543.5
825.134	13462.5
825.385	13391.5
825.637	13325.5
825.888	13106.5
826.14	13265.5
826.392	13143.5
826.643	13085.5
826.895	13079.5
827.146	13012.5
827.397	12941.5
827.649	12981.5
827.9	12842.5
828.151	12896.5
828.402	12881.5
828.653	12951.5
828.905	12979.5
829.156	13039.5
829.407	13039.5
829.658	13090.5
829.909	13209.5
830.159	13147.5
830.41	13171.5
830.661	12989.5
830.912	12928.5
831.162	12927.5
831.413	12845.5
831.664	12819.5
831.914	12831.5
832.165	12731.5
832.415	12789.5
832.666	12723.5
832.916	12704.5
833.167	12685.5
833.417	12822.5
833.667	12589.5
833.917	12553.5
834.168	12677.5
834.418	12563.5
834.668	12476.5
834.918	12353.5
835.168	12347.5
835.418	12251.5
835.668	12197.5
835.918	12204.5
836.167	12172.5
836.417	12026.5
836.667	12108.5
836.917	12080.5
837.166	12066.5
837.416	12100.5
837.666	12082.5
837.915	11973.5
838.165	11966.5
838.414	11917.5
838.663	11919.5
838.913	11933.5
839.162	11859.5
839.411	11902.5
839.661	11815.5
839.91	11848.5
840.159	11816.5
840.408	11894.5
840.657	11889.5
840.906	11893.5
841.155	11846.5
841.404	11845.5
841.653	11848.5
841.902	11819.5
842.15	11868.5
842.399	11923.5
842.648	11873.5
842.897	11843.5
843.145	11702.5
843.394	11575.5
843.642	11563.5
843.891	11516.5
844.139	11362.5
844.388	11257.5
844.636	11261.5
844.884	11228.5
845.133	11203.5
845.381	11255.5
845.629	11205.5
845.877	11109.5
846.125	11205.5
846.373	11215.5
846.621	11056.5
846.869	11120.5
847.117	11013.5
847.365	10937.5
847.613	11022.5
847.861	10848.5
848.108	10957.5
848.356	10861.5
848.604	10815.5
848.851	10860.5
849.099	10872.5
849.346	10824.5
849.594	10900.5
849.841	10953.5
850.089	11009.5
850.336	10992.5
850.583	11023.5
850.831	10970.5
851.078	10954.5
851.325	11093.5
851.572	11240.5
851.819	10976.5
852.066	10597.5
852.313	10320.5
852.56	10164.5
852.807	10153.5
853.054	10131.5
853.301	10186.5
853.548	10264.5
853.794	10375.5
854.041	10327.5
854.288	10353.5
854.534	10442.5
854.781	10386.5
855.028	10372.5
855.274	10390.5
855.52	10408.5
855.767	10417.5
856.013	10510.5
856.26	10760.5
856.506	10303.5
856.752	10245.5
856.998	10233.5
857.244	10211.5
857.49	10277.5
857.736	10309.5
857.982	10303.5
858.228	10187.5
858.474	10069.5
858.72	10097.5
858.966	9940.5
859.212	9820.5
859.458	9600.5
859.703	9531.5
859.949	9404.5
860.195	9460.5
860.44	9457.5
860.686	9364.5
860.931	9391.5
861.177	9253.5
861.422	9161.5
861.667	9110.5
861.913	9047.5
862.158	9093.5
862.403	9112.5
862.648	9111.5
862.893	9170.5
863.138	9135.5
863.384	9015.5
863.629	9067.5
863.873	9095.5
864.118	9019.5
864.363	8904.5
864.608	8999.5
864.853	8874.5
865.098	8792.5
865.342	8730.5
865.587	8737.5
865.832	8714.5
866.076	8672.5
866.321	8729.5
866.565	8715.5
866.81	8623.5
867.054	8640.5
867.298	8637.5
867.543	8571.5
867.787	8571.5
868.031	8519.5
868.275	8581.5
868.519	8611.5
868.764	8631.5
869.008	8553.5
869.252	8673.5
869.496	8631.5
869.739	8553.5
869.983	8708.5
870.227	8731.5
870.471	8699.5
870.715	8821.5
870.958	8813.5
871.202	8849.5
871.446	8809.5
871.689	8723.5
871.933	8736.5
872.176	8691.5
872.42	8676.5
872.663	8646.5
872.906	8776.5
873.15	8732.5
873.393	8759.5
873.636	8778.5
873.879	8723.5
874.122	8537.5
874.366	8343.5
874.609	8219.5
874.852	8095.5
875.095	8081.5
875.337	8038.5
875.58	7941.5
875.823	7980.5
876.066	8003.5
876.309	7932.5
876.551	7867.5
876.794	7763.5
877.037	7830.5
877.279	7712.5
877.522	7670.5
877.764	7682.5
878.007	7645.5
878.249	7685.5
878.491	7619.5
878.734	7593.5
878.976	7507.5
879.218	7416.5
879.46	7463.5
879.702	7402.5
879.945	7290.5
880.187	7205.5
880.429	7188.5
880.671	7171.5
880.912	7162.5
881.154	7056.5
881.396	6996.5
881.638	7023.5
881.88	6973.5
882.121	7042.5
882.363	7026.5
882.605	7085.5
882.846	7034.5
883.088	7142.5
883.329	7110.5
883.571	7232.5
883.812	7453.5
884.053	7750.5
884.295	8025.5
884.536	8273.5
884.777	8158.5
885.018	8033.5
885.259	7972.5
885.5	7811.5
885.742	7934.5
885.982	7755.5
886.223	7530.5
886.464	7524.5
886.705	7292.5
886.946	7187.5
887.187	6940.5
887.428	6897.5
887.668	6695.5
887.909	6573.5
888.15	6356.5
888.39	6400.5
888.631	6303.5
888.871	6275.5
889.111	6195.5
889.352	6154.5
889.592	6017.5
889.833	5952.5
890.073	5963.5
890.313	5986.5
890.553	5868.5
890.793	5877.5
891.033	5800.5
891.273	5792.5
891.513	5738.5
891.753	5769.5
891.993	5715.5
892.233	5793.5
892.473	5867.5
892.713	5776.5
892.952	5740.5
893.192	5823.5
893.432	5788.5
893.671	5810.5
893.911	5745.5
894.15	5684.5
894.39	5682.5
894.629	5628.5
894.869	5647.5
895.108	5576.5
895.347	5560.5
895.587	5607.5
895.826	5549.5
896.065	5486.5
896.304	5539.5
896.543	5565.5
896.782	5491.5
897.021	5573.5
897.26	5545.5
897.499	5576.5
897.738	5625.5
897.977	5538.5
898.216	5521.5
898.454	5472.5
898.693	5406.5
898.932	5464.5
899.17	5451.5
899.409	5352.5
899.647	5396.5
899.886	5384.5
900.124	5431.5
900.363	5391.5
900.601	5508.5
900.839	5523.5
901.078	5531.5
901.316	5665.5
901.554	5641.5
901.792	5704.5
902.03	5762.5
902.268	5741.5
902.506	5726.5
902.744	5608.5
902.982	5606.5
903.22	5393.5
903.458	5309.5
903.695	5164.5
903.933	5047.5
904.171	4892.5
904.409	4855.5
904.646	4767.5
904.884	4711.5
905.121	4631.5
905.359	4527.5
905.596	4540.5
905.833	4435.5
906.071	4446.5
906.308	4450.5
906.545	4383.5
906.783	4304.5
907.02	4312.5
907.257	4287.5
907.494	4332.5
907.731	4295.5
907.968	4314.5
908.205	4230.5
908.442	4205.5
908.679	4214.5
908.915	4135.5
909.152	4161.5
909.389	4007.5
909.626	4071.5
909.862	4015.5
910.099	4030.5
910.335	4016.5
910.572	3924.5
910.808	3922.5
911.045	3905.5
911.281	3858.5
911.518	3948.5
911.754	3835.5
911.99	3856.5
912.226	3866.5
912.463	3745.5
912.699	3736.5
912.935	3747.5
913.171	3706.5
913.407	3623.5
913.643	3679.5
913.879	3586.5
914.114	3572.5
914.35	3511.5
914.586	3514.5
914.822	3479.5
915.057	3570.5
915.293	3381.5
915.529	3405.5
915.764	3498.5
916	3448.5
916.235	3364.5
916.471	3445.5
916.706	3336.5
916.941	3389.5
917.177	3357.5
917.412	3390.5
917.647	3381.5
917.882	3340.5
918.117	3392.5
918.352	3362.5
918.588	3378.5
918.823	3319.5
919.057	3223.5
919.292	3123.5
919.527	3258.5
919.762	3171.5
919.997	3180.5
920.232	3126.5
920.466	3156.5
920.701	3037.5
920.935	3068.5
921.17	2998.5
921.405	2976.5
921.639	3048.5
921.873	3017.5
922.108	2987.5
922.342	2974.5
922.576	2932.5
922.811	2929.5
923.045	3004.5
923.279	2996.5
923.513	2860.5
923.747	2902.5
923.981	2933.5
924.215	2866.5
924.449	2840.5
924.683	2785.5
924.917	2825.5
925.151	2795.5
925.385	2896.5
925.618	2796.5
925.852	2788.5
926.086	2736.5
926.319	2802.5
926.553	2779.5
926.786	2778.5
927.02	2733.5
927.253	2810.5
927.486	2784.5
927.72	2742.5
927.953	2793.5
928.186	2701.5
928.42	2751.5
928.653	2692.5
928.886	2716.5
929.119	2707.5
929.352	2693.5
929.585	2667.5
929.818	2655.5
930.051	2649.5
930.284	2661.5
930.516	2547.5
930.749	2547.5
930.982	2614.5
931.215	2576.5
931.447	2492.5
931.68	2536.5
931.912	2537.5
932.145	2544.5
932.377	2528.5
932.61	2696.5
932.842	2470.5
933.074	2529.5
933.307	2502.5
933.539	2554.5
933.771	2556.5
934.003	2511.5
934.236	2600.5
934.468	2566.5
934.7	2509.5
934.932	2573.5
935.164	2482.5
935.395	2466.5
935.627	2495.5
935.859	2460.5
936.091	2422.5
936.323	2515.5
936.554	2503.5
936.786	2441.5
937.017	2389.5
937.249	2458.5
937.481	2382.5
937.712	2455.5
937.943	2417.5
938.175	2388.5
938.406	2386.5
938.637	2458.5
938.869	2359.5
939.1	2439.5
939.331	2363.5
939.562	2365.5
939.793	2380.5
940.024	2403.5
940.255	2422.5
940.486	2353.5
940.717	2353.5
940.948	2353.5
941.179	2286.5
941.409	2290.5
941.64	2285.5
941.871	2299.5
942.102	2299.5
942.332	2268.5
942.563	2330.5
942.793	2316.5
943.024	2221.5
943.254	2291.5
943.484	2322.5
943.715	2348.5
943.945	2332.5
944.175	2227.5
944.405	2226.5
944.636	2208.5
944.866	2271.5
945.096	2256.5
945.326	2190.5
945.556	2245.5
945.786	2278.5
946.016	2210.5
946.245	2157.5
946.475	2164.5
946.705	2163.5
946.935	2182.5
947.164	2175.5
947.394	2136.5
947.624	2131.5
947.853	2169.5
948.083	2189.5
948.312	2109.5
948.542	2066.5
948.771	2062.5
949	2036.5
949.23	2074.5
949.459	2095.5
949.688	2156.5
949.917	2077.5
950.146	2117.5
950.375	2178.5
950.604	2018.5
950.833	2136.5
951.062	2126.5
951.291	2087.5
951.52	2043.5
951.749	2050.5
951.978	2043.5
952.206	2010.5
952.435	1993.5
952.664	2040.5
952.892	2054.5
953.121	2045.5
953.349	2040.5
953.578	2038.5
953.806	2001.5
954.035	1959.5
954.263	2015.5
954.491	1934.5
954.719	2010.5
954.948	1934.5
955.176	1937.5
955.404	1903.5
955.632	1939.5
955.86	1931.5
956.088	1942.5
956.316	1929.5
956.544	1960.5
956.772	1901.5
956.999	1883.5
957.227	1935.5
957.455	1878.5
957.683	1873.5
957.91	1822.5
958.138	1811.5
958.365	1815.5
958.593	1795.5
958.82	1812.5
959.048	1854.5
959.275	1814.5
959.502	1808.5
959.73	1770.5
959.957	1808.5
960.184	1857.5
960.411	1801.5
960.638	1849.5
960.865	1768.5
961.092	1824.5
961.319	1724.5
961.546	1842.5
961.773	1828.5
962	1767.5
962.227	1839.5
962.454	1802.5
962.68	1778.5
962.907	1789.5
963.134	1722.5
963.36	1764.5
963.587	1788.5
963.813	1695.5
964.04	1716.5
964.266	1718.5
964.493	1800.5
964.719	1736.5
964.945	1716.5
965.171	1633.5
965.398	1701.5
965.624	1712.5
965.85	1654.5
966.076	1644.5
966.302	1687.5
966.528	1650.5
966.754	1719.5
966.98	1695.5
967.206	1674.5
967.431	1614.5
967.657	1686.5
967.883	1647.5
968.109	1667.5
968.334	1614.5
968.56	1604.5
968.785	1619.5
969.011	1569.5
969.236	1618.5
969.462	1562.5
969.687	1594.5
969.912	1637.5
970.138	1656.5
970.363	1604.5
970.588	1602.5
970.813	1564.5
971.038	1557.5
971.263	1591.5
971.488	1566.5
971.713	1611.5
971.938	1601.5
972.163	1515.5
972.388	1556.5
972.613	1517.5
972.838	1556.5
973.062	1540.5
973.287	1526.5
973.512	1443.5
973.736	1526.5
973.961	1517.5
974.185	1447.5
974.41	1522.5
974.634	1414.5
974.858	1445.5
975.083	1473.5
975.307	1494.5
975.531	1435.5
975.755	1389.5
975.98	1414.5
976.204	1394.5
976.428	1348.5
976.652	1361.5
976.876	1370.5
977.1	1393.5
977.324	1348.5
977.547	1420.5
977.771	1407.5
977.995	1374.5
978.219	1296.5
978.442	1440.5
978.666	1404.5
978.89	1379.5
979.113	1372.5
979.337	1361.5
979.56	1336.5
979.783	1412.5
980.007	1323.5
980.23	1365.5
980.453	1302.5
980.677	1349.5
980.9	1327.5
981.123	1281.5
981.346	1371.5
981.569	1345.5
981.792	1343.5
982.015	1329.5
982.238	1289.5
982.461	1322.5
982.684	1278.5
982.907	1277.5
983.129	1255.5
983.352	1339.5
983.575	1298.5
983.797	1296.5
984.02	1243.5
984.242	1283.5
984.465	1251.5
984.687	1318.5
984.91	1336.5
985.132	1315.5
985.354	1320.5
985.577	1264.5
985.799	1307.5
986.021	1212.5
986.243	1226.5
986.465	1263.5
986.687	1311.5
986.909	1334.5
987.131	1284.5
987.353	1232.5
987.575	1261.5
987.797	1238.5
988.019	1204.5
988.241	1251.5
988.462	1208.5
988.684	1266.5
988.906	1307.5
989.127	1314.5
989.349	1195.5
989.57	1248.5
989.792	1280.5
990.013	1281.5
990.234	1269.5
990.456	1287.5
990.677	1286.5
990.898	1240.5
991.119	1242.5
991.341	1286.5
991.562	1193.5
991.783	1237.5
992.004	1169.5
992.225	1161.5
992.446	1208.5
992.667	1148.5
992.887	1229.5
993.108	1144.5
993.329	1274.5
993.55	1205.5
993.77	1148.5
993.991	1153.5
994.212	1183.5
994.432	1183.5
994.653	1190.5
994.873	1180.5
995.093	1073.5
995.314	1149.5
995.534	1210.5
995.754	1225.5
995.975	1260.5
996.195	1147.5
996.415	1215.5
996.635	1185.5
996.855	1202.5
997.075	1175.5
997.295	1161.5
997.515	1141.5
997.735	1215.5
997.955	1169.5
998.174	1170.5
998.394	1146.5
998.614	1186.5
998.834	1125.5
999.053	1200.5
999.273	1172.5
999.492	1213.5
999.712	1168.5
999.931	1158.5
1000.151	1179.5
1000.37	1160.5
1000.589	1183.5
1000.809	1165.5
1001.028	1263.5
1001.247	1198.5
1001.466	1094.5
1001.685	1254.5
1001.904	1169.5
1002.123	1164.5
1002.342	1191.5
1002.561	1111.5
1002.78	1162.5
1002.999	1213.5
1003.218	1156.5
1003.436	1141.5
1003.655	1223.5
1003.874	1134.5
1004.092	1171.5
1004.311	1199.5
1004.53	1175.5
1004.748	1247.5
1004.966	1174.5
1005.185	1208.5
1005.403	1217.5
1005.622	1184.5
1005.84	1242.5
1006.058	1156.5
1006.276	1191.5
1006.494	1594.5
1006.712	1204.5
1006.931	1258.5
1007.149	1176.5
1007.367	1195.5
1007.584	1222.5
1007.802	1280.5
1008.02	1201.5
1008.238	1333.5
1008.456	1330.5
1008.673	1171.5
1008.891	1331.5
1009.109	1290.5
1009.326	1335.5
1009.544	1437.5
1009.761	1357.5
1009.979	1475.5
1010.196	1513.5
1010.413	1599.5
1010.631	1667.5
1010.848	1728.5
1011.065	1707.5
1011.282	1669.5
1011.5	1622.5
1011.717	1715.5
1011.934	1640.5
1012.151	1685.5
1012.368	1686.5
1012.585	1649.5
1012.801	1692.5
1013.018	1652.5
1013.235	1645.5
1013.452	1671.5
1013.669	1679.5
1013.885	1669.5
1014.102	1689.5
1014.318	1661.5
1014.535	1626.5
1014.751	1706.5
1014.968	1659.5
1015.184	1689.5
1015.401	1605.5
1015.617	1635.5
1015.833	1597.5
1016.049	1570.5
1016.266	1557.5
1016.482	1556.5
1016.698	1497.5
1016.914	1545.5
1017.13	1512.5
1017.346	1479.5
1017.562	1558.5
1017.778	1505.5
1017.993	1463.5
1018.209	1539.5
1018.425	1513.5
1018.641	1469.5
1018.856	1463.5
1019.072	1512.5
1019.288	1547.5
1019.503	1506.5
1019.719	1408.5
1019.934	1404.5
1020.149	1491.5
1020.365	1406.5
1020.58	1362.5
1020.795	1382.5
1021.011	1305.5
1021.226	1297.5
1021.441	1302.5
1021.656	1266.5
1021.871	1174.5
1022.086	1185.5
1022.301	1184.5
1022.516	1179.5
1022.731	1223.5
1022.946	1104.5
1023.16	1090.5
1023.375	1056.5
1023.59	1042.5
1023.804	1022.5
1024.019	1103.5
1024.234	963.5
1024.448	1018.5
1024.663	926.5
1024.877	949.5
1025.092	959.5
1025.306	963.5
1025.52	863.5
1025.734	945.5
1025.949	860.5
1026.163	847.5
1026.377	780.5
1026.591	828.5
1026.805	769.5
1027.019	764.5
1027.233	728.5
1027.447	677.5
1027.661	808.5
1027.875	751.5
1028.088	728.5
1028.302	682.5
1028.516	678.5
1028.73	669.5
1028.943	638.5
1029.157	608.5
1029.37	569.5
1029.584	-2.5
1029.797	-0.5
1030.011	-4.5
1030.224	0.5
