Data from QEP037381__222__11-34-49-424.txt Node

Date: Fri Apr 28 11:34:49 EDT 2023
User: dcclab
Spectrometer: QEP03738
Trigger mode: 4
Integration Time (sec): 1.000000E1
Scans to average: 1
Electric dark correction enabled: true
Nonlinearity correction enabled: false
Boxcar width: 0
XAxis mode: Wavelengths
Number of Pixels in Spectrum: 1044
>>>>>Begin Spectral Data<<<<<
784.041	16.25
784.3	1.25
784.558	-3.75
784.817	-4.75
785.075	66836.25
785.334	13158.25
785.592	6802.25
785.851	4816.25
786.109	3668.25
786.368	2849.25
786.626	2365.25
786.884	1952.25
787.143	1646.25
787.401	1381.25
787.659	1250.25
787.917	1069.25
788.175	994.25
788.433	872.25
788.691	756.25
788.949	737.25
789.207	689.25
789.465	595.25
789.723	582.25
789.98	519.25
790.238	565.25
790.496	545.25
790.753	508.25
791.011	548.25
791.268	489.25
791.526	470.25
791.783	499.25
792.041	482.25
792.298	389.25
792.556	478.25
792.813	453.25
793.07	419.25
793.327	406.25
793.584	499.25
793.841	423.25
794.099	432.25
794.356	487.25
794.613	398.25
794.869	426.25
795.126	383.25
795.383	364.25
795.64	381.25
795.897	362.25
796.153	406.25
796.41	379.25
796.667	380.25
796.923	379.25
797.18	379.25
797.436	413.25
797.693	370.25
797.949	426.25
798.206	456.25
798.462	356.25
798.718	416.25
798.974	391.25
799.231	424.25
799.487	422.25
799.743	410.25
799.999	436.25
800.255	435.25
800.511	423.25
800.767	455.25
801.023	429.25
801.279	447.25
801.534	474.25
801.79	512.25
802.046	513.25
802.302	624.25
802.557	671.25
802.813	802.25
803.068	953.25
803.324	1315.25
803.579	1718.25
803.835	2326.25
804.09	3142.25
804.345	3974.25
804.601	4842.25
804.856	5658.25
805.111	6285.25
805.366	6690.25
805.621	7138.25
805.876	7326.25
806.131	7390.25
806.386	7480.25
806.641	7556.25
806.896	7699.25
807.151	7913.25
807.406	7931.25
807.661	8147.25
807.915	8242.25
808.17	8336.25
808.425	8512.25
808.679	8456.25
808.934	8653.25
809.188	8661.25
809.443	8815.25
809.697	8968.25
809.951	8984.25
810.206	9017.25
810.46	9129.25
810.714	9183.25
810.968	9336.25
811.223	9205.25
811.477	9365.25
811.731	9469.25
811.985	9448.25
812.239	9453.25
812.493	9478.25
812.747	9592.25
813	9570.25
813.254	9641.25
813.508	9696.25
813.762	9772.25
814.015	9781.25
814.269	9865.25
814.522	9949.25
814.776	9995.25
815.03	10153.25
815.283	10227.25
815.536	10415.25
815.79	10542.25
816.043	10673.25
816.296	10786.25
816.55	10938.25
816.803	11101.25
817.056	11237.25
817.309	11366.25
817.562	11368.25
817.815	11569.25
818.068	11680.25
818.321	11759.25
818.574	11972.25
818.827	12076.25
819.079	12144.25
819.332	12521.25
819.585	12613.25
819.838	12887.25
820.09	12750.25
820.343	12879.25
820.595	12869.25
820.848	13059.25
821.1	13031.25
821.353	13039.25
821.605	13068.25
821.857	13052.25
822.11	12901.25
822.362	12913.25
822.614	12825.25
822.866	12778.25
823.118	12886.25
823.37	12940.25
823.622	12964.25
823.874	12938.25
824.126	13090.25
824.378	13009.25
824.63	13162.25
824.882	13139.25
825.134	13081.25
825.385	13073.25
825.637	12916.25
825.888	12859.25
826.14	12831.25
826.392	12817.25
826.643	12667.25
826.895	12679.25
827.146	12625.25
827.397	12537.25
827.649	12619.25
827.9	12536.25
828.151	12479.25
828.402	12566.25
828.653	12626.25
828.905	12605.25
829.156	12628.25
829.407	12571.25
829.658	12616.25
829.909	12670.25
830.159	12697.25
830.41	12613.25
830.661	12517.25
830.912	12391.25
831.162	12385.25
831.413	12319.25
831.664	12376.25
831.914	12375.25
832.165	12279.25
832.415	12343.25
832.666	12325.25
832.916	12371.25
833.167	12337.25
833.417	12250.25
833.667	12139.25
833.917	12109.25
834.168	12104.25
834.418	12141.25
834.668	12063.25
834.918	11933.25
835.168	11908.25
835.418	11821.25
835.668	11927.25
835.918	11798.25
836.167	11719.25
836.417	11738.25
836.667	11721.25
836.917	11675.25
837.166	11666.25
837.416	11628.25
837.666	11657.25
837.915	11552.25
838.165	11561.25
838.414	11396.25
838.663	11363.25
838.913	11482.25
839.162	11374.25
839.411	11484.25
839.661	11277.25
839.91	11340.25
840.159	11334.25
840.408	11381.25
840.657	11433.25
840.906	11398.25
841.155	11420.25
841.404	11302.25
841.653	11339.25
841.902	11309.25
842.15	11334.25
842.399	11348.25
842.648	11290.25
842.897	11348.25
843.145	11185.25
843.394	11057.25
843.642	10998.25
843.891	11007.25
844.139	10898.25
844.388	10869.25
844.636	10759.25
844.884	10727.25
845.133	10709.25
845.381	10711.25
845.629	10722.25
845.877	10683.25
846.125	10745.25
846.373	10672.25
846.621	10615.25
846.869	10626.25
847.117	10559.25
847.365	10514.25
847.613	10516.25
847.861	10480.25
848.108	10494.25
848.356	10459.25
848.604	10434.25
848.851	10366.25
849.099	10441.25
849.346	10390.25
849.594	10463.25
849.841	10508.25
850.089	10383.25
850.336	10501.25
850.583	10489.25
850.831	10486.25
851.078	10445.25
851.325	10524.25
851.572	10630.25
851.819	10474.25
852.066	10060.25
852.313	9875.25
852.56	9749.25
852.807	9739.25
853.054	9756.25
853.301	9789.25
853.548	9786.25
853.794	9926.25
854.041	9859.25
854.288	9800.25
854.534	9960.25
854.781	9901.25
855.028	9832.25
855.274	9918.25
855.52	9845.25
855.767	9772.25
856.013	9836.25
856.26	10084.25
856.506	9708.25
856.752	9622.25
856.998	9655.25
857.244	9660.25
857.49	9687.25
857.736	9715.25
857.982	9698.25
858.228	9687.25
858.474	9544.25
858.72	9479.25
858.966	9408.25
859.212	9325.25
859.458	9231.25
859.703	9065.25
859.949	8965.25
860.195	9008.25
860.44	8946.25
860.686	8900.25
860.931	8957.25
861.177	8802.25
861.422	8785.25
861.667	8739.25
861.913	8687.25
862.158	8678.25
862.403	8829.25
862.648	8788.25
862.893	8811.25
863.138	8771.25
863.384	8692.25
863.629	8693.25
863.873	8696.25
864.118	8697.25
864.363	8571.25
864.608	8593.25
864.853	8599.25
865.098	8438.25
865.342	8403.25
865.587	8373.25
865.832	8435.25
866.076	8396.25
866.321	8318.25
866.565	8340.25
866.81	8198.25
867.054	8278.25
867.298	8227.25
867.543	8164.25
867.787	8311.25
868.031	8201.25
868.275	8147.25
868.519	8215.25
868.764	8189.25
869.008	8203.25
869.252	8207.25
869.496	8222.25
869.739	8176.25
869.983	8228.25
870.227	8213.25
870.471	8230.25
870.715	8269.25
870.958	8249.25
871.202	8242.25
871.446	8250.25
871.689	8253.25
871.933	8221.25
872.176	8227.25
872.42	8133.25
872.663	8149.25
872.906	8176.25
873.15	8105.25
873.393	8038.25
873.636	8130.25
873.879	8032.25
874.122	7990.25
874.366	7780.25
874.609	7746.25
874.852	7647.25
875.095	7671.25
875.337	7552.25
875.58	7472.25
875.823	7547.25
876.066	7570.25
876.309	7551.25
876.551	7342.25
876.794	7377.25
877.037	7428.25
877.279	7382.25
877.522	7372.25
877.764	7340.25
878.007	7252.25
878.249	7236.25
878.491	7227.25
878.734	7278.25
878.976	7205.25
879.218	7167.25
879.46	7141.25
879.702	7090.25
879.945	6991.25
880.187	6905.25
880.429	6880.25
880.671	6853.25
880.912	6800.25
881.154	6796.25
881.396	6731.25
881.638	6784.25
881.88	6759.25
882.121	6726.25
882.363	6706.25
882.605	6770.25
882.846	6794.25
883.088	6821.25
883.329	6672.25
883.571	6775.25
883.812	6927.25
884.053	7050.25
884.295	7262.25
884.536	7435.25
884.777	7295.25
885.018	7299.25
885.259	7233.25
885.5	7149.25
885.742	7232.25
885.982	7049.25
886.223	6954.25
886.464	6919.25
886.705	6743.25
886.946	6709.25
887.187	6509.25
887.428	6474.25
887.668	6326.25
887.909	6219.25
888.15	6105.25
888.39	6093.25
888.631	6113.25
888.871	6038.25
889.111	6003.25
889.352	5931.25
889.592	5885.25
889.833	5859.25
890.073	5763.25
890.313	5793.25
890.553	5586.25
890.793	5707.25
891.033	5670.25
891.273	5635.25
891.513	5573.25
891.753	5605.25
891.993	5580.25
892.233	5669.25
892.473	5659.25
892.713	5619.25
892.952	5608.25
893.192	5598.25
893.432	5582.25
893.671	5623.25
893.911	5584.25
894.15	5561.25
894.39	5431.25
894.629	5415.25
894.869	5470.25
895.108	5390.25
895.347	5337.25
895.587	5357.25
895.826	5304.25
896.065	5302.25
896.304	5317.25
896.543	5389.25
896.782	5281.25
897.021	5301.25
897.26	5308.25
897.499	5368.25
897.738	5407.25
897.977	5299.25
898.216	5257.25
898.454	5239.25
898.693	5136.25
898.932	5163.25
899.17	5158.25
899.409	5154.25
899.647	5102.25
899.886	5126.25
900.124	5118.25
900.363	5115.25
900.601	5117.25
900.839	5180.25
901.078	5215.25
901.316	5232.25
901.554	5305.25
901.792	5360.25
902.03	5310.25
902.268	5312.25
902.506	5302.25
902.744	5229.25
902.982	5175.25
903.22	5054.25
903.458	4958.25
903.695	4857.25
903.933	4846.25
904.171	4718.25
904.409	4630.25
904.646	4610.25
904.884	4501.25
905.121	4485.25
905.359	4411.25
905.596	4354.25
905.833	4294.25
906.071	4281.25
906.308	4315.25
906.545	4283.25
906.783	4217.25
907.02	4224.25
907.257	4212.25
907.494	4168.25
907.731	4205.25
907.968	4200.25
908.205	4159.25
908.442	4133.25
908.679	4141.25
908.915	4070.25
909.152	4044.25
909.389	3954.25
909.626	3925.25
909.862	3894.25
910.099	3922.25
910.335	3939.25
910.572	3799.25
910.808	3887.25
911.045	3811.25
911.281	3779.25
911.518	3892.25
911.754	3780.25
911.99	3799.25
912.226	3766.25
912.463	3713.25
912.699	3668.25
912.935	3653.25
913.171	3625.25
913.407	3614.25
913.643	3605.25
913.879	3590.25
914.114	3530.25
914.35	3482.25
914.586	3482.25
914.822	3436.25
915.057	3473.25
915.293	3340.25
915.529	3338.25
915.764	3411.25
916	3388.25
916.235	3365.25
916.471	3364.25
916.706	3314.25
916.941	3294.25
917.177	3288.25
917.412	3377.25
917.647	3385.25
917.882	3243.25
918.117	3329.25
918.352	3299.25
918.588	3308.25
918.823	3215.25
919.057	3194.25
919.292	3112.25
919.527	3207.25
919.762	3113.25
919.997	3127.25
920.232	3062.25
920.466	3085.25
920.701	2974.25
920.935	3062.25
921.17	2974.25
921.405	2928.25
921.639	3021.25
921.873	2944.25
922.108	3010.25
922.342	2993.25
922.576	2937.25
922.811	2886.25
923.045	2934.25
923.279	2955.25
923.513	2834.25
923.747	2945.25
923.981	2890.25
924.215	2802.25
924.449	2816.25
924.683	2752.25
924.917	2763.25
925.151	2761.25
925.385	2790.25
925.618	2771.25
925.852	2782.25
926.086	2674.25
926.319	2769.25
926.553	2751.25
926.786	2758.25
927.02	2728.25
927.253	2798.25
927.486	2769.25
927.72	2692.25
927.953	2738.25
928.186	2699.25
928.42	2714.25
928.653	2647.25
928.886	2612.25
929.119	2709.25
929.352	2656.25
929.585	2643.25
929.818	2590.25
930.051	2638.25
930.284	2630.25
930.516	2540.25
930.749	2522.25
930.982	2545.25
931.215	2575.25
931.447	2473.25
931.68	2480.25
931.912	2500.25
932.145	2463.25
932.377	2525.25
932.61	2622.25
932.842	2444.25
933.074	2502.25
933.307	2447.25
933.539	2558.25
933.771	2530.25
934.003	2481.25
934.236	2558.25
934.468	2536.25
934.7	2448.25
934.932	2499.25
935.164	2464.25
935.395	2419.25
935.627	2450.25
935.859	2437.25
936.091	2375.25
936.323	2426.25
936.554	2464.25
936.786	2388.25
937.017	2321.25
937.249	2397.25
937.481	2319.25
937.712	2427.25
937.943	2375.25
938.175	2314.25
938.406	2346.25
938.637	2431.25
938.869	2312.25
939.1	2380.25
939.331	2322.25
939.562	2374.25
939.793	2328.25
940.024	2340.25
940.255	2370.25
940.486	2304.25
940.717	2285.25
940.948	2269.25
941.179	2225.25
941.409	2278.25
941.64	2246.25
941.871	2265.25
942.102	2225.25
942.332	2227.25
942.563	2295.25
942.793	2291.25
943.024	2201.25
943.254	2225.25
943.484	2306.25
943.715	2294.25
943.945	2253.25
944.175	2188.25
944.405	2154.25
944.636	2206.25
944.866	2222.25
945.096	2262.25
945.326	2166.25
945.556	2240.25
945.786	2243.25
946.016	2181.25
946.245	2137.25
946.475	2155.25
946.705	2132.25
946.935	2135.25
947.164	2140.25
947.394	2115.25
947.624	2135.25
947.853	2122.25
948.083	2142.25
948.312	2070.25
948.542	2027.25
948.771	2020.25
949	2037.25
949.23	2053.25
949.459	2057.25
949.688	2100.25
949.917	2038.25
950.146	2043.25
950.375	2121.25
950.604	1988.25
950.833	2072.25
951.062	2095.25
951.291	2048.25
951.52	1989.25
951.749	2052.25
951.978	1979.25
952.206	1990.25
952.435	1988.25
952.664	2012.25
952.892	2017.25
953.121	1992.25
953.349	2015.25
953.578	2031.25
953.806	1982.25
954.035	1915.25
954.263	1962.25
954.491	1900.25
954.719	1959.25
954.948	1876.25
955.176	1884.25
955.404	1854.25
955.632	1943.25
955.86	1928.25
956.088	1889.25
956.316	1938.25
956.544	1928.25
956.772	1877.25
956.999	1865.25
957.227	1954.25
957.455	1840.25
957.683	1857.25
957.91	1847.25
958.138	1790.25
958.365	1789.25
958.593	1792.25
958.82	1742.25
959.048	1833.25
959.275	1797.25
959.502	1751.25
959.73	1760.25
959.957	1815.25
960.184	1831.25
960.411	1756.25
960.638	1841.25
960.865	1761.25
961.092	1797.25
961.319	1728.25
961.546	1817.25
961.773	1798.25
962	1779.25
962.227	1822.25
962.454	1772.25
962.68	1759.25
962.907	1774.25
963.134	1714.25
963.36	1742.25
963.587	1752.25
963.813	1689.25
964.04	1749.25
964.266	1670.25
964.493	1760.25
964.719	1723.25
964.945	1751.25
965.171	1664.25
965.398	1695.25
965.624	1730.25
965.85	1628.25
966.076	1658.25
966.302	1674.25
966.528	1642.25
966.754	1671.25
966.98	1641.25
967.206	1655.25
967.431	1601.25
967.657	1672.25
967.883	1654.25
968.109	1660.25
968.334	1602.25
968.56	1593.25
968.785	1600.25
969.011	1551.25
969.236	1610.25
969.462	1544.25
969.687	1587.25
969.912	1602.25
970.138	1652.25
970.363	1537.25
970.588	1617.25
970.813	1569.25
971.038	1546.25
971.263	1561.25
971.488	1557.25
971.713	1613.25
971.938	1614.25
972.163	1512.25
972.388	1554.25
972.613	1493.25
972.838	1522.25
973.062	1499.25
973.287	1525.25
973.512	1447.25
973.736	1505.25
973.961	1498.25
974.185	1465.25
974.41	1519.25
974.634	1412.25
974.858	1447.25
975.083	1462.25
975.307	1474.25
975.531	1442.25
975.755	1362.25
975.98	1384.25
976.204	1336.25
976.428	1346.25
976.652	1355.25
976.876	1365.25
977.1	1400.25
977.324	1351.25
977.547	1401.25
977.771	1409.25
977.995	1388.25
978.219	1320.25
978.442	1425.25
978.666	1382.25
978.89	1376.25
979.113	1364.25
979.337	1352.25
979.56	1319.25
979.783	1412.25
980.007	1295.25
980.23	1382.25
980.453	1293.25
980.677	1343.25
980.9	1338.25
981.123	1241.25
981.346	1326.25
981.569	1339.25
981.792	1359.25
982.015	1314.25
982.238	1247.25
982.461	1321.25
982.684	1265.25
982.907	1268.25
983.129	1247.25
983.352	1285.25
983.575	1303.25
983.797	1301.25
984.02	1230.25
984.242	1255.25
984.465	1293.25
984.687	1296.25
984.91	1320.25
985.132	1287.25
985.354	1287.25
985.577	1293.25
985.799	1257.25
986.021	1175.25
986.243	1241.25
986.465	1232.25
986.687	1273.25
986.909	1293.25
987.131	1285.25
987.353	1227.25
987.575	1244.25
987.797	1209.25
988.019	1171.25
988.241	1225.25
988.462	1196.25
988.684	1261.25
988.906	1270.25
989.127	1298.25
989.349	1191.25
989.57	1230.25
989.792	1243.25
990.013	1273.25
990.234	1258.25
990.456	1286.25
990.677	1267.25
990.898	1191.25
991.119	1207.25
991.341	1256.25
991.562	1176.25
991.783	1226.25
992.004	1159.25
992.225	1142.25
992.446	1206.25
992.667	1120.25
992.887	1201.25
993.108	1110.25
993.329	1270.25
993.55	1178.25
993.77	1132.25
993.991	1119.25
994.212	1179.25
994.432	1165.25
994.653	1187.25
994.873	1164.25
995.093	1051.25
995.314	1101.25
995.534	1181.25
995.754	1182.25
995.975	1198.25
996.195	1117.25
996.415	1162.25
996.635	1153.25
996.855	1156.25
997.075	1138.25
997.295	1124.25
997.515	1100.25
997.735	1186.25
997.955	1159.25
998.174	1118.25
998.394	1110.25
998.614	1148.25
998.834	1120.25
999.053	1187.25
999.273	1166.25
999.492	1229.25
999.712	1139.25
999.931	1096.25
1000.151	1153.25
1000.37	1122.25
1000.589	1183.25
1000.809	1120.25
1001.028	1235.25
1001.247	1191.25
1001.466	1074.25
1001.685	1218.25
1001.904	1144.25
1002.123	1138.25
1002.342	1160.25
1002.561	1109.25
1002.78	1144.25
1002.999	1211.25
1003.218	1127.25
1003.436	1137.25
1003.655	1183.25
1003.874	1112.25
1004.092	1151.25
1004.311	1164.25
1004.53	1148.25
1004.748	1207.25
1004.966	1151.25
1005.185	1208.25
1005.403	1172.25
1005.622	1186.25
1005.84	1226.25
1006.058	1132.25
1006.276	1186.25
1006.494	1536.25
1006.712	1168.25
1006.931	1221.25
1007.149	1147.25
1007.367	1131.25
1007.584	1186.25
1007.802	1187.25
1008.02	1184.25
1008.238	1260.25
1008.456	1254.25
1008.673	1141.25
1008.891	1230.25
1009.109	1199.25
1009.326	1258.25
1009.544	1339.25
1009.761	1258.25
1009.979	1332.25
1010.196	1333.25
1010.413	1423.25
1010.631	1469.25
1010.848	1484.25
1011.065	1523.25
1011.282	1444.25
1011.5	1386.25
1011.717	1499.25
1011.934	1433.25
1012.151	1490.25
1012.368	1472.25
1012.585	1403.25
1012.801	1466.25
1013.018	1436.25
1013.235	1417.25
1013.452	1432.25
1013.669	1441.25
1013.885	1415.25
1014.102	1478.25
1014.318	1436.25
1014.535	1389.25
1014.751	1428.25
1014.968	1452.25
1015.184	1425.25
1015.401	1370.25
1015.617	1417.25
1015.833	1355.25
1016.049	1378.25
1016.266	1337.25
1016.482	1362.25
1016.698	1279.25
1016.914	1381.25
1017.13	1321.25
1017.346	1312.25
1017.562	1362.25
1017.778	1296.25
1017.993	1271.25
1018.209	1364.25
1018.425	1307.25
1018.641	1290.25
1018.856	1279.25
1019.072	1302.25
1019.288	1347.25
1019.503	1308.25
1019.719	1217.25
1019.934	1222.25
1020.149	1313.25
1020.365	1243.25
1020.58	1168.25
1020.795	1227.25
1021.011	1170.25
1021.226	1158.25
1021.441	1177.25
1021.656	1096.25
1021.871	1029.25
1022.086	1032.25
1022.301	1028.25
1022.516	1036.25
1022.731	1107.25
1022.946	997.25
1023.16	975.25
1023.375	940.25
1023.59	917.25
1023.804	892.25
1024.019	997.25
1024.234	879.25
1024.448	926.25
1024.663	853.25
1024.877	842.25
1025.092	873.25
1025.306	876.25
1025.52	787.25
1025.734	887.25
1025.949	812.25
1026.163	778.25
1026.377	712.25
1026.591	791.25
1026.805	723.25
1027.019	704.25
1027.233	687.25
1027.447	636.25
1027.661	739.25
1027.875	698.25
1028.088	686.25
1028.302	619.25
1028.516	617.25
1028.73	624.25
1028.943	615.25
1029.157	571.25
1029.37	519.25
1029.584	-4.75
1029.797	-0.75
1030.011	-0.75
1030.224	-2.75
