Data from QEP037381__42__10-02-39-930.txt Node

Date: Wed Dec 21 10:02:39 EST 2022
User: dcclab
Spectrometer: QEP03738
Trigger mode: 4
Integration Time (sec): 1.000000E1
Scans to average: 1
Electric dark correction enabled: true
Nonlinearity correction enabled: false
Boxcar width: 0
XAxis mode: Wavelengths
Number of Pixels in Spectrum: 1044
>>>>>Begin Spectral Data<<<<<
784.041	12.12
784.3	1.12
784.558	-0.88
784.817	-6.88
785.075	110681.12
785.334	19289.12
785.592	9063.12
785.851	6230.12
786.109	4703.12
786.368	3641.12
786.626	2901.12
786.884	2375.12
787.143	2013.12
787.401	1669.12
787.659	1498.12
787.917	1274.12
788.175	1165.12
788.433	1023.12
788.691	906.12
788.949	821.12
789.207	785.12
789.465	696.12
789.723	660.12
789.98	607.12
790.238	637.12
790.496	603.12
790.753	563.12
791.011	620.12
791.268	539.12
791.526	520.12
791.783	534.12
792.041	513.12
792.298	437.12
792.556	499.12
792.813	482.12
793.07	460.12
793.327	437.12
793.584	520.12
793.841	432.12
794.099	435.12
794.356	510.12
794.613	406.12
794.869	456.12
795.126	407.12
795.383	386.12
795.64	400.12
795.897	370.12
796.153	416.12
796.41	405.12
796.667	400.12
796.923	384.12
797.18	391.12
797.436	417.12
797.693	367.12
797.949	426.12
798.206	454.12
798.462	363.12
798.718	432.12
798.974	395.12
799.231	437.12
799.487	428.12
799.743	425.12
799.999	451.12
800.255	421.12
800.511	422.12
800.767	452.12
801.023	422.12
801.279	440.12
801.534	475.12
801.79	498.12
802.046	504.12
802.302	588.12
802.557	601.12
802.813	696.12
803.068	788.12
803.324	1031.12
803.579	1312.12
803.835	1714.12
804.09	2366.12
804.345	2970.12
804.601	3707.12
804.856	4512.12
805.111	5175.12
805.366	5664.12
805.621	5968.12
805.876	6182.12
806.131	6313.12
806.386	6407.12
806.641	6462.12
806.896	6628.12
807.151	6728.12
807.406	6775.12
807.661	6884.12
807.915	7011.12
808.17	7055.12
808.425	7103.12
808.679	7093.12
808.934	7333.12
809.188	7288.12
809.443	7335.12
809.697	7443.12
809.951	7446.12
810.206	7420.12
810.46	7610.12
810.714	7592.12
810.968	7699.12
811.223	7671.12
811.477	7741.12
811.731	7832.12
811.985	7844.12
812.239	7762.12
812.493	7848.12
812.747	7959.12
813	7892.12
813.254	7939.12
813.508	7984.12
813.762	7992.12
814.015	8032.12
814.269	8059.12
814.522	8175.12
814.776	8269.12
815.03	8305.12
815.283	8478.12
815.536	8547.12
815.79	8658.12
816.043	8805.12
816.296	8818.12
816.55	8963.12
816.803	9038.12
817.056	9180.12
817.309	9196.12
817.562	9246.12
817.815	9333.12
818.068	9288.12
818.321	9434.12
818.574	9556.12
818.827	9653.12
819.079	9795.12
819.332	10031.12
819.585	9990.12
819.838	10177.12
820.09	10215.12
820.343	10301.12
820.595	10201.12
820.848	10323.12
821.1	10512.12
821.353	10374.12
821.605	10378.12
821.857	10488.12
822.11	10360.12
822.362	10367.12
822.614	10346.12
822.866	10370.12
823.118	10329.12
823.37	10462.12
823.622	10404.12
823.874	10444.12
824.126	10462.12
824.378	10519.12
824.63	10559.12
824.882	10578.12
825.134	10547.12
825.385	10502.12
825.637	10478.12
825.888	10416.12
826.14	10420.12
826.392	10316.12
826.643	10299.12
826.895	10241.12
827.146	10189.12
827.397	10147.12
827.649	10203.12
827.9	10052.12
828.151	10171.12
828.402	10207.12
828.653	10207.12
828.905	10249.12
829.156	10264.12
829.407	10237.12
829.658	10163.12
829.909	10249.12
830.159	10252.12
830.41	10193.12
830.661	10133.12
830.912	10045.12
831.162	9992.12
831.413	10017.12
831.664	10028.12
831.914	10042.12
832.165	9984.12
832.415	10019.12
832.666	10028.12
832.916	10056.12
833.167	9998.12
833.417	10068.12
833.667	9949.12
833.917	9923.12
834.168	9954.12
834.418	9903.12
834.668	9913.12
834.918	9886.12
835.168	9876.12
835.418	9800.12
835.668	9777.12
835.918	9716.12
836.167	9699.12
836.417	9699.12
836.667	9674.12
836.917	9706.12
837.166	9677.12
837.416	9631.12
837.666	9645.12
837.915	9641.12
838.165	9543.12
838.414	9504.12
838.663	9449.12
838.913	9515.12
839.162	9400.12
839.411	9490.12
839.661	9483.12
839.91	9387.12
840.159	9439.12
840.408	9394.12
840.657	9369.12
840.906	9408.12
841.155	9459.12
841.404	9296.12
841.653	9358.12
841.902	9302.12
842.15	9347.12
842.399	9459.12
842.648	9436.12
842.897	9375.12
843.145	9266.12
843.394	9221.12
843.642	9177.12
843.891	9194.12
844.139	9135.12
844.388	9043.12
844.636	9006.12
844.884	9019.12
845.133	8951.12
845.381	8958.12
845.629	9089.12
845.877	8968.12
846.125	8987.12
846.373	8943.12
846.621	8890.12
846.869	8908.12
847.117	8891.12
847.365	8819.12
847.613	8843.12
847.861	8772.12
848.108	8741.12
848.356	8764.12
848.604	8709.12
848.851	8714.12
849.099	8747.12
849.346	8773.12
849.594	8766.12
849.841	8793.12
850.089	8759.12
850.336	8780.12
850.583	8779.12
850.831	8772.12
851.078	8725.12
851.325	8690.12
851.572	8691.12
851.819	8581.12
852.066	8461.12
852.313	8352.12
852.56	8343.12
852.807	8318.12
853.054	8265.12
853.301	8325.12
853.548	8243.12
853.794	8353.12
854.041	8368.12
854.288	8448.12
854.534	8535.12
854.781	8456.12
855.028	8414.12
855.274	8424.12
855.52	8336.12
855.767	8279.12
856.013	8298.12
856.26	8528.12
856.506	8193.12
856.752	8191.12
856.998	8217.12
857.244	8224.12
857.49	8279.12
857.736	8264.12
857.982	8290.12
858.228	8265.12
858.474	8167.12
858.72	8140.12
858.966	8121.12
859.212	7993.12
859.458	7889.12
859.703	7816.12
859.949	7786.12
860.195	7776.12
860.44	7701.12
860.686	7637.12
860.931	7680.12
861.177	7606.12
861.422	7600.12
861.667	7512.12
861.913	7575.12
862.158	7616.12
862.403	7627.12
862.648	7631.12
862.893	7667.12
863.138	7615.12
863.384	7512.12
863.629	7650.12
863.873	7542.12
864.118	7486.12
864.363	7399.12
864.608	7532.12
864.853	7460.12
865.098	7406.12
865.342	7358.12
865.587	7350.12
865.832	7353.12
866.076	7392.12
866.321	7242.12
866.565	7239.12
866.81	7174.12
867.054	7238.12
867.298	7216.12
867.543	7190.12
867.787	7218.12
868.031	7147.12
868.275	7111.12
868.519	7098.12
868.764	7130.12
869.008	7107.12
869.252	7141.12
869.496	7115.12
869.739	7061.12
869.983	7135.12
870.227	7136.12
870.471	7028.12
870.715	7069.12
870.958	7082.12
871.202	7099.12
871.446	7025.12
871.689	7089.12
871.933	7077.12
872.176	7087.12
872.42	7089.12
872.663	7023.12
872.906	7057.12
873.15	7008.12
873.393	6948.12
873.636	7002.12
873.879	6925.12
874.122	6897.12
874.366	6817.12
874.609	6745.12
874.852	6686.12
875.095	6651.12
875.337	6569.12
875.58	6533.12
875.823	6593.12
876.066	6523.12
876.309	6629.12
876.551	6449.12
876.794	6449.12
877.037	6521.12
877.279	6445.12
877.522	6505.12
877.764	6455.12
878.007	6450.12
878.249	6376.12
878.491	6442.12
878.734	6476.12
878.976	6392.12
879.218	6357.12
879.46	6346.12
879.702	6332.12
879.945	6259.12
880.187	6116.12
880.429	6145.12
880.671	6090.12
880.912	6108.12
881.154	6044.12
881.396	5960.12
881.638	6001.12
881.88	5987.12
882.121	5963.12
882.363	6006.12
882.605	6012.12
882.846	5996.12
883.088	6005.12
883.329	5905.12
883.571	5911.12
883.812	5946.12
884.053	6139.12
884.295	6205.12
884.536	6401.12
884.777	6222.12
885.018	6201.12
885.259	6182.12
885.5	6103.12
885.742	6357.12
885.982	6141.12
886.223	6005.12
886.464	6004.12
886.705	5833.12
886.946	5915.12
887.187	5786.12
887.428	5833.12
887.668	5683.12
887.909	5598.12
888.15	5533.12
888.39	5534.12
888.631	5543.12
888.871	5499.12
889.111	5492.12
889.352	5433.12
889.592	5373.12
889.833	5289.12
890.073	5303.12
890.313	5309.12
890.553	5210.12
890.793	5207.12
891.033	5150.12
891.273	5150.12
891.513	5161.12
891.753	5181.12
891.993	5126.12
892.233	5139.12
892.473	5201.12
892.713	5154.12
892.952	5124.12
893.192	5138.12
893.432	5139.12
893.671	5148.12
893.911	5109.12
894.15	5054.12
894.39	4972.12
894.629	5012.12
894.869	4964.12
895.108	4919.12
895.347	4905.12
895.587	4928.12
895.826	4853.12
896.065	4846.12
896.304	4907.12
896.543	4915.12
896.782	4778.12
897.021	4796.12
897.26	4833.12
897.499	4843.12
897.738	4822.12
897.977	4782.12
898.216	4743.12
898.454	4661.12
898.693	4611.12
898.932	4628.12
899.17	4613.12
899.409	4561.12
899.647	4614.12
899.886	4526.12
900.124	4578.12
900.363	4527.12
900.601	4584.12
900.839	4596.12
901.078	4551.12
901.316	4568.12
901.554	4594.12
901.792	4632.12
902.03	4600.12
902.268	4576.12
902.506	4589.12
902.744	4515.12
902.982	4565.12
903.22	4485.12
903.458	4404.12
903.695	4414.12
903.933	4337.12
904.171	4288.12
904.409	4208.12
904.646	4216.12
904.884	4101.12
905.121	4210.12
905.359	4129.12
905.596	4032.12
905.833	3982.12
906.071	3966.12
906.308	4032.12
906.545	4008.12
906.783	3915.12
907.02	4004.12
907.257	3940.12
907.494	3953.12
907.731	3959.12
907.968	3939.12
908.205	3872.12
908.442	3865.12
908.679	3857.12
908.915	3804.12
909.152	3814.12
909.389	3744.12
909.626	3760.12
909.862	3643.12
910.099	3691.12
910.335	3764.12
910.572	3639.12
910.808	3673.12
911.045	3647.12
911.281	3587.12
911.518	3685.12
911.754	3602.12
911.99	3590.12
912.226	3537.12
912.463	3517.12
912.699	3569.12
912.935	3515.12
913.171	3458.12
913.407	3402.12
913.643	3473.12
913.879	3418.12
914.114	3405.12
914.35	3324.12
914.586	3283.12
914.822	3314.12
915.057	3345.12
915.293	3182.12
915.529	3216.12
915.764	3274.12
916	3217.12
916.235	3241.12
916.471	3215.12
916.706	3165.12
916.941	3181.12
917.177	3174.12
917.412	3186.12
917.647	3208.12
917.882	3110.12
918.117	3210.12
918.352	3146.12
918.588	3216.12
918.823	3106.12
919.057	3134.12
919.292	2968.12
919.527	3103.12
919.762	3001.12
919.997	3047.12
920.232	2977.12
920.466	3017.12
920.701	2849.12
920.935	2880.12
921.17	2883.12
921.405	2827.12
921.639	2905.12
921.873	2852.12
922.108	2888.12
922.342	2870.12
922.576	2780.12
922.811	2783.12
923.045	2795.12
923.279	2827.12
923.513	2730.12
923.747	2790.12
923.981	2767.12
924.215	2711.12
924.449	2706.12
924.683	2656.12
924.917	2668.12
925.151	2666.12
925.385	2738.12
925.618	2677.12
925.852	2643.12
926.086	2620.12
926.319	2656.12
926.553	2646.12
926.786	2689.12
927.02	2626.12
927.253	2661.12
927.486	2671.12
927.72	2628.12
927.953	2636.12
928.186	2587.12
928.42	2602.12
928.653	2583.12
928.886	2548.12
929.119	2593.12
929.352	2543.12
929.585	2539.12
929.818	2487.12
930.051	2545.12
930.284	2518.12
930.516	2418.12
930.749	2443.12
930.982	2445.12
931.215	2437.12
931.447	2387.12
931.68	2436.12
931.912	2426.12
932.145	2394.12
932.377	2456.12
932.61	2526.12
932.842	2322.12
933.074	2420.12
933.307	2365.12
933.539	2458.12
933.771	2425.12
934.003	2350.12
934.236	2485.12
934.468	2459.12
934.7	2421.12
934.932	2422.12
935.164	2364.12
935.395	2364.12
935.627	2358.12
935.859	2347.12
936.091	2294.12
936.323	2352.12
936.554	2437.12
936.786	2359.12
937.017	2261.12
937.249	2328.12
937.481	2224.12
937.712	2311.12
937.943	2294.12
938.175	2252.12
938.406	2281.12
938.637	2341.12
938.869	2269.12
939.1	2275.12
939.331	2252.12
939.562	2278.12
939.793	2289.12
940.024	2296.12
940.255	2327.12
940.486	2235.12
940.717	2251.12
940.948	2213.12
941.179	2167.12
941.409	2218.12
941.64	2207.12
941.871	2184.12
942.102	2169.12
942.332	2180.12
942.563	2228.12
942.793	2236.12
943.024	2167.12
943.254	2195.12
943.484	2206.12
943.715	2225.12
943.945	2205.12
944.175	2155.12
944.405	2083.12
944.636	2111.12
944.866	2170.12
945.096	2199.12
945.326	2078.12
945.556	2160.12
945.786	2167.12
946.016	2119.12
946.245	2071.12
946.475	2076.12
946.705	2047.12
946.935	2087.12
947.164	2082.12
947.394	2034.12
947.624	2084.12
947.853	2083.12
948.083	2076.12
948.312	2018.12
948.542	1979.12
948.771	1978.12
949	2006.12
949.23	2024.12
949.459	2021.12
949.688	2067.12
949.917	2021.12
950.146	1977.12
950.375	2098.12
950.604	1974.12
950.833	2044.12
951.062	2032.12
951.291	2003.12
951.52	1975.12
951.749	1987.12
951.978	1937.12
952.206	1948.12
952.435	1940.12
952.664	1998.12
952.892	1989.12
953.121	1925.12
953.349	2006.12
953.578	1953.12
953.806	1933.12
954.035	1903.12
954.263	1940.12
954.491	1866.12
954.719	1933.12
954.948	1872.12
955.176	1853.12
955.404	1788.12
955.632	1854.12
955.86	1891.12
956.088	1858.12
956.316	1895.12
956.544	1874.12
956.772	1854.12
956.999	1809.12
957.227	1897.12
957.455	1806.12
957.683	1835.12
957.91	1773.12
958.138	1793.12
958.365	1800.12
958.593	1778.12
958.82	1720.12
959.048	1790.12
959.275	1773.12
959.502	1767.12
959.73	1735.12
959.957	1788.12
960.184	1795.12
960.411	1708.12
960.638	1808.12
960.865	1724.12
961.092	1810.12
961.319	1690.12
961.546	1763.12
961.773	1783.12
962	1757.12
962.227	1772.12
962.454	1746.12
962.68	1708.12
962.907	1743.12
963.134	1731.12
963.36	1715.12
963.587	1703.12
963.813	1686.12
964.04	1720.12
964.266	1639.12
964.493	1731.12
964.719	1699.12
964.945	1705.12
965.171	1612.12
965.398	1660.12
965.624	1688.12
965.85	1615.12
966.076	1637.12
966.302	1669.12
966.528	1627.12
966.754	1644.12
966.98	1609.12
967.206	1629.12
967.431	1566.12
967.657	1652.12
967.883	1634.12
968.109	1661.12
968.334	1585.12
968.56	1585.12
968.785	1580.12
969.011	1529.12
969.236	1604.12
969.462	1543.12
969.687	1579.12
969.912	1586.12
970.138	1636.12
970.363	1552.12
970.588	1538.12
970.813	1548.12
971.038	1509.12
971.263	1545.12
971.488	1547.12
971.713	1605.12
971.938	1582.12
972.163	1490.12
972.388	1523.12
972.613	1501.12
972.838	1497.12
973.062	1468.12
973.287	1483.12
973.512	1471.12
973.736	1487.12
973.961	1471.12
974.185	1445.12
974.41	1508.12
974.634	1369.12
974.858	1434.12
975.083	1478.12
975.307	1484.12
975.531	1426.12
975.755	1372.12
975.98	1400.12
976.204	1329.12
976.428	1331.12
976.652	1377.12
976.876	1348.12
977.1	1376.12
977.324	1337.12
977.547	1400.12
977.771	1373.12
977.995	1357.12
978.219	1285.12
978.442	1423.12
978.666	1371.12
978.89	1367.12
979.113	1353.12
979.337	1349.12
979.56	1342.12
979.783	1387.12
980.007	1270.12
980.23	1341.12
980.453	1273.12
980.677	1337.12
980.9	1321.12
981.123	1242.12
981.346	1351.12
981.569	1321.12
981.792	1353.12
982.015	1296.12
982.238	1257.12
982.461	1298.12
982.684	1250.12
982.907	1235.12
983.129	1238.12
983.352	1287.12
983.575	1266.12
983.797	1269.12
984.02	1231.12
984.242	1258.12
984.465	1270.12
984.687	1295.12
984.91	1314.12
985.132	1253.12
985.354	1281.12
985.577	1261.12
985.799	1230.12
986.021	1179.12
986.243	1193.12
986.465	1226.12
986.687	1282.12
986.909	1314.12
987.131	1249.12
987.353	1191.12
987.575	1223.12
987.797	1207.12
988.019	1173.12
988.241	1215.12
988.462	1162.12
988.684	1232.12
988.906	1269.12
989.127	1258.12
989.349	1160.12
989.57	1182.12
989.792	1231.12
990.013	1237.12
990.234	1259.12
990.456	1262.12
990.677	1231.12
990.898	1193.12
991.119	1204.12
991.341	1228.12
991.562	1162.12
991.783	1210.12
992.004	1145.12
992.225	1113.12
992.446	1184.12
992.667	1110.12
992.887	1200.12
993.108	1079.12
993.329	1224.12
993.55	1173.12
993.77	1132.12
993.991	1113.12
994.212	1157.12
994.432	1132.12
994.653	1174.12
994.873	1171.12
995.093	1034.12
995.314	1102.12
995.534	1183.12
995.754	1154.12
995.975	1200.12
996.195	1085.12
996.415	1153.12
996.635	1130.12
996.855	1131.12
997.075	1098.12
997.295	1120.12
997.515	1087.12
997.735	1131.12
997.955	1100.12
998.174	1109.12
998.394	1057.12
998.614	1142.12
998.834	1077.12
999.053	1166.12
999.273	1121.12
999.492	1173.12
999.712	1119.12
999.931	1087.12
1000.151	1146.12
1000.37	1109.12
1000.589	1161.12
1000.809	1099.12
1001.028	1197.12
1001.247	1145.12
1001.466	1054.12
1001.685	1211.12
1001.904	1134.12
1002.123	1102.12
1002.342	1146.12
1002.561	1089.12
1002.78	1088.12
1002.999	1187.12
1003.218	1101.12
1003.436	1082.12
1003.655	1167.12
1003.874	1082.12
1004.092	1101.12
1004.311	1146.12
1004.53	1146.12
1004.748	1209.12
1004.966	1128.12
1005.185	1160.12
1005.403	1154.12
1005.622	1131.12
1005.84	1228.12
1006.058	1078.12
1006.276	1115.12
1006.494	1640.12
1006.712	1118.12
1006.931	1176.12
1007.149	1091.12
1007.367	1112.12
1007.584	1124.12
1007.802	1177.12
1008.02	1082.12
1008.238	1209.12
1008.456	1180.12
1008.673	1062.12
1008.891	1169.12
1009.109	1126.12
1009.326	1145.12
1009.544	1227.12
1009.761	1130.12
1009.979	1199.12
1010.196	1190.12
1010.413	1267.12
1010.631	1317.12
1010.848	1319.12
1011.065	1304.12
1011.282	1271.12
1011.5	1207.12
1011.717	1292.12
1011.934	1268.12
1012.151	1309.12
1012.368	1285.12
1012.585	1225.12
1012.801	1277.12
1013.018	1232.12
1013.235	1201.12
1013.452	1237.12
1013.669	1230.12
1013.885	1182.12
1014.102	1258.12
1014.318	1186.12
1014.535	1162.12
1014.751	1230.12
1014.968	1189.12
1015.184	1247.12
1015.401	1161.12
1015.617	1179.12
1015.833	1140.12
1016.049	1166.12
1016.266	1129.12
1016.482	1144.12
1016.698	1075.12
1016.914	1092.12
1017.13	1081.12
1017.346	1072.12
1017.562	1133.12
1017.778	1048.12
1017.993	1040.12
1018.209	1104.12
1018.425	1101.12
1018.641	1041.12
1018.856	1020.12
1019.072	1050.12
1019.288	1091.12
1019.503	1053.12
1019.719	962.12
1019.934	958.12
1020.149	1038.12
1020.365	1014.12
1020.58	946.12
1020.795	1001.12
1021.011	958.12
1021.226	929.12
1021.441	980.12
1021.656	903.12
1021.871	861.12
1022.086	868.12
1022.301	881.12
1022.516	870.12
1022.731	900.12
1022.946	811.12
1023.16	811.12
1023.375	793.12
1023.59	784.12
1023.804	750.12
1024.019	874.12
1024.234	743.12
1024.448	752.12
1024.663	706.12
1024.877	733.12
1025.092	763.12
1025.306	765.12
1025.52	680.12
1025.734	762.12
1025.949	695.12
1026.163	685.12
1026.377	617.12
1026.591	673.12
1026.805	616.12
1027.019	611.12
1027.233	578.12
1027.447	530.12
1027.661	613.12
1027.875	584.12
1028.088	586.12
1028.302	510.12
1028.516	496.12
1028.73	523.12
1028.943	529.12
1029.157	494.12
1029.37	466.12
1029.584	0.12
1029.797	-0.88
1030.011	-1.88
1030.224	-2.88
