Data from QEP037381__27__10-00-09-926.txt Node

Date: Wed Dec 21 10:00:09 EST 2022
User: dcclab
Spectrometer: QEP03738
Trigger mode: 4
Integration Time (sec): 1.000000E1
Scans to average: 1
Electric dark correction enabled: true
Nonlinearity correction enabled: false
Boxcar width: 0
XAxis mode: Wavelengths
Number of Pixels in Spectrum: 1044
>>>>>Begin Spectral Data<<<<<
784.041	10.38
784.3	2.38
784.558	2.38
784.817	-5.62
785.075	113716.38
785.334	19738.38
785.592	9187.38
785.851	6408.38
786.109	4800.38
786.368	3763.38
786.626	2964.38
786.884	2509.38
787.143	2077.38
787.401	1748.38
787.659	1544.38
787.917	1304.38
788.175	1181.38
788.433	1061.38
788.691	922.38
788.949	850.38
789.207	817.38
789.465	695.38
789.723	671.38
789.98	613.38
790.238	634.38
790.496	609.38
790.753	576.38
791.011	615.38
791.268	535.38
791.526	518.38
791.783	536.38
792.041	532.38
792.298	438.38
792.556	497.38
792.813	466.38
793.07	452.38
793.327	432.38
793.584	517.38
793.841	442.38
794.099	466.38
794.356	510.38
794.613	410.38
794.869	453.38
795.126	418.38
795.383	399.38
795.64	421.38
795.897	356.38
796.153	423.38
796.41	416.38
796.667	402.38
796.923	385.38
797.18	404.38
797.436	413.38
797.693	379.38
797.949	441.38
798.206	447.38
798.462	381.38
798.718	435.38
798.974	407.38
799.231	444.38
799.487	424.38
799.743	434.38
799.999	448.38
800.255	449.38
800.511	416.38
800.767	453.38
801.023	443.38
801.279	479.38
801.534	484.38
801.79	516.38
802.046	526.38
802.302	608.38
802.557	632.38
802.813	754.38
803.068	839.38
803.324	1116.38
803.579	1468.38
803.835	1951.38
804.09	2614.38
804.345	3329.38
804.601	4153.38
804.856	4980.38
805.111	5733.38
805.366	6290.38
805.621	6685.38
805.876	6935.38
806.131	7089.38
806.386	7164.38
806.641	7287.38
806.896	7318.38
807.151	7456.38
807.406	7537.38
807.661	7655.38
807.915	7792.38
808.17	7872.38
808.425	7985.38
808.679	7987.38
808.934	8068.38
809.188	8070.38
809.443	8252.38
809.697	8300.38
809.951	8279.38
810.206	8343.38
810.46	8447.38
810.714	8542.38
810.968	8636.38
811.223	8499.38
811.477	8668.38
811.731	8727.38
811.985	8726.38
812.239	8691.38
812.493	8772.38
812.747	8861.38
813	8801.38
813.254	8849.38
813.508	8920.38
813.762	8890.38
814.015	8935.38
814.269	9052.38
814.522	9057.38
814.776	9182.38
815.03	9301.38
815.283	9416.38
815.536	9572.38
815.79	9601.38
816.043	9783.38
816.296	9893.38
816.55	9947.38
816.803	10072.38
817.056	10231.38
817.309	10209.38
817.562	10323.38
817.815	10409.38
818.068	10394.38
818.321	10529.38
818.574	10620.38
818.827	10773.38
819.079	10815.38
819.332	11152.38
819.585	11154.38
819.838	11304.38
820.09	11347.38
820.343	11501.38
820.595	11347.38
820.848	11509.38
821.1	11563.38
821.353	11620.38
821.605	11516.38
821.857	11679.38
822.11	11519.38
822.362	11507.38
822.614	11396.38
822.866	11455.38
823.118	11453.38
823.37	11576.38
823.622	11522.38
823.874	11576.38
824.126	11672.38
824.378	11640.38
824.63	11661.38
824.882	11782.38
825.134	11637.38
825.385	11676.38
825.637	11636.38
825.888	11511.38
826.14	11516.38
826.392	11443.38
826.643	11382.38
826.895	11433.38
827.146	11327.38
827.397	11225.38
827.649	11358.38
827.9	11289.38
828.151	11254.38
828.402	11299.38
828.653	11303.38
828.905	11339.38
829.156	11424.38
829.407	11394.38
829.658	11437.38
829.909	11354.38
830.159	11351.38
830.41	11377.38
830.661	11218.38
830.912	11166.38
831.162	11134.38
831.413	11062.38
831.664	11182.38
831.914	11181.38
832.165	11100.38
832.415	11150.38
832.666	11113.38
832.916	11196.38
833.167	11120.38
833.417	11083.38
833.667	11095.38
833.917	10964.38
834.168	10999.38
834.418	10994.38
834.668	10887.38
834.918	10934.38
835.168	10921.38
835.418	10844.38
835.668	10770.38
835.918	10819.38
836.167	10787.38
836.417	10714.38
836.667	10792.38
836.917	10782.38
837.166	10683.38
837.416	10759.38
837.666	10692.38
837.915	10633.38
838.165	10771.38
838.414	10591.38
838.663	10459.38
838.913	10513.38
839.162	10468.38
839.411	10542.38
839.661	10464.38
839.91	10404.38
840.159	10333.38
840.408	10494.38
840.657	10387.38
840.906	10466.38
841.155	10422.38
841.404	10353.38
841.653	10336.38
841.902	10318.38
842.15	10363.38
842.399	10365.38
842.648	10394.38
842.897	10345.38
843.145	10247.38
843.394	10161.38
843.642	10114.38
843.891	10126.38
844.139	10110.38
844.388	9961.38
844.636	9963.38
844.884	10028.38
845.133	9932.38
845.381	9951.38
845.629	9996.38
845.877	9913.38
846.125	9922.38
846.373	9922.38
846.621	9853.38
846.869	9890.38
847.117	9818.38
847.365	9761.38
847.613	9752.38
847.861	9681.38
848.108	9680.38
848.356	9649.38
848.604	9628.38
848.851	9608.38
849.099	9625.38
849.346	9664.38
849.594	9803.38
849.841	9751.38
850.089	9712.38
850.336	9729.38
850.583	9766.38
850.831	9709.38
851.078	9625.38
851.325	9590.38
851.572	9662.38
851.819	9570.38
852.066	9389.38
852.313	9262.38
852.56	9223.38
852.807	9119.38
853.054	9090.38
853.301	9136.38
853.548	9143.38
853.794	9268.38
854.041	9258.38
854.288	9259.38
854.534	9430.38
854.781	9300.38
855.028	9229.38
855.274	9282.38
855.52	9272.38
855.767	9136.38
856.013	9183.38
856.26	9446.38
856.506	9071.38
856.752	9066.38
856.998	9015.38
857.244	9019.38
857.49	9046.38
857.736	9120.38
857.982	9086.38
858.228	9085.38
858.474	9046.38
858.72	9005.38
858.966	8884.38
859.212	8833.38
859.458	8777.38
859.703	8662.38
859.949	8580.38
860.195	8554.38
860.44	8503.38
860.686	8451.38
860.931	8421.38
861.177	8392.38
861.422	8423.38
861.667	8347.38
861.913	8312.38
862.158	8356.38
862.403	8415.38
862.648	8401.38
862.893	8405.38
863.138	8387.38
863.384	8359.38
863.629	8350.38
863.873	8349.38
864.118	8329.38
864.363	8237.38
864.608	8292.38
864.853	8267.38
865.098	8179.38
865.342	8150.38
865.587	8038.38
865.832	8151.38
866.076	8053.38
866.321	7991.38
866.565	8031.38
866.81	7931.38
867.054	8013.38
867.298	8011.38
867.543	7909.38
867.787	7961.38
868.031	7903.38
868.275	7897.38
868.519	7846.38
868.764	7848.38
869.008	7802.38
869.252	7848.38
869.496	7812.38
869.739	7769.38
869.983	7842.38
870.227	7794.38
870.471	7731.38
870.715	7775.38
870.958	7783.38
871.202	7802.38
871.446	7774.38
871.689	7816.38
871.933	7796.38
872.176	7825.38
872.42	7706.38
872.663	7737.38
872.906	7749.38
873.15	7657.38
873.393	7635.38
873.636	7702.38
873.879	7567.38
874.122	7536.38
874.366	7401.38
874.609	7453.38
874.852	7315.38
875.095	7254.38
875.337	7256.38
875.58	7168.38
875.823	7215.38
876.066	7231.38
876.309	7231.38
876.551	7127.38
876.794	7108.38
877.037	7104.38
877.279	7023.38
877.522	7091.38
877.764	7052.38
878.007	7057.38
878.249	7046.38
878.491	7014.38
878.734	7063.38
878.976	6977.38
879.218	6929.38
879.46	6990.38
879.702	6918.38
879.945	6873.38
880.187	6730.38
880.429	6727.38
880.671	6753.38
880.912	6672.38
881.154	6647.38
881.396	6556.38
881.638	6625.38
881.88	6632.38
882.121	6584.38
882.363	6629.38
882.605	6676.38
882.846	6583.38
883.088	6584.38
883.329	6517.38
883.571	6525.38
883.812	6597.38
884.053	6659.38
884.295	6786.38
884.536	6966.38
884.777	6831.38
885.018	6776.38
885.259	6800.38
885.5	6683.38
885.742	6941.38
885.982	6658.38
886.223	6637.38
886.464	6579.38
886.705	6440.38
886.946	6476.38
887.187	6374.38
887.428	6377.38
887.668	6165.38
887.909	6167.38
888.15	6113.38
888.39	6080.38
888.631	6046.38
888.871	6073.38
889.111	5997.38
889.352	5941.38
889.592	5870.38
889.833	5835.38
890.073	5765.38
890.313	5863.38
890.553	5670.38
890.793	5697.38
891.033	5681.38
891.273	5577.38
891.513	5673.38
891.753	5695.38
891.993	5656.38
892.233	5633.38
892.473	5706.38
892.713	5688.38
892.952	5610.38
893.192	5600.38
893.432	5598.38
893.671	5644.38
893.911	5577.38
894.15	5533.38
894.39	5459.38
894.629	5484.38
894.869	5450.38
895.108	5367.38
895.347	5368.38
895.587	5374.38
895.826	5325.38
896.065	5262.38
896.304	5347.38
896.543	5339.38
896.782	5256.38
897.021	5294.38
897.26	5261.38
897.499	5306.38
897.738	5297.38
897.977	5186.38
898.216	5164.38
898.454	5100.38
898.693	5026.38
898.932	5088.38
899.17	5001.38
899.409	5047.38
899.647	4956.38
899.886	4968.38
900.124	4971.38
900.363	4965.38
900.601	5001.38
900.839	4988.38
901.078	4944.38
901.316	5009.38
901.554	5026.38
901.792	5079.38
902.03	4971.38
902.268	5015.38
902.506	5010.38
902.744	4949.38
902.982	4988.38
903.22	4861.38
903.458	4884.38
903.695	4809.38
903.933	4803.38
904.171	4621.38
904.409	4605.38
904.646	4608.38
904.884	4502.38
905.121	4547.38
905.359	4465.38
905.596	4423.38
905.833	4371.38
906.071	4356.38
906.308	4385.38
906.545	4416.38
906.783	4285.38
907.02	4303.38
907.257	4273.38
907.494	4321.38
907.731	4289.38
907.968	4307.38
908.205	4284.38
908.442	4181.38
908.679	4261.38
908.915	4190.38
909.152	4175.38
909.389	4080.38
909.626	4071.38
909.862	3999.38
910.099	4063.38
910.335	4078.38
910.572	3980.38
910.808	4002.38
911.045	3994.38
911.281	3947.38
911.518	4021.38
911.754	3966.38
911.99	4006.38
912.226	3877.38
912.463	3814.38
912.699	3851.38
912.935	3793.38
913.171	3800.38
913.407	3697.38
913.643	3784.38
913.879	3718.38
914.114	3697.38
914.35	3653.38
914.586	3619.38
914.822	3570.38
915.057	3657.38
915.293	3503.38
915.529	3520.38
915.764	3607.38
916	3549.38
916.235	3513.38
916.471	3539.38
916.706	3411.38
916.941	3459.38
917.177	3445.38
917.412	3489.38
917.647	3491.38
917.882	3439.38
918.117	3543.38
918.352	3422.38
918.588	3464.38
918.823	3366.38
919.057	3374.38
919.292	3246.38
919.527	3341.38
919.762	3252.38
919.997	3274.38
920.232	3212.38
920.466	3263.38
920.701	3091.38
920.935	3174.38
921.17	3123.38
921.405	3095.38
921.639	3129.38
921.873	3072.38
922.108	3077.38
922.342	3093.38
922.576	3020.38
922.811	3068.38
923.045	3076.38
923.279	3093.38
923.513	2959.38
923.747	3077.38
923.981	3016.38
924.215	2964.38
924.449	2942.38
924.683	2894.38
924.917	2905.38
925.151	2866.38
925.385	2946.38
925.618	2901.38
925.852	2924.38
926.086	2817.38
926.319	2870.38
926.553	2858.38
926.786	2882.38
927.02	2810.38
927.253	2918.38
927.486	2866.38
927.72	2833.38
927.953	2888.38
928.186	2825.38
928.42	2858.38
928.653	2804.38
928.886	2777.38
929.119	2816.38
929.352	2824.38
929.585	2770.38
929.818	2730.38
930.051	2718.38
930.284	2709.38
930.516	2658.38
930.749	2649.38
930.982	2697.38
931.215	2663.38
931.447	2594.38
931.68	2630.38
931.912	2617.38
932.145	2573.38
932.377	2636.38
932.61	2746.38
932.842	2564.38
933.074	2667.38
933.307	2595.38
933.539	2722.38
933.771	2683.38
934.003	2696.38
934.236	2842.38
934.468	2867.38
934.7	2847.38
934.932	2876.38
935.164	2773.38
935.395	2720.38
935.627	2629.38
935.859	2613.38
936.091	2518.38
936.323	2574.38
936.554	2573.38
936.786	2507.38
937.017	2483.38
937.249	2520.38
937.481	2483.38
937.712	2537.38
937.943	2527.38
938.175	2482.38
938.406	2481.38
938.637	2579.38
938.869	2511.38
939.1	2554.38
939.331	2537.38
939.562	2597.38
939.793	2733.38
940.024	3171.38
940.255	3749.38
940.486	4135.38
940.717	4064.38
940.948	3720.38
941.179	3297.38
941.409	3014.38
941.64	2699.38
941.871	2561.38
942.102	2480.38
942.332	2448.38
942.563	2443.38
942.793	2424.38
943.024	2339.38
943.254	2318.38
943.484	2426.38
943.715	2418.38
943.945	2337.38
944.175	2287.38
944.405	2282.38
944.636	2295.38
944.866	2336.38
945.096	2343.38
945.326	2254.38
945.556	2353.38
945.786	2352.38
946.016	2281.38
946.245	2255.38
946.475	2223.38
946.705	2277.38
946.935	2260.38
947.164	2246.38
947.394	2189.38
947.624	2227.38
947.853	2259.38
948.083	2229.38
948.312	2197.38
948.542	2129.38
948.771	2097.38
949	2106.38
949.23	2156.38
949.459	2159.38
949.688	2187.38
949.917	2153.38
950.146	2155.38
950.375	2172.38
950.604	2089.38
950.833	2222.38
951.062	2180.38
951.291	2122.38
951.52	2140.38
951.749	2133.38
951.978	2094.38
952.206	2096.38
952.435	2087.38
952.664	2113.38
952.892	2120.38
953.121	2109.38
953.349	2110.38
953.578	2093.38
953.806	2075.38
954.035	2012.38
954.263	2075.38
954.491	2011.38
954.719	2082.38
954.948	2007.38
955.176	1987.38
955.404	1948.38
955.632	2022.38
955.86	2029.38
956.088	1967.38
956.316	2013.38
956.544	2036.38
956.772	1949.38
956.999	1934.38
957.227	2026.38
957.455	1940.38
957.683	1965.38
957.91	1898.38
958.138	1896.38
958.365	1883.38
958.593	1889.38
958.82	1860.38
959.048	1911.38
959.275	1884.38
959.502	1880.38
959.73	1873.38
959.957	1875.38
960.184	1911.38
960.411	1822.38
960.638	1914.38
960.865	1872.38
961.092	1909.38
961.319	1811.38
961.546	1879.38
961.773	1885.38
962	1846.38
962.227	1880.38
962.454	1862.38
962.68	1831.38
962.907	1863.38
963.134	1811.38
963.36	1842.38
963.587	1864.38
963.813	1793.38
964.04	1816.38
964.266	1760.38
964.493	1858.38
964.719	1784.38
964.945	1806.38
965.171	1694.38
965.398	1774.38
965.624	1792.38
965.85	1705.38
966.076	1721.38
966.302	1769.38
966.528	1741.38
966.754	1764.38
966.98	1763.38
967.206	1743.38
967.431	1685.38
967.657	1782.38
967.883	1755.38
968.109	1715.38
968.334	1686.38
968.56	1671.38
968.785	1710.38
969.011	1632.38
969.236	1702.38
969.462	1615.38
969.687	1662.38
969.912	1692.38
970.138	1705.38
970.363	1635.38
970.588	1647.38
970.813	1647.38
971.038	1623.38
971.263	1679.38
971.488	1653.38
971.713	1652.38
971.938	1656.38
972.163	1543.38
972.388	1599.38
972.613	1595.38
972.838	1581.38
973.062	1600.38
973.287	1573.38
973.512	1500.38
973.736	1585.38
973.961	1563.38
974.185	1542.38
974.41	1575.38
974.634	1476.38
974.858	1485.38
975.083	1547.38
975.307	1582.38
975.531	1508.38
975.755	1451.38
975.98	1499.38
976.204	1409.38
976.428	1428.38
976.652	1441.38
976.876	1422.38
977.1	1446.38
977.324	1429.38
977.547	1459.38
977.771	1473.38
977.995	1438.38
978.219	1392.38
978.442	1489.38
978.666	1429.38
978.89	1438.38
979.113	1412.38
979.337	1433.38
979.56	1380.38
979.783	1462.38
980.007	1374.38
980.23	1393.38
980.453	1373.38
980.677	1419.38
980.9	1375.38
981.123	1287.38
981.346	1409.38
981.569	1356.38
981.792	1426.38
982.015	1356.38
982.238	1334.38
982.461	1358.38
982.684	1326.38
982.907	1304.38
983.129	1307.38
983.352	1347.38
983.575	1331.38
983.797	1358.38
984.02	1291.38
984.242	1303.38
984.465	1313.38
984.687	1328.38
984.91	1370.38
985.132	1338.38
985.354	1347.38
985.577	1324.38
985.799	1319.38
986.021	1257.38
986.243	1275.38
986.465	1307.38
986.687	1323.38
986.909	1380.38
987.131	1297.38
987.353	1276.38
987.575	1305.38
987.797	1265.38
988.019	1211.38
988.241	1254.38
988.462	1232.38
988.684	1284.38
988.906	1320.38
989.127	1335.38
989.349	1207.38
989.57	1236.38
989.792	1284.38
990.013	1300.38
990.234	1303.38
990.456	1324.38
990.677	1308.38
990.898	1241.38
991.119	1250.38
991.341	1294.38
991.562	1209.38
991.783	1265.38
992.004	1192.38
992.225	1185.38
992.446	1242.38
992.667	1149.38
992.887	1239.38
993.108	1136.38
993.329	1274.38
993.55	1215.38
993.77	1159.38
993.991	1164.38
994.212	1201.38
994.432	1191.38
994.653	1215.38
994.873	1221.38
995.093	1082.38
995.314	1116.38
995.534	1203.38
995.754	1227.38
995.975	1245.38
996.195	1130.38
996.415	1186.38
996.635	1169.38
996.855	1182.38
997.075	1147.38
997.295	1138.38
997.515	1134.38
997.735	1202.38
997.955	1167.38
998.174	1139.38
998.394	1128.38
998.614	1163.38
998.834	1123.38
999.053	1188.38
999.273	1178.38
999.492	1199.38
999.712	1148.38
999.931	1140.38
1000.151	1165.38
1000.37	1139.38
1000.589	1210.38
1000.809	1132.38
1001.028	1224.38
1001.247	1168.38
1001.466	1051.38
1001.685	1228.38
1001.904	1158.38
1002.123	1156.38
1002.342	1158.38
1002.561	1130.38
1002.78	1138.38
1002.999	1207.38
1003.218	1168.38
1003.436	1139.38
1003.655	1188.38
1003.874	1130.38
1004.092	1157.38
1004.311	1193.38
1004.53	1120.38
1004.748	1239.38
1004.966	1138.38
1005.185	1192.38
1005.403	1197.38
1005.622	1152.38
1005.84	1231.38
1006.058	1152.38
1006.276	1162.38
1006.494	1628.38
1006.712	1148.38
1006.931	1215.38
1007.149	1119.38
1007.367	1135.38
1007.584	1167.38
1007.802	1199.38
1008.02	1139.38
1008.238	1259.38
1008.456	1198.38
1008.673	1096.38
1008.891	1203.38
1009.109	1161.38
1009.326	1180.38
1009.544	1261.38
1009.761	1167.38
1009.979	1232.38
1010.196	1246.38
1010.413	1316.38
1010.631	1344.38
1010.848	1338.38
1011.065	1374.38
1011.282	1300.38
1011.5	1225.38
1011.717	1352.38
1011.934	1272.38
1012.151	1325.38
1012.368	1282.38
1012.585	1251.38
1012.801	1316.38
1013.018	1260.38
1013.235	1225.38
1013.452	1243.38
1013.669	1251.38
1013.885	1250.38
1014.102	1254.38
1014.318	1237.38
1014.535	1199.38
1014.751	1243.38
1014.968	1228.38
1015.184	1257.38
1015.401	1182.38
1015.617	1207.38
1015.833	1134.38
1016.049	1162.38
1016.266	1163.38
1016.482	1180.38
1016.698	1079.38
1016.914	1145.38
1017.13	1092.38
1017.346	1105.38
1017.562	1164.38
1017.778	1075.38
1017.993	1085.38
1018.209	1128.38
1018.425	1090.38
1018.641	1044.38
1018.856	1035.38
1019.072	1090.38
1019.288	1122.38
1019.503	1065.38
1019.719	992.38
1019.934	997.38
1020.149	1076.38
1020.365	1031.38
1020.58	984.38
1020.795	1017.38
1021.011	952.38
1021.226	969.38
1021.441	1009.38
1021.656	933.38
1021.871	862.38
1022.086	877.38
1022.301	857.38
1022.516	863.38
1022.731	917.38
1022.946	847.38
1023.16	836.38
1023.375	804.38
1023.59	814.38
1023.804	749.38
1024.019	878.38
1024.234	753.38
1024.448	814.38
1024.663	723.38
1024.877	731.38
1025.092	773.38
1025.306	771.38
1025.52	692.38
1025.734	773.38
1025.949	708.38
1026.163	675.38
1026.377	640.38
1026.591	694.38
1026.805	622.38
1027.019	625.38
1027.233	587.38
1027.447	537.38
1027.661	652.38
1027.875	579.38
1028.088	596.38
1028.302	541.38
1028.516	530.38
1028.73	544.38
1028.943	535.38
1029.157	499.38
1029.37	457.38
1029.584	-1.62
1029.797	-2.62
1030.011	-2.62
1030.224	-2.62
