Data from QEP037381__36__10-01-39-927.txt Node

Date: Wed Dec 21 10:01:39 EST 2022
User: dcclab
Spectrometer: QEP03738
Trigger mode: 4
Integration Time (sec): 1.000000E1
Scans to average: 1
Electric dark correction enabled: true
Nonlinearity correction enabled: false
Boxcar width: 0
XAxis mode: Wavelengths
Number of Pixels in Spectrum: 1044
>>>>>Begin Spectral Data<<<<<
784.041	10.25
784.3	1.25
784.558	-3.75
784.817	-3.75
785.075	113160.25
785.334	19251.25
785.592	8937.25
785.851	6157.25
786.109	4653.25
786.368	3652.25
786.626	2934.25
786.884	2387.25
787.143	1981.25
787.401	1663.25
787.659	1493.25
787.917	1274.25
788.175	1141.25
788.433	979.25
788.691	892.25
788.949	816.25
789.207	785.25
789.465	679.25
789.723	660.25
789.98	601.25
790.238	638.25
790.496	597.25
790.753	566.25
791.011	608.25
791.268	552.25
791.526	527.25
791.783	539.25
792.041	517.25
792.298	431.25
792.556	494.25
792.813	484.25
793.07	440.25
793.327	442.25
793.584	509.25
793.841	437.25
794.099	453.25
794.356	503.25
794.613	410.25
794.869	454.25
795.126	414.25
795.383	400.25
795.64	415.25
795.897	369.25
796.153	428.25
796.41	414.25
796.667	398.25
796.923	401.25
797.18	393.25
797.436	430.25
797.693	378.25
797.949	424.25
798.206	473.25
798.462	365.25
798.718	424.25
798.974	395.25
799.231	432.25
799.487	416.25
799.743	421.25
799.999	461.25
800.255	431.25
800.511	420.25
800.767	457.25
801.023	434.25
801.279	466.25
801.534	472.25
801.79	512.25
802.046	501.25
802.302	592.25
802.557	636.25
802.813	745.25
803.068	827.25
803.324	1089.25
803.579	1394.25
803.835	1876.25
804.09	2528.25
804.345	3262.25
804.601	4058.25
804.856	4975.25
805.111	5676.25
805.366	6214.25
805.621	6663.25
805.876	6908.25
806.131	7077.25
806.386	7162.25
806.641	7241.25
806.896	7374.25
807.151	7566.25
807.406	7594.25
807.661	7727.25
807.915	7844.25
808.17	7941.25
808.425	7970.25
808.679	7958.25
808.934	8192.25
809.188	8165.25
809.443	8227.25
809.697	8341.25
809.951	8302.25
810.206	8373.25
810.46	8476.25
810.714	8538.25
810.968	8582.25
811.223	8643.25
811.477	8716.25
811.731	8772.25
811.985	8769.25
812.239	8751.25
812.493	8887.25
812.747	8940.25
813	8834.25
813.254	8966.25
813.508	9030.25
813.762	9007.25
814.015	9036.25
814.269	9227.25
814.522	9159.25
814.776	9257.25
815.03	9415.25
815.283	9512.25
815.536	9613.25
815.79	9807.25
816.043	9873.25
816.296	9863.25
816.55	10066.25
816.803	10189.25
817.056	10344.25
817.309	10338.25
817.562	10405.25
817.815	10527.25
818.068	10519.25
818.321	10662.25
818.574	10770.25
818.827	10852.25
819.079	10940.25
819.332	11183.25
819.585	11283.25
819.838	11498.25
820.09	11448.25
820.343	11618.25
820.595	11526.25
820.848	11696.25
821.1	11765.25
821.353	11782.25
821.605	11728.25
821.857	11808.25
822.11	11606.25
822.362	11694.25
822.614	11645.25
822.866	11733.25
823.118	11639.25
823.37	11794.25
823.622	11775.25
823.874	11774.25
824.126	11843.25
824.378	11768.25
824.63	11855.25
824.882	12015.25
825.134	11833.25
825.385	11868.25
825.637	11767.25
825.888	11760.25
826.14	11688.25
826.392	11679.25
826.643	11592.25
826.895	11546.25
827.146	11526.25
827.397	11540.25
827.649	11558.25
827.9	11496.25
828.151	11481.25
828.402	11505.25
828.653	11551.25
828.905	11546.25
829.156	11640.25
829.407	11524.25
829.658	11588.25
829.909	11654.25
830.159	11561.25
830.41	11540.25
830.661	11445.25
830.912	11326.25
831.162	11296.25
831.413	11270.25
831.664	11263.25
831.914	11292.25
832.165	11321.25
832.415	11273.25
832.666	11320.25
832.916	11301.25
833.167	11245.25
833.417	11323.25
833.667	11180.25
833.917	11190.25
834.168	11283.25
834.418	11198.25
834.668	11186.25
834.918	11041.25
835.168	11059.25
835.418	11003.25
835.668	10970.25
835.918	11073.25
836.167	11017.25
836.417	10873.25
836.667	10991.25
836.917	10928.25
837.166	10826.25
837.416	10916.25
837.666	10885.25
837.915	10875.25
838.165	10792.25
838.414	10689.25
838.663	10628.25
838.913	10735.25
839.162	10616.25
839.411	10724.25
839.661	10571.25
839.91	10627.25
840.159	10544.25
840.408	10639.25
840.657	10626.25
840.906	10594.25
841.155	10603.25
841.404	10616.25
841.653	10593.25
841.902	10510.25
842.15	10622.25
842.399	10603.25
842.648	10551.25
842.897	10515.25
843.145	10444.25
843.394	10376.25
843.642	10335.25
843.891	10387.25
844.139	10248.25
844.388	10191.25
844.636	10164.25
844.884	10139.25
845.133	10116.25
845.381	10079.25
845.629	10206.25
845.877	10095.25
846.125	10042.25
846.373	10138.25
846.621	10005.25
846.869	10011.25
847.117	10007.25
847.365	9902.25
847.613	9883.25
847.861	9838.25
848.108	9901.25
848.356	9813.25
848.604	9752.25
848.851	9802.25
849.099	9852.25
849.346	9825.25
849.594	9864.25
849.841	9986.25
850.089	9927.25
850.336	9877.25
850.583	9937.25
850.831	9892.25
851.078	9809.25
851.325	9777.25
851.572	9848.25
851.819	9716.25
852.066	9553.25
852.313	9490.25
852.56	9406.25
852.807	9300.25
853.054	9324.25
853.301	9291.25
853.548	9298.25
853.794	9462.25
854.041	9416.25
854.288	9436.25
854.534	9611.25
854.781	9514.25
855.028	9440.25
855.274	9421.25
855.52	9334.25
855.767	9341.25
856.013	9316.25
856.26	9601.25
856.506	9150.25
856.752	9231.25
856.998	9206.25
857.244	9201.25
857.49	9258.25
857.736	9235.25
857.982	9256.25
858.228	9249.25
858.474	9147.25
858.72	9112.25
858.966	9025.25
859.212	8995.25
859.458	8855.25
859.703	8840.25
859.949	8763.25
860.195	8711.25
860.44	8653.25
860.686	8538.25
860.931	8611.25
861.177	8528.25
861.422	8582.25
861.667	8528.25
861.913	8481.25
862.158	8535.25
862.403	8583.25
862.648	8560.25
862.893	8586.25
863.138	8508.25
863.384	8476.25
863.629	8542.25
863.873	8554.25
864.118	8527.25
864.363	8398.25
864.608	8372.25
864.853	8358.25
865.098	8352.25
865.342	8234.25
865.587	8259.25
865.832	8251.25
866.076	8232.25
866.321	8206.25
866.565	8139.25
866.81	8084.25
867.054	8140.25
867.298	8114.25
867.543	8108.25
867.787	8078.25
868.031	8048.25
868.275	8028.25
868.519	7995.25
868.764	8095.25
869.008	7981.25
869.252	8051.25
869.496	7933.25
869.739	7907.25
869.983	7917.25
870.227	7982.25
870.471	7850.25
870.715	7931.25
870.958	7973.25
871.202	7856.25
871.446	7892.25
871.689	7862.25
871.933	7935.25
872.176	7916.25
872.42	7917.25
872.663	7857.25
872.906	7964.25
873.15	7780.25
873.393	7747.25
873.636	7815.25
873.879	7753.25
874.122	7662.25
874.366	7586.25
874.609	7557.25
874.852	7442.25
875.095	7427.25
875.337	7434.25
875.58	7284.25
875.823	7266.25
876.066	7402.25
876.309	7368.25
876.551	7205.25
876.794	7236.25
877.037	7254.25
877.279	7148.25
877.522	7232.25
877.764	7200.25
878.007	7157.25
878.249	7249.25
878.491	7103.25
878.734	7187.25
878.976	7152.25
879.218	7059.25
879.46	7113.25
879.702	7075.25
879.945	6998.25
880.187	6849.25
880.429	6833.25
880.671	6851.25
880.912	6831.25
881.154	6793.25
881.396	6713.25
881.638	6722.25
881.88	6766.25
882.121	6695.25
882.363	6710.25
882.605	6755.25
882.846	6686.25
883.088	6658.25
883.329	6616.25
883.571	6606.25
883.812	6655.25
884.053	6771.25
884.295	6835.25
884.536	6890.25
884.777	6842.25
885.018	6807.25
885.259	6785.25
885.5	6703.25
885.742	6992.25
885.982	6757.25
886.223	6603.25
886.464	6656.25
886.705	6562.25
886.946	6582.25
887.187	6384.25
887.428	6469.25
887.668	6267.25
887.909	6247.25
888.15	6202.25
888.39	6278.25
888.631	6276.25
888.871	6116.25
889.111	6125.25
889.352	6109.25
889.592	5954.25
889.833	5941.25
890.073	5988.25
890.313	5995.25
890.553	5793.25
890.793	5788.25
891.033	5811.25
891.273	5787.25
891.513	5756.25
891.753	5764.25
891.993	5680.25
892.233	5751.25
892.473	5802.25
892.713	5735.25
892.952	5764.25
893.192	5712.25
893.432	5718.25
893.671	5734.25
893.911	5660.25
894.15	5695.25
894.39	5552.25
894.629	5625.25
894.869	5567.25
895.108	5541.25
895.347	5441.25
895.587	5483.25
895.826	5375.25
896.065	5391.25
896.304	5415.25
896.543	5468.25
896.782	5367.25
897.021	5364.25
897.26	5394.25
897.499	5459.25
897.738	5405.25
897.977	5371.25
898.216	5203.25
898.454	5211.25
898.693	5210.25
898.932	5196.25
899.17	5090.25
899.409	5154.25
899.647	5088.25
899.886	5078.25
900.124	5090.25
900.363	5070.25
900.601	5095.25
900.839	5102.25
901.078	5047.25
901.316	5081.25
901.554	5139.25
901.792	5146.25
902.03	5078.25
902.268	5106.25
902.506	5120.25
902.744	5049.25
902.982	5042.25
903.22	4963.25
903.458	4929.25
903.695	4925.25
903.933	4884.25
904.171	4769.25
904.409	4698.25
904.646	4691.25
904.884	4630.25
905.121	4665.25
905.359	4593.25
905.596	4574.25
905.833	4452.25
906.071	4449.25
906.308	4472.25
906.545	4475.25
906.783	4443.25
907.02	4445.25
907.257	4354.25
907.494	4394.25
907.731	4415.25
907.968	4361.25
908.205	4321.25
908.442	4363.25
908.679	4313.25
908.915	4251.25
909.152	4235.25
909.389	4151.25
909.626	4157.25
909.862	4130.25
910.099	4149.25
910.335	4153.25
910.572	4123.25
910.808	4081.25
911.045	4073.25
911.281	4081.25
911.518	4091.25
911.754	4001.25
911.99	4013.25
912.226	3977.25
912.463	3927.25
912.699	3948.25
912.935	3896.25
913.171	3867.25
913.407	3830.25
913.643	3846.25
913.879	3847.25
914.114	3779.25
914.35	3699.25
914.586	3714.25
914.822	3636.25
915.057	3701.25
915.293	3592.25
915.529	3564.25
915.764	3671.25
916	3624.25
916.235	3566.25
916.471	3621.25
916.706	3506.25
916.941	3555.25
917.177	3510.25
917.412	3557.25
917.647	3571.25
917.882	3496.25
918.117	3544.25
918.352	3516.25
918.588	3550.25
918.823	3439.25
919.057	3468.25
919.292	3356.25
919.527	3435.25
919.762	3344.25
919.997	3359.25
920.232	3319.25
920.466	3306.25
920.701	3191.25
920.935	3221.25
921.17	3206.25
921.405	3173.25
921.639	3196.25
921.873	3205.25
922.108	3195.25
922.342	3188.25
922.576	3088.25
922.811	3093.25
923.045	3167.25
923.279	3170.25
923.513	3028.25
923.747	3132.25
923.981	3071.25
924.215	3021.25
924.449	3042.25
924.683	2985.25
924.917	2950.25
925.151	2967.25
925.385	2993.25
925.618	2971.25
925.852	2968.25
926.086	2876.25
926.319	2952.25
926.553	2898.25
926.786	2966.25
927.02	2886.25
927.253	2999.25
927.486	2958.25
927.72	2850.25
927.953	2975.25
928.186	2885.25
928.42	2915.25
928.653	2884.25
928.886	2837.25
929.119	2872.25
929.352	2834.25
929.585	2829.25
929.818	2764.25
930.051	2784.25
930.284	2785.25
930.516	2679.25
930.749	2706.25
930.982	2743.25
931.215	2705.25
931.447	2616.25
931.68	2664.25
931.912	2640.25
932.145	2631.25
932.377	2666.25
932.61	2798.25
932.842	2605.25
933.074	2665.25
933.307	2599.25
933.539	2719.25
933.771	2690.25
934.003	2610.25
934.236	2723.25
934.468	2708.25
934.7	2620.25
934.932	2619.25
935.164	2613.25
935.395	2605.25
935.627	2589.25
935.859	2635.25
936.091	2524.25
936.323	2588.25
936.554	2618.25
936.786	2586.25
937.017	2512.25
937.249	2569.25
937.481	2507.25
937.712	2545.25
937.943	2550.25
938.175	2528.25
938.406	2502.25
938.637	2558.25
938.869	2488.25
939.1	2547.25
939.331	2470.25
939.562	2508.25
939.793	2501.25
940.024	2526.25
940.255	2536.25
940.486	2437.25
940.717	2459.25
940.948	2438.25
941.179	2400.25
941.409	2424.25
941.64	2439.25
941.871	2425.25
942.102	2407.25
942.332	2404.25
942.563	2434.25
942.793	2388.25
943.024	2386.25
943.254	2453.25
943.484	2456.25
943.715	2444.25
943.945	2429.25
944.175	2369.25
944.405	2315.25
944.636	2310.25
944.866	2384.25
945.096	2411.25
945.326	2319.25
945.556	2390.25
945.786	2418.25
946.016	2345.25
946.245	2313.25
946.475	2309.25
946.705	2285.25
946.935	2309.25
947.164	2292.25
947.394	2226.25
947.624	2238.25
947.853	2292.25
948.083	2283.25
948.312	2238.25
948.542	2163.25
948.771	2190.25
949	2192.25
949.23	2186.25
949.459	2210.25
949.688	2305.25
949.917	2194.25
950.146	2211.25
950.375	2256.25
950.604	2143.25
950.833	2257.25
951.062	2237.25
951.291	2156.25
951.52	2171.25
951.749	2174.25
951.978	2129.25
952.206	2130.25
952.435	2123.25
952.664	2145.25
952.892	2149.25
953.121	2147.25
953.349	2158.25
953.578	2149.25
953.806	2148.25
954.035	2063.25
954.263	2121.25
954.491	2048.25
954.719	2089.25
954.948	2041.25
955.176	2063.25
955.404	1987.25
955.632	2071.25
955.86	2071.25
956.088	2025.25
956.316	2073.25
956.544	2093.25
956.772	1993.25
956.999	1999.25
957.227	2063.25
957.455	1981.25
957.683	2003.25
957.91	1944.25
958.138	1953.25
958.365	1936.25
958.593	1948.25
958.82	1901.25
959.048	1954.25
959.275	1922.25
959.502	1883.25
959.73	1877.25
959.957	1921.25
960.184	1974.25
960.411	1885.25
960.638	1936.25
960.865	1912.25
961.092	1924.25
961.319	1821.25
961.546	1910.25
961.773	1935.25
962	1899.25
962.227	1940.25
962.454	1909.25
962.68	1901.25
962.907	1907.25
963.134	1851.25
963.36	1851.25
963.587	1893.25
963.813	1832.25
964.04	1860.25
964.266	1817.25
964.493	1874.25
964.719	1858.25
964.945	1838.25
965.171	1739.25
965.398	1827.25
965.624	1838.25
965.85	1746.25
966.076	1791.25
966.302	1845.25
966.528	1760.25
966.754	1799.25
966.98	1801.25
967.206	1757.25
967.431	1713.25
967.657	1782.25
967.883	1773.25
968.109	1727.25
968.334	1713.25
968.56	1690.25
968.785	1727.25
969.011	1697.25
969.236	1724.25
969.462	1666.25
969.687	1700.25
969.912	1711.25
970.138	1749.25
970.363	1630.25
970.588	1668.25
970.813	1649.25
971.038	1661.25
971.263	1705.25
971.488	1680.25
971.713	1715.25
971.938	1686.25
972.163	1606.25
972.388	1631.25
972.613	1629.25
972.838	1619.25
973.062	1627.25
973.287	1618.25
973.512	1557.25
973.736	1596.25
973.961	1580.25
974.185	1564.25
974.41	1606.25
974.634	1513.25
974.858	1538.25
975.083	1599.25
975.307	1582.25
975.531	1518.25
975.755	1508.25
975.98	1537.25
976.204	1455.25
976.428	1443.25
976.652	1475.25
976.876	1430.25
977.1	1501.25
977.324	1431.25
977.547	1491.25
977.771	1499.25
977.995	1460.25
978.219	1399.25
978.442	1530.25
978.666	1472.25
978.89	1457.25
979.113	1469.25
979.337	1449.25
979.56	1409.25
979.783	1519.25
980.007	1405.25
980.23	1441.25
980.453	1386.25
980.677	1426.25
980.9	1439.25
981.123	1343.25
981.346	1442.25
981.569	1403.25
981.792	1436.25
982.015	1373.25
982.238	1374.25
982.461	1395.25
982.684	1361.25
982.907	1333.25
983.129	1350.25
983.352	1376.25
983.575	1363.25
983.797	1382.25
984.02	1331.25
984.242	1313.25
984.465	1330.25
984.687	1350.25
984.91	1388.25
985.132	1350.25
985.354	1380.25
985.577	1353.25
985.799	1314.25
986.021	1270.25
986.243	1299.25
986.465	1317.25
986.687	1357.25
986.909	1409.25
987.131	1325.25
987.353	1284.25
987.575	1339.25
987.797	1283.25
988.019	1243.25
988.241	1278.25
988.462	1239.25
988.684	1297.25
988.906	1352.25
989.127	1336.25
989.349	1240.25
989.57	1262.25
989.792	1323.25
990.013	1322.25
990.234	1343.25
990.456	1336.25
990.677	1322.25
990.898	1259.25
991.119	1259.25
991.341	1305.25
991.562	1227.25
991.783	1286.25
992.004	1220.25
992.225	1186.25
992.446	1258.25
992.667	1166.25
992.887	1273.25
993.108	1155.25
993.329	1293.25
993.55	1244.25
993.77	1177.25
993.991	1200.25
994.212	1246.25
994.432	1184.25
994.653	1216.25
994.873	1208.25
995.093	1090.25
995.314	1164.25
995.534	1223.25
995.754	1235.25
995.975	1256.25
996.195	1146.25
996.415	1222.25
996.635	1199.25
996.855	1177.25
997.075	1174.25
997.295	1142.25
997.515	1146.25
997.735	1187.25
997.955	1175.25
998.174	1157.25
998.394	1132.25
998.614	1194.25
998.834	1126.25
999.053	1220.25
999.273	1140.25
999.492	1232.25
999.712	1153.25
999.931	1153.25
1000.151	1166.25
1000.37	1156.25
1000.589	1223.25
1000.809	1151.25
1001.028	1279.25
1001.247	1209.25
1001.466	1104.25
1001.685	1260.25
1001.904	1181.25
1002.123	1149.25
1002.342	1180.25
1002.561	1162.25
1002.78	1168.25
1002.999	1223.25
1003.218	1165.25
1003.436	1153.25
1003.655	1209.25
1003.874	1133.25
1004.092	1170.25
1004.311	1219.25
1004.53	1159.25
1004.748	1228.25
1004.966	1163.25
1005.185	1201.25
1005.403	1174.25
1005.622	1165.25
1005.84	1243.25
1006.058	1185.25
1006.276	1155.25
1006.494	1650.25
1006.712	1175.25
1006.931	1221.25
1007.149	1104.25
1007.367	1142.25
1007.584	1163.25
1007.802	1204.25
1008.02	1120.25
1008.238	1255.25
1008.456	1209.25
1008.673	1095.25
1008.891	1201.25
1009.109	1153.25
1009.326	1217.25
1009.544	1258.25
1009.761	1140.25
1009.979	1225.25
1010.196	1224.25
1010.413	1271.25
1010.631	1310.25
1010.848	1309.25
1011.065	1335.25
1011.282	1273.25
1011.5	1222.25
1011.717	1321.25
1011.934	1275.25
1012.151	1275.25
1012.368	1284.25
1012.585	1202.25
1012.801	1272.25
1013.018	1236.25
1013.235	1210.25
1013.452	1213.25
1013.669	1220.25
1013.885	1192.25
1014.102	1245.25
1014.318	1188.25
1014.535	1172.25
1014.751	1200.25
1014.968	1197.25
1015.184	1230.25
1015.401	1159.25
1015.617	1205.25
1015.833	1120.25
1016.049	1154.25
1016.266	1108.25
1016.482	1130.25
1016.698	1078.25
1016.914	1128.25
1017.13	1063.25
1017.346	1077.25
1017.562	1140.25
1017.778	1062.25
1017.993	1035.25
1018.209	1100.25
1018.425	1094.25
1018.641	1049.25
1018.856	1001.25
1019.072	1045.25
1019.288	1079.25
1019.503	1049.25
1019.719	982.25
1019.934	972.25
1020.149	1087.25
1020.365	1012.25
1020.58	956.25
1020.795	1021.25
1021.011	957.25
1021.226	928.25
1021.441	996.25
1021.656	910.25
1021.871	847.25
1022.086	876.25
1022.301	871.25
1022.516	853.25
1022.731	932.25
1022.946	825.25
1023.16	816.25
1023.375	816.25
1023.59	806.25
1023.804	762.25
1024.019	879.25
1024.234	764.25
1024.448	800.25
1024.663	726.25
1024.877	745.25
1025.092	776.25
1025.306	792.25
1025.52	680.25
1025.734	784.25
1025.949	715.25
1026.163	684.25
1026.377	623.25
1026.591	691.25
1026.805	594.25
1027.019	631.25
1027.233	611.25
1027.447	545.25
1027.661	646.25
1027.875	590.25
1028.088	605.25
1028.302	534.25
1028.516	537.25
1028.73	544.25
1028.943	525.25
1029.157	498.25
1029.37	480.25
1029.584	-0.75
1029.797	-0.75
1030.011	-1.75
1030.224	-0.75
