Data from QEP037381__79__10-08-49-929.txt Node

Date: Wed Dec 21 10:08:49 EST 2022
User: dcclab
Spectrometer: QEP03738
Trigger mode: 4
Integration Time (sec): 1.000000E1
Scans to average: 1
Electric dark correction enabled: true
Nonlinearity correction enabled: false
Boxcar width: 0
XAxis mode: Wavelengths
Number of Pixels in Spectrum: 1044
>>>>>Begin Spectral Data<<<<<
784.041	12.38
784.3	0.38
784.558	-2.62
784.817	-3.62
785.075	106524.38
785.334	18983.38
785.592	9045.38
785.851	6297.38
786.109	4774.38
786.368	3685.38
786.626	2978.38
786.884	2500.38
787.143	2095.38
787.401	1719.38
787.659	1527.38
787.917	1283.38
788.175	1169.38
788.433	1031.38
788.691	917.38
788.949	852.38
789.207	797.38
789.465	682.38
789.723	662.38
789.98	598.38
790.238	629.38
790.496	587.38
790.753	565.38
791.011	610.38
791.268	553.38
791.526	528.38
791.783	541.38
792.041	520.38
792.298	427.38
792.556	498.38
792.813	462.38
793.07	450.38
793.327	454.38
793.584	516.38
793.841	427.38
794.099	450.38
794.356	508.38
794.613	415.38
794.869	454.38
795.126	400.38
795.383	389.38
795.64	400.38
795.897	362.38
796.153	414.38
796.41	398.38
796.667	381.38
796.923	395.38
797.18	392.38
797.436	430.38
797.693	365.38
797.949	426.38
798.206	445.38
798.462	363.38
798.718	405.38
798.974	390.38
799.231	435.38
799.487	427.38
799.743	417.38
799.999	444.38
800.255	439.38
800.511	405.38
800.767	449.38
801.023	413.38
801.279	450.38
801.534	463.38
801.79	490.38
802.046	485.38
802.302	568.38
802.557	575.38
802.813	655.38
803.068	733.38
803.324	991.38
803.579	1233.38
803.835	1641.38
804.09	2171.38
804.345	2716.38
804.601	3409.38
804.856	4080.38
805.111	4696.38
805.366	5138.38
805.621	5434.38
805.876	5619.38
806.131	5756.38
806.386	5823.38
806.641	5925.38
806.896	5992.38
807.151	6151.38
807.406	6190.38
807.661	6266.38
807.915	6367.38
808.17	6448.38
808.425	6464.38
808.679	6449.38
808.934	6683.38
809.188	6637.38
809.443	6658.38
809.697	6778.38
809.951	6781.38
810.206	6840.38
810.46	6867.38
810.714	6900.38
810.968	6970.38
811.223	6957.38
811.477	7034.38
811.731	7106.38
811.985	7069.38
812.239	7126.38
812.493	7170.38
812.747	7214.38
813	7199.38
813.254	7221.38
813.508	7283.38
813.762	7211.38
814.015	7259.38
814.269	7307.38
814.522	7443.38
814.776	7521.38
815.03	7549.38
815.283	7663.38
815.536	7776.38
815.79	7900.38
816.043	7944.38
816.296	8005.38
816.55	8133.38
816.803	8113.38
817.056	8349.38
817.309	8311.38
817.562	8341.38
817.815	8504.38
818.068	8426.38
818.321	8566.38
818.574	8625.38
818.827	8766.38
819.079	8858.38
819.332	9135.38
819.585	9068.38
819.838	9218.38
820.09	9212.38
820.343	9303.38
820.595	9304.38
820.848	9322.38
821.1	9405.38
821.353	9419.38
821.605	9370.38
821.857	9431.38
822.11	9305.38
822.362	9363.38
822.614	9297.38
822.866	9337.38
823.118	9354.38
823.37	9420.38
823.622	9423.38
823.874	9487.38
824.126	9557.38
824.378	9485.38
824.63	9479.38
824.882	9492.38
825.134	9515.38
825.385	9528.38
825.637	9418.38
825.888	9405.38
826.14	9372.38
826.392	9287.38
826.643	9252.38
826.895	9266.38
827.146	9189.38
827.397	9215.38
827.649	9169.38
827.9	9172.38
828.151	9120.38
828.402	9180.38
828.653	9272.38
828.905	9201.38
829.156	9259.38
829.407	9235.38
829.658	9302.38
829.909	9290.38
830.159	9246.38
830.41	9210.38
830.661	9159.38
830.912	9075.38
831.162	9051.38
831.413	9050.38
831.664	9089.38
831.914	9080.38
832.165	9059.38
832.415	9062.38
832.666	9116.38
832.916	9056.38
833.167	8984.38
833.417	9074.38
833.667	9026.38
833.917	8995.38
834.168	9013.38
834.418	9061.38
834.668	8930.38
834.918	8828.38
835.168	8873.38
835.418	8849.38
835.668	8891.38
835.918	8832.38
836.167	8781.38
836.417	8689.38
836.667	8811.38
836.917	8764.38
837.166	8727.38
837.416	8744.38
837.666	8738.38
837.915	8736.38
838.165	8668.38
838.414	8590.38
838.663	8522.38
838.913	8659.38
839.162	8523.38
839.411	8563.38
839.661	8468.38
839.91	8566.38
840.159	8445.38
840.408	8550.38
840.657	8486.38
840.906	8554.38
841.155	8548.38
841.404	8500.38
841.653	8533.38
841.902	8429.38
842.15	8545.38
842.399	8549.38
842.648	8536.38
842.897	8504.38
843.145	8393.38
843.394	8412.38
843.642	8325.38
843.891	8343.38
844.139	8313.38
844.388	8224.38
844.636	8072.38
844.884	8122.38
845.133	8110.38
845.381	8175.38
845.629	8173.38
845.877	8112.38
846.125	8156.38
846.373	8100.38
846.621	8111.38
846.869	8037.38
847.117	8048.38
847.365	8010.38
847.613	7931.38
847.861	7957.38
848.108	7942.38
848.356	7864.38
848.604	7830.38
848.851	7926.38
849.099	7928.38
849.346	7898.38
849.594	8000.38
849.841	7988.38
850.089	7986.38
850.336	7991.38
850.583	7918.38
850.831	7998.38
851.078	7938.38
851.325	7888.38
851.572	7920.38
851.819	7794.38
852.066	7662.38
852.313	7583.38
852.56	7523.38
852.807	7519.38
853.054	7556.38
853.301	7456.38
853.548	7468.38
853.794	7660.38
854.041	7613.38
854.288	7654.38
854.534	7722.38
854.781	7705.38
855.028	7633.38
855.274	7720.38
855.52	7634.38
855.767	7496.38
856.013	7596.38
856.26	7918.38
856.506	7420.38
856.752	7526.38
856.998	7525.38
857.244	7492.38
857.49	7531.38
857.736	7594.38
857.982	7595.38
858.228	7539.38
858.474	7513.38
858.72	7375.38
858.966	7414.38
859.212	7277.38
859.458	7188.38
859.703	7155.38
859.949	7138.38
860.195	7057.38
860.44	7028.38
860.686	7010.38
860.931	7040.38
861.177	6917.38
861.422	6971.38
861.667	6845.38
861.913	6840.38
862.158	6869.38
862.403	6911.38
862.648	6905.38
862.893	6924.38
863.138	6890.38
863.384	6837.38
863.629	6838.38
863.873	6825.38
864.118	6817.38
864.363	6744.38
864.608	6794.38
864.853	6761.38
865.098	6707.38
865.342	6780.38
865.587	6664.38
865.832	6672.38
866.076	6690.38
866.321	6680.38
866.565	6618.38
866.81	6534.38
867.054	6539.38
867.298	6570.38
867.543	6501.38
867.787	6540.38
868.031	6522.38
868.275	6519.38
868.519	6509.38
868.764	6543.38
869.008	6477.38
869.252	6475.38
869.496	6442.38
869.739	6471.38
869.983	6542.38
870.227	6456.38
870.471	6433.38
870.715	6496.38
870.958	6505.38
871.202	6452.38
871.446	6431.38
871.689	6442.38
871.933	6469.38
872.176	6497.38
872.42	6389.38
872.663	6452.38
872.906	6478.38
873.15	6444.38
873.393	6383.38
873.636	6481.38
873.879	6402.38
874.122	6333.38
874.366	6184.38
874.609	6144.38
874.852	6102.38
875.095	6067.38
875.337	6047.38
875.58	5926.38
875.823	6044.38
876.066	5983.38
876.309	6030.38
876.551	5907.38
876.794	5891.38
877.037	5938.38
877.279	5796.38
877.522	5951.38
877.764	5893.38
878.007	5833.38
878.249	5901.38
878.491	5755.38
878.734	5848.38
878.976	5847.38
879.218	5732.38
879.46	5788.38
879.702	5690.38
879.945	5666.38
880.187	5533.38
880.429	5571.38
880.671	5530.38
880.912	5528.38
881.154	5514.38
881.396	5390.38
881.638	5506.38
881.88	5494.38
882.121	5410.38
882.363	5457.38
882.605	5479.38
882.846	5444.38
883.088	5527.38
883.329	5412.38
883.571	5438.38
883.812	5476.38
884.053	5637.38
884.295	5752.38
884.536	5852.38
884.777	5836.38
885.018	5790.38
885.259	5735.38
885.5	5700.38
885.742	5927.38
885.982	5687.38
886.223	5507.38
886.464	5547.38
886.705	5409.38
886.946	5482.38
887.187	5281.38
887.428	5309.38
887.668	5171.38
887.909	5104.38
888.15	5077.38
888.39	5052.38
888.631	5049.38
888.871	5006.38
889.111	4957.38
889.352	4938.38
889.592	4879.38
889.833	4842.38
890.073	4815.38
890.313	4869.38
890.553	4704.38
890.793	4709.38
891.033	4695.38
891.273	4674.38
891.513	4642.38
891.753	4678.38
891.993	4634.38
892.233	4700.38
892.473	4742.38
892.713	4675.38
892.952	4651.38
893.192	4651.38
893.432	4662.38
893.671	4700.38
893.911	4593.38
894.15	4575.38
894.39	4534.38
894.629	4538.38
894.869	4547.38
895.108	4497.38
895.347	4438.38
895.587	4453.38
895.826	4394.38
896.065	4416.38
896.304	4428.38
896.543	4441.38
896.782	4332.38
897.021	4396.38
897.26	4371.38
897.499	4424.38
897.738	4347.38
897.977	4309.38
898.216	4266.38
898.454	4232.38
898.693	4221.38
898.932	4255.38
899.17	4227.38
899.409	4184.38
899.647	4147.38
899.886	4135.38
900.124	4203.38
900.363	4129.38
900.601	4171.38
900.839	4207.38
901.078	4198.38
901.316	4175.38
901.554	4232.38
901.792	4225.38
902.03	4203.38
902.268	4275.38
902.506	4262.38
902.744	4203.38
902.982	4234.38
903.22	4116.38
903.458	4072.38
903.695	4076.38
903.933	4002.38
904.171	3893.38
904.409	3818.38
904.646	3853.38
904.884	3759.38
905.121	3815.38
905.359	3735.38
905.596	3657.38
905.833	3652.38
906.071	3634.38
906.308	3674.38
906.545	3635.38
906.783	3604.38
907.02	3612.38
907.257	3535.38
907.494	3582.38
907.731	3599.38
907.968	3564.38
908.205	3517.38
908.442	3525.38
908.679	3511.38
908.915	3463.38
909.152	3460.38
909.389	3371.38
909.626	3432.38
909.862	3357.38
910.099	3371.38
910.335	3401.38
910.572	3290.38
910.808	3337.38
911.045	3307.38
911.281	3302.38
911.518	3313.38
911.754	3263.38
911.99	3256.38
912.226	3271.38
912.463	3184.38
912.699	3215.38
912.935	3162.38
913.171	3145.38
913.407	3098.38
913.643	3144.38
913.879	3078.38
914.114	3078.38
914.35	2989.38
914.586	3057.38
914.822	2982.38
915.057	3037.38
915.293	2929.38
915.529	2909.38
915.764	2963.38
916	2943.38
916.235	2961.38
916.471	2946.38
916.706	2857.38
916.941	2900.38
917.177	2892.38
917.412	2916.38
917.647	2940.38
917.882	2876.38
918.117	2909.38
918.352	2841.38
918.588	2886.38
918.823	2830.38
919.057	2848.38
919.292	2716.38
919.527	2815.38
919.762	2726.38
919.997	2752.38
920.232	2667.38
920.466	2725.38
920.701	2605.38
920.935	2692.38
921.17	2645.38
921.405	2569.38
921.639	2655.38
921.873	2586.38
922.108	2618.38
922.342	2600.38
922.576	2555.38
922.811	2522.38
923.045	2616.38
923.279	2611.38
923.513	2477.38
923.747	2573.38
923.981	2546.38
924.215	2495.38
924.449	2477.38
924.683	2446.38
924.917	2480.38
925.151	2433.38
925.385	2514.38
925.618	2465.38
925.852	2463.38
926.086	2378.38
926.319	2430.38
926.553	2429.38
926.786	2422.38
927.02	2412.38
927.253	2449.38
927.486	2439.38
927.72	2356.38
927.953	2425.38
928.186	2404.38
928.42	2391.38
928.653	2357.38
928.886	2367.38
929.119	2417.38
929.352	2380.38
929.585	2334.38
929.818	2318.38
930.051	2302.38
930.284	2301.38
930.516	2236.38
930.749	2242.38
930.982	2307.38
931.215	2229.38
931.447	2221.38
931.68	2231.38
931.912	2205.38
932.145	2228.38
932.377	2239.38
932.61	2325.38
932.842	2164.38
933.074	2243.38
933.307	2200.38
933.539	2261.38
933.771	2267.38
934.003	2228.38
934.236	2281.38
934.468	2333.38
934.7	2276.38
934.932	2272.38
935.164	2206.38
935.395	2229.38
935.627	2232.38
935.859	2227.38
936.091	2132.38
936.323	2166.38
936.554	2193.38
936.786	2155.38
937.017	2119.38
937.249	2130.38
937.481	2071.38
937.712	2153.38
937.943	2113.38
938.175	2117.38
938.406	2084.38
938.637	2159.38
938.869	2065.38
939.1	2113.38
939.331	2090.38
939.562	2097.38
939.793	2070.38
940.024	2100.38
940.255	2099.38
940.486	2075.38
940.717	2049.38
940.948	2042.38
941.179	1987.38
941.409	2023.38
941.64	2042.38
941.871	2032.38
942.102	1992.38
942.332	2038.38
942.563	2041.38
942.793	2039.38
943.024	1978.38
943.254	2003.38
943.484	2051.38
943.715	2054.38
943.945	1988.38
944.175	1960.38
944.405	1940.38
944.636	1929.38
944.866	1992.38
945.096	2033.38
945.326	1930.38
945.556	2014.38
945.786	1995.38
946.016	1980.38
946.245	1896.38
946.475	1941.38
946.705	1892.38
946.935	1918.38
947.164	1942.38
947.394	1895.38
947.624	1884.38
947.853	1959.38
948.083	1905.38
948.312	1888.38
948.542	1818.38
948.771	1816.38
949	1828.38
949.23	1828.38
949.459	1866.38
949.688	1910.38
949.917	1855.38
950.146	1843.38
950.375	1910.38
950.604	1827.38
950.833	1907.38
951.062	1921.38
951.291	1826.38
951.52	1809.38
951.749	1842.38
951.978	1811.38
952.206	1804.38
952.435	1789.38
952.664	1834.38
952.892	1846.38
953.121	1809.38
953.349	1849.38
953.578	1801.38
953.806	1815.38
954.035	1762.38
954.263	1789.38
954.491	1707.38
954.719	1769.38
954.948	1734.38
955.176	1737.38
955.404	1671.38
955.632	1773.38
955.86	1747.38
956.088	1732.38
956.316	1766.38
956.544	1747.38
956.772	1712.38
956.999	1678.38
957.227	1782.38
957.455	1683.38
957.683	1720.38
957.91	1657.38
958.138	1618.38
958.365	1635.38
958.593	1626.38
958.82	1596.38
959.048	1685.38
959.275	1637.38
959.502	1643.38
959.73	1599.38
959.957	1619.38
960.184	1656.38
960.411	1601.38
960.638	1684.38
960.865	1632.38
961.092	1647.38
961.319	1556.38
961.546	1676.38
961.773	1658.38
962	1593.38
962.227	1667.38
962.454	1633.38
962.68	1610.38
962.907	1608.38
963.134	1571.38
963.36	1627.38
963.587	1621.38
963.813	1563.38
964.04	1609.38
964.266	1533.38
964.493	1634.38
964.719	1611.38
964.945	1580.38
965.171	1485.38
965.398	1556.38
965.624	1584.38
965.85	1517.38
966.076	1514.38
966.302	1554.38
966.528	1507.38
966.754	1560.38
966.98	1543.38
967.206	1530.38
967.431	1481.38
967.657	1562.38
967.883	1582.38
968.109	1541.38
968.334	1472.38
968.56	1454.38
968.785	1509.38
969.011	1450.38
969.236	1514.38
969.462	1422.38
969.687	1449.38
969.912	1515.38
970.138	1520.38
970.363	1446.38
970.588	1469.38
970.813	1444.38
971.038	1436.38
971.263	1464.38
971.488	1471.38
971.713	1505.38
971.938	1467.38
972.163	1404.38
972.388	1435.38
972.613	1408.38
972.838	1437.38
973.062	1385.38
973.287	1430.38
973.512	1351.38
973.736	1384.38
973.961	1369.38
974.185	1356.38
974.41	1390.38
974.634	1307.38
974.858	1345.38
975.083	1385.38
975.307	1403.38
975.531	1341.38
975.755	1275.38
975.98	1296.38
976.204	1249.38
976.428	1248.38
976.652	1262.38
976.876	1251.38
977.1	1302.38
977.324	1263.38
977.547	1286.38
977.771	1322.38
977.995	1282.38
978.219	1218.38
978.442	1326.38
978.666	1305.38
978.89	1290.38
979.113	1254.38
979.337	1252.38
979.56	1230.38
979.783	1318.38
980.007	1213.38
980.23	1254.38
980.453	1226.38
980.677	1264.38
980.9	1267.38
981.123	1169.38
981.346	1263.38
981.569	1233.38
981.792	1257.38
982.015	1214.38
982.238	1194.38
982.461	1225.38
982.684	1195.38
982.907	1173.38
983.129	1169.38
983.352	1241.38
983.575	1215.38
983.797	1224.38
984.02	1186.38
984.242	1177.38
984.465	1169.38
984.687	1193.38
984.91	1225.38
985.132	1215.38
985.354	1221.38
985.577	1184.38
985.799	1186.38
986.021	1105.38
986.243	1132.38
986.465	1145.38
986.687	1205.38
986.909	1243.38
987.131	1146.38
987.353	1121.38
987.575	1177.38
987.797	1184.38
988.019	1084.38
988.241	1147.38
988.462	1088.38
988.684	1170.38
988.906	1185.38
989.127	1204.38
989.349	1094.38
989.57	1126.38
989.792	1176.38
990.013	1201.38
990.234	1193.38
990.456	1213.38
990.677	1204.38
990.898	1142.38
991.119	1148.38
991.341	1170.38
991.562	1115.38
991.783	1159.38
992.004	1101.38
992.225	1058.38
992.446	1127.38
992.667	1044.38
992.887	1130.38
993.108	1031.38
993.329	1162.38
993.55	1118.38
993.77	1056.38
993.991	1075.38
994.212	1115.38
994.432	1084.38
994.653	1118.38
994.873	1099.38
995.093	988.38
995.314	1046.38
995.534	1093.38
995.754	1127.38
995.975	1153.38
996.195	1065.38
996.415	1116.38
996.635	1085.38
996.855	1104.38
997.075	1037.38
997.295	1064.38
997.515	1054.38
997.735	1115.38
997.955	1073.38
998.174	1064.38
998.394	1049.38
998.614	1069.38
998.834	1040.38
999.053	1105.38
999.273	1077.38
999.492	1133.38
999.712	1061.38
999.931	1055.38
1000.151	1098.38
1000.37	1054.38
1000.589	1118.38
1000.809	1071.38
1001.028	1163.38
1001.247	1113.38
1001.466	1019.38
1001.685	1154.38
1001.904	1086.38
1002.123	1091.38
1002.342	1075.38
1002.561	1045.38
1002.78	1084.38
1002.999	1145.38
1003.218	1075.38
1003.436	1045.38
1003.655	1116.38
1003.874	1053.38
1004.092	1103.38
1004.311	1123.38
1004.53	1078.38
1004.748	1138.38
1004.966	1074.38
1005.185	1149.38
1005.403	1131.38
1005.622	1108.38
1005.84	1160.38
1006.058	1052.38
1006.276	1081.38
1006.494	1585.38
1006.712	1087.38
1006.931	1165.38
1007.149	1041.38
1007.367	1086.38
1007.584	1098.38
1007.802	1116.38
1008.02	1090.38
1008.238	1173.38
1008.456	1155.38
1008.673	1052.38
1008.891	1129.38
1009.109	1111.38
1009.326	1142.38
1009.544	1243.38
1009.761	1126.38
1009.979	1207.38
1010.196	1214.38
1010.413	1281.38
1010.631	1315.38
1010.848	1304.38
1011.065	1355.38
1011.282	1277.38
1011.5	1237.38
1011.717	1363.38
1011.934	1281.38
1012.151	1308.38
1012.368	1315.38
1012.585	1229.38
1012.801	1289.38
1013.018	1261.38
1013.235	1222.38
1013.452	1231.38
1013.669	1228.38
1013.885	1234.38
1014.102	1254.38
1014.318	1233.38
1014.535	1227.38
1014.751	1221.38
1014.968	1222.38
1015.184	1246.38
1015.401	1173.38
1015.617	1203.38
1015.833	1154.38
1016.049	1193.38
1016.266	1159.38
1016.482	1188.38
1016.698	1078.38
1016.914	1161.38
1017.13	1082.38
1017.346	1089.38
1017.562	1155.38
1017.778	1101.38
1017.993	1071.38
1018.209	1117.38
1018.425	1098.38
1018.641	1063.38
1018.856	1024.38
1019.072	1065.38
1019.288	1136.38
1019.503	1041.38
1019.719	958.38
1019.934	960.38
1020.149	1069.38
1020.365	1030.38
1020.58	978.38
1020.795	1027.38
1021.011	963.38
1021.226	954.38
1021.441	976.38
1021.656	903.38
1021.871	859.38
1022.086	857.38
1022.301	855.38
1022.516	846.38
1022.731	929.38
1022.946	819.38
1023.16	820.38
1023.375	780.38
1023.59	786.38
1023.804	738.38
1024.019	866.38
1024.234	732.38
1024.448	785.38
1024.663	712.38
1024.877	729.38
1025.092	742.38
1025.306	756.38
1025.52	661.38
1025.734	765.38
1025.949	691.38
1026.163	661.38
1026.377	613.38
1026.591	688.38
1026.805	595.38
1027.019	607.38
1027.233	570.38
1027.447	511.38
1027.661	606.38
1027.875	565.38
1028.088	582.38
1028.302	516.38
1028.516	504.38
1028.73	509.38
1028.943	515.38
1029.157	490.38
1029.37	454.38
1029.584	-0.62
1029.797	-1.62
1030.011	0.38
1030.224	-4.62
