Data from QEP037381__72__10-07-39-928.txt Node

Date: Wed Dec 21 10:07:39 EST 2022
User: dcclab
Spectrometer: QEP03738
Trigger mode: 4
Integration Time (sec): 1.000000E1
Scans to average: 1
Electric dark correction enabled: true
Nonlinearity correction enabled: false
Boxcar width: 0
XAxis mode: Wavelengths
Number of Pixels in Spectrum: 1044
>>>>>Begin Spectral Data<<<<<
784.041	13.5
784.3	0.5
784.558	-1.5
784.817	-1.5
785.075	110361.5
785.334	19024.5
785.592	8851.5
785.851	6099.5
786.109	4564.5
786.368	3586.5
786.626	2874.5
786.884	2381.5
787.143	1954.5
787.401	1608.5
787.659	1468.5
787.917	1233.5
788.175	1124.5
788.433	992.5
788.691	888.5
788.949	824.5
789.207	775.5
789.465	672.5
789.723	640.5
789.98	583.5
790.238	617.5
790.496	586.5
790.753	551.5
791.011	592.5
791.268	544.5
791.526	511.5
791.783	539.5
792.041	513.5
792.298	416.5
792.556	491.5
792.813	467.5
793.07	440.5
793.327	438.5
793.584	510.5
793.841	440.5
794.099	454.5
794.356	503.5
794.613	413.5
794.869	455.5
795.126	406.5
795.383	382.5
795.64	409.5
795.897	361.5
796.153	426.5
796.41	395.5
796.667	392.5
796.923	387.5
797.18	386.5
797.436	418.5
797.693	372.5
797.949	430.5
798.206	463.5
798.462	373.5
798.718	427.5
798.974	401.5
799.231	452.5
799.487	416.5
799.743	426.5
799.999	451.5
800.255	431.5
800.511	419.5
800.767	461.5
801.023	440.5
801.279	457.5
801.534	472.5
801.79	509.5
802.046	495.5
802.302	579.5
802.557	611.5
802.813	747.5
803.068	819.5
803.324	1092.5
803.579	1396.5
803.835	1831.5
804.09	2531.5
804.345	3228.5
804.601	4075.5
804.856	4917.5
805.111	5686.5
805.366	6265.5
805.621	6654.5
805.876	6927.5
806.131	7093.5
806.386	7181.5
806.641	7289.5
806.896	7376.5
807.151	7609.5
807.406	7635.5
807.661	7744.5
807.915	7831.5
808.17	7966.5
808.425	8016.5
808.679	8070.5
808.934	8161.5
809.188	8178.5
809.443	8343.5
809.697	8430.5
809.951	8429.5
810.206	8436.5
810.46	8581.5
810.714	8581.5
810.968	8729.5
811.223	8643.5
811.477	8804.5
811.731	8893.5
811.985	8860.5
812.239	8927.5
812.493	8915.5
812.747	8998.5
813	8946.5
813.254	9061.5
813.508	9083.5
813.762	9028.5
814.015	9076.5
814.269	9201.5
814.522	9314.5
814.776	9425.5
815.03	9433.5
815.283	9558.5
815.536	9768.5
815.79	9895.5
816.043	9918.5
816.296	10092.5
816.55	10163.5
816.803	10260.5
817.056	10460.5
817.309	10464.5
817.562	10541.5
817.815	10686.5
818.068	10655.5
818.321	10776.5
818.574	10903.5
818.827	11044.5
819.079	11130.5
819.332	11419.5
819.585	11416.5
819.838	11657.5
820.09	11621.5
820.343	11794.5
820.595	11823.5
820.848	11882.5
821.1	11944.5
821.353	11841.5
821.605	11946.5
821.857	11935.5
822.11	11819.5
822.362	11814.5
822.614	11840.5
822.866	11832.5
823.118	11868.5
823.37	11936.5
823.622	11973.5
823.874	11956.5
824.126	12035.5
824.378	11976.5
824.63	12015.5
824.882	12129.5
825.134	12100.5
825.385	12082.5
825.637	11985.5
825.888	12012.5
826.14	11957.5
826.392	11911.5
826.643	11766.5
826.895	11747.5
827.146	11600.5
827.397	11724.5
827.649	11649.5
827.9	11611.5
828.151	11704.5
828.402	11624.5
828.653	11751.5
828.905	11808.5
829.156	11840.5
829.407	11725.5
829.658	11778.5
829.909	11798.5
830.159	11773.5
830.41	11703.5
830.661	11635.5
830.912	11470.5
831.162	11481.5
831.413	11462.5
831.664	11561.5
831.914	11511.5
832.165	11564.5
832.415	11575.5
832.666	11508.5
832.916	11527.5
833.167	11398.5
833.417	11562.5
833.667	11416.5
833.917	11384.5
834.168	11423.5
834.418	11374.5
834.668	11362.5
834.918	11309.5
835.168	11306.5
835.418	11226.5
835.668	11123.5
835.918	11129.5
836.167	11106.5
836.417	11112.5
836.667	11086.5
836.917	11118.5
837.166	11071.5
837.416	11066.5
837.666	10981.5
837.915	10990.5
838.165	10960.5
838.414	10886.5
838.663	10877.5
838.913	10828.5
839.162	10805.5
839.411	10794.5
839.661	10762.5
839.91	10754.5
840.159	10790.5
840.408	10777.5
840.657	10807.5
840.906	10744.5
841.155	10847.5
841.404	10765.5
841.653	10767.5
841.902	10727.5
842.15	10702.5
842.399	10688.5
842.648	10738.5
842.897	10767.5
843.145	10620.5
843.394	10571.5
843.642	10537.5
843.891	10570.5
844.139	10445.5
844.388	10366.5
844.636	10361.5
844.884	10403.5
845.133	10249.5
845.381	10292.5
845.629	10353.5
845.877	10288.5
846.125	10282.5
846.373	10200.5
846.621	10212.5
846.869	10165.5
847.117	10120.5
847.365	10114.5
847.613	10003.5
847.861	10067.5
848.108	9988.5
848.356	9976.5
848.604	9950.5
848.851	9984.5
849.099	10077.5
849.346	10000.5
849.594	10088.5
849.841	10107.5
850.089	10093.5
850.336	10099.5
850.583	10060.5
850.831	10065.5
851.078	10042.5
851.325	9919.5
851.572	10027.5
851.819	9817.5
852.066	9755.5
852.313	9573.5
852.56	9513.5
852.807	9462.5
853.054	9438.5
853.301	9456.5
853.548	9469.5
853.794	9585.5
854.041	9597.5
854.288	9576.5
854.534	9771.5
854.781	9668.5
855.028	9573.5
855.274	9636.5
855.52	9527.5
855.767	9450.5
856.013	9474.5
856.26	9717.5
856.506	9376.5
856.752	9359.5
856.998	9326.5
857.244	9341.5
857.49	9342.5
857.736	9423.5
857.982	9403.5
858.228	9484.5
858.474	9350.5
858.72	9351.5
858.966	9257.5
859.212	9145.5
859.458	9083.5
859.703	8951.5
859.949	8851.5
860.195	8868.5
860.44	8775.5
860.686	8786.5
860.931	8732.5
861.177	8670.5
861.422	8727.5
861.667	8689.5
861.913	8686.5
862.158	8647.5
862.403	8716.5
862.648	8687.5
862.893	8746.5
863.138	8737.5
863.384	8651.5
863.629	8673.5
863.873	8713.5
864.118	8605.5
864.363	8553.5
864.608	8593.5
864.853	8522.5
865.098	8540.5
865.342	8491.5
865.587	8361.5
865.832	8424.5
866.076	8363.5
866.321	8282.5
866.565	8355.5
866.81	8310.5
867.054	8231.5
867.298	8257.5
867.543	8236.5
867.787	8220.5
868.031	8215.5
868.275	8161.5
868.519	8114.5
868.764	8176.5
869.008	8094.5
869.252	8170.5
869.496	8050.5
869.739	8047.5
869.983	8097.5
870.227	8049.5
870.471	7974.5
870.715	8095.5
870.958	8132.5
871.202	8043.5
871.446	8069.5
871.689	8033.5
871.933	8048.5
872.176	8019.5
872.42	8106.5
872.663	7978.5
872.906	8052.5
873.15	7975.5
873.393	7906.5
873.636	7955.5
873.879	7867.5
874.122	7796.5
874.366	7738.5
874.609	7596.5
874.852	7611.5
875.095	7560.5
875.337	7473.5
875.58	7453.5
875.823	7445.5
876.066	7496.5
876.309	7501.5
876.551	7371.5
876.794	7308.5
877.037	7395.5
877.279	7287.5
877.522	7252.5
877.764	7376.5
878.007	7358.5
878.249	7305.5
878.491	7346.5
878.734	7341.5
878.976	7279.5
879.218	7193.5
879.46	7210.5
879.702	7197.5
879.945	7062.5
880.187	7033.5
880.429	7034.5
880.671	7004.5
880.912	6989.5
881.154	6970.5
881.396	6881.5
881.638	6881.5
881.88	6916.5
882.121	6808.5
882.363	6826.5
882.605	6883.5
882.846	6766.5
883.088	6841.5
883.329	6781.5
883.571	6735.5
883.812	6774.5
884.053	6832.5
884.295	7027.5
884.536	7083.5
884.777	7039.5
885.018	7004.5
885.259	6929.5
885.5	6868.5
885.742	7133.5
885.982	6832.5
886.223	6802.5
886.464	6744.5
886.705	6687.5
886.946	6682.5
887.187	6563.5
887.428	6573.5
887.668	6446.5
887.909	6349.5
888.15	6300.5
888.39	6330.5
888.631	6341.5
888.871	6271.5
889.111	6196.5
889.352	6247.5
889.592	6107.5
889.833	6093.5
890.073	6018.5
890.313	6092.5
890.553	5925.5
890.793	5909.5
891.033	5927.5
891.273	5869.5
891.513	5913.5
891.753	5894.5
891.993	5802.5
892.233	5800.5
892.473	5933.5
892.713	5873.5
892.952	5796.5
893.192	5866.5
893.432	5818.5
893.671	5830.5
893.911	5778.5
894.15	5854.5
894.39	5627.5
894.629	5731.5
894.869	5728.5
895.108	5639.5
895.347	5581.5
895.587	5615.5
895.826	5531.5
896.065	5500.5
896.304	5557.5
896.543	5561.5
896.782	5461.5
897.021	5506.5
897.26	5469.5
897.499	5526.5
897.738	5542.5
897.977	5446.5
898.216	5342.5
898.454	5335.5
898.693	5262.5
898.932	5326.5
899.17	5243.5
899.409	5223.5
899.647	5182.5
899.886	5149.5
900.124	5221.5
900.363	5174.5
900.601	5194.5
900.839	5162.5
901.078	5250.5
901.316	5220.5
901.554	5222.5
901.792	5235.5
902.03	5196.5
902.268	5207.5
902.506	5187.5
902.744	5157.5
902.982	5151.5
903.22	5090.5
903.458	5000.5
903.695	4992.5
903.933	4947.5
904.171	4843.5
904.409	4829.5
904.646	4808.5
904.884	4712.5
905.121	4684.5
905.359	4658.5
905.596	4592.5
905.833	4560.5
906.071	4546.5
906.308	4596.5
906.545	4534.5
906.783	4448.5
907.02	4508.5
907.257	4457.5
907.494	4502.5
907.731	4500.5
907.968	4500.5
908.205	4396.5
908.442	4380.5
908.679	4350.5
908.915	4365.5
909.152	4345.5
909.389	4254.5
909.626	4227.5
909.862	4197.5
910.099	4205.5
910.335	4227.5
910.572	4084.5
910.808	4206.5
911.045	4151.5
911.281	4095.5
911.518	4201.5
911.754	4095.5
911.99	4092.5
912.226	4094.5
912.463	3991.5
912.699	3988.5
912.935	3986.5
913.171	3894.5
913.407	3837.5
913.643	3915.5
913.879	3864.5
914.114	3826.5
914.35	3791.5
914.586	3804.5
914.822	3708.5
915.057	3778.5
915.293	3625.5
915.529	3636.5
915.764	3686.5
916	3659.5
916.235	3643.5
916.471	3702.5
916.706	3572.5
916.941	3595.5
917.177	3603.5
917.412	3646.5
917.647	3620.5
917.882	3544.5
918.117	3636.5
918.352	3605.5
918.588	3643.5
918.823	3575.5
919.057	3527.5
919.292	3415.5
919.527	3523.5
919.762	3417.5
919.997	3435.5
920.232	3333.5
920.466	3392.5
920.701	3229.5
920.935	3283.5
921.17	3266.5
921.405	3250.5
921.639	3277.5
921.873	3248.5
922.108	3226.5
922.342	3255.5
922.576	3156.5
922.811	3182.5
923.045	3179.5
923.279	3228.5
923.513	3096.5
923.747	3184.5
923.981	3099.5
924.215	3128.5
924.449	3069.5
924.683	3031.5
924.917	3040.5
925.151	2995.5
925.385	3093.5
925.618	2991.5
925.852	2999.5
926.086	2946.5
926.319	2991.5
926.553	2973.5
926.786	2979.5
927.02	2945.5
927.253	3018.5
927.486	3009.5
927.72	2945.5
927.953	2981.5
928.186	2931.5
928.42	2961.5
928.653	2923.5
928.886	2881.5
929.119	2883.5
929.352	2891.5
929.585	2877.5
929.818	2831.5
930.051	2853.5
930.284	2851.5
930.516	2779.5
930.749	2756.5
930.982	2805.5
931.215	2797.5
931.447	2687.5
931.68	2727.5
931.912	2712.5
932.145	2725.5
932.377	2727.5
932.61	2818.5
932.842	2640.5
933.074	2733.5
933.307	2657.5
933.539	2771.5
933.771	2762.5
934.003	2646.5
934.236	2759.5
934.468	2787.5
934.7	2702.5
934.932	2731.5
935.164	2659.5
935.395	2657.5
935.627	2658.5
935.859	2666.5
936.091	2599.5
936.323	2653.5
936.554	2682.5
936.786	2628.5
937.017	2548.5
937.249	2593.5
937.481	2573.5
937.712	2590.5
937.943	2581.5
938.175	2588.5
938.406	2553.5
938.637	2625.5
938.869	2540.5
939.1	2579.5
939.331	2525.5
939.562	2539.5
939.793	2579.5
940.024	2615.5
940.255	2585.5
940.486	2517.5
940.717	2529.5
940.948	2496.5
941.179	2470.5
941.409	2485.5
941.64	2437.5
941.871	2500.5
942.102	2451.5
942.332	2445.5
942.563	2470.5
942.793	2504.5
943.024	2397.5
943.254	2429.5
943.484	2487.5
943.715	2497.5
943.945	2466.5
944.175	2371.5
944.405	2352.5
944.636	2395.5
944.866	2448.5
945.096	2472.5
945.326	2343.5
945.556	2428.5
945.786	2433.5
946.016	2383.5
946.245	2346.5
946.475	2358.5
946.705	2327.5
946.935	2342.5
947.164	2340.5
947.394	2294.5
947.624	2334.5
947.853	2330.5
948.083	2286.5
948.312	2299.5
948.542	2209.5
948.771	2224.5
949	2242.5
949.23	2243.5
949.459	2245.5
949.688	2308.5
949.917	2248.5
950.146	2273.5
950.375	2312.5
950.604	2210.5
950.833	2293.5
951.062	2249.5
951.291	2228.5
951.52	2193.5
951.749	2196.5
951.978	2213.5
952.206	2202.5
952.435	2158.5
952.664	2240.5
952.892	2230.5
953.121	2216.5
953.349	2237.5
953.578	2193.5
953.806	2169.5
954.035	2128.5
954.263	2166.5
954.491	2085.5
954.719	2152.5
954.948	2143.5
955.176	2096.5
955.404	2006.5
955.632	2086.5
955.86	2098.5
956.088	2092.5
956.316	2145.5
956.544	2149.5
956.772	2062.5
956.999	2027.5
957.227	2090.5
957.455	2016.5
957.683	2025.5
957.91	2011.5
958.138	1977.5
958.365	1984.5
958.593	1997.5
958.82	1933.5
959.048	2007.5
959.275	1982.5
959.502	1983.5
959.73	1927.5
959.957	1959.5
960.184	1990.5
960.411	1954.5
960.638	1996.5
960.865	1981.5
961.092	1991.5
961.319	1896.5
961.546	1965.5
961.773	1962.5
962	1953.5
962.227	1982.5
962.454	1919.5
962.68	1921.5
962.907	1945.5
963.134	1874.5
963.36	1907.5
963.587	1914.5
963.813	1869.5
964.04	1904.5
964.266	1856.5
964.493	1933.5
964.719	1916.5
964.945	1903.5
965.171	1801.5
965.398	1841.5
965.624	1873.5
965.85	1824.5
966.076	1819.5
966.302	1847.5
966.528	1825.5
966.754	1836.5
966.98	1830.5
967.206	1819.5
967.431	1750.5
967.657	1826.5
967.883	1820.5
968.109	1818.5
968.334	1756.5
968.56	1748.5
968.785	1726.5
969.011	1703.5
969.236	1762.5
969.462	1717.5
969.687	1743.5
969.912	1760.5
970.138	1812.5
970.363	1724.5
970.588	1734.5
970.813	1708.5
971.038	1692.5
971.263	1737.5
971.488	1748.5
971.713	1769.5
971.938	1714.5
972.163	1678.5
972.388	1668.5
972.613	1654.5
972.838	1662.5
973.062	1666.5
973.287	1673.5
973.512	1611.5
973.736	1633.5
973.961	1650.5
974.185	1596.5
974.41	1637.5
974.634	1559.5
974.858	1586.5
975.083	1615.5
975.307	1621.5
975.531	1555.5
975.755	1523.5
975.98	1531.5
976.204	1467.5
976.428	1477.5
976.652	1492.5
976.876	1475.5
977.1	1519.5
977.324	1497.5
977.547	1534.5
977.771	1554.5
977.995	1496.5
978.219	1465.5
978.442	1547.5
978.666	1512.5
978.89	1500.5
979.113	1492.5
979.337	1472.5
979.56	1444.5
979.783	1546.5
980.007	1434.5
980.23	1472.5
980.453	1444.5
980.677	1482.5
980.9	1476.5
981.123	1391.5
981.346	1473.5
981.569	1443.5
981.792	1451.5
982.015	1439.5
982.238	1385.5
982.461	1395.5
982.684	1374.5
982.907	1365.5
983.129	1352.5
983.352	1433.5
983.575	1384.5
983.797	1413.5
984.02	1359.5
984.242	1363.5
984.465	1368.5
984.687	1401.5
984.91	1422.5
985.132	1390.5
985.354	1427.5
985.577	1380.5
985.799	1361.5
986.021	1284.5
986.243	1324.5
986.465	1346.5
986.687	1363.5
986.909	1398.5
987.131	1348.5
987.353	1298.5
987.575	1366.5
987.797	1317.5
988.019	1253.5
988.241	1326.5
988.462	1259.5
988.684	1329.5
988.906	1350.5
989.127	1384.5
989.349	1242.5
989.57	1316.5
989.792	1336.5
990.013	1346.5
990.234	1365.5
990.456	1378.5
990.677	1333.5
990.898	1291.5
991.119	1303.5
991.341	1355.5
991.562	1251.5
991.783	1293.5
992.004	1216.5
992.225	1235.5
992.446	1293.5
992.667	1206.5
992.887	1276.5
993.108	1195.5
993.329	1294.5
993.55	1260.5
993.77	1188.5
993.991	1221.5
994.212	1261.5
994.432	1220.5
994.653	1245.5
994.873	1246.5
995.093	1108.5
995.314	1152.5
995.534	1253.5
995.754	1270.5
995.975	1274.5
996.195	1164.5
996.415	1247.5
996.635	1188.5
996.855	1210.5
997.075	1181.5
997.295	1202.5
997.515	1160.5
997.735	1217.5
997.955	1213.5
998.174	1184.5
998.394	1150.5
998.614	1189.5
998.834	1167.5
999.053	1238.5
999.273	1186.5
999.492	1266.5
999.712	1178.5
999.931	1132.5
1000.151	1211.5
1000.37	1163.5
1000.589	1226.5
1000.809	1160.5
1001.028	1264.5
1001.247	1226.5
1001.466	1118.5
1001.685	1275.5
1001.904	1184.5
1002.123	1177.5
1002.342	1202.5
1002.561	1157.5
1002.78	1176.5
1002.999	1247.5
1003.218	1183.5
1003.436	1158.5
1003.655	1227.5
1003.874	1146.5
1004.092	1185.5
1004.311	1207.5
1004.53	1178.5
1004.748	1267.5
1004.966	1183.5
1005.185	1229.5
1005.403	1229.5
1005.622	1199.5
1005.84	1264.5
1006.058	1150.5
1006.276	1185.5
1006.494	1680.5
1006.712	1177.5
1006.931	1268.5
1007.149	1163.5
1007.367	1172.5
1007.584	1198.5
1007.802	1200.5
1008.02	1164.5
1008.238	1257.5
1008.456	1263.5
1008.673	1123.5
1008.891	1225.5
1009.109	1163.5
1009.326	1217.5
1009.544	1305.5
1009.761	1154.5
1009.979	1280.5
1010.196	1247.5
1010.413	1315.5
1010.631	1325.5
1010.848	1348.5
1011.065	1362.5
1011.282	1301.5
1011.5	1265.5
1011.717	1361.5
1011.934	1259.5
1012.151	1328.5
1012.368	1317.5
1012.585	1249.5
1012.801	1298.5
1013.018	1272.5
1013.235	1228.5
1013.452	1245.5
1013.669	1243.5
1013.885	1217.5
1014.102	1271.5
1014.318	1245.5
1014.535	1185.5
1014.751	1240.5
1014.968	1230.5
1015.184	1228.5
1015.401	1196.5
1015.617	1211.5
1015.833	1180.5
1016.049	1162.5
1016.266	1135.5
1016.482	1166.5
1016.698	1108.5
1016.914	1159.5
1017.13	1141.5
1017.346	1105.5
1017.562	1160.5
1017.778	1094.5
1017.993	1062.5
1018.209	1135.5
1018.425	1105.5
1018.641	1059.5
1018.856	1040.5
1019.072	1078.5
1019.288	1140.5
1019.503	1076.5
1019.719	983.5
1019.934	1011.5
1020.149	1092.5
1020.365	1029.5
1020.58	976.5
1020.795	1038.5
1021.011	981.5
1021.226	963.5
1021.441	1005.5
1021.656	949.5
1021.871	882.5
1022.086	885.5
1022.301	903.5
1022.516	880.5
1022.731	928.5
1022.946	841.5
1023.16	851.5
1023.375	824.5
1023.59	825.5
1023.804	768.5
1024.019	879.5
1024.234	759.5
1024.448	799.5
1024.663	762.5
1024.877	748.5
1025.092	775.5
1025.306	764.5
1025.52	698.5
1025.734	800.5
1025.949	738.5
1026.163	703.5
1026.377	637.5
1026.591	714.5
1026.805	624.5
1027.019	625.5
1027.233	592.5
1027.447	555.5
1027.661	656.5
1027.875	590.5
1028.088	603.5
1028.302	546.5
1028.516	551.5
1028.73	539.5
1028.943	539.5
1029.157	503.5
1029.37	463.5
1029.584	-3.5
1029.797	-4.5
1030.011	-1.5
1030.224	-1.5
