Data from QEP037381__58__10-05-19-927.txt Node

Date: Wed Dec 21 10:05:19 EST 2022
User: dcclab
Spectrometer: QEP03738
Trigger mode: 4
Integration Time (sec): 1.000000E1
Scans to average: 1
Electric dark correction enabled: true
Nonlinearity correction enabled: false
Boxcar width: 0
XAxis mode: Wavelengths
Number of Pixels in Spectrum: 1044
>>>>>Begin Spectral Data<<<<<
784.041	10.62
784.3	1.62
784.558	-5.38
784.817	-3.38
785.075	113979.62
785.334	19677.62
785.592	9168.62
785.851	6348.62
786.109	4757.62
786.368	3683.62
786.626	3002.62
786.884	2463.62
787.143	2039.62
787.401	1686.62
787.659	1508.62
787.917	1273.62
788.175	1165.62
788.433	1019.62
788.691	909.62
788.949	846.62
789.207	788.62
789.465	684.62
789.723	653.62
789.98	581.62
790.238	628.62
790.496	595.62
790.753	578.62
791.011	613.62
791.268	551.62
791.526	517.62
791.783	530.62
792.041	520.62
792.298	431.62
792.556	492.62
792.813	478.62
793.07	459.62
793.327	430.62
793.584	517.62
793.841	433.62
794.099	459.62
794.356	495.62
794.613	395.62
794.869	448.62
795.126	405.62
795.383	404.62
795.64	405.62
795.897	366.62
796.153	422.62
796.41	398.62
796.667	385.62
796.923	398.62
797.18	395.62
797.436	410.62
797.693	375.62
797.949	425.62
798.206	474.62
798.462	362.62
798.718	437.62
798.974	390.62
799.231	434.62
799.487	431.62
799.743	421.62
799.999	440.62
800.255	429.62
800.511	413.62
800.767	455.62
801.023	433.62
801.279	427.62
801.534	457.62
801.79	490.62
802.046	476.62
802.302	564.62
802.557	576.62
802.813	675.62
803.068	718.62
803.324	947.62
803.579	1218.62
803.835	1573.62
804.09	2114.62
804.345	2695.62
804.601	3314.62
804.856	4020.62
805.111	4612.62
805.366	5032.62
805.621	5338.62
805.876	5622.62
806.131	5656.62
806.386	5841.62
806.641	5817.62
806.896	5969.62
807.151	6069.62
807.406	6073.62
807.661	6269.62
807.915	6340.62
808.17	6382.62
808.425	6417.62
808.679	6395.62
808.934	6597.62
809.188	6571.62
809.443	6598.62
809.697	6694.62
809.951	6692.62
810.206	6690.62
810.46	6828.62
810.714	6865.62
810.968	6942.62
811.223	6914.62
811.477	6986.62
811.731	7079.62
811.985	7001.62
812.239	6983.62
812.493	7114.62
812.747	7086.62
813	7065.62
813.254	7171.62
813.508	7179.62
813.762	7193.62
814.015	7300.62
814.269	7266.62
814.522	7377.62
814.776	7473.62
815.03	7491.62
815.283	7625.62
815.536	7692.62
815.79	7767.62
816.043	7864.62
816.296	7944.62
816.55	8022.62
816.803	8074.62
817.056	8284.62
817.309	8265.62
817.562	8345.62
817.815	8400.62
818.068	8447.62
818.321	8487.62
818.574	8612.62
818.827	8712.62
819.079	8746.62
819.332	8980.62
819.585	9025.62
819.838	9063.62
820.09	9191.62
820.343	9252.62
820.595	9196.62
820.848	9271.62
821.1	9375.62
821.353	9394.62
821.605	9313.62
821.857	9382.62
822.11	9271.62
822.362	9331.62
822.614	9258.62
822.866	9317.62
823.118	9307.62
823.37	9479.62
823.622	9304.62
823.874	9396.62
824.126	9538.62
824.378	9440.62
824.63	9417.62
824.882	9533.62
825.134	9498.62
825.385	9497.62
825.637	9400.62
825.888	9323.62
826.14	9352.62
826.392	9209.62
826.643	9173.62
826.895	9283.62
827.146	9140.62
827.397	9109.62
827.649	9159.62
827.9	9145.62
828.151	9080.62
828.402	9150.62
828.653	9117.62
828.905	9159.62
829.156	9313.62
829.407	9185.62
829.658	9160.62
829.909	9207.62
830.159	9190.62
830.41	9193.62
830.661	9143.62
830.912	9026.62
831.162	8989.62
831.413	9064.62
831.664	9031.62
831.914	9027.62
832.165	9004.62
832.415	9014.62
832.666	9043.62
832.916	8983.62
833.167	9055.62
833.417	9032.62
833.667	8915.62
833.917	8987.62
834.168	8990.62
834.418	9014.62
834.668	8941.62
834.918	8818.62
835.168	8899.62
835.418	8758.62
835.668	8838.62
835.918	8821.62
836.167	8819.62
836.417	8733.62
836.667	8746.62
836.917	8799.62
837.166	8690.62
837.416	8769.62
837.666	8749.62
837.915	8696.62
838.165	8608.62
838.414	8562.62
838.663	8500.62
838.913	8518.62
839.162	8500.62
839.411	8622.62
839.661	8515.62
839.91	8472.62
840.159	8514.62
840.408	8487.62
840.657	8467.62
840.906	8452.62
841.155	8467.62
841.404	8449.62
841.653	8480.62
841.902	8398.62
842.15	8398.62
842.399	8511.62
842.648	8496.62
842.897	8486.62
843.145	8385.62
843.394	8324.62
843.642	8186.62
843.891	8299.62
844.139	8188.62
844.388	8152.62
844.636	8073.62
844.884	8137.62
845.133	8108.62
845.381	8110.62
845.629	8123.62
845.877	8160.62
846.125	8062.62
846.373	8097.62
846.621	7968.62
846.869	8029.62
847.117	7971.62
847.365	7966.62
847.613	7864.62
847.861	7895.62
848.108	7874.62
848.356	7917.62
848.604	7892.62
848.851	7906.62
849.099	7893.62
849.346	7907.62
849.594	7919.62
849.841	7915.62
850.089	7943.62
850.336	7958.62
850.583	8035.62
850.831	7968.62
851.078	7916.62
851.325	7848.62
851.572	7866.62
851.819	7702.62
852.066	7691.62
852.313	7574.62
852.56	7526.62
852.807	7453.62
853.054	7490.62
853.301	7474.62
853.548	7472.62
853.794	7560.62
854.041	7587.62
854.288	7551.62
854.534	7756.62
854.781	7605.62
855.028	7610.62
855.274	7661.62
855.52	7511.62
855.767	7515.62
856.013	7559.62
856.26	7815.62
856.506	7461.62
856.752	7412.62
856.998	7385.62
857.244	7479.62
857.49	7512.62
857.736	7510.62
857.982	7496.62
858.228	7468.62
858.474	7361.62
858.72	7384.62
858.966	7301.62
859.212	7260.62
859.458	7148.62
859.703	7103.62
859.949	6990.62
860.195	7062.62
860.44	6986.62
860.686	6906.62
860.931	6940.62
861.177	6974.62
861.422	6946.62
861.667	6883.62
861.913	6884.62
862.158	6847.62
862.403	6922.62
862.648	6915.62
862.893	6911.62
863.138	6839.62
863.384	6857.62
863.629	6890.62
863.873	6898.62
864.118	6838.62
864.363	6719.62
864.608	6781.62
864.853	6809.62
865.098	6708.62
865.342	6687.62
865.587	6640.62
865.832	6741.62
866.076	6685.62
866.321	6621.62
866.565	6551.62
866.81	6580.62
867.054	6577.62
867.298	6613.62
867.543	6474.62
867.787	6537.62
868.031	6460.62
868.275	6451.62
868.519	6460.62
868.764	6462.62
869.008	6445.62
869.252	6492.62
869.496	6418.62
869.739	6436.62
869.983	6455.62
870.227	6414.62
870.471	6441.62
870.715	6433.62
870.958	6410.62
871.202	6406.62
871.446	6429.62
871.689	6426.62
871.933	6479.62
872.176	6396.62
872.42	6408.62
872.663	6339.62
872.906	6385.62
873.15	6420.62
873.393	6346.62
873.636	6380.62
873.879	6369.62
874.122	6264.62
874.366	6120.62
874.609	6140.62
874.852	6081.62
875.095	6069.62
875.337	6018.62
875.58	5924.62
875.823	5966.62
876.066	5957.62
876.309	5992.62
876.551	5911.62
876.794	5868.62
877.037	5895.62
877.279	5772.62
877.522	5871.62
877.764	5832.62
878.007	5843.62
878.249	5854.62
878.491	5822.62
878.734	5885.62
878.976	5810.62
879.218	5717.62
879.46	5796.62
879.702	5702.62
879.945	5655.62
880.187	5612.62
880.429	5592.62
880.671	5545.62
880.912	5519.62
881.154	5510.62
881.396	5456.62
881.638	5474.62
881.88	5541.62
882.121	5432.62
882.363	5446.62
882.605	5520.62
882.846	5428.62
883.088	5525.62
883.329	5418.62
883.571	5408.62
883.812	5457.62
884.053	5551.62
884.295	5674.62
884.536	5794.62
884.777	5769.62
885.018	5720.62
885.259	5696.62
885.5	5587.62
885.742	5895.62
885.982	5563.62
886.223	5463.62
886.464	5521.62
886.705	5379.62
886.946	5386.62
887.187	5245.62
887.428	5341.62
887.668	5146.62
887.909	5098.62
888.15	5022.62
888.39	5037.62
888.631	5053.62
888.871	5014.62
889.111	4946.62
889.352	4956.62
889.592	4849.62
889.833	4805.62
890.073	4795.62
890.313	4837.62
890.553	4730.62
890.793	4719.62
891.033	4687.62
891.273	4660.62
891.513	4704.62
891.753	4716.62
891.993	4695.62
892.233	4685.62
892.473	4758.62
892.713	4715.62
892.952	4669.62
893.192	4672.62
893.432	4632.62
893.671	4722.62
893.911	4580.62
894.15	4610.62
894.39	4500.62
894.629	4537.62
894.869	4534.62
895.108	4502.62
895.347	4433.62
895.587	4457.62
895.826	4427.62
896.065	4406.62
896.304	4478.62
896.543	4494.62
896.782	4310.62
897.021	4386.62
897.26	4366.62
897.499	4410.62
897.738	4411.62
897.977	4358.62
898.216	4302.62
898.454	4280.62
898.693	4192.62
898.932	4255.62
899.17	4217.62
899.409	4160.62
899.647	4196.62
899.886	4169.62
900.124	4190.62
900.363	4143.62
900.601	4202.62
900.839	4158.62
901.078	4192.62
901.316	4167.62
901.554	4200.62
901.792	4248.62
902.03	4205.62
902.268	4199.62
902.506	4217.62
902.744	4186.62
902.982	4223.62
903.22	4067.62
903.458	4044.62
903.695	4039.62
903.933	3947.62
904.171	3862.62
904.409	3879.62
904.646	3868.62
904.884	3753.62
905.121	3829.62
905.359	3685.62
905.596	3709.62
905.833	3654.62
906.071	3596.62
906.308	3687.62
906.545	3614.62
906.783	3590.62
907.02	3576.62
907.257	3613.62
907.494	3591.62
907.731	3593.62
907.968	3567.62
908.205	3564.62
908.442	3485.62
908.679	3535.62
908.915	3502.62
909.152	3497.62
909.389	3403.62
909.626	3406.62
909.862	3367.62
910.099	3392.62
910.335	3398.62
910.572	3338.62
910.808	3341.62
911.045	3302.62
911.281	3315.62
911.518	3360.62
911.754	3265.62
911.99	3282.62
912.226	3291.62
912.463	3232.62
912.699	3211.62
912.935	3206.62
913.171	3131.62
913.407	3139.62
913.643	3160.62
913.879	3118.62
914.114	3093.62
914.35	3048.62
914.586	2998.62
914.822	2963.62
915.057	3056.62
915.293	2938.62
915.529	2897.62
915.764	2973.62
916	2970.62
916.235	2982.62
916.471	2984.62
916.706	2856.62
916.941	2920.62
917.177	2890.62
917.412	2946.62
917.647	2914.62
917.882	2876.62
918.117	2952.62
918.352	2932.62
918.588	2932.62
918.823	2835.62
919.057	2827.62
919.292	2747.62
919.527	2816.62
919.762	2744.62
919.997	2773.62
920.232	2726.62
920.466	2770.62
920.701	2642.62
920.935	2658.62
921.17	2654.62
921.405	2600.62
921.639	2660.62
921.873	2627.62
922.108	2642.62
922.342	2616.62
922.576	2589.62
922.811	2563.62
923.045	2589.62
923.279	2608.62
923.513	2469.62
923.747	2562.62
923.981	2534.62
924.215	2480.62
924.449	2505.62
924.683	2451.62
924.917	2467.62
925.151	2449.62
925.385	2544.62
925.618	2475.62
925.852	2455.62
926.086	2405.62
926.319	2462.62
926.553	2429.62
926.786	2427.62
927.02	2429.62
927.253	2466.62
927.486	2476.62
927.72	2409.62
927.953	2427.62
928.186	2393.62
928.42	2393.62
928.653	2375.62
928.886	2337.62
929.119	2395.62
929.352	2367.62
929.585	2358.62
929.818	2324.62
930.051	2302.62
930.284	2325.62
930.516	2256.62
930.749	2242.62
930.982	2296.62
931.215	2255.62
931.447	2198.62
931.68	2211.62
931.912	2215.62
932.145	2166.62
932.377	2231.62
932.61	2351.62
932.842	2138.62
933.074	2234.62
933.307	2158.62
933.539	2304.62
933.771	2285.62
934.003	2229.62
934.236	2342.62
934.468	2410.62
934.7	2343.62
934.932	2423.62
935.164	2342.62
935.395	2348.62
935.627	2343.62
935.859	2270.62
936.091	2217.62
936.323	2205.62
936.554	2227.62
936.786	2173.62
937.017	2103.62
937.249	2123.62
937.481	2074.62
937.712	2172.62
937.943	2098.62
938.175	2087.62
938.406	2103.62
938.637	2183.62
938.869	2099.62
939.1	2134.62
939.331	2076.62
939.562	2095.62
939.793	2078.62
940.024	2099.62
940.255	2117.62
940.486	2047.62
940.717	2056.62
940.948	2066.62
941.179	1994.62
941.409	2018.62
941.64	2021.62
941.871	2015.62
942.102	1985.62
942.332	2005.62
942.563	2047.62
942.793	2035.62
943.024	2003.62
943.254	2021.62
943.484	2044.62
943.715	2060.62
943.945	2017.62
944.175	1968.62
944.405	1947.62
944.636	1972.62
944.866	2003.62
945.096	2012.62
945.326	1972.62
945.556	2028.62
945.786	2028.62
946.016	1984.62
946.245	1905.62
946.475	1953.62
946.705	1934.62
946.935	1930.62
947.164	1929.62
947.394	1863.62
947.624	1885.62
947.853	1964.62
948.083	1918.62
948.312	1857.62
948.542	1840.62
948.771	1801.62
949	1812.62
949.23	1858.62
949.459	1884.62
949.688	1899.62
949.917	1882.62
950.146	1863.62
950.375	1921.62
950.604	1810.62
950.833	1906.62
951.062	1917.62
951.291	1852.62
951.52	1799.62
951.749	1822.62
951.978	1797.62
952.206	1792.62
952.435	1788.62
952.664	1853.62
952.892	1852.62
953.121	1823.62
953.349	1845.62
953.578	1853.62
953.806	1805.62
954.035	1758.62
954.263	1773.62
954.491	1719.62
954.719	1786.62
954.948	1742.62
955.176	1723.62
955.404	1720.62
955.632	1755.62
955.86	1742.62
956.088	1744.62
956.316	1752.62
956.544	1773.62
956.772	1708.62
956.999	1693.62
957.227	1787.62
957.455	1658.62
957.683	1698.62
957.91	1663.62
958.138	1650.62
958.365	1657.62
958.593	1658.62
958.82	1627.62
959.048	1668.62
959.275	1649.62
959.502	1626.62
959.73	1601.62
959.957	1664.62
960.184	1669.62
960.411	1624.62
960.638	1672.62
960.865	1633.62
961.092	1667.62
961.319	1573.62
961.546	1670.62
961.773	1647.62
962	1600.62
962.227	1683.62
962.454	1647.62
962.68	1616.62
962.907	1633.62
963.134	1575.62
963.36	1591.62
963.587	1620.62
963.813	1574.62
964.04	1593.62
964.266	1563.62
964.493	1638.62
964.719	1597.62
964.945	1618.62
965.171	1506.62
965.398	1574.62
965.624	1563.62
965.85	1534.62
966.076	1525.62
966.302	1550.62
966.528	1521.62
966.754	1546.62
966.98	1543.62
967.206	1574.62
967.431	1480.62
967.657	1543.62
967.883	1532.62
968.109	1523.62
968.334	1510.62
968.56	1446.62
968.785	1474.62
969.011	1442.62
969.236	1509.62
969.462	1425.62
969.687	1496.62
969.912	1523.62
970.138	1518.62
970.363	1431.62
970.588	1491.62
970.813	1446.62
971.038	1428.62
971.263	1471.62
971.488	1457.62
971.713	1499.62
971.938	1481.62
972.163	1401.62
972.388	1401.62
972.613	1404.62
972.838	1426.62
973.062	1414.62
973.287	1410.62
973.512	1336.62
973.736	1383.62
973.961	1375.62
974.185	1357.62
974.41	1393.62
974.634	1324.62
974.858	1335.62
975.083	1361.62
975.307	1400.62
975.531	1317.62
975.755	1286.62
975.98	1298.62
976.204	1250.62
976.428	1260.62
976.652	1282.62
976.876	1235.62
977.1	1297.62
977.324	1268.62
977.547	1324.62
977.771	1312.62
977.995	1303.62
978.219	1215.62
978.442	1345.62
978.666	1288.62
978.89	1297.62
979.113	1284.62
979.337	1248.62
979.56	1245.62
979.783	1317.62
980.007	1229.62
980.23	1226.62
980.453	1221.62
980.677	1270.62
980.9	1251.62
981.123	1161.62
981.346	1259.62
981.569	1269.62
981.792	1268.62
982.015	1212.62
982.238	1204.62
982.461	1206.62
982.684	1187.62
982.907	1160.62
983.129	1196.62
983.352	1226.62
983.575	1191.62
983.797	1208.62
984.02	1181.62
984.242	1164.62
984.465	1167.62
984.687	1179.62
984.91	1221.62
985.132	1198.62
985.354	1219.62
985.577	1180.62
985.799	1184.62
986.021	1120.62
986.243	1134.62
986.465	1166.62
986.687	1187.62
986.909	1243.62
987.131	1169.62
987.353	1167.62
987.575	1178.62
987.797	1143.62
988.019	1082.62
988.241	1149.62
988.462	1115.62
988.684	1183.62
988.906	1189.62
989.127	1202.62
989.349	1098.62
989.57	1137.62
989.792	1160.62
990.013	1207.62
990.234	1176.62
990.456	1213.62
990.677	1194.62
990.898	1151.62
991.119	1127.62
991.341	1180.62
991.562	1109.62
991.783	1146.62
992.004	1090.62
992.225	1062.62
992.446	1129.62
992.667	1054.62
992.887	1121.62
993.108	1047.62
993.329	1183.62
993.55	1120.62
993.77	1042.62
993.991	1065.62
994.212	1079.62
994.432	1101.62
994.653	1115.62
994.873	1100.62
995.093	999.62
995.314	1048.62
995.534	1100.62
995.754	1127.62
995.975	1164.62
996.195	1030.62
996.415	1097.62
996.635	1073.62
996.855	1101.62
997.075	1070.62
997.295	1060.62
997.515	1034.62
997.735	1102.62
997.955	1091.62
998.174	1044.62
998.394	1018.62
998.614	1085.62
998.834	1048.62
999.053	1111.62
999.273	1094.62
999.492	1111.62
999.712	1057.62
999.931	1027.62
1000.151	1065.62
1000.37	1058.62
1000.589	1109.62
1000.809	1046.62
1001.028	1159.62
1001.247	1106.62
1001.466	1011.62
1001.685	1148.62
1001.904	1102.62
1002.123	1079.62
1002.342	1090.62
1002.561	1050.62
1002.78	1080.62
1002.999	1139.62
1003.218	1074.62
1003.436	1048.62
1003.655	1110.62
1003.874	1042.62
1004.092	1066.62
1004.311	1107.62
1004.53	1061.62
1004.748	1159.62
1004.966	1086.62
1005.185	1129.62
1005.403	1126.62
1005.622	1093.62
1005.84	1174.62
1006.058	1078.62
1006.276	1108.62
1006.494	1597.62
1006.712	1092.62
1006.931	1164.62
1007.149	1052.62
1007.367	1072.62
1007.584	1114.62
1007.802	1139.62
1008.02	1090.62
1008.238	1141.62
1008.456	1154.62
1008.673	1035.62
1008.891	1141.62
1009.109	1066.62
1009.326	1127.62
1009.544	1234.62
1009.761	1107.62
1009.979	1209.62
1010.196	1176.62
1010.413	1241.62
1010.631	1266.62
1010.848	1312.62
1011.065	1307.62
1011.282	1230.62
1011.5	1182.62
1011.717	1293.62
1011.934	1238.62
1012.151	1289.62
1012.368	1229.62
1012.585	1204.62
1012.801	1250.62
1013.018	1215.62
1013.235	1189.62
1013.452	1191.62
1013.669	1194.62
1013.885	1187.62
1014.102	1190.62
1014.318	1178.62
1014.535	1149.62
1014.751	1195.62
1014.968	1204.62
1015.184	1224.62
1015.401	1116.62
1015.617	1158.62
1015.833	1133.62
1016.049	1121.62
1016.266	1103.62
1016.482	1124.62
1016.698	1047.62
1016.914	1099.62
1017.13	1061.62
1017.346	1051.62
1017.562	1126.62
1017.778	1067.62
1017.993	1018.62
1018.209	1088.62
1018.425	1060.62
1018.641	1031.62
1018.856	990.62
1019.072	1030.62
1019.288	1091.62
1019.503	1015.62
1019.719	959.62
1019.934	971.62
1020.149	1039.62
1020.365	970.62
1020.58	938.62
1020.795	1009.62
1021.011	946.62
1021.226	933.62
1021.441	952.62
1021.656	876.62
1021.871	836.62
1022.086	840.62
1022.301	845.62
1022.516	836.62
1022.731	893.62
1022.946	811.62
1023.16	793.62
1023.375	763.62
1023.59	767.62
1023.804	748.62
1024.019	843.62
1024.234	718.62
1024.448	754.62
1024.663	685.62
1024.877	719.62
1025.092	736.62
1025.306	771.62
1025.52	642.62
1025.734	753.62
1025.949	674.62
1026.163	658.62
1026.377	603.62
1026.591	655.62
1026.805	569.62
1027.019	591.62
1027.233	566.62
1027.447	513.62
1027.661	619.62
1027.875	556.62
1028.088	581.62
1028.302	506.62
1028.516	493.62
1028.73	508.62
1028.943	515.62
1029.157	465.62
1029.37	438.62
1029.584	-1.38
1029.797	1.62
1030.011	-0.38
1030.224	-3.38
