Data from QEP037381__31__10-00-49-927.txt Node

Date: Wed Dec 21 10:00:49 EST 2022
User: dcclab
Spectrometer: QEP03738
Trigger mode: 4
Integration Time (sec): 1.000000E1
Scans to average: 1
Electric dark correction enabled: true
Nonlinearity correction enabled: false
Boxcar width: 0
XAxis mode: Wavelengths
Number of Pixels in Spectrum: 1044
>>>>>Begin Spectral Data<<<<<
784.041	13.25
784.3	0.25
784.558	-5.75
784.817	-4.75
785.075	113741.25
785.334	19632.25
785.592	9262.25
785.851	6291.25
786.109	4748.25
786.368	3688.25
786.626	2952.25
786.884	2446.25
787.143	2056.25
787.401	1697.25
787.659	1512.25
787.917	1277.25
788.175	1153.25
788.433	1037.25
788.691	913.25
788.949	843.25
789.207	791.25
789.465	698.25
789.723	661.25
789.98	612.25
790.238	646.25
790.496	609.25
790.753	576.25
791.011	613.25
791.268	547.25
791.526	532.25
791.783	539.25
792.041	531.25
792.298	435.25
792.556	500.25
792.813	485.25
793.07	461.25
793.327	448.25
793.584	506.25
793.841	443.25
794.099	452.25
794.356	516.25
794.613	420.25
794.869	456.25
795.126	419.25
795.383	389.25
795.64	415.25
795.897	376.25
796.153	429.25
796.41	401.25
796.667	385.25
796.923	391.25
797.18	391.25
797.436	415.25
797.693	385.25
797.949	434.25
798.206	447.25
798.462	365.25
798.718	420.25
798.974	392.25
799.231	436.25
799.487	415.25
799.743	418.25
799.999	431.25
800.255	437.25
800.511	421.25
800.767	450.25
801.023	434.25
801.279	456.25
801.534	477.25
801.79	499.25
802.046	494.25
802.302	543.25
802.557	604.25
802.813	687.25
803.068	760.25
803.324	1027.25
803.579	1237.25
803.835	1642.25
804.09	2238.25
804.345	2824.25
804.601	3522.25
804.856	4261.25
805.111	4886.25
805.366	5371.25
805.621	5700.25
805.876	5923.25
806.131	5979.25
806.386	6094.25
806.641	6199.25
806.896	6220.25
807.151	6426.25
807.406	6449.25
807.661	6572.25
807.915	6651.25
808.17	6750.25
808.425	6807.25
808.679	6806.25
808.934	6939.25
809.188	6902.25
809.443	7001.25
809.697	7039.25
809.951	7112.25
810.206	7070.25
810.46	7206.25
810.714	7192.25
810.968	7306.25
811.223	7325.25
811.477	7390.25
811.731	7540.25
811.985	7400.25
812.239	7434.25
812.493	7520.25
812.747	7555.25
813	7514.25
813.254	7583.25
813.508	7587.25
813.762	7595.25
814.015	7592.25
814.269	7732.25
814.522	7755.25
814.776	7874.25
815.03	7924.25
815.283	7987.25
815.536	8117.25
815.79	8287.25
816.043	8345.25
816.296	8355.25
816.55	8513.25
816.803	8592.25
817.056	8792.25
817.309	8654.25
817.562	8779.25
817.815	8834.25
818.068	8852.25
818.321	8958.25
818.574	9050.25
818.827	9167.25
819.079	9179.25
819.332	9422.25
819.585	9507.25
819.838	9660.25
820.09	9665.25
820.343	9735.25
820.595	9752.25
820.848	9848.25
821.1	9865.25
821.353	9885.25
821.605	9904.25
821.857	9907.25
822.11	9763.25
822.362	9818.25
822.614	9774.25
822.866	9901.25
823.118	9760.25
823.37	9906.25
823.622	9875.25
823.874	9929.25
824.126	9986.25
824.378	9982.25
824.63	9968.25
824.882	10039.25
825.134	10027.25
825.385	10036.25
825.637	10022.25
825.888	9870.25
826.14	9775.25
826.392	9763.25
826.643	9744.25
826.895	9787.25
827.146	9631.25
827.397	9613.25
827.649	9678.25
827.9	9654.25
828.151	9564.25
828.402	9666.25
828.653	9690.25
828.905	9640.25
829.156	9766.25
829.407	9642.25
829.658	9762.25
829.909	9756.25
830.159	9684.25
830.41	9652.25
830.661	9636.25
830.912	9557.25
831.162	9451.25
831.413	9471.25
831.664	9516.25
831.914	9462.25
832.165	9506.25
832.415	9543.25
832.666	9518.25
832.916	9558.25
833.167	9441.25
833.417	9465.25
833.667	9532.25
833.917	9444.25
834.168	9501.25
834.418	9406.25
834.668	9463.25
834.918	9380.25
835.168	9358.25
835.418	9270.25
835.668	9261.25
835.918	9264.25
836.167	9178.25
836.417	9064.25
836.667	9238.25
836.917	9221.25
837.166	9081.25
837.416	9175.25
837.666	9130.25
837.915	9093.25
838.165	9086.25
838.414	9057.25
838.663	8944.25
838.913	9033.25
839.162	8950.25
839.411	9043.25
839.661	8944.25
839.91	8903.25
840.159	8930.25
840.408	8958.25
840.657	8885.25
840.906	8928.25
841.155	8921.25
841.404	8916.25
841.653	8944.25
841.902	8809.25
842.15	8943.25
842.399	8974.25
842.648	8899.25
842.897	8894.25
843.145	8851.25
843.394	8727.25
843.642	8707.25
843.891	8713.25
844.139	8701.25
844.388	8630.25
844.636	8508.25
844.884	8520.25
845.133	8478.25
845.381	8544.25
845.629	8568.25
845.877	8437.25
846.125	8482.25
846.373	8513.25
846.621	8508.25
846.869	8468.25
847.117	8421.25
847.365	8392.25
847.613	8418.25
847.861	8303.25
848.108	8287.25
848.356	8286.25
848.604	8271.25
848.851	8260.25
849.099	8264.25
849.346	8286.25
849.594	8378.25
849.841	8391.25
850.089	8348.25
850.336	8288.25
850.583	8353.25
850.831	8350.25
851.078	8314.25
851.325	8237.25
851.572	8244.25
851.819	8260.25
852.066	8086.25
852.313	7908.25
852.56	7892.25
852.807	7796.25
853.054	7893.25
853.301	7864.25
853.548	7827.25
853.794	7968.25
854.041	7962.25
854.288	8004.25
854.534	8081.25
854.781	8105.25
855.028	7934.25
855.274	8066.25
855.52	7928.25
855.767	7888.25
856.013	7900.25
856.26	8179.25
856.506	7796.25
856.752	7822.25
856.998	7724.25
857.244	7794.25
857.49	7824.25
857.736	7883.25
857.982	7862.25
858.228	7777.25
858.474	7712.25
858.72	7725.25
858.966	7658.25
859.212	7651.25
859.458	7557.25
859.703	7544.25
859.949	7388.25
860.195	7353.25
860.44	7302.25
860.686	7268.25
860.931	7333.25
861.177	7176.25
861.422	7210.25
861.667	7195.25
861.913	7218.25
862.158	7195.25
862.403	7266.25
862.648	7273.25
862.893	7294.25
863.138	7242.25
863.384	7186.25
863.629	7171.25
863.873	7161.25
864.118	7166.25
864.363	7109.25
864.608	7073.25
864.853	7127.25
865.098	7044.25
865.342	7017.25
865.587	6960.25
865.832	7021.25
866.076	6949.25
866.321	6935.25
866.565	6919.25
866.81	6797.25
867.054	6853.25
867.298	6890.25
867.543	6855.25
867.787	6917.25
868.031	6826.25
868.275	6784.25
868.519	6763.25
868.764	6791.25
869.008	6770.25
869.252	6839.25
869.496	6748.25
869.739	6733.25
869.983	6783.25
870.227	6711.25
870.471	6690.25
870.715	6805.25
870.958	6757.25
871.202	6691.25
871.446	6698.25
871.689	6693.25
871.933	6723.25
872.176	6732.25
872.42	6702.25
872.663	6681.25
872.906	6827.25
873.15	6653.25
873.393	6627.25
873.636	6668.25
873.879	6570.25
874.122	6591.25
874.366	6469.25
874.609	6435.25
874.852	6353.25
875.095	6295.25
875.337	6338.25
875.58	6241.25
875.823	6255.25
876.066	6262.25
876.309	6249.25
876.551	6169.25
876.794	6064.25
877.037	6148.25
877.279	6094.25
877.522	6141.25
877.764	6160.25
878.007	6026.25
878.249	6069.25
878.491	6112.25
878.734	6145.25
878.976	6117.25
879.218	5975.25
879.46	5979.25
879.702	6001.25
879.945	5931.25
880.187	5815.25
880.429	5818.25
880.671	5792.25
880.912	5770.25
881.154	5758.25
881.396	5736.25
881.638	5755.25
881.88	5804.25
882.121	5684.25
882.363	5726.25
882.605	5798.25
882.846	5722.25
883.088	5711.25
883.329	5631.25
883.571	5629.25
883.812	5683.25
884.053	5781.25
884.295	5854.25
884.536	6092.25
884.777	5922.25
885.018	5885.25
885.259	5854.25
885.5	5808.25
885.742	6093.25
885.982	5809.25
886.223	5757.25
886.464	5668.25
886.705	5646.25
886.946	5606.25
887.187	5473.25
887.428	5548.25
887.668	5429.25
887.909	5358.25
888.15	5276.25
888.39	5311.25
888.631	5337.25
888.871	5187.25
889.111	5220.25
889.352	5102.25
889.592	5130.25
889.833	5049.25
890.073	5061.25
890.313	5063.25
890.553	4969.25
890.793	4951.25
891.033	4923.25
891.273	4897.25
891.513	4876.25
891.753	4968.25
891.993	4862.25
892.233	4934.25
892.473	4952.25
892.713	4910.25
892.952	4871.25
893.192	4913.25
893.432	4904.25
893.671	4922.25
893.911	4816.25
894.15	4813.25
894.39	4726.25
894.629	4748.25
894.869	4755.25
895.108	4733.25
895.347	4685.25
895.587	4745.25
895.826	4637.25
896.065	4635.25
896.304	4676.25
896.543	4656.25
896.782	4581.25
897.021	4636.25
897.26	4581.25
897.499	4625.25
897.738	4616.25
897.977	4507.25
898.216	4517.25
898.454	4436.25
898.693	4399.25
898.932	4504.25
899.17	4420.25
899.409	4382.25
899.647	4340.25
899.886	4355.25
900.124	4343.25
900.363	4325.25
900.601	4372.25
900.839	4345.25
901.078	4358.25
901.316	4370.25
901.554	4416.25
901.792	4429.25
902.03	4318.25
902.268	4397.25
902.506	4435.25
902.744	4353.25
902.982	4376.25
903.22	4225.25
903.458	4232.25
903.695	4204.25
903.933	4131.25
904.171	4083.25
904.409	4079.25
904.646	4080.25
904.884	3980.25
905.121	3992.25
905.359	3890.25
905.596	3858.25
905.833	3792.25
906.071	3817.25
906.308	3881.25
906.545	3824.25
906.783	3723.25
907.02	3787.25
907.257	3719.25
907.494	3769.25
907.731	3784.25
907.968	3736.25
908.205	3690.25
908.442	3663.25
908.679	3663.25
908.915	3664.25
909.152	3641.25
909.389	3550.25
909.626	3547.25
909.862	3497.25
910.099	3534.25
910.335	3557.25
910.572	3445.25
910.808	3532.25
911.045	3494.25
911.281	3440.25
911.518	3545.25
911.754	3447.25
911.99	3439.25
912.226	3401.25
912.463	3338.25
912.699	3339.25
912.935	3329.25
913.171	3307.25
913.407	3287.25
913.643	3318.25
913.879	3267.25
914.114	3224.25
914.35	3194.25
914.586	3184.25
914.822	3112.25
915.057	3196.25
915.293	3082.25
915.529	3068.25
915.764	3128.25
916	3079.25
916.235	3071.25
916.471	3141.25
916.706	3011.25
916.941	3037.25
917.177	2995.25
917.412	3045.25
917.647	3073.25
917.882	3047.25
918.117	3075.25
918.352	3055.25
918.588	3100.25
918.823	2993.25
919.057	2979.25
919.292	2868.25
919.527	2961.25
919.762	2848.25
919.997	2947.25
920.232	2822.25
920.466	2854.25
920.701	2714.25
920.935	2808.25
921.17	2765.25
921.405	2697.25
921.639	2790.25
921.873	2765.25
922.108	2764.25
922.342	2772.25
922.576	2656.25
922.811	2688.25
923.045	2706.25
923.279	2724.25
923.513	2623.25
923.747	2703.25
923.981	2660.25
924.215	2604.25
924.449	2630.25
924.683	2562.25
924.917	2589.25
925.151	2545.25
925.385	2635.25
925.618	2593.25
925.852	2588.25
926.086	2456.25
926.319	2534.25
926.553	2538.25
926.786	2577.25
927.02	2533.25
927.253	2569.25
927.486	2603.25
927.72	2482.25
927.953	2557.25
928.186	2497.25
928.42	2526.25
928.653	2474.25
928.886	2476.25
929.119	2499.25
929.352	2481.25
929.585	2410.25
929.818	2430.25
930.051	2417.25
930.284	2424.25
930.516	2318.25
930.749	2315.25
930.982	2389.25
931.215	2355.25
931.447	2270.25
931.68	2337.25
931.912	2287.25
932.145	2301.25
932.377	2323.25
932.61	2416.25
932.842	2229.25
933.074	2315.25
933.307	2257.25
933.539	2393.25
933.771	2329.25
934.003	2310.25
934.236	2353.25
934.468	2387.25
934.7	2276.25
934.932	2321.25
935.164	2256.25
935.395	2256.25
935.627	2258.25
935.859	2280.25
936.091	2248.25
936.323	2246.25
936.554	2274.25
936.786	2239.25
937.017	2155.25
937.249	2240.25
937.481	2157.25
937.712	2209.25
937.943	2185.25
938.175	2150.25
938.406	2185.25
938.637	2243.25
938.869	2152.25
939.1	2236.25
939.331	2166.25
939.562	2191.25
939.793	2174.25
940.024	2176.25
940.255	2185.25
940.486	2151.25
940.717	2133.25
940.948	2139.25
941.179	2093.25
941.409	2100.25
941.64	2111.25
941.871	2123.25
942.102	2073.25
942.332	2072.25
942.563	2145.25
942.793	2090.25
943.024	2053.25
943.254	2101.25
943.484	2152.25
943.715	2117.25
943.945	2109.25
944.175	2046.25
944.405	2011.25
944.636	2063.25
944.866	2092.25
945.096	2061.25
945.326	2007.25
945.556	2091.25
945.786	2067.25
946.016	2045.25
946.245	2004.25
946.475	1987.25
946.705	1999.25
946.935	2023.25
947.164	1996.25
947.394	1952.25
947.624	1992.25
947.853	1997.25
948.083	1971.25
948.312	1961.25
948.542	1891.25
948.771	1915.25
949	1898.25
949.23	1904.25
949.459	1932.25
949.688	1981.25
949.917	1880.25
950.146	1921.25
950.375	1983.25
950.604	1881.25
950.833	1970.25
951.062	1962.25
951.291	1915.25
951.52	1867.25
951.749	1927.25
951.978	1860.25
952.206	1866.25
952.435	1862.25
952.664	1896.25
952.892	1904.25
953.121	1880.25
953.349	1926.25
953.578	1881.25
953.806	1847.25
954.035	1837.25
954.263	1841.25
954.491	1798.25
954.719	1846.25
954.948	1788.25
955.176	1819.25
955.404	1740.25
955.632	1793.25
955.86	1821.25
956.088	1799.25
956.316	1836.25
956.544	1852.25
956.772	1809.25
956.999	1738.25
957.227	1815.25
957.455	1728.25
957.683	1740.25
957.91	1748.25
958.138	1715.25
958.365	1693.25
958.593	1691.25
958.82	1649.25
959.048	1724.25
959.275	1717.25
959.502	1671.25
959.73	1653.25
959.957	1718.25
960.184	1705.25
960.411	1681.25
960.638	1741.25
960.865	1690.25
961.092	1700.25
961.319	1591.25
961.546	1714.25
961.773	1731.25
962	1655.25
962.227	1734.25
962.454	1673.25
962.68	1659.25
962.907	1702.25
963.134	1598.25
963.36	1648.25
963.587	1653.25
963.813	1604.25
964.04	1671.25
964.266	1567.25
964.493	1680.25
964.719	1625.25
964.945	1626.25
965.171	1557.25
965.398	1626.25
965.624	1625.25
965.85	1571.25
966.076	1544.25
966.302	1628.25
966.528	1580.25
966.754	1599.25
966.98	1581.25
967.206	1561.25
967.431	1529.25
967.657	1618.25
967.883	1567.25
968.109	1587.25
968.334	1506.25
968.56	1505.25
968.785	1543.25
969.011	1498.25
969.236	1558.25
969.462	1508.25
969.687	1523.25
969.912	1541.25
970.138	1574.25
970.363	1489.25
970.588	1545.25
970.813	1479.25
971.038	1454.25
971.263	1493.25
971.488	1495.25
971.713	1551.25
971.938	1530.25
972.163	1419.25
972.388	1457.25
972.613	1438.25
972.838	1477.25
973.062	1454.25
973.287	1457.25
973.512	1377.25
973.736	1428.25
973.961	1437.25
974.185	1412.25
974.41	1449.25
974.634	1341.25
974.858	1372.25
975.083	1424.25
975.307	1433.25
975.531	1368.25
975.755	1339.25
975.98	1367.25
976.204	1303.25
976.428	1281.25
976.652	1303.25
976.876	1279.25
977.1	1345.25
977.324	1272.25
977.547	1319.25
977.771	1332.25
977.995	1314.25
978.219	1253.25
978.442	1379.25
978.666	1300.25
978.89	1303.25
979.113	1284.25
979.337	1304.25
979.56	1290.25
979.783	1377.25
980.007	1251.25
980.23	1299.25
980.453	1258.25
980.677	1298.25
980.9	1279.25
981.123	1198.25
981.346	1300.25
981.569	1276.25
981.792	1298.25
982.015	1260.25
982.238	1205.25
982.461	1241.25
982.684	1215.25
982.907	1209.25
983.129	1219.25
983.352	1248.25
983.575	1229.25
983.797	1253.25
984.02	1202.25
984.242	1189.25
984.465	1224.25
984.687	1239.25
984.91	1240.25
985.132	1217.25
985.354	1240.25
985.577	1227.25
985.799	1204.25
986.021	1133.25
986.243	1156.25
986.465	1171.25
986.687	1221.25
986.909	1269.25
987.131	1192.25
987.353	1172.25
987.575	1207.25
987.797	1179.25
988.019	1111.25
988.241	1174.25
988.462	1130.25
988.684	1162.25
988.906	1232.25
989.127	1254.25
989.349	1123.25
989.57	1187.25
989.792	1199.25
990.013	1203.25
990.234	1211.25
990.456	1240.25
990.677	1207.25
990.898	1192.25
991.119	1176.25
991.341	1207.25
991.562	1128.25
991.783	1182.25
992.004	1113.25
992.225	1083.25
992.446	1165.25
992.667	1060.25
992.887	1165.25
993.108	1037.25
993.329	1209.25
993.55	1133.25
993.77	1089.25
993.991	1092.25
994.212	1105.25
994.432	1121.25
994.653	1151.25
994.873	1117.25
995.093	1009.25
995.314	1065.25
995.534	1128.25
995.754	1139.25
995.975	1182.25
996.195	1060.25
996.415	1129.25
996.635	1097.25
996.855	1088.25
997.075	1074.25
997.295	1081.25
997.515	1039.25
997.735	1103.25
997.955	1058.25
998.174	1078.25
998.394	1034.25
998.614	1111.25
998.834	1065.25
999.053	1140.25
999.273	1115.25
999.492	1160.25
999.712	1095.25
999.931	1049.25
1000.151	1105.25
1000.37	1076.25
1000.589	1155.25
1000.809	1043.25
1001.028	1159.25
1001.247	1126.25
1001.466	1004.25
1001.685	1153.25
1001.904	1105.25
1002.123	1116.25
1002.342	1112.25
1002.561	1064.25
1002.78	1092.25
1002.999	1158.25
1003.218	1075.25
1003.436	1065.25
1003.655	1139.25
1003.874	1067.25
1004.092	1082.25
1004.311	1151.25
1004.53	1090.25
1004.748	1167.25
1004.966	1078.25
1005.185	1160.25
1005.403	1149.25
1005.622	1107.25
1005.84	1179.25
1006.058	1094.25
1006.276	1096.25
1006.494	1582.25
1006.712	1101.25
1006.931	1178.25
1007.149	1064.25
1007.367	1100.25
1007.584	1106.25
1007.802	1134.25
1008.02	1090.25
1008.238	1195.25
1008.456	1165.25
1008.673	1034.25
1008.891	1131.25
1009.109	1098.25
1009.326	1128.25
1009.544	1222.25
1009.761	1096.25
1009.979	1187.25
1010.196	1183.25
1010.413	1233.25
1010.631	1241.25
1010.848	1274.25
1011.065	1273.25
1011.282	1226.25
1011.5	1165.25
1011.717	1283.25
1011.934	1219.25
1012.151	1278.25
1012.368	1262.25
1012.585	1200.25
1012.801	1214.25
1013.018	1200.25
1013.235	1174.25
1013.452	1165.25
1013.669	1199.25
1013.885	1190.25
1014.102	1205.25
1014.318	1173.25
1014.535	1168.25
1014.751	1158.25
1014.968	1177.25
1015.184	1197.25
1015.401	1112.25
1015.617	1142.25
1015.833	1120.25
1016.049	1109.25
1016.266	1109.25
1016.482	1106.25
1016.698	1042.25
1016.914	1098.25
1017.13	1046.25
1017.346	1056.25
1017.562	1114.25
1017.778	1055.25
1017.993	997.25
1018.209	1067.25
1018.425	1049.25
1018.641	1027.25
1018.856	976.25
1019.072	1010.25
1019.288	1062.25
1019.503	1019.25
1019.719	936.25
1019.934	961.25
1020.149	1045.25
1020.365	968.25
1020.58	927.25
1020.795	983.25
1021.011	949.25
1021.226	922.25
1021.441	957.25
1021.656	873.25
1021.871	827.25
1022.086	854.25
1022.301	845.25
1022.516	817.25
1022.731	881.25
1022.946	819.25
1023.16	812.25
1023.375	791.25
1023.59	766.25
1023.804	738.25
1024.019	825.25
1024.234	713.25
1024.448	769.25
1024.663	702.25
1024.877	726.25
1025.092	739.25
1025.306	757.25
1025.52	656.25
1025.734	755.25
1025.949	675.25
1026.163	667.25
1026.377	601.25
1026.591	668.25
1026.805	587.25
1027.019	603.25
1027.233	558.25
1027.447	521.25
1027.661	623.25
1027.875	571.25
1028.088	577.25
1028.302	505.25
1028.516	500.25
1028.73	514.25
1028.943	507.25
1029.157	469.25
1029.37	445.25
1029.584	-0.75
1029.797	-4.75
1030.011	0.25
1030.224	2.25
