Data from QEP037381__56__10-04-59-927.txt Node

Date: Wed Dec 21 10:04:59 EST 2022
User: dcclab
Spectrometer: QEP03738
Trigger mode: 4
Integration Time (sec): 1.000000E1
Scans to average: 1
Electric dark correction enabled: true
Nonlinearity correction enabled: false
Boxcar width: 0
XAxis mode: Wavelengths
Number of Pixels in Spectrum: 1044
>>>>>Begin Spectral Data<<<<<
784.041	12.5
784.3	-0.5
784.558	-4.5
784.817	-0.5
785.075	111331.5
785.334	19556.5
785.592	9204.5
785.851	6372.5
786.109	4743.5
786.368	3695.5
786.626	2960.5
786.884	2464.5
787.143	2062.5
787.401	1679.5
787.659	1519.5
787.917	1287.5
788.175	1199.5
788.433	1031.5
788.691	904.5
788.949	859.5
789.207	811.5
789.465	697.5
789.723	672.5
789.98	621.5
790.238	648.5
790.496	587.5
790.753	556.5
791.011	619.5
791.268	556.5
791.526	523.5
791.783	533.5
792.041	511.5
792.298	424.5
792.556	506.5
792.813	463.5
793.07	448.5
793.327	439.5
793.584	520.5
793.841	444.5
794.099	465.5
794.356	513.5
794.613	415.5
794.869	454.5
795.126	406.5
795.383	382.5
795.64	416.5
795.897	356.5
796.153	426.5
796.41	413.5
796.667	386.5
796.923	402.5
797.18	397.5
797.436	426.5
797.693	367.5
797.949	432.5
798.206	460.5
798.462	366.5
798.718	426.5
798.974	395.5
799.231	422.5
799.487	410.5
799.743	422.5
799.999	446.5
800.255	435.5
800.511	416.5
800.767	450.5
801.023	420.5
801.279	442.5
801.534	466.5
801.79	496.5
802.046	478.5
802.302	558.5
802.557	618.5
802.813	671.5
803.068	747.5
803.324	1006.5
803.579	1260.5
803.835	1630.5
804.09	2234.5
804.345	2788.5
804.601	3544.5
804.856	4324.5
805.111	4973.5
805.366	5383.5
805.621	5752.5
805.876	6006.5
806.131	6130.5
806.386	6193.5
806.641	6299.5
806.896	6426.5
807.151	6535.5
807.406	6529.5
807.661	6700.5
807.915	6721.5
808.17	6898.5
808.425	6888.5
808.679	6912.5
808.934	7079.5
809.188	7080.5
809.443	7186.5
809.697	7197.5
809.951	7179.5
810.206	7267.5
810.46	7343.5
810.714	7397.5
810.968	7535.5
811.223	7415.5
811.477	7561.5
811.731	7591.5
811.985	7638.5
812.239	7619.5
812.493	7658.5
812.747	7650.5
813	7627.5
813.254	7736.5
813.508	7818.5
813.762	7789.5
814.015	7846.5
814.269	7859.5
814.522	7997.5
814.776	7993.5
815.03	8050.5
815.283	8195.5
815.536	8371.5
815.79	8453.5
816.043	8521.5
816.296	8651.5
816.55	8720.5
816.803	8795.5
817.056	8978.5
817.309	8941.5
817.562	9047.5
817.815	9088.5
818.068	9107.5
818.321	9252.5
818.574	9256.5
818.827	9458.5
819.079	9554.5
819.332	9723.5
819.585	9823.5
819.838	9902.5
820.09	9923.5
820.343	10012.5
820.595	10089.5
820.848	10107.5
821.1	10161.5
821.353	10184.5
821.605	10215.5
821.857	10167.5
822.11	10084.5
822.362	10018.5
822.614	10061.5
822.866	10118.5
823.118	10074.5
823.37	10154.5
823.622	10230.5
823.874	10187.5
824.126	10293.5
824.378	10269.5
824.63	10288.5
824.882	10319.5
825.134	10215.5
825.385	10298.5
825.637	10243.5
825.888	10148.5
826.14	10068.5
826.392	10098.5
826.643	10041.5
826.895	10032.5
827.146	9900.5
827.397	9850.5
827.649	10013.5
827.9	9867.5
828.151	9941.5
828.402	9963.5
828.653	9940.5
828.905	10050.5
829.156	10071.5
829.407	9978.5
829.658	9956.5
829.909	10046.5
830.159	9960.5
830.41	9967.5
830.661	9891.5
830.912	9879.5
831.162	9821.5
831.413	9757.5
831.664	9803.5
831.914	9741.5
832.165	9816.5
832.415	9830.5
832.666	9811.5
832.916	9837.5
833.167	9817.5
833.417	9790.5
833.667	9721.5
833.917	9668.5
834.168	9800.5
834.418	9709.5
834.668	9660.5
834.918	9640.5
835.168	9691.5
835.418	9508.5
835.668	9581.5
835.918	9534.5
836.167	9538.5
836.417	9434.5
836.667	9491.5
836.917	9487.5
837.166	9395.5
837.416	9528.5
837.666	9403.5
837.915	9402.5
838.165	9385.5
838.414	9289.5
838.663	9302.5
838.913	9283.5
839.162	9224.5
839.411	9275.5
839.661	9195.5
839.91	9213.5
840.159	9235.5
840.408	9217.5
840.657	9184.5
840.906	9210.5
841.155	9213.5
841.404	9139.5
841.653	9184.5
841.902	9089.5
842.15	9248.5
842.399	9281.5
842.648	9196.5
842.897	9190.5
843.145	9051.5
843.394	9066.5
843.642	9009.5
843.891	8998.5
844.139	8875.5
844.388	8794.5
844.636	8835.5
844.884	8863.5
845.133	8822.5
845.381	8809.5
845.629	8823.5
845.877	8758.5
846.125	8728.5
846.373	8688.5
846.621	8684.5
846.869	8743.5
847.117	8659.5
847.365	8592.5
847.613	8658.5
847.861	8596.5
848.108	8582.5
848.356	8557.5
848.604	8519.5
848.851	8540.5
849.099	8531.5
849.346	8566.5
849.594	8641.5
849.841	8631.5
850.089	8652.5
850.336	8610.5
850.583	8611.5
850.831	8648.5
851.078	8591.5
851.325	8519.5
851.572	8574.5
851.819	8495.5
852.066	8307.5
852.313	8198.5
852.56	8183.5
852.807	8104.5
853.054	8078.5
853.301	8133.5
853.548	8129.5
853.794	8211.5
854.041	8175.5
854.288	8191.5
854.534	8405.5
854.781	8283.5
855.028	8231.5
855.274	8289.5
855.52	8213.5
855.767	8137.5
856.013	8166.5
856.26	8397.5
856.506	8033.5
856.752	8054.5
856.998	8014.5
857.244	8057.5
857.49	8082.5
857.736	8122.5
857.982	8112.5
858.228	8153.5
858.474	8052.5
858.72	8010.5
858.966	7946.5
859.212	7792.5
859.458	7766.5
859.703	7725.5
859.949	7584.5
860.195	7635.5
860.44	7573.5
860.686	7496.5
860.931	7598.5
861.177	7383.5
861.422	7438.5
861.667	7423.5
861.913	7422.5
862.158	7417.5
862.403	7489.5
862.648	7475.5
862.893	7514.5
863.138	7449.5
863.384	7401.5
863.629	7425.5
863.873	7427.5
864.118	7358.5
864.363	7317.5
864.608	7360.5
864.853	7335.5
865.098	7332.5
865.342	7277.5
865.587	7206.5
865.832	7275.5
866.076	7139.5
866.321	7147.5
866.565	7184.5
866.81	7022.5
867.054	7107.5
867.298	7130.5
867.543	7094.5
867.787	7099.5
868.031	7057.5
868.275	7088.5
868.519	6980.5
868.764	7053.5
869.008	6985.5
869.252	7029.5
869.496	7009.5
869.739	6964.5
869.983	6982.5
870.227	6954.5
870.471	6887.5
870.715	6908.5
870.958	6943.5
871.202	6894.5
871.446	6939.5
871.689	6931.5
871.933	6961.5
872.176	7000.5
872.42	6938.5
872.663	6890.5
872.906	6981.5
873.15	6930.5
873.393	6821.5
873.636	6886.5
873.879	6808.5
874.122	6753.5
874.366	6679.5
874.609	6661.5
874.852	6565.5
875.095	6508.5
875.337	6486.5
875.58	6410.5
875.823	6481.5
876.066	6471.5
876.309	6512.5
876.551	6341.5
876.794	6283.5
877.037	6380.5
877.279	6286.5
877.522	6291.5
877.764	6317.5
878.007	6281.5
878.249	6298.5
878.491	6345.5
878.734	6320.5
878.976	6277.5
879.218	6163.5
879.46	6251.5
879.702	6157.5
879.945	6090.5
880.187	6066.5
880.429	6049.5
880.671	6041.5
880.912	5986.5
881.154	5979.5
881.396	5894.5
881.638	5969.5
881.88	5927.5
882.121	5898.5
882.363	5927.5
882.605	5895.5
882.846	5897.5
883.088	5895.5
883.329	5839.5
883.571	5835.5
883.812	5918.5
884.053	5968.5
884.295	6012.5
884.536	6170.5
884.777	6104.5
885.018	6097.5
885.259	6092.5
885.5	5973.5
885.742	6266.5
885.982	5933.5
886.223	5906.5
886.464	5890.5
886.705	5804.5
886.946	5810.5
887.187	5687.5
887.428	5735.5
887.668	5580.5
887.909	5476.5
888.15	5434.5
888.39	5493.5
888.631	5486.5
888.871	5404.5
889.111	5359.5
889.352	5300.5
889.592	5233.5
889.833	5197.5
890.073	5164.5
890.313	5236.5
890.553	5123.5
890.793	5164.5
891.033	5074.5
891.273	5066.5
891.513	5043.5
891.753	5095.5
891.993	5045.5
892.233	5079.5
892.473	5112.5
892.713	5078.5
892.952	4998.5
893.192	5078.5
893.432	5085.5
893.671	5072.5
893.911	5009.5
894.15	4958.5
894.39	4866.5
894.629	4967.5
894.869	4867.5
895.108	4843.5
895.347	4845.5
895.587	4790.5
895.826	4798.5
896.065	4768.5
896.304	4796.5
896.543	4833.5
896.782	4682.5
897.021	4736.5
897.26	4731.5
897.499	4718.5
897.738	4784.5
897.977	4704.5
898.216	4610.5
898.454	4591.5
898.693	4532.5
898.932	4620.5
899.17	4527.5
899.409	4538.5
899.647	4481.5
899.886	4505.5
900.124	4543.5
900.363	4439.5
900.601	4516.5
900.839	4474.5
901.078	4458.5
901.316	4569.5
901.554	4558.5
901.792	4554.5
902.03	4483.5
902.268	4510.5
902.506	4492.5
902.744	4460.5
902.982	4467.5
903.22	4398.5
903.458	4362.5
903.695	4332.5
903.933	4300.5
904.171	4212.5
904.409	4200.5
904.646	4180.5
904.884	4081.5
905.121	4092.5
905.359	4026.5
905.596	4007.5
905.833	3964.5
906.071	3942.5
906.308	4000.5
906.545	3946.5
906.783	3859.5
907.02	3917.5
907.257	3840.5
907.494	3875.5
907.731	3854.5
907.968	3873.5
908.205	3779.5
908.442	3796.5
908.679	3837.5
908.915	3797.5
909.152	3761.5
909.389	3661.5
909.626	3690.5
909.862	3708.5
910.099	3615.5
910.335	3692.5
910.572	3569.5
910.808	3633.5
911.045	3621.5
911.281	3549.5
911.518	3579.5
911.754	3551.5
911.99	3544.5
912.226	3519.5
912.463	3466.5
912.699	3488.5
912.935	3471.5
913.171	3403.5
913.407	3386.5
913.643	3422.5
913.879	3345.5
914.114	3337.5
914.35	3251.5
914.586	3278.5
914.822	3230.5
915.057	3285.5
915.293	3177.5
915.529	3133.5
915.764	3253.5
916	3229.5
916.235	3183.5
916.471	3202.5
916.706	3086.5
916.941	3133.5
917.177	3127.5
917.412	3158.5
917.647	3165.5
917.882	3069.5
918.117	3190.5
918.352	3141.5
918.588	3149.5
918.823	3081.5
919.057	3043.5
919.292	2955.5
919.527	3050.5
919.762	2965.5
919.997	2982.5
920.232	2910.5
920.466	2932.5
920.701	2842.5
920.935	2871.5
921.17	2819.5
921.405	2825.5
921.639	2850.5
921.873	2811.5
922.108	2860.5
922.342	2842.5
922.576	2771.5
922.811	2783.5
923.045	2792.5
923.279	2801.5
923.513	2693.5
923.747	2760.5
923.981	2766.5
924.215	2692.5
924.449	2675.5
924.683	2641.5
924.917	2664.5
925.151	2632.5
925.385	2720.5
925.618	2644.5
925.852	2670.5
926.086	2566.5
926.319	2649.5
926.553	2615.5
926.786	2630.5
927.02	2623.5
927.253	2633.5
927.486	2636.5
927.72	2584.5
927.953	2587.5
928.186	2560.5
928.42	2592.5
928.653	2536.5
928.886	2509.5
929.119	2577.5
929.352	2532.5
929.585	2540.5
929.818	2480.5
930.051	2468.5
930.284	2479.5
930.516	2428.5
930.749	2423.5
930.982	2446.5
931.215	2430.5
931.447	2378.5
931.68	2410.5
931.912	2342.5
932.145	2374.5
932.377	2391.5
932.61	2560.5
932.842	2318.5
933.074	2403.5
933.307	2320.5
933.539	2421.5
933.771	2438.5
934.003	2332.5
934.236	2399.5
934.468	2445.5
934.7	2369.5
934.932	2384.5
935.164	2329.5
935.395	2301.5
935.627	2334.5
935.859	2327.5
936.091	2253.5
936.323	2353.5
936.554	2365.5
936.786	2318.5
937.017	2258.5
937.249	2304.5
937.481	2208.5
937.712	2314.5
937.943	2289.5
938.175	2252.5
938.406	2257.5
938.637	2289.5
938.869	2161.5
939.1	2304.5
939.331	2223.5
939.562	2256.5
939.793	2227.5
940.024	2281.5
940.255	2277.5
940.486	2188.5
940.717	2224.5
940.948	2193.5
941.179	2146.5
941.409	2176.5
941.64	2161.5
941.871	2178.5
942.102	2148.5
942.332	2185.5
942.563	2215.5
942.793	2147.5
943.024	2143.5
943.254	2183.5
943.484	2196.5
943.715	2215.5
943.945	2155.5
944.175	2116.5
944.405	2080.5
944.636	2056.5
944.866	2158.5
945.096	2175.5
945.326	2099.5
945.556	2160.5
945.786	2147.5
946.016	2092.5
946.245	2062.5
946.475	2057.5
946.705	2069.5
946.935	2065.5
947.164	2037.5
947.394	2035.5
947.624	2031.5
947.853	2084.5
948.083	2069.5
948.312	2008.5
948.542	1954.5
948.771	1940.5
949	1959.5
949.23	2010.5
949.459	1976.5
949.688	2053.5
949.917	2008.5
950.146	2011.5
950.375	2056.5
950.604	1939.5
950.833	2031.5
951.062	2050.5
951.291	1956.5
951.52	1935.5
951.749	1966.5
951.978	1930.5
952.206	1905.5
952.435	1941.5
952.664	1955.5
952.892	1963.5
953.121	1944.5
953.349	1962.5
953.578	1930.5
953.806	1917.5
954.035	1902.5
954.263	1893.5
954.491	1870.5
954.719	1910.5
954.948	1867.5
955.176	1828.5
955.404	1766.5
955.632	1838.5
955.86	1840.5
956.088	1833.5
956.316	1855.5
956.544	1891.5
956.772	1823.5
956.999	1828.5
957.227	1882.5
957.455	1792.5
957.683	1806.5
957.91	1766.5
958.138	1750.5
958.365	1753.5
958.593	1777.5
958.82	1693.5
959.048	1793.5
959.275	1774.5
959.502	1755.5
959.73	1724.5
959.957	1739.5
960.184	1786.5
960.411	1726.5
960.638	1765.5
960.865	1729.5
961.092	1757.5
961.319	1670.5
961.546	1772.5
961.773	1760.5
962	1699.5
962.227	1788.5
962.454	1737.5
962.68	1705.5
962.907	1750.5
963.134	1688.5
963.36	1716.5
963.587	1741.5
963.813	1664.5
964.04	1691.5
964.266	1654.5
964.493	1746.5
964.719	1716.5
964.945	1707.5
965.171	1616.5
965.398	1653.5
965.624	1668.5
965.85	1592.5
966.076	1600.5
966.302	1637.5
966.528	1612.5
966.754	1647.5
966.98	1621.5
967.206	1612.5
967.431	1570.5
967.657	1627.5
967.883	1621.5
968.109	1614.5
968.334	1551.5
968.56	1556.5
968.785	1557.5
969.011	1529.5
969.236	1572.5
969.462	1557.5
969.687	1541.5
969.912	1605.5
970.138	1594.5
970.363	1544.5
970.588	1570.5
970.813	1535.5
971.038	1537.5
971.263	1562.5
971.488	1545.5
971.713	1599.5
971.938	1577.5
972.163	1482.5
972.388	1514.5
972.613	1489.5
972.838	1513.5
973.062	1482.5
973.287	1505.5
973.512	1430.5
973.736	1481.5
973.961	1448.5
974.185	1442.5
974.41	1495.5
974.634	1409.5
974.858	1400.5
975.083	1451.5
975.307	1498.5
975.531	1375.5
975.755	1367.5
975.98	1389.5
976.204	1311.5
976.428	1332.5
976.652	1324.5
976.876	1338.5
977.1	1374.5
977.324	1333.5
977.547	1412.5
977.771	1434.5
977.995	1367.5
978.219	1299.5
978.442	1442.5
978.666	1371.5
978.89	1328.5
979.113	1359.5
979.337	1337.5
979.56	1320.5
979.783	1401.5
980.007	1298.5
980.23	1331.5
980.453	1286.5
980.677	1343.5
980.9	1335.5
981.123	1218.5
981.346	1340.5
981.569	1305.5
981.792	1331.5
982.015	1289.5
982.238	1251.5
982.461	1285.5
982.684	1246.5
982.907	1238.5
983.129	1247.5
983.352	1297.5
983.575	1257.5
983.797	1271.5
984.02	1222.5
984.242	1243.5
984.465	1235.5
984.687	1250.5
984.91	1315.5
985.132	1248.5
985.354	1288.5
985.577	1224.5
985.799	1246.5
986.021	1162.5
986.243	1209.5
986.465	1212.5
986.687	1260.5
986.909	1308.5
987.131	1232.5
987.353	1191.5
987.575	1232.5
987.797	1177.5
988.019	1152.5
988.241	1219.5
988.462	1163.5
988.684	1215.5
988.906	1248.5
989.127	1274.5
989.349	1143.5
989.57	1211.5
989.792	1203.5
990.013	1266.5
990.234	1239.5
990.456	1256.5
990.677	1261.5
990.898	1190.5
991.119	1205.5
991.341	1225.5
991.562	1153.5
991.783	1227.5
992.004	1143.5
992.225	1123.5
992.446	1191.5
992.667	1102.5
992.887	1188.5
993.108	1085.5
993.329	1220.5
993.55	1188.5
993.77	1105.5
993.991	1108.5
994.212	1145.5
994.432	1138.5
994.653	1150.5
994.873	1151.5
995.093	1032.5
995.314	1069.5
995.534	1182.5
995.754	1170.5
995.975	1192.5
996.195	1061.5
996.415	1147.5
996.635	1093.5
996.855	1142.5
997.075	1117.5
997.295	1102.5
997.515	1080.5
997.735	1140.5
997.955	1122.5
998.174	1081.5
998.394	1066.5
998.614	1125.5
998.834	1080.5
999.053	1169.5
999.273	1128.5
999.492	1160.5
999.712	1127.5
999.931	1081.5
1000.151	1114.5
1000.37	1114.5
1000.589	1160.5
1000.809	1102.5
1001.028	1208.5
1001.247	1146.5
1001.466	1029.5
1001.685	1167.5
1001.904	1135.5
1002.123	1113.5
1002.342	1118.5
1002.561	1079.5
1002.78	1115.5
1002.999	1198.5
1003.218	1118.5
1003.436	1084.5
1003.655	1138.5
1003.874	1095.5
1004.092	1111.5
1004.311	1160.5
1004.53	1105.5
1004.748	1205.5
1004.966	1112.5
1005.185	1156.5
1005.403	1170.5
1005.622	1110.5
1005.84	1197.5
1006.058	1120.5
1006.276	1111.5
1006.494	1611.5
1006.712	1124.5
1006.931	1177.5
1007.149	1104.5
1007.367	1099.5
1007.584	1134.5
1007.802	1169.5
1008.02	1112.5
1008.238	1173.5
1008.456	1180.5
1008.673	1033.5
1008.891	1164.5
1009.109	1086.5
1009.326	1154.5
1009.544	1230.5
1009.761	1111.5
1009.979	1203.5
1010.196	1184.5
1010.413	1256.5
1010.631	1275.5
1010.848	1289.5
1011.065	1311.5
1011.282	1243.5
1011.5	1188.5
1011.717	1300.5
1011.934	1265.5
1012.151	1280.5
1012.368	1248.5
1012.585	1180.5
1012.801	1263.5
1013.018	1202.5
1013.235	1190.5
1013.452	1202.5
1013.669	1236.5
1013.885	1180.5
1014.102	1237.5
1014.318	1201.5
1014.535	1165.5
1014.751	1179.5
1014.968	1189.5
1015.184	1238.5
1015.401	1136.5
1015.617	1155.5
1015.833	1120.5
1016.049	1133.5
1016.266	1133.5
1016.482	1109.5
1016.698	1063.5
1016.914	1139.5
1017.13	1063.5
1017.346	1075.5
1017.562	1140.5
1017.778	1070.5
1017.993	1052.5
1018.209	1081.5
1018.425	1067.5
1018.641	1040.5
1018.856	1010.5
1019.072	1040.5
1019.288	1065.5
1019.503	1011.5
1019.719	961.5
1019.934	981.5
1020.149	1051.5
1020.365	1007.5
1020.58	926.5
1020.795	1011.5
1021.011	957.5
1021.226	960.5
1021.441	989.5
1021.656	922.5
1021.871	859.5
1022.086	859.5
1022.301	858.5
1022.516	846.5
1022.731	907.5
1022.946	836.5
1023.16	810.5
1023.375	803.5
1023.59	783.5
1023.804	757.5
1024.019	864.5
1024.234	744.5
1024.448	774.5
1024.663	705.5
1024.877	741.5
1025.092	753.5
1025.306	748.5
1025.52	675.5
1025.734	775.5
1025.949	697.5
1026.163	655.5
1026.377	636.5
1026.591	687.5
1026.805	602.5
1027.019	616.5
1027.233	588.5
1027.447	529.5
1027.661	618.5
1027.875	574.5
1028.088	596.5
1028.302	532.5
1028.516	528.5
1028.73	526.5
1028.943	532.5
1029.157	476.5
1029.37	447.5
1029.584	-0.5
1029.797	-2.5
1030.011	-3.5
1030.224	-0.5
