Data from QEP037381__77__10-08-29-928.txt Node

Date: Wed Dec 21 10:08:29 EST 2022
User: dcclab
Spectrometer: QEP03738
Trigger mode: 4
Integration Time (sec): 1.000000E1
Scans to average: 1
Electric dark correction enabled: true
Nonlinearity correction enabled: false
Boxcar width: 0
XAxis mode: Wavelengths
Number of Pixels in Spectrum: 1044
>>>>>Begin Spectral Data<<<<<
784.041	10.12
784.3	2.12
784.558	0.12
784.817	-3.88
785.075	115276.12
785.334	20069.12
785.592	9511.12
785.851	6559.12
786.109	4911.12
786.368	3789.12
786.626	3084.12
786.884	2534.12
787.143	2148.12
787.401	1717.12
787.659	1573.12
787.917	1335.12
788.175	1193.12
788.433	1035.12
788.691	940.12
788.949	852.12
789.207	838.12
789.465	702.12
789.723	664.12
789.98	620.12
790.238	642.12
790.496	609.12
790.753	582.12
791.011	621.12
791.268	550.12
791.526	520.12
791.783	541.12
792.041	526.12
792.298	437.12
792.556	503.12
792.813	485.12
793.07	442.12
793.327	434.12
793.584	521.12
793.841	422.12
794.099	456.12
794.356	517.12
794.613	406.12
794.869	439.12
795.126	398.12
795.383	390.12
795.64	399.12
795.897	371.12
796.153	421.12
796.41	418.12
796.667	386.12
796.923	394.12
797.18	400.12
797.436	417.12
797.693	367.12
797.949	418.12
798.206	463.12
798.462	364.12
798.718	416.12
798.974	384.12
799.231	431.12
799.487	429.12
799.743	427.12
799.999	452.12
800.255	441.12
800.511	405.12
800.767	447.12
801.023	433.12
801.279	446.12
801.534	454.12
801.79	490.12
802.046	480.12
802.302	564.12
802.557	599.12
802.813	677.12
803.068	759.12
803.324	980.12
803.579	1208.12
803.835	1611.12
804.09	2198.12
804.345	2770.12
804.601	3440.12
804.856	4139.12
805.111	4755.12
805.366	5175.12
805.621	5520.12
805.876	5738.12
806.131	5774.12
806.386	5935.12
806.641	5954.12
806.896	6089.12
807.151	6217.12
807.406	6201.12
807.661	6411.12
807.915	6415.12
808.17	6620.12
808.425	6603.12
808.679	6572.12
808.934	6655.12
809.188	6709.12
809.443	6830.12
809.697	6873.12
809.951	6830.12
810.206	6926.12
810.46	7075.12
810.714	7035.12
810.968	7141.12
811.223	7065.12
811.477	7203.12
811.731	7197.12
811.985	7168.12
812.239	7194.12
812.493	7241.12
812.747	7334.12
813	7343.12
813.254	7371.12
813.508	7412.12
813.762	7356.12
814.015	7455.12
814.269	7478.12
814.522	7520.12
814.776	7668.12
815.03	7716.12
815.283	7774.12
815.536	7939.12
815.79	8018.12
816.043	8034.12
816.296	8160.12
816.55	8213.12
816.803	8286.12
817.056	8426.12
817.309	8479.12
817.562	8526.12
817.815	8638.12
818.068	8649.12
818.321	8691.12
818.574	8839.12
818.827	8924.12
819.079	8947.12
819.332	9207.12
819.585	9270.12
819.838	9436.12
820.09	9371.12
820.343	9456.12
820.595	9431.12
820.848	9540.12
821.1	9568.12
821.353	9599.12
821.605	9584.12
821.857	9698.12
822.11	9416.12
822.362	9512.12
822.614	9460.12
822.866	9523.12
823.118	9512.12
823.37	9623.12
823.622	9610.12
823.874	9649.12
824.126	9718.12
824.378	9638.12
824.63	9712.12
824.882	9760.12
825.134	9706.12
825.385	9727.12
825.637	9652.12
825.888	9569.12
826.14	9573.12
826.392	9516.12
826.643	9433.12
826.895	9511.12
827.146	9433.12
827.397	9330.12
827.649	9426.12
827.9	9359.12
828.151	9329.12
828.402	9378.12
828.653	9386.12
828.905	9390.12
829.156	9451.12
829.407	9442.12
829.658	9481.12
829.909	9513.12
830.159	9501.12
830.41	9440.12
830.661	9358.12
830.912	9219.12
831.162	9163.12
831.413	9229.12
831.664	9286.12
831.914	9308.12
832.165	9242.12
832.415	9219.12
832.666	9248.12
832.916	9293.12
833.167	9207.12
833.417	9256.12
833.667	9215.12
833.917	9156.12
834.168	9224.12
834.418	9172.12
834.668	9131.12
834.918	9092.12
835.168	9027.12
835.418	8976.12
835.668	8985.12
835.918	9010.12
836.167	9008.12
836.417	8927.12
836.667	8881.12
836.917	8932.12
837.166	8868.12
837.416	8923.12
837.666	8906.12
837.915	8791.12
838.165	8903.12
838.414	8786.12
838.663	8738.12
838.913	8790.12
839.162	8742.12
839.411	8808.12
839.661	8679.12
839.91	8700.12
840.159	8707.12
840.408	8722.12
840.657	8754.12
840.906	8704.12
841.155	8737.12
841.404	8670.12
841.653	8657.12
841.902	8695.12
842.15	8751.12
842.399	8691.12
842.648	8641.12
842.897	8664.12
843.145	8572.12
843.394	8474.12
843.642	8467.12
843.891	8474.12
844.139	8415.12
844.388	8318.12
844.636	8330.12
844.884	8286.12
845.133	8333.12
845.381	8337.12
845.629	8374.12
845.877	8252.12
846.125	8301.12
846.373	8328.12
846.621	8238.12
846.869	8343.12
847.117	8197.12
847.365	8149.12
847.613	8050.12
847.861	8089.12
848.108	8195.12
848.356	8104.12
848.604	8077.12
848.851	8090.12
849.099	8094.12
849.346	8128.12
849.594	8178.12
849.841	8192.12
850.089	8157.12
850.336	8119.12
850.583	8171.12
850.831	8100.12
851.078	8050.12
851.325	8020.12
851.572	8116.12
851.819	8014.12
852.066	7851.12
852.313	7842.12
852.56	7670.12
852.807	7668.12
853.054	7630.12
853.301	7699.12
853.548	7687.12
853.794	7793.12
854.041	7724.12
854.288	7768.12
854.534	7905.12
854.781	7854.12
855.028	7826.12
855.274	7838.12
855.52	7759.12
855.767	7794.12
856.013	7743.12
856.26	8002.12
856.506	7657.12
856.752	7604.12
856.998	7607.12
857.244	7551.12
857.49	7722.12
857.736	7643.12
857.982	7800.12
858.228	7703.12
858.474	7566.12
858.72	7528.12
858.966	7543.12
859.212	7407.12
859.458	7327.12
859.703	7265.12
859.949	7182.12
860.195	7190.12
860.44	7209.12
860.686	7097.12
860.931	7255.12
861.177	7090.12
861.422	7075.12
861.667	7056.12
861.913	7033.12
862.158	7004.12
862.403	7085.12
862.648	7096.12
862.893	7067.12
863.138	7046.12
863.384	7023.12
863.629	7065.12
863.873	7026.12
864.118	6951.12
864.363	6910.12
864.608	6976.12
864.853	6951.12
865.098	6899.12
865.342	6836.12
865.587	6818.12
865.832	6856.12
866.076	6773.12
866.321	6772.12
866.565	6765.12
866.81	6688.12
867.054	6715.12
867.298	6686.12
867.543	6680.12
867.787	6660.12
868.031	6680.12
868.275	6673.12
868.519	6594.12
868.764	6632.12
869.008	6545.12
869.252	6630.12
869.496	6584.12
869.739	6588.12
869.983	6590.12
870.227	6575.12
870.471	6568.12
870.715	6632.12
870.958	6634.12
871.202	6643.12
871.446	6601.12
871.689	6548.12
871.933	6641.12
872.176	6635.12
872.42	6593.12
872.663	6596.12
872.906	6613.12
873.15	6646.12
873.393	6552.12
873.636	6628.12
873.879	6532.12
874.122	6484.12
874.366	6319.12
874.609	6271.12
874.852	6268.12
875.095	6244.12
875.337	6184.12
875.58	6118.12
875.823	6160.12
876.066	6165.12
876.309	6159.12
876.551	6014.12
876.794	6011.12
877.037	6016.12
877.279	5938.12
877.522	5952.12
877.764	6031.12
878.007	5905.12
878.249	5957.12
878.491	5919.12
878.734	5992.12
878.976	5977.12
879.218	5889.12
879.46	5930.12
879.702	5831.12
879.945	5776.12
880.187	5711.12
880.429	5696.12
880.671	5677.12
880.912	5653.12
881.154	5669.12
881.396	5564.12
881.638	5636.12
881.88	5621.12
882.121	5513.12
882.363	5580.12
882.605	5663.12
882.846	5587.12
883.088	5606.12
883.329	5551.12
883.571	5501.12
883.812	5643.12
884.053	5708.12
884.295	5856.12
884.536	6000.12
884.777	5880.12
885.018	5840.12
885.259	5864.12
885.5	5766.12
885.742	6025.12
885.982	5796.12
886.223	5691.12
886.464	5697.12
886.705	5547.12
886.946	5569.12
887.187	5389.12
887.428	5414.12
887.668	5327.12
887.909	5212.12
888.15	5181.12
888.39	5205.12
888.631	5159.12
888.871	5082.12
889.111	5077.12
889.352	5042.12
889.592	4971.12
889.833	4912.12
890.073	4960.12
890.313	4961.12
890.553	4804.12
890.793	4815.12
891.033	4816.12
891.273	4798.12
891.513	4805.12
891.753	4813.12
891.993	4781.12
892.233	4779.12
892.473	4861.12
892.713	4721.12
892.952	4772.12
893.192	4828.12
893.432	4736.12
893.671	4720.12
893.911	4746.12
894.15	4665.12
894.39	4592.12
894.629	4608.12
894.869	4629.12
895.108	4617.12
895.347	4546.12
895.587	4572.12
895.826	4525.12
896.065	4456.12
896.304	4522.12
896.543	4546.12
896.782	4419.12
897.021	4545.12
897.26	4481.12
897.499	4490.12
897.738	4535.12
897.977	4425.12
898.216	4435.12
898.454	4375.12
898.693	4330.12
898.932	4326.12
899.17	4300.12
899.409	4257.12
899.647	4298.12
899.886	4233.12
900.124	4289.12
900.363	4228.12
900.601	4262.12
900.839	4297.12
901.078	4276.12
901.316	4310.12
901.554	4265.12
901.792	4349.12
902.03	4307.12
902.268	4343.12
902.506	4335.12
902.744	4278.12
902.982	4303.12
903.22	4177.12
903.458	4179.12
903.695	4146.12
903.933	4106.12
904.171	3971.12
904.409	3947.12
904.646	3929.12
904.884	3858.12
905.121	3852.12
905.359	3850.12
905.596	3783.12
905.833	3725.12
906.071	3704.12
906.308	3745.12
906.545	3739.12
906.783	3711.12
907.02	3684.12
907.257	3642.12
907.494	3670.12
907.731	3697.12
907.968	3680.12
908.205	3637.12
908.442	3613.12
908.679	3569.12
908.915	3590.12
909.152	3569.12
909.389	3424.12
909.626	3482.12
909.862	3469.12
910.099	3457.12
910.335	3539.12
910.572	3372.12
910.808	3444.12
911.045	3391.12
911.281	3333.12
911.518	3409.12
911.754	3339.12
911.99	3382.12
912.226	3316.12
912.463	3277.12
912.699	3264.12
912.935	3249.12
913.171	3227.12
913.407	3197.12
913.643	3219.12
913.879	3239.12
914.114	3142.12
914.35	3101.12
914.586	3086.12
914.822	3039.12
915.057	3077.12
915.293	2987.12
915.529	2990.12
915.764	3036.12
916	3042.12
916.235	3006.12
916.471	3035.12
916.706	2947.12
916.941	2991.12
917.177	2948.12
917.412	2955.12
917.647	2964.12
917.882	2946.12
918.117	3025.12
918.352	2954.12
918.588	3010.12
918.823	2898.12
919.057	2890.12
919.292	2762.12
919.527	2885.12
919.762	2817.12
919.997	2873.12
920.232	2792.12
920.466	2769.12
920.701	2660.12
920.935	2701.12
921.17	2692.12
921.405	2634.12
921.639	2713.12
921.873	2685.12
922.108	2647.12
922.342	2720.12
922.576	2623.12
922.811	2602.12
923.045	2669.12
923.279	2677.12
923.513	2558.12
923.747	2618.12
923.981	2580.12
924.215	2537.12
924.449	2541.12
924.683	2486.12
924.917	2499.12
925.151	2516.12
925.385	2537.12
925.618	2529.12
925.852	2489.12
926.086	2419.12
926.319	2478.12
926.553	2502.12
926.786	2456.12
927.02	2424.12
927.253	2521.12
927.486	2503.12
927.72	2407.12
927.953	2487.12
928.186	2437.12
928.42	2447.12
928.653	2384.12
928.886	2396.12
929.119	2424.12
929.352	2382.12
929.585	2384.12
929.818	2365.12
930.051	2361.12
930.284	2381.12
930.516	2278.12
930.749	2298.12
930.982	2341.12
931.215	2317.12
931.447	2273.12
931.68	2270.12
931.912	2231.12
932.145	2236.12
932.377	2268.12
932.61	2374.12
932.842	2196.12
933.074	2272.12
933.307	2207.12
933.539	2314.12
933.771	2249.12
934.003	2261.12
934.236	2360.12
934.468	2316.12
934.7	2240.12
934.932	2266.12
935.164	2206.12
935.395	2191.12
935.627	2243.12
935.859	2237.12
936.091	2158.12
936.323	2229.12
936.554	2234.12
936.786	2180.12
937.017	2145.12
937.249	2190.12
937.481	2104.12
937.712	2189.12
937.943	2187.12
938.175	2132.12
938.406	2156.12
938.637	2196.12
938.869	2126.12
939.1	2182.12
939.331	2115.12
939.562	2163.12
939.793	2126.12
940.024	2148.12
940.255	2171.12
940.486	2114.12
940.717	2100.12
940.948	2107.12
941.179	2005.12
941.409	2060.12
941.64	2062.12
941.871	2112.12
942.102	2033.12
942.332	2064.12
942.563	2098.12
942.793	2054.12
943.024	1986.12
943.254	2076.12
943.484	2068.12
943.715	2055.12
943.945	2064.12
944.175	2015.12
944.405	1979.12
944.636	1990.12
944.866	2062.12
945.096	2036.12
945.326	1984.12
945.556	2044.12
945.786	2049.12
946.016	2006.12
946.245	1962.12
946.475	1959.12
946.705	1988.12
946.935	1966.12
947.164	1990.12
947.394	1929.12
947.624	1961.12
947.853	1954.12
948.083	1951.12
948.312	1912.12
948.542	1860.12
948.771	1838.12
949	1858.12
949.23	1877.12
949.459	1880.12
949.688	1955.12
949.917	1886.12
950.146	1914.12
950.375	1971.12
950.604	1857.12
950.833	1970.12
951.062	1940.12
951.291	1873.12
951.52	1838.12
951.749	1870.12
951.978	1822.12
952.206	1831.12
952.435	1858.12
952.664	1845.12
952.892	1868.12
953.121	1860.12
953.349	1886.12
953.578	1873.12
953.806	1832.12
954.035	1810.12
954.263	1820.12
954.491	1782.12
954.719	1797.12
954.948	1787.12
955.176	1767.12
955.404	1723.12
955.632	1779.12
955.86	1772.12
956.088	1778.12
956.316	1791.12
956.544	1807.12
956.772	1745.12
956.999	1719.12
957.227	1806.12
957.455	1730.12
957.683	1725.12
957.91	1699.12
958.138	1679.12
958.365	1663.12
958.593	1664.12
958.82	1648.12
959.048	1683.12
959.275	1669.12
959.502	1682.12
959.73	1639.12
959.957	1689.12
960.184	1701.12
960.411	1673.12
960.638	1703.12
960.865	1675.12
961.092	1690.12
961.319	1571.12
961.546	1666.12
961.773	1682.12
962	1644.12
962.227	1703.12
962.454	1650.12
962.68	1625.12
962.907	1649.12
963.134	1626.12
963.36	1651.12
963.587	1639.12
963.813	1580.12
964.04	1621.12
964.266	1559.12
964.493	1673.12
964.719	1614.12
964.945	1617.12
965.171	1556.12
965.398	1583.12
965.624	1646.12
965.85	1531.12
966.076	1524.12
966.302	1612.12
966.528	1529.12
966.754	1588.12
966.98	1565.12
967.206	1584.12
967.431	1501.12
967.657	1586.12
967.883	1577.12
968.109	1556.12
968.334	1498.12
968.56	1508.12
968.785	1519.12
969.011	1448.12
969.236	1542.12
969.462	1460.12
969.687	1485.12
969.912	1532.12
970.138	1565.12
970.363	1470.12
970.588	1492.12
970.813	1501.12
971.038	1470.12
971.263	1478.12
971.488	1491.12
971.713	1529.12
971.938	1517.12
972.163	1408.12
972.388	1421.12
972.613	1425.12
972.838	1455.12
973.062	1416.12
973.287	1460.12
973.512	1372.12
973.736	1438.12
973.961	1418.12
974.185	1366.12
974.41	1416.12
974.634	1325.12
974.858	1340.12
975.083	1387.12
975.307	1427.12
975.531	1355.12
975.755	1296.12
975.98	1322.12
976.204	1274.12
976.428	1282.12
976.652	1278.12
976.876	1293.12
977.1	1295.12
977.324	1278.12
977.547	1330.12
977.771	1331.12
977.995	1295.12
978.219	1245.12
978.442	1355.12
978.666	1322.12
978.89	1292.12
979.113	1282.12
979.337	1320.12
979.56	1256.12
979.783	1348.12
980.007	1231.12
980.23	1284.12
980.453	1240.12
980.677	1271.12
980.9	1276.12
981.123	1184.12
981.346	1285.12
981.569	1253.12
981.792	1269.12
982.015	1261.12
982.238	1193.12
982.461	1258.12
982.684	1222.12
982.907	1164.12
983.129	1171.12
983.352	1262.12
983.575	1221.12
983.797	1208.12
984.02	1188.12
984.242	1208.12
984.465	1187.12
984.687	1214.12
984.91	1241.12
985.132	1224.12
985.354	1225.12
985.577	1220.12
985.799	1203.12
986.021	1127.12
986.243	1159.12
986.465	1177.12
986.687	1232.12
986.909	1273.12
987.131	1211.12
987.353	1163.12
987.575	1191.12
987.797	1155.12
988.019	1108.12
988.241	1179.12
988.462	1123.12
988.684	1184.12
988.906	1187.12
989.127	1232.12
989.349	1135.12
989.57	1148.12
989.792	1196.12
990.013	1190.12
990.234	1208.12
990.456	1205.12
990.677	1212.12
990.898	1136.12
991.119	1158.12
991.341	1217.12
991.562	1123.12
991.783	1175.12
992.004	1108.12
992.225	1068.12
992.446	1175.12
992.667	1081.12
992.887	1132.12
993.108	1055.12
993.329	1183.12
993.55	1125.12
993.77	1093.12
993.991	1077.12
994.212	1125.12
994.432	1103.12
994.653	1126.12
994.873	1128.12
995.093	1024.12
995.314	1050.12
995.534	1110.12
995.754	1142.12
995.975	1174.12
996.195	1070.12
996.415	1117.12
996.635	1092.12
996.855	1115.12
997.075	1066.12
997.295	1090.12
997.515	1070.12
997.735	1134.12
997.955	1074.12
998.174	1080.12
998.394	1080.12
998.614	1098.12
998.834	1061.12
999.053	1127.12
999.273	1080.12
999.492	1158.12
999.712	1085.12
999.931	1043.12
1000.151	1102.12
1000.37	1086.12
1000.589	1137.12
1000.809	1072.12
1001.028	1178.12
1001.247	1120.12
1001.466	1024.12
1001.685	1170.12
1001.904	1112.12
1002.123	1095.12
1002.342	1085.12
1002.561	1062.12
1002.78	1073.12
1002.999	1161.12
1003.218	1113.12
1003.436	1075.12
1003.655	1115.12
1003.874	1052.12
1004.092	1117.12
1004.311	1127.12
1004.53	1107.12
1004.748	1158.12
1004.966	1081.12
1005.185	1151.12
1005.403	1130.12
1005.622	1096.12
1005.84	1191.12
1006.058	1087.12
1006.276	1102.12
1006.494	1601.12
1006.712	1102.12
1006.931	1168.12
1007.149	1104.12
1007.367	1098.12
1007.584	1128.12
1007.802	1147.12
1008.02	1078.12
1008.238	1180.12
1008.456	1187.12
1008.673	1043.12
1008.891	1154.12
1009.109	1091.12
1009.326	1133.12
1009.544	1198.12
1009.761	1130.12
1009.979	1205.12
1010.196	1202.12
1010.413	1316.12
1010.631	1328.12
1010.848	1335.12
1011.065	1319.12
1011.282	1287.12
1011.5	1198.12
1011.717	1329.12
1011.934	1269.12
1012.151	1337.12
1012.368	1276.12
1012.585	1220.12
1012.801	1259.12
1013.018	1264.12
1013.235	1217.12
1013.452	1246.12
1013.669	1241.12
1013.885	1249.12
1014.102	1273.12
1014.318	1222.12
1014.535	1208.12
1014.751	1225.12
1014.968	1239.12
1015.184	1240.12
1015.401	1175.12
1015.617	1206.12
1015.833	1163.12
1016.049	1191.12
1016.266	1150.12
1016.482	1174.12
1016.698	1090.12
1016.914	1154.12
1017.13	1081.12
1017.346	1090.12
1017.562	1163.12
1017.778	1094.12
1017.993	1056.12
1018.209	1111.12
1018.425	1106.12
1018.641	1062.12
1018.856	1046.12
1019.072	1059.12
1019.288	1090.12
1019.503	1064.12
1019.719	982.12
1019.934	991.12
1020.149	1066.12
1020.365	1009.12
1020.58	977.12
1020.795	1025.12
1021.011	980.12
1021.226	965.12
1021.441	992.12
1021.656	901.12
1021.871	864.12
1022.086	877.12
1022.301	881.12
1022.516	877.12
1022.731	927.12
1022.946	838.12
1023.16	816.12
1023.375	797.12
1023.59	784.12
1023.804	758.12
1024.019	863.12
1024.234	726.12
1024.448	775.12
1024.663	710.12
1024.877	733.12
1025.092	745.12
1025.306	751.12
1025.52	678.12
1025.734	766.12
1025.949	686.12
1026.163	686.12
1026.377	625.12
1026.591	671.12
1026.805	600.12
1027.019	599.12
1027.233	571.12
1027.447	532.12
1027.661	624.12
1027.875	582.12
1028.088	571.12
1028.302	510.12
1028.516	508.12
1028.73	544.12
1028.943	542.12
1029.157	476.12
1029.37	445.12
1029.584	-0.88
1029.797	-1.88
1030.011	-3.88
1030.224	-1.88
