Data from QEP037381__2__09-55-59-924.txt Node

Date: Wed Dec 21 09:55:59 EST 2022
User: dcclab
Spectrometer: QEP03738
Trigger mode: 4
Integration Time (sec): 1.000000E1
Scans to average: 1
Electric dark correction enabled: true
Nonlinearity correction enabled: false
Boxcar width: 0
XAxis mode: Wavelengths
Number of Pixels in Spectrum: 1044
>>>>>Begin Spectral Data<<<<<
784.041	10.38
784.3	-0.62
784.558	-3.62
784.817	-2.62
785.075	114541.38
785.334	19798.38
785.592	9335.38
785.851	6399.38
786.109	4869.38
786.368	3773.38
786.626	3048.38
786.884	2501.38
787.143	2087.38
787.401	1758.38
787.659	1530.38
787.917	1322.38
788.175	1176.38
788.433	1020.38
788.691	952.38
788.949	875.38
789.207	818.38
789.465	712.38
789.723	686.38
789.98	613.38
790.238	650.38
790.496	608.38
790.753	595.38
791.011	642.38
791.268	556.38
791.526	557.38
791.783	554.38
792.041	539.38
792.298	459.38
792.556	525.38
792.813	488.38
793.07	485.38
793.327	455.38
793.584	539.38
793.841	442.38
794.099	486.38
794.356	541.38
794.613	440.38
794.869	461.38
795.126	424.38
795.383	410.38
795.64	428.38
795.897	375.38
796.153	444.38
796.41	424.38
796.667	415.38
796.923	414.38
797.18	427.38
797.436	427.38
797.693	407.38
797.949	459.38
798.206	488.38
798.462	398.38
798.718	442.38
798.974	424.38
799.231	458.38
799.487	455.38
799.743	454.38
799.999	483.38
800.255	468.38
800.511	450.38
800.767	512.38
801.023	484.38
801.279	502.38
801.534	550.38
801.79	579.38
802.046	589.38
802.302	713.38
802.557	779.38
802.813	968.38
803.068	1117.38
803.324	1536.38
803.579	2058.38
803.835	2817.38
804.09	3883.38
804.345	4936.38
804.601	6282.38
804.856	7541.38
805.111	8662.38
805.366	9449.38
805.621	10031.38
805.876	10440.38
806.131	10697.38
806.386	10822.38
806.641	11032.38
806.896	11105.38
807.151	11336.38
807.406	11457.38
807.661	11697.38
807.915	11790.38
808.17	11970.38
808.425	12083.38
808.679	12132.38
808.934	12274.38
809.188	12323.38
809.443	12460.38
809.697	12612.38
809.951	12580.38
810.206	12680.38
810.46	12814.38
810.714	12912.38
810.968	13060.38
811.223	12945.38
811.477	13174.38
811.731	13280.38
811.985	13265.38
812.239	13280.38
812.493	13442.38
812.747	13477.38
813	13415.38
813.254	13490.38
813.508	13636.38
813.762	13626.38
814.015	13574.38
814.269	13726.38
814.522	13871.38
814.776	14045.38
815.03	14126.38
815.283	14348.38
815.536	14478.38
815.79	14705.38
816.043	14874.38
816.296	15093.38
816.55	15211.38
816.803	15278.38
817.056	15543.38
817.309	15677.38
817.562	15773.38
817.815	15823.38
818.068	15971.38
818.321	16031.38
818.574	16239.38
818.827	16413.38
819.079	16601.38
819.332	16897.38
819.585	16994.38
819.838	17198.38
820.09	17342.38
820.343	17427.38
820.595	17423.38
820.848	17610.38
821.1	17674.38
821.353	17603.38
821.605	17691.38
821.857	17734.38
822.11	17614.38
822.362	17554.38
822.614	17538.38
822.866	17598.38
823.118	17545.38
823.37	17733.38
823.622	17632.38
823.874	17740.38
824.126	17867.38
824.378	17730.38
824.63	17837.38
824.882	17755.38
825.134	17848.38
825.385	17847.38
825.637	17752.38
825.888	17695.38
826.14	17606.38
826.392	17538.38
826.643	17470.38
826.895	17412.38
827.146	17426.38
827.397	17345.38
827.649	17422.38
827.9	17289.38
828.151	17345.38
828.402	17287.38
828.653	17417.38
828.905	17449.38
829.156	17439.38
829.407	17422.38
829.658	17346.38
829.909	17367.38
830.159	17382.38
830.41	17287.38
830.661	17218.38
830.912	17038.38
831.162	17039.38
831.413	16934.38
831.664	16946.38
831.914	16991.38
832.165	16966.38
832.415	16952.38
832.666	16992.38
832.916	16959.38
833.167	16906.38
833.417	16894.38
833.667	16836.38
833.917	16840.38
834.168	16855.38
834.418	16889.38
834.668	16673.38
834.918	16638.38
835.168	16673.38
835.418	16508.38
835.668	16380.38
835.918	16407.38
836.167	16375.38
836.417	16316.38
836.667	16363.38
836.917	16303.38
837.166	16200.38
837.416	16242.38
837.666	16220.38
837.915	16247.38
838.165	16203.38
838.414	16023.38
838.663	15986.38
838.913	16037.38
839.162	15931.38
839.411	15983.38
839.661	15856.38
839.91	15850.38
840.159	15796.38
840.408	15752.38
840.657	15773.38
840.906	15839.38
841.155	15765.38
841.404	15708.38
841.653	15750.38
841.902	15725.38
842.15	15741.38
842.399	15778.38
842.648	15795.38
842.897	15669.38
843.145	15600.38
843.394	15533.38
843.642	15366.38
843.891	15435.38
844.139	15280.38
844.388	15213.38
844.636	15028.38
844.884	15102.38
845.133	15123.38
845.381	15098.38
845.629	15081.38
845.877	15038.38
846.125	15069.38
846.373	14976.38
846.621	14953.38
846.869	14959.38
847.117	14809.38
847.365	14724.38
847.613	14755.38
847.861	14625.38
848.108	14646.38
848.356	14627.38
848.604	14457.38
848.851	14545.38
849.099	14577.38
849.346	14596.38
849.594	14675.38
849.841	14840.38
850.089	14734.38
850.336	14660.38
850.583	14638.38
850.831	14638.38
851.078	14521.38
851.325	14405.38
851.572	14488.38
851.819	14341.38
852.066	14066.38
852.313	13940.38
852.56	13821.38
852.807	13839.38
853.054	13747.38
853.301	13632.38
853.548	13722.38
853.794	13935.38
854.041	13851.38
854.288	13909.38
854.534	14061.38
854.781	14062.38
855.028	13898.38
855.274	13900.38
855.52	13760.38
855.767	13607.38
856.013	13713.38
856.26	13945.38
856.506	13626.38
856.752	13466.38
856.998	13494.38
857.244	13547.38
857.49	13591.38
857.736	13530.38
857.982	13655.38
858.228	13613.38
858.474	13479.38
858.72	13441.38
858.966	13349.38
859.212	13244.38
859.458	13108.38
859.703	12965.38
859.949	12775.38
860.195	12760.38
860.44	12655.38
860.686	12586.38
860.931	12626.38
861.177	12521.38
861.422	12590.38
861.667	12500.38
861.913	12503.38
862.158	12516.38
862.403	12586.38
862.648	12579.38
862.893	12598.38
863.138	12476.38
863.384	12510.38
863.629	12602.38
863.873	12580.38
864.118	12458.38
864.363	12291.38
864.608	12344.38
864.853	12315.38
865.098	12239.38
865.342	12172.38
865.587	12027.38
865.832	12190.38
866.076	12085.38
866.321	11966.38
866.565	11954.38
866.81	11866.38
867.054	11917.38
867.298	11939.38
867.543	11830.38
867.787	11843.38
868.031	11832.38
868.275	11716.38
868.519	11753.38
868.764	11753.38
869.008	11602.38
869.252	11715.38
869.496	11601.38
869.739	11559.38
869.983	11545.38
870.227	11563.38
870.471	11464.38
870.715	11482.38
870.958	11547.38
871.202	11568.38
871.446	11567.38
871.689	11520.38
871.933	11504.38
872.176	11442.38
872.42	11423.38
872.663	11404.38
872.906	11432.38
873.15	11423.38
873.393	11228.38
873.636	11210.38
873.879	11163.38
874.122	11118.38
874.366	10870.38
874.609	10913.38
874.852	10824.38
875.095	10809.38
875.337	10700.38
875.58	10632.38
875.823	10693.38
876.066	10686.38
876.309	10642.38
876.551	10531.38
876.794	10389.38
877.037	10437.38
877.279	10406.38
877.522	10489.38
877.764	10502.38
878.007	10438.38
878.249	10434.38
878.491	10369.38
878.734	10417.38
878.976	10397.38
879.218	10261.38
879.46	10279.38
879.702	10215.38
879.945	10148.38
880.187	9940.38
880.429	10017.38
880.671	9868.38
880.912	9941.38
881.154	9818.38
881.396	9772.38
881.638	9824.38
881.88	9873.38
882.121	9765.38
882.363	9733.38
882.605	9704.38
882.846	9784.38
883.088	9668.38
883.329	9638.38
883.571	9524.38
883.812	9626.38
884.053	9695.38
884.295	9706.38
884.536	9868.38
884.777	9718.38
885.018	9713.38
885.259	9706.38
885.5	9574.38
885.742	9862.38
885.982	9567.38
886.223	9521.38
886.464	9473.38
886.705	9417.38
886.946	9379.38
887.187	9279.38
887.428	9301.38
887.668	9147.38
887.909	9056.38
888.15	9009.38
888.39	8989.38
888.631	8952.38
888.871	8887.38
889.111	8781.38
889.352	8832.38
889.592	8696.38
889.833	8652.38
890.073	8604.38
890.313	8617.38
890.553	8459.38
890.793	8424.38
891.033	8392.38
891.273	8368.38
891.513	8328.38
891.753	8297.38
891.993	8358.38
892.233	8304.38
892.473	8391.38
892.713	8367.38
892.952	8329.38
893.192	8334.38
893.432	8227.38
893.671	8332.38
893.911	8235.38
894.15	8199.38
894.39	8059.38
894.629	8081.38
894.869	8011.38
895.108	8008.38
895.347	7917.38
895.587	7904.38
895.826	7856.38
896.065	7806.38
896.304	7806.38
896.543	7858.38
896.782	7761.38
897.021	7748.38
897.26	7718.38
897.499	7765.38
897.738	7708.38
897.977	7647.38
898.216	7550.38
898.454	7513.38
898.693	7415.38
898.932	7475.38
899.17	7380.38
899.409	7378.38
899.647	7262.38
899.886	7335.38
900.124	7293.38
900.363	7286.38
900.601	7280.38
900.839	7291.38
901.078	7277.38
901.316	7242.38
901.554	7248.38
901.792	7309.38
902.03	7201.38
902.268	7193.38
902.506	7221.38
902.744	7150.38
902.982	7183.38
903.22	7087.38
903.458	7060.38
903.695	7005.38
903.933	6929.38
904.171	6737.38
904.409	6767.38
904.646	6696.38
904.884	6615.38
905.121	6586.38
905.359	6576.38
905.596	6440.38
905.833	6423.38
906.071	6336.38
906.308	6403.38
906.545	6362.38
906.783	6284.38
907.02	6309.38
907.257	6289.38
907.494	6284.38
907.731	6298.38
907.968	6289.38
908.205	6248.38
908.442	6191.38
908.679	6163.38
908.915	6085.38
909.152	6024.38
909.389	5965.38
909.626	5972.38
909.862	5873.38
910.099	5867.38
910.335	5935.38
910.572	5859.38
910.808	5813.38
911.045	5791.38
911.281	5741.38
911.518	5836.38
911.754	5692.38
911.99	5729.38
912.226	5633.38
912.463	5594.38
912.699	5602.38
912.935	5558.38
913.171	5504.38
913.407	5418.38
913.643	5479.38
913.879	5374.38
914.114	5372.38
914.35	5262.38
914.586	5222.38
914.822	5237.38
915.057	5277.38
915.293	5082.38
915.529	5058.38
915.764	5108.38
916	5099.38
916.235	5059.38
916.471	5100.38
916.706	5020.38
916.941	5007.38
917.177	5028.38
917.412	5011.38
917.647	5046.38
917.882	4959.38
918.117	5008.38
918.352	4956.38
918.588	5000.38
918.823	4856.38
919.057	4839.38
919.292	4743.38
919.527	4836.38
919.762	4693.38
919.997	4735.38
920.232	4644.38
920.466	4671.38
920.701	4532.38
920.935	4586.38
921.17	4487.38
921.405	4412.38
921.639	4530.38
921.873	4477.38
922.108	4455.38
922.342	4463.38
922.576	4384.38
922.811	4371.38
923.045	4419.38
923.279	4407.38
923.513	4284.38
923.747	4340.38
923.981	4298.38
924.215	4244.38
924.449	4271.38
924.683	4167.38
924.917	4149.38
925.151	4157.38
925.385	4217.38
925.618	4150.38
925.852	4162.38
926.086	4058.38
926.319	4111.38
926.553	4104.38
926.786	4115.38
927.02	4074.38
927.253	4118.38
927.486	4100.38
927.72	4002.38
927.953	4079.38
928.186	4067.38
928.42	4044.38
928.653	3966.38
928.886	3982.38
929.119	3972.38
929.352	3955.38
929.585	3942.38
929.818	3868.38
930.051	3885.38
930.284	3855.38
930.516	3776.38
930.749	3792.38
930.982	3812.38
931.215	3755.38
931.447	3679.38
931.68	3706.38
931.912	3681.38
932.145	3679.38
932.377	3688.38
932.61	3827.38
932.842	3627.38
933.074	3693.38
933.307	3648.38
933.539	3770.38
933.771	3714.38
934.003	3688.38
934.236	3736.38
934.468	3716.38
934.7	3636.38
934.932	3687.38
935.164	3564.38
935.395	3593.38
935.627	3581.38
935.859	3607.38
936.091	3540.38
936.323	3568.38
936.554	3550.38
936.786	3523.38
937.017	3502.38
937.249	3525.38
937.481	3443.38
937.712	3501.38
937.943	3503.38
938.175	3467.38
938.406	3455.38
938.637	3516.38
938.869	3431.38
939.1	3494.38
939.331	3396.38
939.562	3419.38
939.793	3448.38
940.024	3448.38
940.255	3431.38
940.486	3377.38
940.717	3414.38
940.948	3382.38
941.179	3301.38
941.409	3306.38
941.64	3280.38
941.871	3299.38
942.102	3323.38
942.332	3321.38
942.563	3341.38
942.793	3332.38
943.024	3241.38
943.254	3284.38
943.484	3326.38
943.715	3341.38
943.945	3296.38
944.175	3220.38
944.405	3199.38
944.636	3230.38
944.866	3246.38
945.096	3266.38
945.326	3190.38
945.556	3240.38
945.786	3268.38
946.016	3177.38
946.245	3109.38
946.475	3101.38
946.705	3165.38
946.935	3125.38
947.164	3081.38
947.394	3053.38
947.624	3105.38
947.853	3074.38
948.083	3058.38
948.312	3031.38
948.542	2955.38
948.771	2953.38
949	2983.38
949.23	2986.38
949.459	3000.38
949.688	3065.38
949.917	2995.38
950.146	3017.38
950.375	3080.38
950.604	2926.38
950.833	3007.38
951.062	3012.38
951.291	3017.38
951.52	2940.38
951.749	2889.38
951.978	2910.38
952.206	2924.38
952.435	2858.38
952.664	2910.38
952.892	2898.38
953.121	2868.38
953.349	2918.38
953.578	2917.38
953.806	2835.38
954.035	2789.38
954.263	2841.38
954.491	2802.38
954.719	2802.38
954.948	2751.38
955.176	2777.38
955.404	2705.38
955.632	2767.38
955.86	2756.38
956.088	2731.38
956.316	2750.38
956.544	2773.38
956.772	2707.38
956.999	2670.38
957.227	2750.38
957.455	2641.38
957.683	2693.38
957.91	2632.38
958.138	2603.38
958.365	2624.38
958.593	2618.38
958.82	2525.38
959.048	2628.38
959.275	2561.38
959.502	2568.38
959.73	2575.38
959.957	2555.38
960.184	2588.38
960.411	2535.38
960.638	2610.38
960.865	2512.38
961.092	2588.38
961.319	2471.38
961.546	2572.38
961.773	2555.38
962	2493.38
962.227	2549.38
962.454	2496.38
962.68	2506.38
962.907	2491.38
963.134	2457.38
963.36	2480.38
963.587	2490.38
963.813	2402.38
964.04	2439.38
964.266	2429.38
964.493	2500.38
964.719	2455.38
964.945	2464.38
965.171	2350.38
965.398	2367.38
965.624	2379.38
965.85	2291.38
966.076	2347.38
966.302	2350.38
966.528	2351.38
966.754	2350.38
966.98	2340.38
967.206	2314.38
967.431	2229.38
967.657	2330.38
967.883	2351.38
968.109	2297.38
968.334	2254.38
968.56	2274.38
968.785	2248.38
969.011	2194.38
969.236	2248.38
969.462	2210.38
969.687	2209.38
969.912	2223.38
970.138	2273.38
970.363	2186.38
970.588	2227.38
970.813	2174.38
971.038	2157.38
971.263	2183.38
971.488	2197.38
971.713	2224.38
971.938	2209.38
972.163	2096.38
972.388	2123.38
972.613	2110.38
972.838	2113.38
973.062	2094.38
973.287	2106.38
973.512	2042.38
973.736	2056.38
973.961	2094.38
974.185	2043.38
974.41	2054.38
974.634	1970.38
974.858	1981.38
975.083	2040.38
975.307	2064.38
975.531	1987.38
975.755	1935.38
975.98	1954.38
976.204	1890.38
976.428	1879.38
976.652	1923.38
976.876	1875.38
977.1	1913.38
977.324	1879.38
977.547	1933.38
977.771	1924.38
977.995	1900.38
978.219	1834.38
978.442	1959.38
978.666	1881.38
978.89	1852.38
979.113	1857.38
979.337	1852.38
979.56	1837.38
979.783	1905.38
980.007	1807.38
980.23	1844.38
980.453	1782.38
980.677	1859.38
980.9	1829.38
981.123	1738.38
981.346	1839.38
981.569	1815.38
981.792	1801.38
982.015	1774.38
982.238	1751.38
982.461	1740.38
982.684	1690.38
982.907	1747.38
983.129	1676.38
983.352	1767.38
983.575	1732.38
983.797	1732.38
984.02	1685.38
984.242	1697.38
984.465	1690.38
984.687	1721.38
984.91	1754.38
985.132	1709.38
985.354	1710.38
985.577	1693.38
985.799	1704.38
986.021	1579.38
986.243	1632.38
986.465	1648.38
986.687	1648.38
986.909	1718.38
987.131	1643.38
987.353	1634.38
987.575	1671.38
987.797	1630.38
988.019	1543.38
988.241	1608.38
988.462	1586.38
988.684	1630.38
988.906	1624.38
989.127	1662.38
989.349	1552.38
989.57	1571.38
989.792	1607.38
990.013	1622.38
990.234	1608.38
990.456	1684.38
990.677	1617.38
990.898	1569.38
991.119	1549.38
991.341	1585.38
991.562	1529.38
991.783	1560.38
992.004	1497.38
992.225	1478.38
992.446	1562.38
992.667	1464.38
992.887	1528.38
993.108	1426.38
993.329	1572.38
993.55	1515.38
993.77	1455.38
993.991	1456.38
994.212	1498.38
994.432	1492.38
994.653	1480.38
994.873	1465.38
995.093	1370.38
995.314	1418.38
995.534	1481.38
995.754	1473.38
995.975	1524.38
996.195	1405.38
996.415	1440.38
996.635	1447.38
996.855	1454.38
997.075	1419.38
997.295	1396.38
997.515	1393.38
997.735	1427.38
997.955	1402.38
998.174	1396.38
998.394	1370.38
998.614	1422.38
998.834	1355.38
999.053	1418.38
999.273	1392.38
999.492	1467.38
999.712	1389.38
999.931	1367.38
1000.151	1404.38
1000.37	1393.38
1000.589	1475.38
1000.809	1351.38
1001.028	1471.38
1001.247	1450.38
1001.466	1301.38
1001.685	1438.38
1001.904	1386.38
1002.123	1365.38
1002.342	1369.38
1002.561	1346.38
1002.78	1345.38
1002.999	1451.38
1003.218	1358.38
1003.436	1366.38
1003.655	1414.38
1003.874	1335.38
1004.092	1350.38
1004.311	1380.38
1004.53	1351.38
1004.748	1419.38
1004.966	1344.38
1005.185	1401.38
1005.403	1374.38
1005.622	1344.38
1005.84	1407.38
1006.058	1320.38
1006.276	1343.38
1006.494	1853.38
1006.712	1338.38
1006.931	1416.38
1007.149	1307.38
1007.367	1319.38
1007.584	1345.38
1007.802	1372.38
1008.02	1326.38
1008.238	1391.38
1008.456	1396.38
1008.673	1252.38
1008.891	1377.38
1009.109	1293.38
1009.326	1340.38
1009.544	1428.38
1009.761	1304.38
1009.979	1398.38
1010.196	1345.38
1010.413	1422.38
1010.631	1456.38
1010.848	1481.38
1011.065	1470.38
1011.282	1401.38
1011.5	1341.38
1011.717	1466.38
1011.934	1423.38
1012.151	1453.38
1012.368	1429.38
1012.585	1355.38
1012.801	1407.38
1013.018	1370.38
1013.235	1334.38
1013.452	1339.38
1013.669	1349.38
1013.885	1316.38
1014.102	1369.38
1014.318	1373.38
1014.535	1305.38
1014.751	1322.38
1014.968	1338.38
1015.184	1365.38
1015.401	1273.38
1015.617	1315.38
1015.833	1259.38
1016.049	1263.38
1016.266	1269.38
1016.482	1284.38
1016.698	1198.38
1016.914	1249.38
1017.13	1185.38
1017.346	1191.38
1017.562	1261.38
1017.778	1211.38
1017.993	1170.38
1018.209	1218.38
1018.425	1184.38
1018.641	1158.38
1018.856	1140.38
1019.072	1136.38
1019.288	1197.38
1019.503	1145.38
1019.719	1088.38
1019.934	1084.38
1020.149	1175.38
1020.365	1125.38
1020.58	1073.38
1020.795	1119.38
1021.011	1055.38
1021.226	1065.38
1021.441	1079.38
1021.656	998.38
1021.871	969.38
1022.086	955.38
1022.301	948.38
1022.516	961.38
1022.731	1031.38
1022.946	932.38
1023.16	930.38
1023.375	892.38
1023.59	883.38
1023.804	856.38
1024.019	934.38
1024.234	845.38
1024.448	885.38
1024.663	834.38
1024.877	843.38
1025.092	843.38
1025.306	867.38
1025.52	771.38
1025.734	869.38
1025.949	790.38
1026.163	775.38
1026.377	718.38
1026.591	751.38
1026.805	706.38
1027.019	700.38
1027.233	661.38
1027.447	608.38
1027.661	706.38
1027.875	650.38
1028.088	642.38
1028.302	610.38
1028.516	593.38
1028.73	592.38
1028.943	597.38
1029.157	547.38
1029.37	506.38
1029.584	-2.62
1029.797	-4.62
1030.011	4.38
1030.224	-0.62
