Data from QEP037381__52__10-04-19-928.txt Node

Date: Wed Dec 21 10:04:19 EST 2022
User: dcclab
Spectrometer: QEP03738
Trigger mode: 4
Integration Time (sec): 1.000000E1
Scans to average: 1
Electric dark correction enabled: true
Nonlinearity correction enabled: false
Boxcar width: 0
XAxis mode: Wavelengths
Number of Pixels in Spectrum: 1044
>>>>>Begin Spectral Data<<<<<
784.041	13.38
784.3	-1.62
784.558	1.38
784.817	-3.62
785.075	113507.38
785.334	19292.38
785.592	8896.38
785.851	6081.38
786.109	4547.38
786.368	3542.38
786.626	2835.38
786.884	2379.38
787.143	1968.38
787.401	1628.38
787.659	1446.38
787.917	1239.38
788.175	1129.38
788.433	976.38
788.691	899.38
788.949	826.38
789.207	792.38
789.465	674.38
789.723	657.38
789.98	602.38
790.238	628.38
790.496	582.38
790.753	557.38
791.011	608.38
791.268	528.38
791.526	536.38
791.783	534.38
792.041	510.38
792.298	439.38
792.556	485.38
792.813	469.38
793.07	455.38
793.327	435.38
793.584	515.38
793.841	442.38
794.099	456.38
794.356	492.38
794.613	410.38
794.869	451.38
795.126	413.38
795.383	385.38
795.64	415.38
795.897	373.38
796.153	433.38
796.41	408.38
796.667	375.38
796.923	389.38
797.18	402.38
797.436	425.38
797.693	387.38
797.949	431.38
798.206	447.38
798.462	370.38
798.718	415.38
798.974	391.38
799.231	433.38
799.487	426.38
799.743	426.38
799.999	440.38
800.255	432.38
800.511	418.38
800.767	456.38
801.023	427.38
801.279	431.38
801.534	463.38
801.79	487.38
802.046	486.38
802.302	557.38
802.557	586.38
802.813	686.38
803.068	747.38
803.324	985.38
803.579	1253.38
803.835	1659.38
804.09	2200.38
804.345	2799.38
804.601	3511.38
804.856	4238.38
805.111	4837.38
805.366	5397.38
805.621	5662.38
805.876	5918.38
806.131	6060.38
806.386	6098.38
806.641	6157.38
806.896	6280.38
807.151	6425.38
807.406	6453.38
807.661	6601.38
807.915	6665.38
808.17	6797.38
808.425	6815.38
808.679	6857.38
808.934	6975.38
809.188	6942.38
809.443	7067.38
809.697	7125.38
809.951	7141.38
810.206	7161.38
810.46	7213.38
810.714	7284.38
810.968	7374.38
811.223	7326.38
811.477	7465.38
811.731	7447.38
811.985	7490.38
812.239	7451.38
812.493	7542.38
812.747	7584.38
813	7502.38
813.254	7564.38
813.508	7669.38
813.762	7684.38
814.015	7722.38
814.269	7717.38
814.522	7861.38
814.776	7869.38
815.03	7988.38
815.283	8078.38
815.536	8258.38
815.79	8255.38
816.043	8410.38
816.296	8451.38
816.55	8566.38
816.803	8658.38
817.056	8814.38
817.309	8841.38
817.562	8901.38
817.815	8984.38
818.068	8917.38
818.321	9021.38
818.574	9090.38
818.827	9285.38
819.079	9357.38
819.332	9575.38
819.585	9620.38
819.838	9775.38
820.09	9751.38
820.343	9880.38
820.595	9817.38
820.848	9936.38
821.1	10001.38
821.353	9912.38
821.605	9924.38
821.857	10022.38
822.11	9830.38
822.362	9977.38
822.614	9881.38
822.866	9942.38
823.118	9915.38
823.37	10058.38
823.622	9930.38
823.874	10038.38
824.126	10045.38
824.378	10067.38
824.63	10063.38
824.882	10115.38
825.134	10084.38
825.385	10071.38
825.637	9983.38
825.888	9950.38
826.14	9988.38
826.392	9909.38
826.643	9754.38
826.895	9888.38
827.146	9751.38
827.397	9719.38
827.649	9858.38
827.9	9676.38
828.151	9717.38
828.402	9729.38
828.653	9839.38
828.905	9761.38
829.156	9803.38
829.407	9752.38
829.658	9795.38
829.909	9879.38
830.159	9836.38
830.41	9762.38
830.661	9780.38
830.912	9506.38
831.162	9649.38
831.413	9521.38
831.664	9675.38
831.914	9635.38
832.165	9551.38
832.415	9610.38
832.666	9606.38
832.916	9597.38
833.167	9542.38
833.417	9606.38
833.667	9570.38
833.917	9552.38
834.168	9566.38
834.418	9540.38
834.668	9499.38
834.918	9478.38
835.168	9417.38
835.418	9364.38
835.668	9413.38
835.918	9340.38
836.167	9286.38
836.417	9209.38
836.667	9317.38
836.917	9236.38
837.166	9240.38
837.416	9303.38
837.666	9247.38
837.915	9211.38
838.165	9230.38
838.414	9115.38
838.663	9057.38
838.913	9094.38
839.162	9040.38
839.411	9088.38
839.661	9029.38
839.91	9057.38
840.159	9019.38
840.408	9052.38
840.657	9016.38
840.906	9015.38
841.155	8983.38
841.404	8963.38
841.653	9052.38
841.902	8943.38
842.15	9051.38
842.399	9005.38
842.648	9050.38
842.897	8953.38
843.145	8874.38
843.394	8820.38
843.642	8762.38
843.891	8876.38
844.139	8715.38
844.388	8650.38
844.636	8663.38
844.884	8672.38
845.133	8624.38
845.381	8581.38
845.629	8633.38
845.877	8589.38
846.125	8592.38
846.373	8573.38
846.621	8525.38
846.869	8651.38
847.117	8488.38
847.365	8453.38
847.613	8486.38
847.861	8390.38
848.108	8472.38
848.356	8391.38
848.604	8344.38
848.851	8347.38
849.099	8400.38
849.346	8417.38
849.594	8463.38
849.841	8458.38
850.089	8524.38
850.336	8444.38
850.583	8480.38
850.831	8416.38
851.078	8369.38
851.325	8358.38
851.572	8349.38
851.819	8333.38
852.066	8178.38
852.313	8102.38
852.56	7982.38
852.807	7999.38
853.054	7979.38
853.301	7958.38
853.548	7936.38
853.794	8042.38
854.041	8084.38
854.288	8024.38
854.534	8239.38
854.781	8110.38
855.028	8047.38
855.274	8114.38
855.52	7996.38
855.767	7903.38
856.013	8001.38
856.26	8223.38
856.506	7903.38
856.752	7910.38
856.998	7873.38
857.244	7896.38
857.49	8002.38
857.736	8002.38
857.982	7962.38
858.228	7921.38
858.474	7872.38
858.72	7810.38
858.966	7772.38
859.212	7733.38
859.458	7631.38
859.703	7582.38
859.949	7501.38
860.195	7494.38
860.44	7411.38
860.686	7312.38
860.931	7381.38
861.177	7276.38
861.422	7341.38
861.667	7291.38
861.913	7256.38
862.158	7320.38
862.403	7373.38
862.648	7381.38
862.893	7395.38
863.138	7270.38
863.384	7299.38
863.629	7334.38
863.873	7221.38
864.118	7192.38
864.363	7142.38
864.608	7222.38
864.853	7260.38
865.098	7095.38
865.342	7070.38
865.587	7031.38
865.832	7117.38
866.076	7100.38
866.321	7035.38
866.565	7038.38
866.81	6931.38
867.054	6953.38
867.298	7017.38
867.543	6846.38
867.787	6960.38
868.031	6949.38
868.275	6904.38
868.519	6859.38
868.764	6874.38
869.008	6864.38
869.252	6832.38
869.496	6832.38
869.739	6785.38
869.983	6843.38
870.227	6826.38
870.471	6743.38
870.715	6841.38
870.958	6859.38
871.202	6744.38
871.446	6791.38
871.689	6804.38
871.933	6794.38
872.176	6845.38
872.42	6819.38
872.663	6782.38
872.906	6823.38
873.15	6735.38
873.393	6701.38
873.636	6769.38
873.879	6649.38
874.122	6617.38
874.366	6528.38
874.609	6540.38
874.852	6465.38
875.095	6429.38
875.337	6428.38
875.58	6336.38
875.823	6340.38
876.066	6334.38
876.309	6372.38
876.551	6275.38
876.794	6209.38
877.037	6232.38
877.279	6140.38
877.522	6216.38
877.764	6235.38
878.007	6237.38
878.249	6190.38
878.491	6150.38
878.734	6232.38
878.976	6153.38
879.218	6101.38
879.46	6077.38
879.702	6075.38
879.945	6020.38
880.187	5904.38
880.429	5916.38
880.671	5939.38
880.912	5848.38
881.154	5820.38
881.396	5814.38
881.638	5827.38
881.88	5825.38
882.121	5844.38
882.363	5770.38
882.605	5813.38
882.846	5815.38
883.088	5806.38
883.329	5732.38
883.571	5705.38
883.812	5732.38
884.053	5823.38
884.295	5985.38
884.536	6082.38
884.777	5985.38
885.018	5969.38
885.259	5985.38
885.5	5867.38
885.742	6123.38
885.982	5879.38
886.223	5771.38
886.464	5758.38
886.705	5719.38
886.946	5665.38
887.187	5588.38
887.428	5579.38
887.668	5492.38
887.909	5405.38
888.15	5374.38
888.39	5372.38
888.631	5342.38
888.871	5276.38
889.111	5220.38
889.352	5236.38
889.592	5165.38
889.833	5106.38
890.073	5157.38
890.313	5163.38
890.553	5040.38
890.793	5013.38
891.033	5009.38
891.273	4976.38
891.513	4982.38
891.753	5000.38
891.993	4965.38
892.233	5002.38
892.473	5034.38
892.713	4958.38
892.952	4912.38
893.192	4960.38
893.432	4919.38
893.671	5008.38
893.911	4885.38
894.15	4837.38
894.39	4833.38
894.629	4823.38
894.869	4822.38
895.108	4778.38
895.347	4665.38
895.587	4765.38
895.826	4642.38
896.065	4714.38
896.304	4752.38
896.543	4729.38
896.782	4677.38
897.021	4687.38
897.26	4661.38
897.499	4678.38
897.738	4678.38
897.977	4609.38
898.216	4531.38
898.454	4523.38
898.693	4461.38
898.932	4545.38
899.17	4460.38
899.409	4437.38
899.647	4453.38
899.886	4382.38
900.124	4430.38
900.363	4390.38
900.601	4458.38
900.839	4423.38
901.078	4399.38
901.316	4457.38
901.554	4434.38
901.792	4472.38
902.03	4421.38
902.268	4458.38
902.506	4465.38
902.744	4365.38
902.982	4450.38
903.22	4279.38
903.458	4286.38
903.695	4287.38
903.933	4233.38
904.171	4149.38
904.409	4086.38
904.646	4109.38
904.884	3992.38
905.121	4083.38
905.359	3984.38
905.596	3974.38
905.833	3863.38
906.071	3856.38
906.308	3911.38
906.545	3872.38
906.783	3806.38
907.02	3844.38
907.257	3797.38
907.494	3804.38
907.731	3789.38
907.968	3833.38
908.205	3773.38
908.442	3764.38
908.679	3772.38
908.915	3693.38
909.152	3695.38
909.389	3633.38
909.626	3641.38
909.862	3558.38
910.099	3622.38
910.335	3604.38
910.572	3494.38
910.808	3562.38
911.045	3569.38
911.281	3498.38
911.518	3531.38
911.754	3493.38
911.99	3498.38
912.226	3460.38
912.463	3442.38
912.699	3407.38
912.935	3350.38
913.171	3367.38
913.407	3291.38
913.643	3372.38
913.879	3312.38
914.114	3256.38
914.35	3251.38
914.586	3193.38
914.822	3143.38
915.057	3241.38
915.293	3137.38
915.529	3088.38
915.764	3188.38
916	3139.38
916.235	3147.38
916.471	3156.38
916.706	3093.38
916.941	3116.38
917.177	3079.38
917.412	3104.38
917.647	3110.38
917.882	3051.38
918.117	3075.38
918.352	3077.38
918.588	3123.38
918.823	3031.38
919.057	3000.38
919.292	2925.38
919.527	3011.38
919.762	2879.38
919.997	2927.38
920.232	2847.38
920.466	2898.38
920.701	2776.38
920.935	2831.38
921.17	2810.38
921.405	2791.38
921.639	2830.38
921.873	2774.38
922.108	2776.38
922.342	2783.38
922.576	2698.38
922.811	2700.38
923.045	2804.38
923.279	2792.38
923.513	2632.38
923.747	2708.38
923.981	2684.38
924.215	2644.38
924.449	2622.38
924.683	2580.38
924.917	2572.38
925.151	2593.38
925.385	2664.38
925.618	2608.38
925.852	2631.38
926.086	2528.38
926.319	2617.38
926.553	2543.38
926.786	2578.38
927.02	2560.38
927.253	2593.38
927.486	2608.38
927.72	2514.38
927.953	2569.38
928.186	2527.38
928.42	2574.38
928.653	2500.38
928.886	2490.38
929.119	2490.38
929.352	2489.38
929.585	2513.38
929.818	2419.38
930.051	2477.38
930.284	2469.38
930.516	2369.38
930.749	2382.38
930.982	2417.38
931.215	2407.38
931.447	2323.38
931.68	2356.38
931.912	2344.38
932.145	2344.38
932.377	2346.38
932.61	2470.38
932.842	2289.38
933.074	2350.38
933.307	2304.38
933.539	2412.38
933.771	2364.38
934.003	2317.38
934.236	2411.38
934.468	2384.38
934.7	2294.38
934.932	2370.38
935.164	2289.38
935.395	2292.38
935.627	2315.38
935.859	2309.38
936.091	2242.38
936.323	2303.38
936.554	2327.38
936.786	2273.38
937.017	2192.38
937.249	2243.38
937.481	2173.38
937.712	2258.38
937.943	2219.38
938.175	2198.38
938.406	2232.38
938.637	2307.38
938.869	2203.38
939.1	2235.38
939.331	2176.38
939.562	2258.38
939.793	2174.38
940.024	2219.38
940.255	2215.38
940.486	2195.38
940.717	2159.38
940.948	2159.38
941.179	2094.38
941.409	2150.38
941.64	2138.38
941.871	2129.38
942.102	2093.38
942.332	2113.38
942.563	2206.38
942.793	2134.38
943.024	2124.38
943.254	2105.38
943.484	2135.38
943.715	2168.38
943.945	2119.38
944.175	2086.38
944.405	2056.38
944.636	2067.38
944.866	2114.38
945.096	2117.38
945.326	2044.38
945.556	2115.38
945.786	2145.38
946.016	2077.38
946.245	2029.38
946.475	2010.38
946.705	2013.38
946.935	2033.38
947.164	2025.38
947.394	1976.38
947.624	2024.38
947.853	2048.38
948.083	2013.38
948.312	1990.38
948.542	1927.38
948.771	1926.38
949	1945.38
949.23	1926.38
949.459	1920.38
949.688	2022.38
949.917	1962.38
950.146	1998.38
950.375	2041.38
950.604	1889.38
950.833	1983.38
951.062	1995.38
951.291	1936.38
951.52	1903.38
951.749	1922.38
951.978	1876.38
952.206	1935.38
952.435	1905.38
952.664	1937.38
952.892	1955.38
953.121	1894.38
953.349	1949.38
953.578	1905.38
953.806	1903.38
954.035	1847.38
954.263	1885.38
954.491	1834.38
954.719	1868.38
954.948	1822.38
955.176	1818.38
955.404	1780.38
955.632	1824.38
955.86	1818.38
956.088	1849.38
956.316	1839.38
956.544	1850.38
956.772	1780.38
956.999	1775.38
957.227	1879.38
957.455	1753.38
957.683	1787.38
957.91	1748.38
958.138	1722.38
958.365	1731.38
958.593	1744.38
958.82	1684.38
959.048	1756.38
959.275	1724.38
959.502	1700.38
959.73	1702.38
959.957	1720.38
960.184	1746.38
960.411	1685.38
960.638	1771.38
960.865	1726.38
961.092	1736.38
961.319	1648.38
961.546	1749.38
961.773	1728.38
962	1670.38
962.227	1748.38
962.454	1709.38
962.68	1673.38
962.907	1696.38
963.134	1638.38
963.36	1678.38
963.587	1704.38
963.813	1605.38
964.04	1684.38
964.266	1616.38
964.493	1711.38
964.719	1689.38
964.945	1678.38
965.171	1581.38
965.398	1654.38
965.624	1662.38
965.85	1614.38
966.076	1590.38
966.302	1617.38
966.528	1553.38
966.754	1634.38
966.98	1612.38
967.206	1597.38
967.431	1523.38
967.657	1615.38
967.883	1590.38
968.109	1590.38
968.334	1526.38
968.56	1501.38
968.785	1557.38
969.011	1512.38
969.236	1577.38
969.462	1517.38
969.687	1533.38
969.912	1579.38
970.138	1570.38
970.363	1470.38
970.588	1531.38
970.813	1513.38
971.038	1491.38
971.263	1539.38
971.488	1516.38
971.713	1535.38
971.938	1539.38
972.163	1419.38
972.388	1493.38
972.613	1466.38
972.838	1486.38
973.062	1483.38
973.287	1484.38
973.512	1391.38
973.736	1467.38
973.961	1454.38
974.185	1419.38
974.41	1452.38
974.634	1392.38
974.858	1382.38
975.083	1429.38
975.307	1439.38
975.531	1371.38
975.755	1350.38
975.98	1376.38
976.204	1302.38
976.428	1321.38
976.652	1338.38
976.876	1319.38
977.1	1344.38
977.324	1316.38
977.547	1365.38
977.771	1362.38
977.995	1342.38
978.219	1269.38
978.442	1407.38
978.666	1343.38
978.89	1330.38
979.113	1336.38
979.337	1321.38
979.56	1281.38
979.783	1382.38
980.007	1260.38
980.23	1315.38
980.453	1268.38
980.677	1293.38
980.9	1293.38
981.123	1216.38
981.346	1328.38
981.569	1303.38
981.792	1308.38
982.015	1252.38
982.238	1228.38
982.461	1265.38
982.684	1232.38
982.907	1234.38
983.129	1237.38
983.352	1287.38
983.575	1249.38
983.797	1280.38
984.02	1201.38
984.242	1221.38
984.465	1226.38
984.687	1233.38
984.91	1279.38
985.132	1236.38
985.354	1265.38
985.577	1225.38
985.799	1237.38
986.021	1155.38
986.243	1194.38
986.465	1177.38
986.687	1256.38
986.909	1276.38
987.131	1220.38
987.353	1175.38
987.575	1208.38
987.797	1188.38
988.019	1118.38
988.241	1175.38
988.462	1139.38
988.684	1225.38
988.906	1239.38
989.127	1258.38
989.349	1134.38
989.57	1166.38
989.792	1221.38
990.013	1228.38
990.234	1205.38
990.456	1239.38
990.677	1216.38
990.898	1171.38
991.119	1167.38
991.341	1201.38
991.562	1135.38
991.783	1195.38
992.004	1137.38
992.225	1124.38
992.446	1156.38
992.667	1096.38
992.887	1176.38
993.108	1049.38
993.329	1170.38
993.55	1155.38
993.77	1098.38
993.991	1090.38
994.212	1138.38
994.432	1122.38
994.653	1148.38
994.873	1128.38
995.093	1019.38
995.314	1079.38
995.534	1168.38
995.754	1157.38
995.975	1163.38
996.195	1053.38
996.415	1105.38
996.635	1089.38
996.855	1132.38
997.075	1096.38
997.295	1085.38
997.515	1068.38
997.735	1152.38
997.955	1080.38
998.174	1073.38
998.394	1067.38
998.614	1107.38
998.834	1072.38
999.053	1127.38
999.273	1112.38
999.492	1153.38
999.712	1091.38
999.931	1057.38
1000.151	1113.38
1000.37	1110.38
1000.589	1143.38
1000.809	1061.38
1001.028	1186.38
1001.247	1130.38
1001.466	1040.38
1001.685	1194.38
1001.904	1109.38
1002.123	1107.38
1002.342	1101.38
1002.561	1058.38
1002.78	1089.38
1002.999	1161.38
1003.218	1097.38
1003.436	1109.38
1003.655	1140.38
1003.874	1085.38
1004.092	1100.38
1004.311	1139.38
1004.53	1118.38
1004.748	1179.38
1004.966	1105.38
1005.185	1148.38
1005.403	1137.38
1005.622	1112.38
1005.84	1190.38
1006.058	1109.38
1006.276	1113.38
1006.494	1621.38
1006.712	1127.38
1006.931	1177.38
1007.149	1074.38
1007.367	1080.38
1007.584	1123.38
1007.802	1113.38
1008.02	1076.38
1008.238	1190.38
1008.456	1180.38
1008.673	1048.38
1008.891	1134.38
1009.109	1096.38
1009.326	1123.38
1009.544	1235.38
1009.761	1106.38
1009.979	1181.38
1010.196	1177.38
1010.413	1263.38
1010.631	1290.38
1010.848	1294.38
1011.065	1279.38
1011.282	1213.38
1011.5	1179.38
1011.717	1264.38
1011.934	1227.38
1012.151	1274.38
1012.368	1262.38
1012.585	1158.38
1012.801	1225.38
1013.018	1198.38
1013.235	1168.38
1013.452	1185.38
1013.669	1193.38
1013.885	1300.38
1014.102	1272.38
1014.318	1186.38
1014.535	1129.38
1014.751	1164.38
1014.968	1168.38
1015.184	1216.38
1015.401	1120.38
1015.617	1289.38
1015.833	1144.38
1016.049	1112.38
1016.266	1087.38
1016.482	1093.38
1016.698	1035.38
1016.914	1071.38
1017.13	1048.38
1017.346	1069.38
1017.562	1107.38
1017.778	1039.38
1017.993	1033.38
1018.209	1071.38
1018.425	1049.38
1018.641	1007.38
1018.856	991.38
1019.072	1024.38
1019.288	1068.38
1019.503	1029.38
1019.719	943.38
1019.934	981.38
1020.149	1036.38
1020.365	978.38
1020.58	935.38
1020.795	984.38
1021.011	930.38
1021.226	938.38
1021.441	950.38
1021.656	879.38
1021.871	833.38
1022.086	848.38
1022.301	850.38
1022.516	829.38
1022.731	894.38
1022.946	815.38
1023.16	805.38
1023.375	790.38
1023.59	772.38
1023.804	754.38
1024.019	856.38
1024.234	713.38
1024.448	764.38
1024.663	706.38
1024.877	734.38
1025.092	740.38
1025.306	761.38
1025.52	674.38
1025.734	766.38
1025.949	690.38
1026.163	673.38
1026.377	607.38
1026.591	667.38
1026.805	601.38
1027.019	598.38
1027.233	578.38
1027.447	521.38
1027.661	623.38
1027.875	577.38
1028.088	575.38
1028.302	502.38
1028.516	503.38
1028.73	522.38
1028.943	517.38
1029.157	480.38
1029.37	463.38
1029.584	0.38
1029.797	-3.62
1030.011	-0.62
1030.224	-5.62
