Data from QEP037381__69__10-07-09-928.txt Node

Date: Wed Dec 21 10:07:09 EST 2022
User: dcclab
Spectrometer: QEP03738
Trigger mode: 4
Integration Time (sec): 1.000000E1
Scans to average: 1
Electric dark correction enabled: true
Nonlinearity correction enabled: false
Boxcar width: 0
XAxis mode: Wavelengths
Number of Pixels in Spectrum: 1044
>>>>>Begin Spectral Data<<<<<
784.041	11.62
784.3	0.62
784.558	-4.38
784.817	-6.38
785.075	108894.62
785.334	18569.62
785.592	8553.62
785.851	5946.62
786.109	4468.62
786.368	3400.62
786.626	2788.62
786.884	2272.62
787.143	1926.62
787.401	1573.62
787.659	1434.62
787.917	1216.62
788.175	1118.62
788.433	972.62
788.691	875.62
788.949	821.62
789.207	776.62
789.465	689.62
789.723	647.62
789.98	580.62
790.238	606.62
790.496	582.62
790.753	561.62
791.011	593.62
791.268	532.62
791.526	514.62
791.783	521.62
792.041	515.62
792.298	445.62
792.556	487.62
792.813	463.62
793.07	454.62
793.327	422.62
793.584	510.62
793.841	443.62
794.099	448.62
794.356	502.62
794.613	416.62
794.869	434.62
795.126	409.62
795.383	391.62
795.64	414.62
795.897	369.62
796.153	408.62
796.41	404.62
796.667	386.62
796.923	395.62
797.18	392.62
797.436	423.62
797.693	373.62
797.949	418.62
798.206	455.62
798.462	373.62
798.718	430.62
798.974	395.62
799.231	430.62
799.487	420.62
799.743	417.62
799.999	440.62
800.255	425.62
800.511	389.62
800.767	452.62
801.023	432.62
801.279	427.62
801.534	471.62
801.79	479.62
802.046	470.62
802.302	550.62
802.557	583.62
802.813	695.62
803.068	739.62
803.324	975.62
803.579	1226.62
803.835	1610.62
804.09	2182.62
804.345	2782.62
804.601	3454.62
804.856	4239.62
805.111	4850.62
805.366	5316.62
805.621	5638.62
805.876	5879.62
806.131	6044.62
806.386	6027.62
806.641	6134.62
806.896	6289.62
807.151	6433.62
807.406	6443.62
807.661	6571.62
807.915	6633.62
808.17	6734.62
808.425	6779.62
808.679	6791.62
808.934	6939.62
809.188	6897.62
809.443	6960.62
809.697	7109.62
809.951	7137.62
810.206	7146.62
810.46	7230.62
810.714	7286.62
810.968	7322.62
811.223	7404.62
811.477	7403.62
811.731	7437.62
811.985	7481.62
812.239	7505.62
812.493	7472.62
812.747	7575.62
813	7500.62
813.254	7571.62
813.508	7641.62
813.762	7578.62
814.015	7613.62
814.269	7694.62
814.522	7847.62
814.776	7877.62
815.03	7994.62
815.283	8018.62
815.536	8129.62
815.79	8247.62
816.043	8388.62
816.296	8410.62
816.55	8514.62
816.803	8648.62
817.056	8771.62
817.309	8774.62
817.562	8814.62
817.815	8948.62
818.068	8957.62
818.321	9016.62
818.574	9116.62
818.827	9187.62
819.079	9368.62
819.332	9520.62
819.585	9624.62
819.838	9713.62
820.09	9741.62
820.343	9858.62
820.595	9873.62
820.848	9904.62
821.1	9904.62
821.353	9874.62
821.605	10019.62
821.857	10011.62
822.11	9850.62
822.362	9895.62
822.614	9904.62
822.866	9938.62
823.118	9831.62
823.37	9975.62
823.622	9982.62
823.874	10001.62
824.126	10097.62
824.378	9987.62
824.63	10110.62
824.882	10072.62
825.134	10154.62
825.385	10044.62
825.637	9937.62
825.888	9981.62
826.14	9969.62
826.392	9862.62
826.643	9740.62
826.895	9805.62
827.146	9803.62
827.397	9709.62
827.649	9798.62
827.9	9719.62
828.151	9739.62
828.402	9724.62
828.653	9757.62
828.905	9796.62
829.156	9861.62
829.407	9744.62
829.658	9774.62
829.909	9818.62
830.159	9835.62
830.41	9831.62
830.661	9697.62
830.912	9606.62
831.162	9555.62
831.413	9596.62
831.664	9647.62
831.914	9598.62
832.165	9534.62
832.415	9550.62
832.666	9647.62
832.916	9703.62
833.167	9641.62
833.417	9549.62
833.667	9539.62
833.917	9494.62
834.168	9559.62
834.418	9522.62
834.668	9498.62
834.918	9387.62
835.168	9422.62
835.418	9318.62
835.668	9362.62
835.918	9335.62
836.167	9346.62
836.417	9219.62
836.667	9250.62
836.917	9291.62
837.166	9240.62
837.416	9317.62
837.666	9258.62
837.915	9171.62
838.165	9179.62
838.414	9092.62
838.663	9031.62
838.913	9141.62
839.162	9070.62
839.411	9082.62
839.661	9000.62
839.91	9003.62
840.159	9003.62
840.408	9061.62
840.657	9023.62
840.906	9053.62
841.155	9070.62
841.404	9048.62
841.653	8958.62
841.902	8967.62
842.15	9050.62
842.399	9074.62
842.648	9026.62
842.897	9050.62
843.145	8817.62
843.394	8810.62
843.642	8796.62
843.891	8819.62
844.139	8771.62
844.388	8661.62
844.636	8620.62
844.884	8657.62
845.133	8653.62
845.381	8657.62
845.629	8638.62
845.877	8623.62
846.125	8610.62
846.373	8628.62
846.621	8523.62
846.869	8592.62
847.117	8473.62
847.365	8400.62
847.613	8419.62
847.861	8417.62
848.108	8444.62
848.356	8424.62
848.604	8347.62
848.851	8416.62
849.099	8447.62
849.346	8366.62
849.594	8469.62
849.841	8449.62
850.089	8451.62
850.336	8471.62
850.583	8493.62
850.831	8425.62
851.078	8392.62
851.325	8332.62
851.572	8411.62
851.819	8305.62
852.066	8174.62
852.313	8013.62
852.56	8037.62
852.807	7980.62
853.054	7869.62
853.301	7963.62
853.548	7998.62
853.794	8048.62
854.041	8066.62
854.288	8068.62
854.534	8197.62
854.781	8148.62
855.028	8092.62
855.274	8114.62
855.52	8021.62
855.767	7999.62
856.013	7961.62
856.26	8277.62
856.506	7896.62
856.752	7922.62
856.998	7863.62
857.244	7900.62
857.49	7931.62
857.736	7980.62
857.982	8007.62
858.228	8007.62
858.474	7853.62
858.72	7843.62
858.966	7774.62
859.212	7754.62
859.458	7676.62
859.703	7614.62
859.949	7453.62
860.195	7496.62
860.44	7434.62
860.686	7405.62
860.931	7385.62
861.177	7315.62
861.422	7378.62
861.667	7302.62
861.913	7260.62
862.158	7310.62
862.403	7374.62
862.648	7313.62
862.893	7326.62
863.138	7351.62
863.384	7340.62
863.629	7304.62
863.873	7293.62
864.118	7258.62
864.363	7167.62
864.608	7243.62
864.853	7220.62
865.098	7146.62
865.342	7096.62
865.587	7095.62
865.832	7107.62
866.076	7097.62
866.321	6967.62
866.565	6966.62
866.81	6886.62
867.054	6957.62
867.298	6980.62
867.543	6859.62
867.787	6975.62
868.031	6906.62
868.275	6916.62
868.519	6869.62
868.764	6897.62
869.008	6893.62
869.252	6900.62
869.496	6805.62
869.739	6810.62
869.983	6852.62
870.227	6859.62
870.471	6758.62
870.715	6901.62
870.958	6843.62
871.202	6817.62
871.446	6835.62
871.689	6818.62
871.933	6835.62
872.176	6874.62
872.42	6887.62
872.663	6836.62
872.906	6789.62
873.15	6800.62
873.393	6723.62
873.636	6774.62
873.879	6695.62
874.122	6654.62
874.366	6536.62
874.609	6515.62
874.852	6434.62
875.095	6432.62
875.337	6411.62
875.58	6293.62
875.823	6355.62
876.066	6399.62
876.309	6389.62
876.551	6220.62
876.794	6239.62
877.037	6242.62
877.279	6133.62
877.522	6180.62
877.764	6237.62
878.007	6118.62
878.249	6227.62
878.491	6198.62
878.734	6257.62
878.976	6179.62
879.218	6124.62
879.46	6114.62
879.702	6045.62
879.945	5956.62
880.187	5944.62
880.429	5969.62
880.671	5904.62
880.912	5869.62
881.154	5837.62
881.396	5747.62
881.638	5817.62
881.88	5827.62
882.121	5769.62
882.363	5751.62
882.605	5794.62
882.846	5833.62
883.088	5822.62
883.329	5701.62
883.571	5720.62
883.812	5783.62
884.053	5868.62
884.295	5990.62
884.536	6138.62
884.777	6017.62
885.018	6069.62
885.259	6013.62
885.5	5928.62
885.742	6158.62
885.982	5937.62
886.223	5847.62
886.464	5769.62
886.705	5765.62
886.946	5699.62
887.187	5616.62
887.428	5633.62
887.668	5481.62
887.909	5414.62
888.15	5373.62
888.39	5346.62
888.631	5381.62
888.871	5271.62
889.111	5300.62
889.352	5214.62
889.592	5130.62
889.833	5159.62
890.073	5139.62
890.313	5135.62
890.553	5027.62
890.793	4996.62
891.033	4992.62
891.273	4962.62
891.513	4937.62
891.753	5029.62
891.993	4978.62
892.233	4986.62
892.473	5038.62
892.713	4985.62
892.952	4878.62
893.192	5029.62
893.432	4900.62
893.671	4939.62
893.911	4885.62
894.15	4881.62
894.39	4831.62
894.629	4770.62
894.869	4865.62
895.108	4772.62
895.347	4684.62
895.587	4729.62
895.826	4717.62
896.065	4644.62
896.304	4693.62
896.543	4748.62
896.782	4545.62
897.021	4656.62
897.26	4656.62
897.499	4720.62
897.738	4636.62
897.977	4614.62
898.216	4554.62
898.454	4538.62
898.693	4464.62
898.932	4528.62
899.17	4445.62
899.409	4437.62
899.647	4451.62
899.886	4426.62
900.124	4436.62
900.363	4400.62
900.601	4448.62
900.839	4478.62
901.078	4463.62
901.316	4424.62
901.554	4422.62
901.792	4486.62
902.03	4455.62
902.268	4411.62
902.506	4487.62
902.744	4447.62
902.982	4407.62
903.22	4364.62
903.458	4291.62
903.695	4287.62
903.933	4260.62
904.171	4152.62
904.409	4095.62
904.646	4064.62
904.884	3997.62
905.121	4062.62
905.359	3980.62
905.596	3965.62
905.833	3890.62
906.071	3837.62
906.308	3897.62
906.545	3899.62
906.783	3818.62
907.02	3874.62
907.257	3776.62
907.494	3751.62
907.731	3837.62
907.968	3843.62
908.205	3772.62
908.442	3731.62
908.679	3705.62
908.915	3730.62
909.152	3691.62
909.389	3603.62
909.626	3609.62
909.862	3549.62
910.099	3605.62
910.335	3610.62
910.572	3483.62
910.808	3515.62
911.045	3562.62
911.281	3537.62
911.518	3568.62
911.754	3469.62
911.99	3493.62
912.226	3455.62
912.463	3361.62
912.699	3415.62
912.935	3426.62
913.171	3377.62
913.407	3296.62
913.643	3376.62
913.879	3296.62
914.114	3257.62
914.35	3216.62
914.586	3196.62
914.822	3177.62
915.057	3270.62
915.293	3080.62
915.529	3111.62
915.764	3157.62
916	3137.62
916.235	3139.62
916.471	3107.62
916.706	3049.62
916.941	3112.62
917.177	3099.62
917.412	3101.62
917.647	3069.62
917.882	3076.62
918.117	3050.62
918.352	3076.62
918.588	3142.62
918.823	3026.62
919.057	3008.62
919.292	2925.62
919.527	3025.62
919.762	2901.62
919.997	2990.62
920.232	2866.62
920.466	2911.62
920.701	2775.62
920.935	2801.62
921.17	2802.62
921.405	2738.62
921.639	2817.62
921.873	2739.62
922.108	2784.62
922.342	2779.62
922.576	2703.62
922.811	2737.62
923.045	2720.62
923.279	2809.62
923.513	2615.62
923.747	2732.62
923.981	2702.62
924.215	2659.62
924.449	2661.62
924.683	2585.62
924.917	2617.62
925.151	2581.62
925.385	2665.62
925.618	2596.62
925.852	2634.62
926.086	2568.62
926.319	2583.62
926.553	2569.62
926.786	2584.62
927.02	2571.62
927.253	2639.62
927.486	2587.62
927.72	2552.62
927.953	2583.62
928.186	2476.62
928.42	2591.62
928.653	2516.62
928.886	2477.62
929.119	2532.62
929.352	2476.62
929.585	2493.62
929.818	2423.62
930.051	2448.62
930.284	2456.62
930.516	2371.62
930.749	2395.62
930.982	2387.62
931.215	2414.62
931.447	2339.62
931.68	2330.62
931.912	2319.62
932.145	2357.62
932.377	2384.62
932.61	2469.62
932.842	2259.62
933.074	2357.62
933.307	2309.62
933.539	2361.62
933.771	2357.62
934.003	2325.62
934.236	2354.62
934.468	2414.62
934.7	2330.62
934.932	2374.62
935.164	2305.62
935.395	2261.62
935.627	2319.62
935.859	2312.62
936.091	2253.62
936.323	2305.62
936.554	2337.62
936.786	2266.62
937.017	2217.62
937.249	2279.62
937.481	2188.62
937.712	2290.62
937.943	2235.62
938.175	2184.62
938.406	2245.62
938.637	2257.62
938.869	2179.62
939.1	2269.62
939.331	2180.62
939.562	2224.62
939.793	2206.62
940.024	2216.62
940.255	2253.62
940.486	2159.62
940.717	2189.62
940.948	2170.62
941.179	2115.62
941.409	2118.62
941.64	2138.62
941.871	2157.62
942.102	2129.62
942.332	2120.62
942.563	2194.62
942.793	2138.62
943.024	2085.62
943.254	2115.62
943.484	2170.62
943.715	2180.62
943.945	2127.62
944.175	2049.62
944.405	2069.62
944.636	2085.62
944.866	2124.62
945.096	2178.62
945.326	2041.62
945.556	2119.62
945.786	2107.62
946.016	2101.62
946.245	1998.62
946.475	2029.62
946.705	2015.62
946.935	2026.62
947.164	2013.62
947.394	1999.62
947.624	2018.62
947.853	2049.62
948.083	1972.62
948.312	1980.62
948.542	1951.62
948.771	1924.62
949	1946.62
949.23	1950.62
949.459	1936.62
949.688	2054.62
949.917	1975.62
950.146	2001.62
950.375	2028.62
950.604	1926.62
950.833	2037.62
951.062	2011.62
951.291	1947.62
951.52	1928.62
951.749	1952.62
951.978	1891.62
952.206	1925.62
952.435	1884.62
952.664	1951.62
952.892	1917.62
953.121	1873.62
953.349	1951.62
953.578	1931.62
953.806	1898.62
954.035	1865.62
954.263	1887.62
954.491	1853.62
954.719	1850.62
954.948	1861.62
955.176	1819.62
955.404	1776.62
955.632	1878.62
955.86	1848.62
956.088	1812.62
956.316	1856.62
956.544	1858.62
956.772	1802.62
956.999	1777.62
957.227	1858.62
957.455	1752.62
957.683	1779.62
957.91	1737.62
958.138	1740.62
958.365	1756.62
958.593	1757.62
958.82	1724.62
959.048	1793.62
959.275	1734.62
959.502	1719.62
959.73	1710.62
959.957	1732.62
960.184	1757.62
960.411	1697.62
960.638	1803.62
960.865	1701.62
961.092	1733.62
961.319	1645.62
961.546	1746.62
961.773	1732.62
962	1679.62
962.227	1749.62
962.454	1683.62
962.68	1682.62
962.907	1717.62
963.134	1643.62
963.36	1667.62
963.587	1695.62
963.813	1647.62
964.04	1655.62
964.266	1623.62
964.493	1710.62
964.719	1685.62
964.945	1688.62
965.171	1576.62
965.398	1616.62
965.624	1671.62
965.85	1604.62
966.076	1579.62
966.302	1614.62
966.528	1583.62
966.754	1643.62
966.98	1621.62
967.206	1614.62
967.431	1527.62
967.657	1628.62
967.883	1596.62
968.109	1602.62
968.334	1550.62
968.56	1538.62
968.785	1555.62
969.011	1525.62
969.236	1546.62
969.462	1498.62
969.687	1540.62
969.912	1550.62
970.138	1592.62
970.363	1497.62
970.588	1542.62
970.813	1526.62
971.038	1497.62
971.263	1535.62
971.488	1526.62
971.713	1566.62
971.938	1551.62
972.163	1448.62
972.388	1498.62
972.613	1471.62
972.838	1487.62
973.062	1468.62
973.287	1484.62
973.512	1430.62
973.736	1453.62
973.961	1445.62
974.185	1429.62
974.41	1469.62
974.634	1384.62
974.858	1426.62
975.083	1435.62
975.307	1459.62
975.531	1395.62
975.755	1369.62
975.98	1358.62
976.204	1314.62
976.428	1326.62
976.652	1347.62
976.876	1323.62
977.1	1350.62
977.324	1311.62
977.547	1384.62
977.771	1400.62
977.995	1368.62
978.219	1291.62
978.442	1386.62
978.666	1346.62
978.89	1347.62
979.113	1349.62
979.337	1334.62
979.56	1282.62
979.783	1385.62
980.007	1297.62
980.23	1292.62
980.453	1296.62
980.677	1336.62
980.9	1334.62
981.123	1221.62
981.346	1313.62
981.569	1291.62
981.792	1305.62
982.015	1254.62
982.238	1249.62
982.461	1290.62
982.684	1272.62
982.907	1213.62
983.129	1226.62
983.352	1297.62
983.575	1266.62
983.797	1270.62
984.02	1225.62
984.242	1228.62
984.465	1225.62
984.687	1252.62
984.91	1277.62
985.132	1253.62
985.354	1300.62
985.577	1256.62
985.799	1243.62
986.021	1160.62
986.243	1197.62
986.465	1210.62
986.687	1241.62
986.909	1286.62
987.131	1228.62
987.353	1202.62
987.575	1225.62
987.797	1204.62
988.019	1119.62
988.241	1172.62
988.462	1158.62
988.684	1218.62
988.906	1215.62
989.127	1270.62
989.349	1169.62
989.57	1191.62
989.792	1219.62
990.013	1222.62
990.234	1216.62
990.456	1256.62
990.677	1207.62
990.898	1185.62
991.119	1184.62
991.341	1203.62
991.562	1128.62
991.783	1190.62
992.004	1116.62
992.225	1109.62
992.446	1171.62
992.667	1099.62
992.887	1161.62
993.108	1072.62
993.329	1207.62
993.55	1156.62
993.77	1087.62
993.991	1104.62
994.212	1151.62
994.432	1131.62
994.653	1143.62
994.873	1110.62
995.093	1050.62
995.314	1114.62
995.534	1142.62
995.754	1177.62
995.975	1199.62
996.195	1071.62
996.415	1131.62
996.635	1109.62
996.855	1136.62
997.075	1094.62
997.295	1077.62
997.515	1056.62
997.735	1149.62
997.955	1098.62
998.174	1087.62
998.394	1071.62
998.614	1122.62
998.834	1066.62
999.053	1129.62
999.273	1132.62
999.492	1157.62
999.712	1093.62
999.931	1079.62
1000.151	1134.62
1000.37	1102.62
1000.589	1163.62
1000.809	1075.62
1001.028	1199.62
1001.247	1149.62
1001.466	1047.62
1001.685	1201.62
1001.904	1123.62
1002.123	1101.62
1002.342	1093.62
1002.561	1074.62
1002.78	1102.62
1002.999	1153.62
1003.218	1097.62
1003.436	1087.62
1003.655	1141.62
1003.874	1075.62
1004.092	1113.62
1004.311	1157.62
1004.53	1120.62
1004.748	1191.62
1004.966	1103.62
1005.185	1148.62
1005.403	1123.62
1005.622	1120.62
1005.84	1210.62
1006.058	1086.62
1006.276	1106.62
1006.494	1598.62
1006.712	1127.62
1006.931	1200.62
1007.149	1079.62
1007.367	1072.62
1007.584	1137.62
1007.802	1153.62
1008.02	1100.62
1008.238	1187.62
1008.456	1180.62
1008.673	1046.62
1008.891	1137.62
1009.109	1108.62
1009.326	1144.62
1009.544	1220.62
1009.761	1119.62
1009.979	1197.62
1010.196	1181.62
1010.413	1280.62
1010.631	1291.62
1010.848	1305.62
1011.065	1323.62
1011.282	1262.62
1011.5	1197.62
1011.717	1336.62
1011.934	1255.62
1012.151	1280.62
1012.368	1266.62
1012.585	1210.62
1012.801	1285.62
1013.018	1204.62
1013.235	1195.62
1013.452	1214.62
1013.669	1211.62
1013.885	1191.62
1014.102	1234.62
1014.318	1203.62
1014.535	1172.62
1014.751	1209.62
1014.968	1198.62
1015.184	1221.62
1015.401	1141.62
1015.617	1210.62
1015.833	1141.62
1016.049	1133.62
1016.266	1124.62
1016.482	1129.62
1016.698	1072.62
1016.914	1111.62
1017.13	1063.62
1017.346	1060.62
1017.562	1134.62
1017.778	1072.62
1017.993	1051.62
1018.209	1101.62
1018.425	1067.62
1018.641	1037.62
1018.856	1007.62
1019.072	1024.62
1019.288	1077.62
1019.503	1017.62
1019.719	941.62
1019.934	970.62
1020.149	1049.62
1020.365	1012.62
1020.58	973.62
1020.795	1007.62
1021.011	942.62
1021.226	943.62
1021.441	987.62
1021.656	887.62
1021.871	837.62
1022.086	878.62
1022.301	859.62
1022.516	860.62
1022.731	882.62
1022.946	843.62
1023.16	815.62
1023.375	796.62
1023.59	774.62
1023.804	742.62
1024.019	877.62
1024.234	725.62
1024.448	774.62
1024.663	718.62
1024.877	731.62
1025.092	752.62
1025.306	776.62
1025.52	675.62
1025.734	778.62
1025.949	689.62
1026.163	675.62
1026.377	610.62
1026.591	661.62
1026.805	596.62
1027.019	611.62
1027.233	576.62
1027.447	542.62
1027.661	624.62
1027.875	566.62
1028.088	589.62
1028.302	537.62
1028.516	526.62
1028.73	519.62
1028.943	525.62
1029.157	485.62
1029.37	454.62
1029.584	-0.38
1029.797	0.62
1030.011	0.62
1030.224	-2.38
