Data from QEP037381__50__10-03-59-928.txt Node

Date: Wed Dec 21 10:03:59 EST 2022
User: dcclab
Spectrometer: QEP03738
Trigger mode: 4
Integration Time (sec): 1.000000E1
Scans to average: 1
Electric dark correction enabled: true
Nonlinearity correction enabled: false
Boxcar width: 0
XAxis mode: Wavelengths
Number of Pixels in Spectrum: 1044
>>>>>Begin Spectral Data<<<<<
784.041	11.88
784.3	0.88
784.558	-2.12
784.817	-4.12
785.075	111233.88
785.334	19294.88
785.592	9015.88
785.851	6234.88
786.109	4678.88
786.368	3688.88
786.626	2963.88
786.884	2439.88
787.143	2034.88
787.401	1685.88
787.659	1501.88
787.917	1263.88
788.175	1168.88
788.433	1022.88
788.691	905.88
788.949	830.88
789.207	775.88
789.465	679.88
789.723	633.88
789.98	589.88
790.238	614.88
790.496	583.88
790.753	576.88
791.011	620.88
791.268	549.88
791.526	519.88
791.783	531.88
792.041	522.88
792.298	425.88
792.556	486.88
792.813	472.88
793.07	443.88
793.327	436.88
793.584	519.88
793.841	437.88
794.099	458.88
794.356	497.88
794.613	419.88
794.869	445.88
795.126	405.88
795.383	389.88
795.64	406.88
795.897	362.88
796.153	412.88
796.41	405.88
796.667	386.88
796.923	393.88
797.18	382.88
797.436	408.88
797.693	384.88
797.949	423.88
798.206	451.88
798.462	356.88
798.718	428.88
798.974	400.88
799.231	440.88
799.487	416.88
799.743	430.88
799.999	440.88
800.255	433.88
800.511	409.88
800.767	450.88
801.023	427.88
801.279	445.88
801.534	478.88
801.79	486.88
802.046	487.88
802.302	564.88
802.557	596.88
802.813	677.88
803.068	726.88
803.324	932.88
803.579	1208.88
803.835	1563.88
804.09	2115.88
804.345	2705.88
804.601	3348.88
804.856	4014.88
805.111	4646.88
805.366	5130.88
805.621	5473.88
805.876	5606.88
806.131	5714.88
806.386	5833.88
806.641	5850.88
806.896	6000.88
807.151	6144.88
807.406	6143.88
807.661	6245.88
807.915	6334.88
808.17	6447.88
808.425	6454.88
808.679	6480.88
808.934	6661.88
809.188	6594.88
809.443	6700.88
809.697	6793.88
809.951	6758.88
810.206	6816.88
810.46	6890.88
810.714	6965.88
810.968	7014.88
811.223	7028.88
811.477	7064.88
811.731	7125.88
811.985	7073.88
812.239	7094.88
812.493	7189.88
812.747	7169.88
813	7176.88
813.254	7229.88
813.508	7311.88
813.762	7263.88
814.015	7284.88
814.269	7403.88
814.522	7446.88
814.776	7582.88
815.03	7555.88
815.283	7682.88
815.536	7756.88
815.79	7932.88
816.043	7967.88
816.296	8034.88
816.55	8125.88
816.803	8228.88
817.056	8332.88
817.309	8369.88
817.562	8414.88
817.815	8552.88
818.068	8539.88
818.321	8588.88
818.574	8614.88
818.827	8874.88
819.079	8844.88
819.332	9100.88
819.585	9099.88
819.838	9340.88
820.09	9294.88
820.343	9375.88
820.595	9316.88
820.848	9479.88
821.1	9444.88
821.353	9443.88
821.605	9413.88
821.857	9454.88
822.11	9399.88
822.362	9425.88
822.614	9385.88
822.866	9496.88
823.118	9327.88
823.37	9483.88
823.622	9507.88
823.874	9441.88
824.126	9571.88
824.378	9576.88
824.63	9641.88
824.882	9665.88
825.134	9519.88
825.385	9562.88
825.637	9542.88
825.888	9468.88
826.14	9462.88
826.392	9409.88
826.643	9319.88
826.895	9316.88
827.146	9303.88
827.397	9290.88
827.649	9258.88
827.9	9232.88
828.151	9291.88
828.402	9269.88
828.653	9307.88
828.905	9270.88
829.156	9419.88
829.407	9363.88
829.658	9370.88
829.909	9412.88
830.159	9368.88
830.41	9328.88
830.661	9184.88
830.912	9116.88
831.162	9120.88
831.413	9093.88
831.664	9120.88
831.914	9244.88
832.165	9150.88
832.415	9075.88
832.666	9166.88
832.916	9168.88
833.167	9111.88
833.417	9141.88
833.667	9117.88
833.917	8993.88
834.168	9107.88
834.418	9082.88
834.668	9064.88
834.918	8982.88
835.168	8964.88
835.418	8863.88
835.668	8863.88
835.918	8958.88
836.167	8881.88
836.417	8791.88
836.667	8838.88
836.917	8935.88
837.166	8740.88
837.416	8810.88
837.666	8794.88
837.915	8724.88
838.165	8742.88
838.414	8675.88
838.663	8587.88
838.913	8689.88
839.162	8613.88
839.411	8593.88
839.661	8576.88
839.91	8596.88
840.159	8615.88
840.408	8627.88
840.657	8613.88
840.906	8602.88
841.155	8607.88
841.404	8531.88
841.653	8568.88
841.902	8505.88
842.15	8522.88
842.399	8630.88
842.648	8557.88
842.897	8538.88
843.145	8474.88
843.394	8390.88
843.642	8431.88
843.891	8386.88
844.139	8257.88
844.388	8305.88
844.636	8153.88
844.884	8234.88
845.133	8289.88
845.381	8258.88
845.629	8257.88
845.877	8203.88
846.125	8239.88
846.373	8188.88
846.621	8125.88
846.869	8093.88
847.117	8070.88
847.365	8045.88
847.613	7987.88
847.861	8026.88
848.108	8008.88
848.356	8012.88
848.604	7934.88
848.851	8005.88
849.099	7937.88
849.346	7991.88
849.594	8013.88
849.841	8035.88
850.089	8101.88
850.336	8062.88
850.583	7959.88
850.831	8054.88
851.078	7964.88
851.325	7938.88
851.572	7931.88
851.819	7965.88
852.066	7694.88
852.313	7691.88
852.56	7616.88
852.807	7595.88
853.054	7536.88
853.301	7545.88
853.548	7568.88
853.794	7675.88
854.041	7580.88
854.288	7632.88
854.534	7801.88
854.781	7757.88
855.028	7669.88
855.274	7734.88
855.52	7662.88
855.767	7513.88
856.013	7615.88
856.26	7896.88
856.506	7522.88
856.752	7501.88
856.998	7500.88
857.244	7501.88
857.49	7553.88
857.736	7620.88
857.982	7569.88
858.228	7581.88
858.474	7480.88
858.72	7463.88
858.966	7382.88
859.212	7295.88
859.458	7248.88
859.703	7208.88
859.949	7101.88
860.195	7119.88
860.44	7094.88
860.686	6978.88
860.931	7012.88
861.177	6941.88
861.422	7017.88
861.667	6900.88
861.913	6942.88
862.158	6898.88
862.403	6969.88
862.648	6968.88
862.893	6996.88
863.138	7007.88
863.384	6874.88
863.629	6892.88
863.873	6962.88
864.118	6887.88
864.363	6825.88
864.608	6845.88
864.853	6865.88
865.098	6827.88
865.342	6796.88
865.587	6760.88
865.832	6743.88
866.076	6721.88
866.321	6685.88
866.565	6676.88
866.81	6593.88
867.054	6638.88
867.298	6628.88
867.543	6597.88
867.787	6613.88
868.031	6605.88
868.275	6618.88
868.519	6528.88
868.764	6560.88
869.008	6565.88
869.252	6558.88
869.496	6501.88
869.739	6432.88
869.983	6522.88
870.227	6504.88
870.471	6458.88
870.715	6516.88
870.958	6489.88
871.202	6511.88
871.446	6494.88
871.689	6507.88
871.933	6510.88
872.176	6530.88
872.42	6510.88
872.663	6510.88
872.906	6502.88
873.15	6450.88
873.393	6380.88
873.636	6419.88
873.879	6425.88
874.122	6356.88
874.366	6250.88
874.609	6197.88
874.852	6169.88
875.095	6097.88
875.337	6054.88
875.58	5977.88
875.823	6064.88
876.066	6047.88
876.309	6073.88
876.551	5977.88
876.794	5904.88
877.037	5946.88
877.279	5899.88
877.522	5995.88
877.764	5963.88
878.007	5904.88
878.249	5883.88
878.491	5905.88
878.734	5934.88
878.976	5910.88
879.218	5800.88
879.46	5865.88
879.702	5820.88
879.945	5749.88
880.187	5628.88
880.429	5673.88
880.671	5628.88
880.912	5621.88
881.154	5565.88
881.396	5496.88
881.638	5541.88
881.88	5544.88
882.121	5494.88
882.363	5538.88
882.605	5558.88
882.846	5581.88
883.088	5548.88
883.329	5457.88
883.571	5430.88
883.812	5521.88
884.053	5613.88
884.295	5698.88
884.536	5846.88
884.777	5774.88
885.018	5796.88
885.259	5726.88
885.5	5618.88
885.742	5894.88
885.982	5578.88
886.223	5574.88
886.464	5535.88
886.705	5432.88
886.946	5485.88
887.187	5324.88
887.428	5391.88
887.668	5215.88
887.909	5174.88
888.15	5117.88
888.39	5152.88
888.631	5159.88
888.871	5055.88
889.111	5077.88
889.352	4978.88
889.592	4959.88
889.833	4933.88
890.073	4861.88
890.313	4922.88
890.553	4765.88
890.793	4794.88
891.033	4747.88
891.273	4750.88
891.513	4746.88
891.753	4813.88
891.993	4761.88
892.233	4724.88
892.473	4737.88
892.713	4748.88
892.952	4739.88
893.192	4788.88
893.432	4742.88
893.671	4733.88
893.911	4701.88
894.15	4635.88
894.39	4586.88
894.629	4568.88
894.869	4568.88
895.108	4549.88
895.347	4551.88
895.587	4494.88
895.826	4471.88
896.065	4484.88
896.304	4531.88
896.543	4515.88
896.782	4429.88
897.021	4462.88
897.26	4474.88
897.499	4472.88
897.738	4438.88
897.977	4411.88
898.216	4358.88
898.454	4341.88
898.693	4255.88
898.932	4256.88
899.17	4274.88
899.409	4243.88
899.647	4224.88
899.886	4184.88
900.124	4238.88
900.363	4169.88
900.601	4220.88
900.839	4213.88
901.078	4266.88
901.316	4278.88
901.554	4235.88
901.792	4321.88
902.03	4236.88
902.268	4260.88
902.506	4256.88
902.744	4204.88
902.982	4257.88
903.22	4127.88
903.458	4098.88
903.695	4069.88
903.933	4048.88
904.171	3969.88
904.409	3935.88
904.646	3896.88
904.884	3837.88
905.121	3854.88
905.359	3779.88
905.596	3756.88
905.833	3678.88
906.071	3657.88
906.308	3664.88
906.545	3683.88
906.783	3624.88
907.02	3656.88
907.257	3633.88
907.494	3674.88
907.731	3656.88
907.968	3661.88
908.205	3588.88
908.442	3566.88
908.679	3562.88
908.915	3526.88
909.152	3558.88
909.389	3424.88
909.626	3432.88
909.862	3414.88
910.099	3467.88
910.335	3425.88
910.572	3327.88
910.808	3380.88
911.045	3367.88
911.281	3354.88
911.518	3432.88
911.754	3314.88
911.99	3342.88
912.226	3312.88
912.463	3237.88
912.699	3252.88
912.935	3256.88
913.171	3183.88
913.407	3169.88
913.643	3153.88
913.879	3143.88
914.114	3142.88
914.35	3083.88
914.586	3071.88
914.822	3043.88
915.057	3124.88
915.293	2961.88
915.529	2957.88
915.764	3050.88
916	3004.88
916.235	2958.88
916.471	3005.88
916.706	2892.88
916.941	2942.88
917.177	2968.88
917.412	2988.88
917.647	3014.88
917.882	2905.88
918.117	2946.88
918.352	2949.88
918.588	2968.88
918.823	2919.88
919.057	2820.88
919.292	2753.88
919.527	2875.88
919.762	2786.88
919.997	2842.88
920.232	2777.88
920.466	2759.88
920.701	2637.88
920.935	2707.88
921.17	2695.88
921.405	2673.88
921.639	2703.88
921.873	2621.88
922.108	2674.88
922.342	2679.88
922.576	2591.88
922.811	2607.88
923.045	2607.88
923.279	2635.88
923.513	2538.88
923.747	2610.88
923.981	2551.88
924.215	2518.88
924.449	2536.88
924.683	2475.88
924.917	2471.88
925.151	2465.88
925.385	2594.88
925.618	2501.88
925.852	2499.88
926.086	2428.88
926.319	2525.88
926.553	2424.88
926.786	2441.88
927.02	2451.88
927.253	2485.88
927.486	2480.88
927.72	2399.88
927.953	2468.88
928.186	2416.88
928.42	2436.88
928.653	2405.88
928.886	2366.88
929.119	2428.88
929.352	2392.88
929.585	2418.88
929.818	2337.88
930.051	2333.88
930.284	2345.88
930.516	2277.88
930.749	2242.88
930.982	2306.88
931.215	2267.88
931.447	2201.88
931.68	2296.88
931.912	2218.88
932.145	2215.88
932.377	2265.88
932.61	2388.88
932.842	2176.88
933.074	2237.88
933.307	2191.88
933.539	2325.88
933.771	2257.88
934.003	2220.88
934.236	2303.88
934.468	2300.88
934.7	2204.88
934.932	2255.88
935.164	2158.88
935.395	2181.88
935.627	2193.88
935.859	2197.88
936.091	2135.88
936.323	2197.88
936.554	2229.88
936.786	2185.88
937.017	2123.88
937.249	2142.88
937.481	2099.88
937.712	2195.88
937.943	2134.88
938.175	2146.88
938.406	2122.88
938.637	2204.88
938.869	2107.88
939.1	2129.88
939.331	2073.88
939.562	2154.88
939.793	2098.88
940.024	2147.88
940.255	2145.88
940.486	2062.88
940.717	2067.88
940.948	2075.88
941.179	2041.88
941.409	2042.88
941.64	2052.88
941.871	2058.88
942.102	2056.88
942.332	2032.88
942.563	2090.88
942.793	2067.88
943.024	2020.88
943.254	2039.88
943.484	2106.88
943.715	2099.88
943.945	2034.88
944.175	2022.88
944.405	1973.88
944.636	1974.88
944.866	2014.88
945.096	2034.88
945.326	1944.88
945.556	2007.88
945.786	2026.88
946.016	1994.88
946.245	1967.88
946.475	1972.88
946.705	1976.88
946.935	1955.88
947.164	1944.88
947.394	1900.88
947.624	1939.88
947.853	1927.88
948.083	1927.88
948.312	1912.88
948.542	1857.88
948.771	1856.88
949	1880.88
949.23	1855.88
949.459	1884.88
949.688	1933.88
949.917	1883.88
950.146	1897.88
950.375	1946.88
950.604	1858.88
950.833	1940.88
951.062	1940.88
951.291	1856.88
951.52	1790.88
951.749	1858.88
951.978	1813.88
952.206	1800.88
952.435	1780.88
952.664	1838.88
952.892	1854.88
953.121	1811.88
953.349	1874.88
953.578	1871.88
953.806	1841.88
954.035	1789.88
954.263	1794.88
954.491	1738.88
954.719	1798.88
954.948	1767.88
955.176	1742.88
955.404	1677.88
955.632	1783.88
955.86	1773.88
956.088	1761.88
956.316	1790.88
956.544	1799.88
956.772	1735.88
956.999	1662.88
957.227	1785.88
957.455	1697.88
957.683	1714.88
957.91	1646.88
958.138	1639.88
958.365	1663.88
958.593	1668.88
958.82	1627.88
959.048	1665.88
959.275	1646.88
959.502	1645.88
959.73	1677.88
959.957	1659.88
960.184	1700.88
960.411	1617.88
960.638	1726.88
960.865	1648.88
961.092	1674.88
961.319	1546.88
961.546	1686.88
961.773	1664.88
962	1644.88
962.227	1657.88
962.454	1665.88
962.68	1607.88
962.907	1622.88
963.134	1568.88
963.36	1627.88
963.587	1654.88
963.813	1589.88
964.04	1644.88
964.266	1551.88
964.493	1622.88
964.719	1613.88
964.945	1612.88
965.171	1545.88
965.398	1608.88
965.624	1578.88
965.85	1515.88
966.076	1529.88
966.302	1549.88
966.528	1553.88
966.754	1569.88
966.98	1545.88
967.206	1542.88
967.431	1470.88
967.657	1563.88
967.883	1555.88
968.109	1545.88
968.334	1502.88
968.56	1502.88
968.785	1499.88
969.011	1480.88
969.236	1499.88
969.462	1482.88
969.687	1511.88
969.912	1540.88
970.138	1522.88
970.363	1478.88
970.588	1477.88
970.813	1456.88
971.038	1444.88
971.263	1473.88
971.488	1480.88
971.713	1474.88
971.938	1488.88
972.163	1402.88
972.388	1443.88
972.613	1402.88
972.838	1448.88
973.062	1411.88
973.287	1416.88
973.512	1358.88
973.736	1411.88
973.961	1406.88
974.185	1397.88
974.41	1415.88
974.634	1302.88
974.858	1334.88
975.083	1371.88
975.307	1391.88
975.531	1363.88
975.755	1272.88
975.98	1332.88
976.204	1275.88
976.428	1270.88
976.652	1295.88
976.876	1256.88
977.1	1304.88
977.324	1246.88
977.547	1335.88
977.771	1312.88
977.995	1272.88
978.219	1278.88
978.442	1346.88
978.666	1294.88
978.89	1284.88
979.113	1280.88
979.337	1304.88
979.56	1268.88
979.783	1332.88
980.007	1235.88
980.23	1273.88
980.453	1240.88
980.677	1273.88
980.9	1272.88
981.123	1181.88
981.346	1277.88
981.569	1277.88
981.792	1259.88
982.015	1233.88
982.238	1196.88
982.461	1209.88
982.684	1187.88
982.907	1189.88
983.129	1195.88
983.352	1255.88
983.575	1230.88
983.797	1195.88
984.02	1173.88
984.242	1182.88
984.465	1203.88
984.687	1220.88
984.91	1246.88
985.132	1192.88
985.354	1217.88
985.577	1201.88
985.799	1193.88
986.021	1099.88
986.243	1149.88
986.465	1171.88
986.687	1199.88
986.909	1252.88
987.131	1199.88
987.353	1154.88
987.575	1181.88
987.797	1134.88
988.019	1094.88
988.241	1171.88
988.462	1091.88
988.684	1177.88
988.906	1195.88
989.127	1222.88
989.349	1114.88
989.57	1151.88
989.792	1166.88
990.013	1188.88
990.234	1206.88
990.456	1220.88
990.677	1200.88
990.898	1123.88
991.119	1128.88
991.341	1167.88
991.562	1117.88
991.783	1189.88
992.004	1102.88
992.225	1080.88
992.446	1148.88
992.667	1049.88
992.887	1160.88
993.108	1039.88
993.329	1188.88
993.55	1112.88
993.77	1075.88
993.991	1087.88
994.212	1089.88
994.432	1087.88
994.653	1113.88
994.873	1118.88
995.093	980.88
995.314	1048.88
995.534	1131.88
995.754	1145.88
995.975	1149.88
996.195	1029.88
996.415	1119.88
996.635	1085.88
996.855	1095.88
997.075	1077.88
997.295	1066.88
997.515	1041.88
997.735	1120.88
997.955	1054.88
998.174	1055.88
998.394	1027.88
998.614	1078.88
998.834	1057.88
999.053	1118.88
999.273	1091.88
999.492	1127.88
999.712	1050.88
999.931	1047.88
1000.151	1082.88
1000.37	1061.88
1000.589	1129.88
1000.809	1044.88
1001.028	1182.88
1001.247	1106.88
1001.466	1017.88
1001.685	1141.88
1001.904	1100.88
1002.123	1108.88
1002.342	1077.88
1002.561	1040.88
1002.78	1091.88
1002.999	1119.88
1003.218	1075.88
1003.436	1045.88
1003.655	1120.88
1003.874	1076.88
1004.092	1055.88
1004.311	1102.88
1004.53	1074.88
1004.748	1139.88
1004.966	1066.88
1005.185	1101.88
1005.403	1108.88
1005.622	1107.88
1005.84	1158.88
1006.058	1082.88
1006.276	1097.88
1006.494	1597.88
1006.712	1096.88
1006.931	1175.88
1007.149	1059.88
1007.367	1047.88
1007.584	1118.88
1007.802	1132.88
1008.02	1092.88
1008.238	1169.88
1008.456	1169.88
1008.673	1019.88
1008.891	1132.88
1009.109	1098.88
1009.326	1134.88
1009.544	1197.88
1009.761	1098.88
1009.979	1170.88
1010.196	1160.88
1010.413	1233.88
1010.631	1264.88
1010.848	1256.88
1011.065	1284.88
1011.282	1222.88
1011.5	1189.88
1011.717	1285.88
1011.934	1225.88
1012.151	1264.88
1012.368	1237.88
1012.585	1197.88
1012.801	1202.88
1013.018	1188.88
1013.235	1170.88
1013.452	1220.88
1013.669	1197.88
1013.885	1168.88
1014.102	1169.88
1014.318	1202.88
1014.535	1130.88
1014.751	1178.88
1014.968	1181.88
1015.184	1197.88
1015.401	1148.88
1015.617	1155.88
1015.833	1097.88
1016.049	1117.88
1016.266	1097.88
1016.482	1126.88
1016.698	1031.88
1016.914	1098.88
1017.13	1054.88
1017.346	1040.88
1017.562	1099.88
1017.778	1051.88
1017.993	1031.88
1018.209	1057.88
1018.425	1050.88
1018.641	1024.88
1018.856	1009.88
1019.072	1019.88
1019.288	1062.88
1019.503	998.88
1019.719	933.88
1019.934	955.88
1020.149	1027.88
1020.365	949.88
1020.58	936.88
1020.795	987.88
1021.011	934.88
1021.226	929.88
1021.441	955.88
1021.656	888.88
1021.871	828.88
1022.086	833.88
1022.301	821.88
1022.516	849.88
1022.731	898.88
1022.946	808.88
1023.16	791.88
1023.375	785.88
1023.59	757.88
1023.804	737.88
1024.019	819.88
1024.234	715.88
1024.448	756.88
1024.663	703.88
1024.877	709.88
1025.092	741.88
1025.306	742.88
1025.52	644.88
1025.734	746.88
1025.949	680.88
1026.163	656.88
1026.377	596.88
1026.591	655.88
1026.805	608.88
1027.019	597.88
1027.233	556.88
1027.447	513.88
1027.661	617.88
1027.875	563.88
1028.088	583.88
1028.302	503.88
1028.516	507.88
1028.73	523.88
1028.943	513.88
1029.157	473.88
1029.37	442.88
1029.584	-4.12
1029.797	-0.12
1030.011	-3.12
1030.224	0.88
