Data from QEP037381__59__10-05-29-928.txt Node

Date: Wed Dec 21 10:05:29 EST 2022
User: dcclab
Spectrometer: QEP03738
Trigger mode: 4
Integration Time (sec): 1.000000E1
Scans to average: 1
Electric dark correction enabled: true
Nonlinearity correction enabled: false
Boxcar width: 0
XAxis mode: Wavelengths
Number of Pixels in Spectrum: 1044
>>>>>Begin Spectral Data<<<<<
784.041	14.88
784.3	0.88
784.558	-3.12
784.817	-2.12
785.075	115708.88
785.334	19506.88
785.592	8980.88
785.851	6171.88
786.109	4608.88
786.368	3565.88
786.626	2912.88
786.884	2408.88
787.143	2054.88
787.401	1680.88
787.659	1513.88
787.917	1281.88
788.175	1155.88
788.433	1009.88
788.691	899.88
788.949	831.88
789.207	785.88
789.465	684.88
789.723	664.88
789.98	592.88
790.238	631.88
790.496	612.88
790.753	557.88
791.011	591.88
791.268	545.88
791.526	529.88
791.783	522.88
792.041	506.88
792.298	417.88
792.556	501.88
792.813	476.88
793.07	453.88
793.327	434.88
793.584	523.88
793.841	444.88
794.099	461.88
794.356	501.88
794.613	420.88
794.869	430.88
795.126	396.88
795.383	383.88
795.64	421.88
795.897	367.88
796.153	419.88
796.41	402.88
796.667	387.88
796.923	397.88
797.18	386.88
797.436	409.88
797.693	368.88
797.949	417.88
798.206	437.88
798.462	376.88
798.718	422.88
798.974	396.88
799.231	427.88
799.487	409.88
799.743	426.88
799.999	434.88
800.255	441.88
800.511	404.88
800.767	453.88
801.023	429.88
801.279	445.88
801.534	464.88
801.79	476.88
802.046	464.88
802.302	568.88
802.557	583.88
802.813	668.88
803.068	723.88
803.324	975.88
803.579	1223.88
803.835	1607.88
804.09	2174.88
804.345	2758.88
804.601	3395.88
804.856	4098.88
805.111	4737.88
805.366	5113.88
805.621	5524.88
805.876	5689.88
806.131	5837.88
806.386	5912.88
806.641	5929.88
806.896	6043.88
807.151	6220.88
807.406	6269.88
807.661	6367.88
807.915	6466.88
808.17	6528.88
808.425	6556.88
808.679	6529.88
808.934	6630.88
809.188	6703.88
809.443	6780.88
809.697	6810.88
809.951	6842.88
810.206	6924.88
810.46	6930.88
810.714	7028.88
810.968	7055.88
811.223	7023.88
811.477	7183.88
811.731	7241.88
811.985	7138.88
812.239	7159.88
812.493	7229.88
812.747	7299.88
813	7209.88
813.254	7278.88
813.508	7350.88
813.762	7355.88
814.015	7332.88
814.269	7426.88
814.522	7506.88
814.776	7577.88
815.03	7640.88
815.283	7770.88
815.536	7845.88
815.79	8036.88
816.043	8097.88
816.296	8182.88
816.55	8198.88
816.803	8311.88
817.056	8490.88
817.309	8486.88
817.562	8453.88
817.815	8645.88
818.068	8608.88
818.321	8671.88
818.574	8772.88
818.827	8924.88
819.079	8997.88
819.332	9155.88
819.585	9212.88
819.838	9441.88
820.09	9390.88
820.343	9501.88
820.595	9440.88
820.848	9558.88
821.1	9538.88
821.353	9578.88
821.605	9622.88
821.857	9676.88
822.11	9503.88
822.362	9529.88
822.614	9494.88
822.866	9502.88
823.118	9445.88
823.37	9644.88
823.622	9573.88
823.874	9655.88
824.126	9692.88
824.378	9648.88
824.63	9674.88
824.882	9793.88
825.134	9628.88
825.385	9700.88
825.637	9632.88
825.888	9544.88
826.14	9521.88
826.392	9395.88
826.643	9405.88
826.895	9400.88
827.146	9373.88
827.397	9273.88
827.649	9394.88
827.9	9264.88
828.151	9282.88
828.402	9425.88
828.653	9361.88
828.905	9402.88
829.156	9417.88
829.407	9396.88
829.658	9413.88
829.909	9435.88
830.159	9393.88
830.41	9377.88
830.661	9384.88
830.912	9227.88
831.162	9214.88
831.413	9196.88
831.664	9230.88
831.914	9228.88
832.165	9172.88
832.415	9189.88
832.666	9165.88
832.916	9232.88
833.167	9147.88
833.417	9223.88
833.667	9155.88
833.917	9181.88
834.168	9175.88
834.418	9128.88
834.668	9114.88
834.918	9017.88
835.168	9041.88
835.418	8983.88
835.668	9005.88
835.918	9031.88
836.167	8926.88
836.417	8888.88
836.667	8874.88
836.917	8877.88
837.166	8811.88
837.416	8881.88
837.666	8826.88
837.915	8823.88
838.165	8853.88
838.414	8690.88
838.663	8743.88
838.913	8741.88
839.162	8676.88
839.411	8657.88
839.661	8725.88
839.91	8677.88
840.159	8635.88
840.408	8673.88
840.657	8697.88
840.906	8624.88
841.155	8741.88
841.404	8667.88
841.653	8629.88
841.902	8700.88
842.15	8683.88
842.399	8646.88
842.648	8596.88
842.897	8581.88
843.145	8473.88
843.394	8572.88
843.642	8490.88
843.891	8486.88
844.139	8405.88
844.388	8353.88
844.636	8320.88
844.884	8302.88
845.133	8284.88
845.381	8377.88
845.629	8269.88
845.877	8262.88
846.125	8225.88
846.373	8311.88
846.621	8242.88
846.869	8230.88
847.117	8126.88
847.365	8134.88
847.613	8109.88
847.861	8143.88
848.108	8093.88
848.356	8053.88
848.604	7954.88
848.851	8044.88
849.099	8096.88
849.346	8087.88
849.594	8126.88
849.841	8113.88
850.089	8101.88
850.336	8085.88
850.583	8103.88
850.831	8072.88
851.078	8051.88
851.325	8036.88
851.572	8076.88
851.819	7982.88
852.066	7834.88
852.313	7707.88
852.56	7640.88
852.807	7588.88
853.054	7645.88
853.301	7613.88
853.548	7647.88
853.794	7720.88
854.041	7729.88
854.288	7785.88
854.534	7892.88
854.781	7764.88
855.028	7751.88
855.274	7763.88
855.52	7710.88
855.767	7638.88
856.013	7713.88
856.26	8007.88
856.506	7585.88
856.752	7569.88
856.998	7579.88
857.244	7538.88
857.49	7679.88
857.736	7651.88
857.982	7712.88
858.228	7633.88
858.474	7516.88
858.72	7506.88
858.966	7515.88
859.212	7388.88
859.458	7310.88
859.703	7257.88
859.949	7177.88
860.195	7164.88
860.44	7087.88
860.686	7050.88
860.931	7162.88
861.177	6991.88
861.422	7067.88
861.667	7004.88
861.913	6942.88
862.158	7030.88
862.403	7010.88
862.648	7036.88
862.893	7102.88
863.138	6979.88
863.384	6950.88
863.629	7018.88
863.873	6963.88
864.118	6937.88
864.363	6890.88
864.608	6934.88
864.853	6959.88
865.098	6817.88
865.342	6884.88
865.587	6784.88
865.832	6774.88
866.076	6842.88
866.321	6695.88
866.565	6735.88
866.81	6625.88
867.054	6753.88
867.298	6648.88
867.543	6629.88
867.787	6637.88
868.031	6626.88
868.275	6617.88
868.519	6664.88
868.764	6618.88
869.008	6588.88
869.252	6603.88
869.496	6544.88
869.739	6518.88
869.983	6536.88
870.227	6584.88
870.471	6546.88
870.715	6571.88
870.958	6608.88
871.202	6551.88
871.446	6581.88
871.689	6533.88
871.933	6530.88
872.176	6549.88
872.42	6600.88
872.663	6536.88
872.906	6585.88
873.15	6527.88
873.393	6466.88
873.636	6536.88
873.879	6456.88
874.122	6409.88
874.366	6233.88
874.609	6266.88
874.852	6165.88
875.095	6195.88
875.337	6065.88
875.58	6065.88
875.823	6097.88
876.066	6143.88
876.309	6122.88
876.551	5988.88
876.794	5955.88
877.037	6006.88
877.279	5931.88
877.522	5924.88
877.764	5969.88
878.007	5964.88
878.249	5973.88
878.491	5907.88
878.734	5971.88
878.976	5931.88
879.218	5874.88
879.46	5882.88
879.702	5836.88
879.945	5754.88
880.187	5679.88
880.429	5699.88
880.671	5638.88
880.912	5672.88
881.154	5655.88
881.396	5529.88
881.638	5555.88
881.88	5554.88
882.121	5572.88
882.363	5571.88
882.605	5623.88
882.846	5520.88
883.088	5576.88
883.329	5486.88
883.571	5502.88
883.812	5584.88
884.053	5666.88
884.295	5837.88
884.536	5919.88
884.777	5859.88
885.018	5841.88
885.259	5749.88
885.5	5653.88
885.742	5999.88
885.982	5690.88
886.223	5634.88
886.464	5585.88
886.705	5525.88
886.946	5514.88
887.187	5365.88
887.428	5430.88
887.668	5286.88
887.909	5170.88
888.15	5191.88
888.39	5132.88
888.631	5153.88
888.871	5114.88
889.111	5042.88
889.352	5024.88
889.592	4957.88
889.833	4912.88
890.073	4890.88
890.313	4916.88
890.553	4793.88
890.793	4851.88
891.033	4753.88
891.273	4792.88
891.513	4771.88
891.753	4776.88
891.993	4718.88
892.233	4775.88
892.473	4841.88
892.713	4784.88
892.952	4753.88
893.192	4773.88
893.432	4739.88
893.671	4748.88
893.911	4689.88
894.15	4688.88
894.39	4574.88
894.629	4600.88
894.869	4636.88
895.108	4550.88
895.347	4499.88
895.587	4577.88
895.826	4484.88
896.065	4528.88
896.304	4547.88
896.543	4549.88
896.782	4471.88
897.021	4508.88
897.26	4494.88
897.499	4519.88
897.738	4474.88
897.977	4396.88
898.216	4377.88
898.454	4366.88
898.693	4262.88
898.932	4360.88
899.17	4303.88
899.409	4282.88
899.647	4256.88
899.886	4242.88
900.124	4267.88
900.363	4211.88
900.601	4251.88
900.839	4272.88
901.078	4297.88
901.316	4305.88
901.554	4251.88
901.792	4289.88
902.03	4221.88
902.268	4266.88
902.506	4280.88
902.744	4222.88
902.982	4269.88
903.22	4183.88
903.458	4159.88
903.695	4073.88
903.933	4097.88
904.171	3953.88
904.409	3950.88
904.646	3906.88
904.884	3857.88
905.121	3837.88
905.359	3827.88
905.596	3788.88
905.833	3708.88
906.071	3697.88
906.308	3784.88
906.545	3729.88
906.783	3647.88
907.02	3658.88
907.257	3655.88
907.494	3666.88
907.731	3666.88
907.968	3675.88
908.205	3607.88
908.442	3606.88
908.679	3624.88
908.915	3555.88
909.152	3549.88
909.389	3447.88
909.626	3493.88
909.862	3412.88
910.099	3432.88
910.335	3482.88
910.572	3350.88
910.808	3424.88
911.045	3416.88
911.281	3353.88
911.518	3432.88
911.754	3352.88
911.99	3344.88
912.226	3325.88
912.463	3272.88
912.699	3268.88
912.935	3252.88
913.171	3201.88
913.407	3156.88
913.643	3223.88
913.879	3195.88
914.114	3128.88
914.35	3107.88
914.586	3131.88
914.822	3061.88
915.057	3111.88
915.293	3000.88
915.529	2988.88
915.764	3029.88
916	3012.88
916.235	3003.88
916.471	3032.88
916.706	2982.88
916.941	2977.88
917.177	2949.88
917.412	3002.88
917.647	2988.88
917.882	2919.88
918.117	2970.88
918.352	2954.88
918.588	2995.88
918.823	2891.88
919.057	2914.88
919.292	2780.88
919.527	2896.88
919.762	2790.88
919.997	2849.88
920.232	2761.88
920.466	2756.88
920.701	2671.88
920.935	2733.88
921.17	2704.88
921.405	2638.88
921.639	2734.88
921.873	2665.88
922.108	2713.88
922.342	2644.88
922.576	2639.88
922.811	2628.88
923.045	2674.88
923.279	2659.88
923.513	2561.88
923.747	2609.88
923.981	2578.88
924.215	2519.88
924.449	2546.88
924.683	2489.88
924.917	2479.88
925.151	2482.88
925.385	2535.88
925.618	2464.88
925.852	2502.88
926.086	2438.88
926.319	2517.88
926.553	2463.88
926.786	2483.88
927.02	2455.88
927.253	2493.88
927.486	2504.88
927.72	2433.88
927.953	2462.88
928.186	2436.88
928.42	2460.88
928.653	2380.88
928.886	2386.88
929.119	2419.88
929.352	2404.88
929.585	2395.88
929.818	2365.88
930.051	2393.88
930.284	2382.88
930.516	2278.88
930.749	2283.88
930.982	2320.88
931.215	2332.88
931.447	2227.88
931.68	2257.88
931.912	2237.88
932.145	2228.88
932.377	2269.88
932.61	2383.88
932.842	2180.88
933.074	2264.88
933.307	2232.88
933.539	2309.88
933.771	2327.88
934.003	2220.88
934.236	2306.88
934.468	2306.88
934.7	2226.88
934.932	2254.88
935.164	2214.88
935.395	2197.88
935.627	2187.88
935.859	2196.88
936.091	2147.88
936.323	2220.88
936.554	2227.88
936.786	2180.88
937.017	2147.88
937.249	2171.88
937.481	2103.88
937.712	2173.88
937.943	2128.88
938.175	2143.88
938.406	2140.88
938.637	2229.88
938.869	2098.88
939.1	2169.88
939.331	2111.88
939.562	2148.88
939.793	2164.88
940.024	2183.88
940.255	2175.88
940.486	2104.88
940.717	2091.88
940.948	2067.88
941.179	2022.88
941.409	2058.88
941.64	2044.88
941.871	2048.88
942.102	2040.88
942.332	2075.88
942.563	2103.88
942.793	2062.88
943.024	1988.88
943.254	2044.88
943.484	2104.88
943.715	2074.88
943.945	2070.88
944.175	1985.88
944.405	1981.88
944.636	1981.88
944.866	2032.88
945.096	2041.88
945.326	1953.88
945.556	2041.88
945.786	2025.88
946.016	1999.88
946.245	1891.88
946.475	1941.88
946.705	1931.88
946.935	1948.88
947.164	1944.88
947.394	1911.88
947.624	1971.88
947.853	1961.88
948.083	1943.88
948.312	1922.88
948.542	1869.88
948.771	1842.88
949	1857.88
949.23	1876.88
949.459	1887.88
949.688	1946.88
949.917	1852.88
950.146	1914.88
950.375	1951.88
950.604	1848.88
950.833	1976.88
951.062	1918.88
951.291	1864.88
951.52	1853.88
951.749	1877.88
951.978	1842.88
952.206	1823.88
952.435	1849.88
952.664	1862.88
952.892	1853.88
953.121	1841.88
953.349	1882.88
953.578	1860.88
953.806	1817.88
954.035	1792.88
954.263	1832.88
954.491	1755.88
954.719	1816.88
954.948	1777.88
955.176	1768.88
955.404	1710.88
955.632	1755.88
955.86	1758.88
956.088	1766.88
956.316	1777.88
956.544	1803.88
956.772	1708.88
956.999	1728.88
957.227	1805.88
957.455	1672.88
957.683	1729.88
957.91	1695.88
958.138	1700.88
958.365	1694.88
958.593	1681.88
958.82	1624.88
959.048	1709.88
959.275	1673.88
959.502	1646.88
959.73	1624.88
959.957	1676.88
960.184	1679.88
960.411	1616.88
960.638	1720.88
960.865	1671.88
961.092	1690.88
961.319	1576.88
961.546	1709.88
961.773	1687.88
962	1668.88
962.227	1678.88
962.454	1645.88
962.68	1631.88
962.907	1638.88
963.134	1584.88
963.36	1635.88
963.587	1772.88
963.813	1815.88
964.04	1638.88
964.266	1563.88
964.493	1684.88
964.719	1588.88
964.945	1653.88
965.171	1503.88
965.398	1579.88
965.624	1631.88
965.85	1539.88
966.076	1543.88
966.302	1604.88
966.528	1552.88
966.754	1606.88
966.98	1547.88
967.206	1527.88
967.431	1490.88
967.657	1569.88
967.883	1550.88
968.109	1553.88
968.334	1487.88
968.56	1480.88
968.785	1508.88
969.011	1467.88
969.236	1529.88
969.462	1454.88
969.687	1500.88
969.912	1525.88
970.138	1548.88
970.363	1459.88
970.588	1480.88
970.813	1486.88
971.038	1463.88
971.263	1492.88
971.488	1488.88
971.713	1530.88
971.938	1495.88
972.163	1405.88
972.388	1416.88
972.613	1413.88
972.838	1423.88
973.062	1421.88
973.287	1435.88
973.512	1353.88
973.736	1416.88
973.961	1419.88
974.185	1385.88
974.41	1399.88
974.634	1317.88
974.858	1370.88
975.083	1393.88
975.307	1401.88
975.531	1325.88
975.755	1292.88
975.98	1322.88
976.204	1264.88
976.428	1284.88
976.652	1303.88
976.876	1267.88
977.1	1320.88
977.324	1285.88
977.547	1322.88
977.771	1322.88
977.995	1301.88
978.219	1217.88
978.442	1344.88
978.666	1295.88
978.89	1306.88
979.113	1299.88
979.337	1267.88
979.56	1230.88
979.783	1351.88
980.007	1213.88
980.23	1272.88
980.453	1259.88
980.677	1266.88
980.9	1258.88
981.123	1170.88
981.346	1274.88
981.569	1269.88
981.792	1285.88
982.015	1223.88
982.238	1183.88
982.461	1251.88
982.684	1214.88
982.907	1196.88
983.129	1185.88
983.352	1223.88
983.575	1241.88
983.797	1203.88
984.02	1184.88
984.242	1186.88
984.465	1203.88
984.687	1220.88
984.91	1245.88
985.132	1221.88
985.354	1237.88
985.577	1227.88
985.799	1213.88
986.021	1122.88
986.243	1137.88
986.465	1158.88
986.687	1208.88
986.909	1242.88
987.131	1168.88
987.353	1167.88
987.575	1190.88
987.797	1143.88
988.019	1100.88
988.241	1152.88
988.462	1102.88
988.684	1187.88
988.906	1210.88
989.127	1232.88
989.349	1110.88
989.57	1174.88
989.792	1167.88
990.013	1190.88
990.234	1212.88
990.456	1240.88
990.677	1213.88
990.898	1168.88
991.119	1152.88
991.341	1167.88
991.562	1136.88
991.783	1176.88
992.004	1109.88
992.225	1090.88
992.446	1132.88
992.667	1045.88
992.887	1152.88
993.108	1031.88
993.329	1172.88
993.55	1144.88
993.77	1085.88
993.991	1061.88
994.212	1122.88
994.432	1109.88
994.653	1121.88
994.873	1121.88
995.093	980.88
995.314	1047.88
995.534	1129.88
995.754	1129.88
995.975	1139.88
996.195	1038.88
996.415	1116.88
996.635	1090.88
996.855	1095.88
997.075	1073.88
997.295	1062.88
997.515	1053.88
997.735	1111.88
997.955	1067.88
998.174	1055.88
998.394	1039.88
998.614	1107.88
998.834	1063.88
999.053	1095.88
999.273	1117.88
999.492	1142.88
999.712	1066.88
999.931	1035.88
1000.151	1094.88
1000.37	1067.88
1000.589	1144.88
1000.809	1051.88
1001.028	1168.88
1001.247	1097.88
1001.466	1010.88
1001.685	1173.88
1001.904	1084.88
1002.123	1087.88
1002.342	1111.88
1002.561	1041.88
1002.78	1074.88
1002.999	1157.88
1003.218	1098.88
1003.436	1053.88
1003.655	1099.88
1003.874	1062.88
1004.092	1083.88
1004.311	1107.88
1004.53	1100.88
1004.748	1164.88
1004.966	1084.88
1005.185	1136.88
1005.403	1134.88
1005.622	1091.88
1005.84	1157.88
1006.058	1077.88
1006.276	1094.88
1006.494	1622.88
1006.712	1107.88
1006.931	1133.88
1007.149	1070.88
1007.367	1055.88
1007.584	1094.88
1007.802	1119.88
1008.02	1095.88
1008.238	1171.88
1008.456	1158.88
1008.673	1029.88
1008.891	1139.88
1009.109	1078.88
1009.326	1133.88
1009.544	1228.88
1009.761	1110.88
1009.979	1185.88
1010.196	1175.88
1010.413	1267.88
1010.631	1281.88
1010.848	1330.88
1011.065	1301.88
1011.282	1287.88
1011.5	1190.88
1011.717	1302.88
1011.934	1250.88
1012.151	1288.88
1012.368	1261.88
1012.585	1224.88
1012.801	1274.88
1013.018	1236.88
1013.235	1205.88
1013.452	1207.88
1013.669	1192.88
1013.885	1194.88
1014.102	1213.88
1014.318	1194.88
1014.535	1169.88
1014.751	1208.88
1014.968	1217.88
1015.184	1239.88
1015.401	1110.88
1015.617	1175.88
1015.833	1143.88
1016.049	1135.88
1016.266	1133.88
1016.482	1144.88
1016.698	1059.88
1016.914	1128.88
1017.13	1045.88
1017.346	1069.88
1017.562	1127.88
1017.778	1064.88
1017.993	1046.88
1018.209	1102.88
1018.425	1060.88
1018.641	1047.88
1018.856	1003.88
1019.072	1043.88
1019.288	1096.88
1019.503	1031.88
1019.719	944.88
1019.934	975.88
1020.149	1056.88
1020.365	1001.88
1020.58	962.88
1020.795	1005.88
1021.011	967.88
1021.226	932.88
1021.441	963.88
1021.656	897.88
1021.871	839.88
1022.086	848.88
1022.301	843.88
1022.516	854.88
1022.731	896.88
1022.946	819.88
1023.16	801.88
1023.375	789.88
1023.59	790.88
1023.804	756.88
1024.019	829.88
1024.234	731.88
1024.448	771.88
1024.663	700.88
1024.877	719.88
1025.092	747.88
1025.306	773.88
1025.52	667.88
1025.734	754.88
1025.949	671.88
1026.163	654.88
1026.377	616.88
1026.591	661.88
1026.805	604.88
1027.019	600.88
1027.233	564.88
1027.447	507.88
1027.661	604.88
1027.875	577.88
1028.088	559.88
1028.302	507.88
1028.516	523.88
1028.73	504.88
1028.943	526.88
1029.157	477.88
1029.37	433.88
1029.584	-1.12
1029.797	-4.12
1030.011	-3.12
1030.224	-2.12
