Data from QEP037381__11__09-57-29-926.txt Node

Date: Wed Dec 21 09:57:29 EST 2022
User: dcclab
Spectrometer: QEP03738
Trigger mode: 4
Integration Time (sec): 1.000000E1
Scans to average: 1
Electric dark correction enabled: true
Nonlinearity correction enabled: false
Boxcar width: 0
XAxis mode: Wavelengths
Number of Pixels in Spectrum: 1044
>>>>>Begin Spectral Data<<<<<
784.041	10.5
784.3	0.5
784.558	-2.5
784.817	-6.5
785.075	121460.5
785.334	20609.5
785.592	9524.5
785.851	6510.5
786.109	4883.5
786.368	3771.5
786.626	3063.5
786.884	2506.5
787.143	2099.5
787.401	1745.5
787.659	1577.5
787.917	1341.5
788.175	1203.5
788.433	1052.5
788.691	936.5
788.949	868.5
789.207	814.5
789.465	715.5
789.723	665.5
789.98	632.5
790.238	641.5
790.496	607.5
790.753	559.5
791.011	632.5
791.268	562.5
791.526	541.5
791.783	547.5
792.041	538.5
792.298	452.5
792.556	510.5
792.813	480.5
793.07	465.5
793.327	451.5
793.584	533.5
793.841	459.5
794.099	464.5
794.356	521.5
794.613	411.5
794.869	450.5
795.126	417.5
795.383	399.5
795.64	426.5
795.897	382.5
796.153	424.5
796.41	417.5
796.667	400.5
796.923	400.5
797.18	399.5
797.436	416.5
797.693	391.5
797.949	445.5
798.206	469.5
798.462	370.5
798.718	437.5
798.974	399.5
799.231	446.5
799.487	426.5
799.743	445.5
799.999	458.5
800.255	455.5
800.511	435.5
800.767	463.5
801.023	441.5
801.279	474.5
801.534	480.5
801.79	513.5
802.046	518.5
802.302	630.5
802.557	657.5
802.813	762.5
803.068	896.5
803.324	1161.5
803.579	1519.5
803.835	2025.5
804.09	2751.5
804.345	3581.5
804.601	4363.5
804.856	5251.5
805.111	6040.5
805.366	6694.5
805.621	7054.5
805.876	7388.5
806.131	7517.5
806.386	7630.5
806.641	7713.5
806.896	7846.5
807.151	8006.5
807.406	8033.5
807.661	8177.5
807.915	8279.5
808.17	8422.5
808.425	8451.5
808.679	8464.5
808.934	8636.5
809.188	8593.5
809.443	8749.5
809.697	8825.5
809.951	8812.5
810.206	8898.5
810.46	8972.5
810.714	9020.5
810.968	9105.5
811.223	9088.5
811.477	9172.5
811.731	9278.5
811.985	9275.5
812.239	9230.5
812.493	9404.5
812.747	9341.5
813	9375.5
813.254	9477.5
813.508	9544.5
813.762	9491.5
814.015	9548.5
814.269	9591.5
814.522	9711.5
814.776	9740.5
815.03	9881.5
815.283	10027.5
815.536	10140.5
815.79	10279.5
816.043	10413.5
816.296	10445.5
816.55	10548.5
816.803	10725.5
817.056	10744.5
817.309	10879.5
817.562	10924.5
817.815	11067.5
818.068	11098.5
818.321	11237.5
818.574	11287.5
818.827	11427.5
819.079	11471.5
819.332	11782.5
819.585	11795.5
819.838	12052.5
820.09	11988.5
820.343	12170.5
820.595	12159.5
820.848	12270.5
821.1	12317.5
821.353	12371.5
821.605	12339.5
821.857	12394.5
822.11	12258.5
822.362	12145.5
822.614	12127.5
822.866	12267.5
823.118	12186.5
823.37	12290.5
823.622	12253.5
823.874	12269.5
824.126	12393.5
824.378	12376.5
824.63	12439.5
824.882	12364.5
825.134	12410.5
825.385	12401.5
825.637	12405.5
825.888	12258.5
826.14	12258.5
826.392	12269.5
826.643	12122.5
826.895	12119.5
827.146	12098.5
827.397	12106.5
827.649	12057.5
827.9	12017.5
828.151	11992.5
828.402	12002.5
828.653	12023.5
828.905	12102.5
829.156	12179.5
829.407	12031.5
829.658	12078.5
829.909	12035.5
830.159	12062.5
830.41	12056.5
830.661	11971.5
830.912	11853.5
831.162	11803.5
831.413	11856.5
831.664	11885.5
831.914	11850.5
832.165	11816.5
832.415	11840.5
832.666	11779.5
832.916	11780.5
833.167	11833.5
833.417	11817.5
833.667	11684.5
833.917	11676.5
834.168	11786.5
834.418	11688.5
834.668	11703.5
834.918	11597.5
835.168	11564.5
835.418	11389.5
835.668	11525.5
835.918	11495.5
836.167	11487.5
836.417	11354.5
836.667	11474.5
836.917	11435.5
837.166	11302.5
837.416	11397.5
837.666	11403.5
837.915	11359.5
838.165	11277.5
838.414	11174.5
838.663	11113.5
838.913	11198.5
839.162	11114.5
839.411	11201.5
839.661	11141.5
839.91	11058.5
840.159	11004.5
840.408	11110.5
840.657	11038.5
840.906	11122.5
841.155	11031.5
841.404	11064.5
841.653	11080.5
841.902	11032.5
842.15	11046.5
842.399	11088.5
842.648	10975.5
842.897	10991.5
843.145	10903.5
843.394	10828.5
843.642	10782.5
843.891	10761.5
844.139	10698.5
844.388	10587.5
844.636	10535.5
844.884	10648.5
845.133	10556.5
845.381	10596.5
845.629	10621.5
845.877	10514.5
846.125	10488.5
846.373	10524.5
846.621	10444.5
846.869	10467.5
847.117	10439.5
847.365	10340.5
847.613	10293.5
847.861	10290.5
848.108	10346.5
848.356	10243.5
848.604	10218.5
848.851	10256.5
849.099	10210.5
849.346	10249.5
849.594	10330.5
849.841	10339.5
850.089	10334.5
850.336	10359.5
850.583	10275.5
850.831	10275.5
851.078	10246.5
851.325	10155.5
851.572	10133.5
851.819	10076.5
852.066	9936.5
852.313	9783.5
852.56	9780.5
852.807	9704.5
853.054	9662.5
853.301	9699.5
853.548	9633.5
853.794	9733.5
854.041	9819.5
854.288	9855.5
854.534	10012.5
854.781	9889.5
855.028	9841.5
855.274	9887.5
855.52	9716.5
855.767	9659.5
856.013	9684.5
856.26	9885.5
856.506	9594.5
856.752	9550.5
856.998	9545.5
857.244	9593.5
857.49	9592.5
857.736	9659.5
857.982	9590.5
858.228	9620.5
858.474	9540.5
858.72	9440.5
858.966	9446.5
859.212	9366.5
859.458	9266.5
859.703	9230.5
859.949	9125.5
860.195	9103.5
860.44	8991.5
860.686	8970.5
860.931	8950.5
861.177	8764.5
861.422	8884.5
861.667	8863.5
861.913	8862.5
862.158	8856.5
862.403	8904.5
862.648	8917.5
862.893	8912.5
863.138	8867.5
863.384	8883.5
863.629	8920.5
863.873	8811.5
864.118	8854.5
864.363	8742.5
864.608	8744.5
864.853	8730.5
865.098	8682.5
865.342	8683.5
865.587	8582.5
865.832	8619.5
866.076	8588.5
866.321	8524.5
866.565	8530.5
866.81	8432.5
867.054	8444.5
867.298	8468.5
867.543	8368.5
867.787	8399.5
868.031	8354.5
868.275	8426.5
868.519	8332.5
868.764	8328.5
869.008	8302.5
869.252	8344.5
869.496	8216.5
869.739	8239.5
869.983	8207.5
870.227	8267.5
870.471	8192.5
870.715	8231.5
870.958	8270.5
871.202	8197.5
871.446	8217.5
871.689	8233.5
871.933	8249.5
872.176	8184.5
872.42	8235.5
872.663	8134.5
872.906	8230.5
873.15	8171.5
873.393	8056.5
873.636	8145.5
873.879	8026.5
874.122	7938.5
874.366	7858.5
874.609	7792.5
874.852	7792.5
875.095	7718.5
875.337	7681.5
875.58	7622.5
875.823	7671.5
876.066	7638.5
876.309	7650.5
876.551	7511.5
876.794	7448.5
877.037	7455.5
877.279	7421.5
877.522	7445.5
877.764	7491.5
878.007	7446.5
878.249	7459.5
878.491	7454.5
878.734	7454.5
878.976	7414.5
879.218	7354.5
879.46	7391.5
879.702	7297.5
879.945	7245.5
880.187	7151.5
880.429	7189.5
880.671	7101.5
880.912	7154.5
881.154	7086.5
881.396	6920.5
881.638	6999.5
881.88	6992.5
882.121	6973.5
882.363	6938.5
882.605	6966.5
882.846	6987.5
883.088	6956.5
883.329	6902.5
883.571	6921.5
883.812	6946.5
884.053	7036.5
884.295	7071.5
884.536	7287.5
884.777	7118.5
885.018	7101.5
885.259	7105.5
885.5	7025.5
885.742	7259.5
885.982	6992.5
886.223	6887.5
886.464	6931.5
886.705	6821.5
886.946	6788.5
887.187	6665.5
887.428	6694.5
887.668	6610.5
887.909	6539.5
888.15	6470.5
888.39	6460.5
888.631	6491.5
888.871	6366.5
889.111	6310.5
889.352	6303.5
889.592	6199.5
889.833	6150.5
890.073	6144.5
890.313	6123.5
890.553	6032.5
890.793	6092.5
891.033	6011.5
891.273	5947.5
891.513	5978.5
891.753	6044.5
891.993	5934.5
892.233	6032.5
892.473	6021.5
892.713	5951.5
892.952	5946.5
893.192	5935.5
893.432	5891.5
893.671	6007.5
893.911	5904.5
894.15	5860.5
894.39	5747.5
894.629	5810.5
894.869	5810.5
895.108	5724.5
895.347	5657.5
895.587	5740.5
895.826	5656.5
896.065	5647.5
896.304	5669.5
896.543	5618.5
896.782	5585.5
897.021	5665.5
897.26	5554.5
897.499	5607.5
897.738	5541.5
897.977	5526.5
898.216	5428.5
898.454	5400.5
898.693	5348.5
898.932	5365.5
899.17	5360.5
899.409	5266.5
899.647	5287.5
899.886	5261.5
900.124	5302.5
900.363	5205.5
900.601	5282.5
900.839	5283.5
901.078	5335.5
901.316	5241.5
901.554	5255.5
901.792	5326.5
902.03	5181.5
902.268	5250.5
902.506	5286.5
902.744	5195.5
902.982	5261.5
903.22	5132.5
903.458	5138.5
903.695	5091.5
903.933	5017.5
904.171	4961.5
904.409	4848.5
904.646	4878.5
904.884	4792.5
905.121	4831.5
905.359	4755.5
905.596	4683.5
905.833	4641.5
906.071	4635.5
906.308	4643.5
906.545	4675.5
906.783	4583.5
907.02	4607.5
907.257	4510.5
907.494	4543.5
907.731	4567.5
907.968	4505.5
908.205	4496.5
908.442	4474.5
908.679	4470.5
908.915	4450.5
909.152	4452.5
909.389	4316.5
909.626	4300.5
909.862	4286.5
910.099	4301.5
910.335	4324.5
910.572	4177.5
910.808	4217.5
911.045	4185.5
911.281	4167.5
911.518	4222.5
911.754	4141.5
911.99	4156.5
912.226	4107.5
912.463	4051.5
912.699	4062.5
912.935	4033.5
913.171	4008.5
913.407	3970.5
913.643	3970.5
913.879	3944.5
914.114	3900.5
914.35	3867.5
914.586	3848.5
914.822	3726.5
915.057	3819.5
915.293	3678.5
915.529	3718.5
915.764	3762.5
916	3742.5
916.235	3696.5
916.471	3711.5
916.706	3639.5
916.941	3621.5
917.177	3621.5
917.412	3647.5
917.647	3694.5
917.882	3657.5
918.117	3654.5
918.352	3613.5
918.588	3681.5
918.823	3569.5
919.057	3551.5
919.292	3445.5
919.527	3515.5
919.762	3424.5
919.997	3514.5
920.232	3385.5
920.466	3413.5
920.701	3305.5
920.935	3324.5
921.17	3324.5
921.405	3253.5
921.639	3327.5
921.873	3267.5
922.108	3276.5
922.342	3310.5
922.576	3223.5
922.811	3216.5
923.045	3289.5
923.279	3235.5
923.513	3164.5
923.747	3224.5
923.981	3145.5
924.215	3100.5
924.449	3117.5
924.683	3083.5
924.917	3063.5
925.151	3005.5
925.385	3120.5
925.618	3087.5
925.852	3079.5
926.086	2993.5
926.319	3029.5
926.553	3005.5
926.786	3014.5
927.02	2992.5
927.253	3074.5
927.486	3024.5
927.72	2946.5
927.953	3044.5
928.186	2969.5
928.42	3000.5
928.653	2921.5
928.886	2945.5
929.119	2918.5
929.352	2925.5
929.585	2901.5
929.818	2857.5
930.051	2880.5
930.284	2880.5
930.516	2750.5
930.749	2791.5
930.982	2842.5
931.215	2793.5
931.447	2742.5
931.68	2740.5
931.912	2729.5
932.145	2765.5
932.377	2728.5
932.61	2859.5
932.842	2700.5
933.074	2748.5
933.307	2707.5
933.539	2783.5
933.771	2764.5
934.003	2682.5
934.236	2776.5
934.468	2774.5
934.7	2754.5
934.932	2713.5
935.164	2654.5
935.395	2679.5
935.627	2681.5
935.859	2664.5
936.091	2640.5
936.323	2685.5
936.554	2699.5
936.786	2635.5
937.017	2597.5
937.249	2607.5
937.481	2566.5
937.712	2641.5
937.943	2623.5
938.175	2583.5
938.406	2564.5
938.637	2650.5
938.869	2548.5
939.1	2614.5
939.331	2532.5
939.562	2593.5
939.793	2576.5
940.024	2603.5
940.255	2542.5
940.486	2548.5
940.717	2503.5
940.948	2487.5
941.179	2445.5
941.409	2484.5
941.64	2484.5
941.871	2485.5
942.102	2433.5
942.332	2470.5
942.563	2531.5
942.793	2472.5
943.024	2409.5
943.254	2450.5
943.484	2506.5
943.715	2519.5
943.945	2491.5
944.175	2418.5
944.405	2381.5
944.636	2438.5
944.866	2441.5
945.096	2463.5
945.326	2352.5
945.556	2438.5
945.786	2435.5
946.016	2367.5
946.245	2311.5
946.475	2293.5
946.705	2368.5
946.935	2356.5
947.164	2372.5
947.394	2301.5
947.624	2334.5
947.853	2337.5
948.083	2329.5
948.312	2287.5
948.542	2249.5
948.771	2213.5
949	2249.5
949.23	2239.5
949.459	2237.5
949.688	2319.5
949.917	2259.5
950.146	2251.5
950.375	2302.5
950.604	2199.5
950.833	2300.5
951.062	2278.5
951.291	2190.5
951.52	2197.5
951.749	2231.5
951.978	2177.5
952.206	2193.5
952.435	2194.5
952.664	2253.5
952.892	2207.5
953.121	2179.5
953.349	2180.5
953.578	2206.5
953.806	2184.5
954.035	2127.5
954.263	2145.5
954.491	2114.5
954.719	2132.5
954.948	2105.5
955.176	2076.5
955.404	2034.5
955.632	2076.5
955.86	2109.5
956.088	2099.5
956.316	2067.5
956.544	2114.5
956.772	2066.5
956.999	2026.5
957.227	2109.5
957.455	2010.5
957.683	2037.5
957.91	1984.5
958.138	1950.5
958.365	2010.5
958.593	1987.5
958.82	1922.5
959.048	2002.5
959.275	1978.5
959.502	1967.5
959.73	1946.5
959.957	1969.5
960.184	1994.5
960.411	1908.5
960.638	2004.5
960.865	1952.5
961.092	1963.5
961.319	1879.5
961.546	1982.5
961.773	1973.5
962	1944.5
962.227	1958.5
962.454	1930.5
962.68	1914.5
962.907	1933.5
963.134	1887.5
963.36	1915.5
963.587	1929.5
963.813	1858.5
964.04	1901.5
964.266	1863.5
964.493	1938.5
964.719	1892.5
964.945	1896.5
965.171	1783.5
965.398	1859.5
965.624	1874.5
965.85	1821.5
966.076	1780.5
966.302	1813.5
966.528	1836.5
966.754	1861.5
966.98	1827.5
967.206	1841.5
967.431	1710.5
967.657	1810.5
967.883	1809.5
968.109	1773.5
968.334	1748.5
968.56	1722.5
968.785	1758.5
969.011	1703.5
969.236	1769.5
969.462	1693.5
969.687	1741.5
969.912	1755.5
970.138	1793.5
970.363	1708.5
970.588	1739.5
970.813	1695.5
971.038	1690.5
971.263	1706.5
971.488	1701.5
971.713	1733.5
971.938	1738.5
972.163	1605.5
972.388	1669.5
972.613	1668.5
972.838	1647.5
973.062	1652.5
973.287	1668.5
973.512	1559.5
973.736	1642.5
973.961	1600.5
974.185	1608.5
974.41	1629.5
974.634	1532.5
974.858	1567.5
975.083	1606.5
975.307	1621.5
975.531	1518.5
975.755	1487.5
975.98	1525.5
976.204	1496.5
976.428	1475.5
976.652	1469.5
976.876	1478.5
977.1	1502.5
977.324	1470.5
977.547	1533.5
977.771	1527.5
977.995	1480.5
978.219	1449.5
978.442	1538.5
978.666	1506.5
978.89	1466.5
979.113	1481.5
979.337	1484.5
979.56	1440.5
979.783	1530.5
980.007	1426.5
980.23	1435.5
980.453	1424.5
980.677	1459.5
980.9	1427.5
981.123	1361.5
981.346	1410.5
981.569	1429.5
981.792	1474.5
982.015	1439.5
982.238	1387.5
982.461	1419.5
982.684	1362.5
982.907	1376.5
983.129	1340.5
983.352	1385.5
983.575	1384.5
983.797	1400.5
984.02	1338.5
984.242	1329.5
984.465	1353.5
984.687	1360.5
984.91	1413.5
985.132	1384.5
985.354	1389.5
985.577	1378.5
985.799	1363.5
986.021	1289.5
986.243	1289.5
986.465	1313.5
986.687	1387.5
986.909	1390.5
987.131	1344.5
987.353	1321.5
987.575	1329.5
987.797	1281.5
988.019	1253.5
988.241	1305.5
988.462	1292.5
988.684	1312.5
988.906	1333.5
989.127	1379.5
989.349	1262.5
989.57	1295.5
989.792	1335.5
990.013	1317.5
990.234	1336.5
990.456	1378.5
990.677	1332.5
990.898	1294.5
991.119	1293.5
991.341	1321.5
991.562	1231.5
991.783	1302.5
992.004	1230.5
992.225	1208.5
992.446	1272.5
992.667	1193.5
992.887	1262.5
993.108	1165.5
993.329	1296.5
993.55	1220.5
993.77	1181.5
993.991	1219.5
994.212	1238.5
994.432	1220.5
994.653	1247.5
994.873	1235.5
995.093	1124.5
995.314	1175.5
995.534	1219.5
995.754	1241.5
995.975	1262.5
996.195	1177.5
996.415	1221.5
996.635	1200.5
996.855	1219.5
997.075	1179.5
997.295	1193.5
997.515	1170.5
997.735	1221.5
997.955	1169.5
998.174	1181.5
998.394	1143.5
998.614	1208.5
998.834	1149.5
999.053	1214.5
999.273	1173.5
999.492	1254.5
999.712	1174.5
999.931	1148.5
1000.151	1186.5
1000.37	1179.5
1000.589	1238.5
1000.809	1140.5
1001.028	1276.5
1001.247	1220.5
1001.466	1112.5
1001.685	1255.5
1001.904	1201.5
1002.123	1191.5
1002.342	1175.5
1002.561	1128.5
1002.78	1155.5
1002.999	1234.5
1003.218	1193.5
1003.436	1175.5
1003.655	1220.5
1003.874	1155.5
1004.092	1157.5
1004.311	1204.5
1004.53	1184.5
1004.748	1254.5
1004.966	1177.5
1005.185	1226.5
1005.403	1226.5
1005.622	1206.5
1005.84	1264.5
1006.058	1143.5
1006.276	1202.5
1006.494	1666.5
1006.712	1164.5
1006.931	1237.5
1007.149	1151.5
1007.367	1153.5
1007.584	1187.5
1007.802	1194.5
1008.02	1153.5
1008.238	1257.5
1008.456	1230.5
1008.673	1112.5
1008.891	1205.5
1009.109	1170.5
1009.326	1214.5
1009.544	1259.5
1009.761	1169.5
1009.979	1254.5
1010.196	1234.5
1010.413	1298.5
1010.631	1315.5
1010.848	1351.5
1011.065	1337.5
1011.282	1303.5
1011.5	1211.5
1011.717	1336.5
1011.934	1305.5
1012.151	1308.5
1012.368	1307.5
1012.585	1252.5
1012.801	1294.5
1013.018	1258.5
1013.235	1223.5
1013.452	1231.5
1013.669	1239.5
1013.885	1245.5
1014.102	1284.5
1014.318	1216.5
1014.535	1194.5
1014.751	1226.5
1014.968	1207.5
1015.184	1244.5
1015.401	1171.5
1015.617	1209.5
1015.833	1165.5
1016.049	1149.5
1016.266	1152.5
1016.482	1180.5
1016.698	1079.5
1016.914	1144.5
1017.13	1096.5
1017.346	1099.5
1017.562	1166.5
1017.778	1086.5
1017.993	1060.5
1018.209	1111.5
1018.425	1107.5
1018.641	1076.5
1018.856	1029.5
1019.072	1078.5
1019.288	1110.5
1019.503	1057.5
1019.719	989.5
1019.934	984.5
1020.149	1101.5
1020.365	1027.5
1020.58	983.5
1020.795	1020.5
1021.011	985.5
1021.226	966.5
1021.441	996.5
1021.656	923.5
1021.871	880.5
1022.086	869.5
1022.301	880.5
1022.516	861.5
1022.731	940.5
1022.946	867.5
1023.16	837.5
1023.375	818.5
1023.59	808.5
1023.804	767.5
1024.019	891.5
1024.234	734.5
1024.448	775.5
1024.663	727.5
1024.877	750.5
1025.092	776.5
1025.306	779.5
1025.52	692.5
1025.734	786.5
1025.949	703.5
1026.163	673.5
1026.377	636.5
1026.591	685.5
1026.805	630.5
1027.019	619.5
1027.233	590.5
1027.447	531.5
1027.661	651.5
1027.875	584.5
1028.088	605.5
1028.302	548.5
1028.516	534.5
1028.73	547.5
1028.943	540.5
1029.157	506.5
1029.37	469.5
1029.584	-0.5
1029.797	-2.5
1030.011	1.5
1030.224	-0.5
