Data from QEP037381__74__10-07-59-929.txt Node

Date: Wed Dec 21 10:07:59 EST 2022
User: dcclab
Spectrometer: QEP03738
Trigger mode: 4
Integration Time (sec): 1.000000E1
Scans to average: 1
Electric dark correction enabled: true
Nonlinearity correction enabled: false
Boxcar width: 0
XAxis mode: Wavelengths
Number of Pixels in Spectrum: 1044
>>>>>Begin Spectral Data<<<<<
784.041	13
784.3	-2
784.558	-1
784.817	-5
785.075	116294
785.334	19884
785.592	9192
785.851	6344
786.109	4738
786.368	3677
786.626	2965
786.884	2446
787.143	2029
787.401	1693
787.659	1545
787.917	1281
788.175	1156
788.433	1023
788.691	923
788.949	832
789.207	783
789.465	690
789.723	671
789.98	600
790.238	640
790.496	578
790.753	573
791.011	604
791.268	538
791.526	518
791.783	525
792.041	522
792.298	433
792.556	503
792.813	481
793.07	452
793.327	430
793.584	523
793.841	432
794.099	465
794.356	515
794.613	406
794.869	457
795.126	400
795.383	396
795.64	409
795.897	362
796.153	421
796.41	392
796.667	390
796.923	385
797.18	395
797.436	424
797.693	360
797.949	431
798.206	460
798.462	352
798.718	421
798.974	386
799.231	430
799.487	417
799.743	431
799.999	442
800.255	442
800.511	417
800.767	450
801.023	426
801.279	445
801.534	452
801.79	481
802.046	479
802.302	580
802.557	581
802.813	680
803.068	752
803.324	994
803.579	1253
803.835	1651
804.09	2244
804.345	2879
804.601	3595
804.856	4307
805.111	4991
805.366	5414
805.621	5835
805.876	6087
806.131	6179
806.386	6245
806.641	6312
806.896	6431
807.151	6581
807.406	6662
807.661	6722
807.915	6825
808.17	6944
808.425	6971
808.679	6961
808.934	7134
809.188	7127
809.443	7217
809.697	7282
809.951	7247
810.206	7270
810.46	7434
810.714	7527
810.968	7574
811.223	7514
811.477	7613
811.731	7637
811.985	7604
812.239	7637
812.493	7688
812.747	7762
813	7710
813.254	7819
813.508	7816
813.762	7822
814.015	7878
814.269	7892
814.522	7987
814.776	8126
815.03	8141
815.283	8254
815.536	8387
815.79	8493
816.043	8610
816.296	8726
816.55	8821
816.803	8826
817.056	9054
817.309	9028
817.562	9114
817.815	9187
818.068	9183
818.321	9229
818.574	9346
818.827	9532
819.079	9610
819.332	9857
819.585	9821
819.838	9970
820.09	9957
820.343	10138
820.595	10062
820.848	10180
821.1	10277
821.353	10187
821.605	10200
821.857	10213
822.11	10153
822.362	10175
822.614	10112
822.866	10174
823.118	10166
823.37	10294
823.622	10176
823.874	10292
824.126	10386
824.378	10334
824.63	10360
824.882	10399
825.134	10324
825.385	10325
825.637	10277
825.888	10219
826.14	10242
826.392	10136
826.643	10030
826.895	10159
827.146	10011
827.397	9978
827.649	10043
827.9	9987
828.151	10002
828.402	10017
828.653	10032
828.905	10054
829.156	10088
829.407	10051
829.658	10061
829.909	10096
830.159	10074
830.41	10084
830.661	9985
830.912	9872
831.162	9863
831.413	9825
831.664	9870
831.914	9827
832.165	9860
832.415	9831
832.666	9896
832.916	9916
833.167	9809
833.417	9889
833.667	9807
833.917	9769
834.168	9800
834.418	9738
834.668	9832
834.918	9640
835.168	9640
835.418	9611
835.668	9691
835.918	9593
836.167	9562
836.417	9473
836.667	9520
836.917	9545
837.166	9529
837.416	9562
837.666	9548
837.915	9474
838.165	9431
838.414	9367
838.663	9311
838.913	9341
839.162	9317
839.411	9361
839.661	9237
839.91	9294
840.159	9263
840.408	9211
840.657	9220
840.906	9238
841.155	9271
841.404	9268
841.653	9248
841.902	9292
842.15	9259
842.399	9261
842.648	9186
842.897	9259
843.145	9187
843.394	9053
843.642	8999
843.891	9062
844.139	8968
844.388	8963
844.636	8855
844.884	8884
845.133	8897
845.381	8890
845.629	8882
845.877	8839
846.125	8882
846.373	8827
846.621	8752
846.869	8794
847.117	8797
847.365	8673
847.613	8621
847.861	8647
848.108	8655
848.356	8643
848.604	8572
848.851	8647
849.099	8566
849.346	8662
849.594	8644
849.841	8693
850.089	8685
850.336	8664
850.583	8700
850.831	8697
851.078	8543
851.325	8603
851.572	8628
851.819	8485
852.066	8421
852.313	8259
852.56	8238
852.807	8195
853.054	8167
853.301	8200
853.548	8176
853.794	8234
854.041	8334
854.288	8283
854.534	8482
854.781	8345
855.028	8303
855.274	8340
855.52	8308
855.767	8138
856.013	8209
856.26	8423
856.506	8120
856.752	8100
856.998	8057
857.244	8096
857.49	8213
857.736	8169
857.982	8190
858.228	8184
858.474	8098
858.72	8069
858.966	7972
859.212	7967
859.458	7780
859.703	7797
859.949	7678
860.195	7642
860.44	7622
860.686	7526
860.931	7649
861.177	7508
861.422	7485
861.667	7473
861.913	7456
862.158	7464
862.403	7526
862.648	7502
862.893	7557
863.138	7529
863.384	7454
863.629	7521
863.873	7433
864.118	7420
864.363	7391
864.608	7472
864.853	7402
865.098	7314
865.342	7332
865.587	7292
865.832	7236
866.076	7254
866.321	7211
866.565	7167
866.81	7106
867.054	7160
867.298	7171
867.543	7058
867.787	7111
868.031	7101
868.275	7147
868.519	7054
868.764	7062
869.008	7061
869.252	7086
869.496	7011
869.739	6982
869.983	7038
870.227	6984
870.471	6914
870.715	7040
870.958	7008
871.202	7024
871.446	7042
871.689	6983
871.933	6992
872.176	7047
872.42	6959
872.663	6949
872.906	7049
873.15	6989
873.393	6875
873.636	6918
873.879	6901
874.122	6762
874.366	6750
874.609	6751
874.852	6570
875.095	6613
875.337	6534
875.58	6489
875.823	6503
876.066	6577
876.309	6580
876.551	6433
876.794	6390
877.037	6389
877.279	6334
877.522	6297
877.764	6418
878.007	6347
878.249	6380
878.491	6334
878.734	6429
878.976	6338
879.218	6266
879.46	6258
879.702	6206
879.945	6179
880.187	6073
880.429	6125
880.671	6056
880.912	6023
881.154	5998
881.396	5903
881.638	5968
881.88	5955
882.121	5906
882.363	5905
882.605	5951
882.846	5958
883.088	5975
883.329	5896
883.571	5863
883.812	5962
884.053	6065
884.295	6129
884.536	6244
884.777	6182
885.018	6190
885.259	6160
885.5	6054
885.742	6362
885.982	6053
886.223	6004
886.464	5973
886.705	5886
886.946	5822
887.187	5727
887.428	5741
887.668	5585
887.909	5592
888.15	5473
888.39	5447
888.631	5496
888.871	5422
889.111	5401
889.352	5355
889.592	5265
889.833	5275
890.073	5258
890.313	5254
890.553	5172
890.793	5136
891.033	5125
891.273	5090
891.513	5063
891.753	5128
891.993	5034
892.233	5086
892.473	5134
892.713	5100
892.952	5053
893.192	5071
893.432	5068
893.671	5086
893.911	5043
894.15	5023
894.39	4957
894.629	4978
894.869	4942
895.108	4875
895.347	4872
895.587	4903
895.826	4809
896.065	4778
896.304	4849
896.543	4825
896.782	4761
897.021	4746
897.26	4761
897.499	4759
897.738	4822
897.977	4695
898.216	4692
898.454	4616
898.693	4601
898.932	4619
899.17	4555
899.409	4548
899.647	4550
899.886	4534
900.124	4602
900.363	4461
900.601	4520
900.839	4522
901.078	4568
901.316	4541
901.554	4582
901.792	4572
902.03	4556
902.268	4575
902.506	4585
902.744	4521
902.982	4561
903.22	4430
903.458	4393
903.695	4363
903.933	4341
904.171	4227
904.409	4183
904.646	4188
904.884	4095
905.121	4129
905.359	4058
905.596	4020
905.833	3948
906.071	3960
906.308	3978
906.545	3984
906.783	3883
907.02	3896
907.257	3861
907.494	3901
907.731	3926
907.968	3938
908.205	3827
908.442	3795
908.679	3841
908.915	3818
909.152	3774
909.389	3680
909.626	3727
909.862	3692
910.099	3684
910.335	3712
910.572	3590
910.808	3672
911.045	3606
911.281	3571
911.518	3665
911.754	3574
911.99	3549
912.226	3538
912.463	3481
912.699	3482
912.935	3502
913.171	3434
913.407	3435
913.643	3447
913.879	3407
914.114	3314
914.35	3326
914.586	3270
914.822	3262
915.057	3281
915.293	3186
915.529	3178
915.764	3277
916	3211
916.235	3228
916.471	3231
916.706	3112
916.941	3165
917.177	3133
917.412	3181
917.647	3180
917.882	3120
918.117	3187
918.352	3171
918.588	3197
918.823	3091
919.057	3074
919.292	2961
919.527	3108
919.762	2998
919.997	3028
920.232	2952
920.466	2989
920.701	2828
920.935	2927
921.17	2868
921.405	2799
921.639	2905
921.873	2801
922.108	2836
922.342	2855
922.576	2794
922.811	2790
923.045	2830
923.279	2812
923.513	2694
923.747	2816
923.981	2785
924.215	2695
924.449	2684
924.683	2622
924.917	2624
925.151	2684
925.385	2679
925.618	2661
925.852	2674
926.086	2587
926.319	2647
926.553	2609
926.786	2651
927.02	2610
927.253	2656
927.486	2636
927.72	2596
927.953	2651
928.186	2551
928.42	2586
928.653	2564
928.886	2538
929.119	2563
929.352	2549
929.585	2571
929.818	2491
930.051	2497
930.284	2509
930.516	2414
930.749	2436
930.982	2464
931.215	2446
931.447	2382
931.68	2385
931.912	2387
932.145	2412
932.377	2414
932.61	2527
932.842	2316
933.074	2431
933.307	2366
933.539	2449
933.771	2449
934.003	2379
934.236	2428
934.468	2439
934.7	2372
934.932	2371
935.164	2333
935.395	2313
935.627	2364
935.859	2396
936.091	2292
936.323	2346
936.554	2394
936.786	2320
937.017	2274
937.249	2321
937.481	2237
937.712	2315
937.943	2285
938.175	2282
938.406	2265
938.637	2332
938.869	2204
939.1	2263
939.331	2226
939.562	2288
939.793	2287
940.024	2272
940.255	2280
940.486	2214
940.717	2212
940.948	2208
941.179	2179
941.409	2176
941.64	2166
941.871	2187
942.102	2176
942.332	2181
942.563	2215
942.793	2200
943.024	2116
943.254	2188
943.484	2210
943.715	2217
943.945	2191
944.175	2117
944.405	2134
944.636	2110
944.866	2151
945.096	2181
945.326	2097
945.556	2148
945.786	2144
946.016	2121
946.245	2068
946.475	2068
946.705	2078
946.935	2061
947.164	2103
947.394	2031
947.624	2050
947.853	2093
948.083	2075
948.312	2024
948.542	1964
948.771	1971
949	1994
949.23	1981
949.459	2002
949.688	2069
949.917	2024
950.146	1980
950.375	2039
950.604	1949
950.833	2067
951.062	2032
951.291	1978
951.52	1946
951.749	2012
951.978	1933
952.206	1964
952.435	1913
952.664	1956
952.892	1978
953.121	1951
953.349	1973
953.578	1980
953.806	1944
954.035	1892
954.263	1933
954.491	1874
954.719	1934
954.948	1872
955.176	1892
955.404	1808
955.632	1870
955.86	1857
956.088	1849
956.316	1872
956.544	1895
956.772	1837
956.999	1826
957.227	1878
957.455	1823
957.683	1831
957.91	1787
958.138	1748
958.365	1778
958.593	1786
958.82	1729
959.048	1810
959.275	1782
959.502	1753
959.73	1726
959.957	1753
960.184	1805
960.411	1713
960.638	1818
960.865	1746
961.092	1736
961.319	1659
961.546	1792
961.773	1784
962	1742
962.227	1781
962.454	1708
962.68	1713
962.907	1755
963.134	1696
963.36	1707
963.587	1740
963.813	1687
964.04	1686
964.266	1647
964.493	1745
964.719	1713
964.945	1704
965.171	1595
965.398	1652
965.624	1666
965.85	1632
966.076	1630
966.302	1655
966.528	1608
966.754	1633
966.98	1642
967.206	1652
967.431	1585
967.657	1669
967.883	1635
968.109	1649
968.334	1558
968.56	1518
968.785	1590
969.011	1564
969.236	1623
969.462	1545
969.687	1586
969.912	1600
970.138	1612
970.363	1518
970.588	1569
970.813	1555
971.038	1532
971.263	1543
971.488	1595
971.713	1613
971.938	1571
972.163	1486
972.388	1497
972.613	1495
972.838	1514
973.062	1479
973.287	1509
973.512	1410
973.736	1505
973.961	1494
974.185	1435
974.41	1495
974.634	1395
974.858	1407
975.083	1450
975.307	1451
975.531	1410
975.755	1376
975.98	1400
976.204	1335
976.428	1344
976.652	1350
976.876	1339
977.1	1356
977.324	1324
977.547	1388
977.771	1402
977.995	1361
978.219	1309
978.442	1409
978.666	1332
978.89	1358
979.113	1339
979.337	1364
979.56	1321
979.783	1400
980.007	1284
980.23	1323
980.453	1288
980.677	1339
980.9	1330
981.123	1232
981.346	1329
981.569	1307
981.792	1351
982.015	1314
982.238	1271
982.461	1292
982.684	1260
982.907	1244
983.129	1238
983.352	1315
983.575	1274
983.797	1284
984.02	1224
984.242	1260
984.465	1231
984.687	1290
984.91	1287
985.132	1274
985.354	1310
985.577	1249
985.799	1262
986.021	1181
986.243	1201
986.465	1227
986.687	1296
986.909	1302
987.131	1224
987.353	1227
987.575	1237
987.797	1208
988.019	1144
988.241	1213
988.462	1183
988.684	1232
988.906	1252
989.127	1303
989.349	1154
989.57	1203
989.792	1228
990.013	1263
990.234	1245
990.456	1279
990.677	1260
990.898	1183
991.119	1184
991.341	1241
991.562	1153
991.783	1208
992.004	1158
992.225	1135
992.446	1189
992.667	1094
992.887	1196
993.108	1094
993.329	1226
993.55	1170
993.77	1108
993.991	1101
994.212	1165
994.432	1153
994.653	1168
994.873	1158
995.093	1050
995.314	1096
995.534	1147
995.754	1178
995.975	1182
996.195	1085
996.415	1145
996.635	1125
996.855	1139
997.075	1110
997.295	1107
997.515	1082
997.735	1143
997.955	1107
998.174	1110
998.394	1088
998.614	1109
998.834	1076
999.053	1153
999.273	1120
999.492	1169
999.712	1123
999.931	1061
1000.151	1140
1000.37	1123
1000.589	1184
1000.809	1077
1001.028	1208
1001.247	1135
1001.466	1045
1001.685	1192
1001.904	1144
1002.123	1121
1002.342	1123
1002.561	1079
1002.78	1084
1002.999	1202
1003.218	1108
1003.436	1076
1003.655	1155
1003.874	1073
1004.092	1120
1004.311	1145
1004.53	1147
1004.748	1222
1004.966	1104
1005.185	1163
1005.403	1158
1005.622	1138
1005.84	1196
1006.058	1115
1006.276	1124
1006.494	1647
1006.712	1112
1006.931	1188
1007.149	1105
1007.367	1103
1007.584	1145
1007.802	1160
1008.02	1108
1008.238	1197
1008.456	1207
1008.673	1050
1008.891	1174
1009.109	1119
1009.326	1153
1009.544	1238
1009.761	1118
1009.979	1232
1010.196	1218
1010.413	1284
1010.631	1304
1010.848	1309
1011.065	1331
1011.282	1268
1011.5	1204
1011.717	1325
1011.934	1298
1012.151	1308
1012.368	1273
1012.585	1223
1012.801	1276
1013.018	1233
1013.235	1188
1013.452	1241
1013.669	1236
1013.885	1199
1014.102	1277
1014.318	1202
1014.535	1206
1014.751	1207
1014.968	1213
1015.184	1249
1015.401	1167
1015.617	1191
1015.833	1146
1016.049	1146
1016.266	1137
1016.482	1162
1016.698	1070
1016.914	1131
1017.13	1093
1017.346	1097
1017.562	1138
1017.778	1073
1017.993	1059
1018.209	1089
1018.425	1084
1018.641	1062
1018.856	1026
1019.072	1055
1019.288	1093
1019.503	1052
1019.719	955
1019.934	990
1020.149	1074
1020.365	1018
1020.58	952
1020.795	1040
1021.011	978
1021.226	970
1021.441	981
1021.656	901
1021.871	848
1022.086	874
1022.301	852
1022.516	847
1022.731	928
1022.946	834
1023.16	825
1023.375	812
1023.59	797
1023.804	763
1024.019	854
1024.234	752
1024.448	763
1024.663	696
1024.877	744
1025.092	761
1025.306	756
1025.52	667
1025.734	763
1025.949	699
1026.163	659
1026.377	617
1026.591	673
1026.805	599
1027.019	611
1027.233	584
1027.447	526
1027.661	629
1027.875	583
1028.088	589
1028.302	525
1028.516	527
1028.73	519
1028.943	539
1029.157	482
1029.37	446
1029.584	1
1029.797	-3
1030.011	-1
1030.224	-2
