Data from QEP037381__39__10-02-09-926.txt Node

Date: Wed Dec 21 10:02:09 EST 2022
User: dcclab
Spectrometer: QEP03738
Trigger mode: 4
Integration Time (sec): 1.000000E1
Scans to average: 1
Electric dark correction enabled: true
Nonlinearity correction enabled: false
Boxcar width: 0
XAxis mode: Wavelengths
Number of Pixels in Spectrum: 1044
>>>>>Begin Spectral Data<<<<<
784.041	10.75
784.3	1.75
784.558	-3.25
784.817	-2.25
785.075	114490.75
785.334	19195.75
785.592	8941.75
785.851	6106.75
786.109	4606.75
786.368	3547.75
786.626	2888.75
786.884	2380.75
787.143	1977.75
787.401	1642.75
787.659	1473.75
787.917	1269.75
788.175	1136.75
788.433	995.75
788.691	906.75
788.949	820.75
789.207	797.75
789.465	670.75
789.723	639.75
789.98	586.75
790.238	626.75
790.496	579.75
790.753	550.75
791.011	601.75
791.268	553.75
791.526	534.75
791.783	529.75
792.041	511.75
792.298	419.75
792.556	491.75
792.813	467.75
793.07	452.75
793.327	440.75
793.584	516.75
793.841	435.75
794.099	456.75
794.356	511.75
794.613	395.75
794.869	447.75
795.126	403.75
795.383	390.75
795.64	417.75
795.897	370.75
796.153	424.75
796.41	409.75
796.667	387.75
796.923	401.75
797.18	390.75
797.436	427.75
797.693	378.75
797.949	443.75
798.206	458.75
798.462	367.75
798.718	424.75
798.974	391.75
799.231	435.75
799.487	414.75
799.743	428.75
799.999	441.75
800.255	449.75
800.511	426.75
800.767	447.75
801.023	430.75
801.279	448.75
801.534	461.75
801.79	499.75
802.046	481.75
802.302	576.75
802.557	606.75
802.813	693.75
803.068	762.75
803.324	1027.75
803.579	1246.75
803.835	1682.75
804.09	2264.75
804.345	2894.75
804.601	3601.75
804.856	4349.75
805.111	4983.75
805.366	5415.75
805.621	5773.75
805.876	5996.75
806.131	6164.75
806.386	6141.75
806.641	6276.75
806.896	6425.75
807.151	6503.75
807.406	6571.75
807.661	6681.75
807.915	6740.75
808.17	6890.75
808.425	6909.75
808.679	6924.75
808.934	7007.75
809.188	7056.75
809.443	7168.75
809.697	7222.75
809.951	7187.75
810.206	7253.75
810.46	7330.75
810.714	7408.75
810.968	7422.75
811.223	7453.75
811.477	7560.75
811.731	7641.75
811.985	7620.75
812.239	7570.75
812.493	7642.75
812.747	7726.75
813	7659.75
813.254	7732.75
813.508	7779.75
813.762	7719.75
814.015	7779.75
814.269	7813.75
814.522	7907.75
814.776	7972.75
815.03	8068.75
815.283	8163.75
815.536	8316.75
815.79	8366.75
816.043	8469.75
816.296	8564.75
816.55	8683.75
816.803	8753.75
817.056	8917.75
817.309	8879.75
817.562	8969.75
817.815	9102.75
818.068	9136.75
818.321	9160.75
818.574	9264.75
818.827	9376.75
819.079	9523.75
819.332	9682.75
819.585	9721.75
819.838	9857.75
820.09	9877.75
820.343	10011.75
820.595	9952.75
820.848	10019.75
821.1	10150.75
821.353	10064.75
821.605	10117.75
821.857	10207.75
822.11	10038.75
822.362	10059.75
822.614	10029.75
822.866	10039.75
823.118	10062.75
823.37	10179.75
823.622	10177.75
823.874	10168.75
824.126	10211.75
824.378	10176.75
824.63	10211.75
824.882	10288.75
825.134	10190.75
825.385	10238.75
825.637	10221.75
825.888	10037.75
826.14	10115.75
826.392	9998.75
826.643	9913.75
826.895	9962.75
827.146	9953.75
827.397	9843.75
827.649	9944.75
827.9	9885.75
828.151	9857.75
828.402	9883.75
828.653	9927.75
828.905	9959.75
829.156	10011.75
829.407	9867.75
829.658	9961.75
829.909	10057.75
830.159	9907.75
830.41	9907.75
830.661	9792.75
830.912	9792.75
831.162	9724.75
831.413	9708.75
831.664	9787.75
831.914	9726.75
832.165	9797.75
832.415	9735.75
832.666	9775.75
832.916	9737.75
833.167	9653.75
833.417	9766.75
833.667	9651.75
833.917	9648.75
834.168	9720.75
834.418	9685.75
834.668	9543.75
834.918	9553.75
835.168	9600.75
835.418	9512.75
835.668	9522.75
835.918	9507.75
836.167	9479.75
836.417	9376.75
836.667	9492.75
836.917	9444.75
837.166	9336.75
837.416	9344.75
837.666	9421.75
837.915	9319.75
838.165	9268.75
838.414	9204.75
838.663	9233.75
838.913	9181.75
839.162	9192.75
839.411	9167.75
839.661	9135.75
839.91	9148.75
840.159	9156.75
840.408	9151.75
840.657	9151.75
840.906	9191.75
841.155	9108.75
841.404	9150.75
841.653	9198.75
841.902	9108.75
842.15	9224.75
842.399	9145.75
842.648	9109.75
842.897	9125.75
843.145	8992.75
843.394	8990.75
843.642	8937.75
843.891	8911.75
844.139	8891.75
844.388	8790.75
844.636	8763.75
844.884	8752.75
845.133	8704.75
845.381	8780.75
845.629	8723.75
845.877	8728.75
846.125	8723.75
846.373	8630.75
846.621	8679.75
846.869	8621.75
847.117	8623.75
847.365	8555.75
847.613	8563.75
847.861	8499.75
848.108	8499.75
848.356	8464.75
848.604	8411.75
848.851	8528.75
849.099	8461.75
849.346	8534.75
849.594	8532.75
849.841	8636.75
850.089	8611.75
850.336	8523.75
850.583	8554.75
850.831	8517.75
851.078	8535.75
851.325	8392.75
851.572	8439.75
851.819	8347.75
852.066	8253.75
852.313	8111.75
852.56	8068.75
852.807	8065.75
853.054	8073.75
853.301	8048.75
853.548	8046.75
853.794	8188.75
854.041	8169.75
854.288	8105.75
854.534	8266.75
854.781	8300.75
855.028	8153.75
855.274	8238.75
855.52	8131.75
855.767	8104.75
856.013	8113.75
856.26	8349.75
856.506	7982.75
856.752	8014.75
856.998	7943.75
857.244	8018.75
857.49	8052.75
857.736	8015.75
857.982	8005.75
858.228	8071.75
858.474	7975.75
858.72	7889.75
858.966	7848.75
859.212	7830.75
859.458	7759.75
859.703	7659.75
859.949	7571.75
860.195	7566.75
860.44	7504.75
860.686	7455.75
860.931	7466.75
861.177	7416.75
861.422	7377.75
861.667	7351.75
861.913	7420.75
862.158	7421.75
862.403	7405.75
862.648	7492.75
862.893	7458.75
863.138	7385.75
863.384	7404.75
863.629	7381.75
863.873	7338.75
864.118	7361.75
864.363	7229.75
864.608	7257.75
864.853	7345.75
865.098	7216.75
865.342	7237.75
865.587	7148.75
865.832	7221.75
866.076	7192.75
866.321	7088.75
866.565	7121.75
866.81	6956.75
867.054	7050.75
867.298	7023.75
867.543	7016.75
867.787	7005.75
868.031	6946.75
868.275	6944.75
868.519	6992.75
868.764	7004.75
869.008	6926.75
869.252	6973.75
869.496	6869.75
869.739	6882.75
869.983	6920.75
870.227	6912.75
870.471	6885.75
870.715	6926.75
870.958	6955.75
871.202	6872.75
871.446	6904.75
871.689	6894.75
871.933	6900.75
872.176	6890.75
872.42	6896.75
872.663	6879.75
872.906	6857.75
873.15	6835.75
873.393	6796.75
873.636	6817.75
873.879	6787.75
874.122	6686.75
874.366	6656.75
874.609	6596.75
874.852	6514.75
875.095	6502.75
875.337	6472.75
875.58	6365.75
875.823	6439.75
876.066	6454.75
876.309	6442.75
876.551	6310.75
876.794	6251.75
877.037	6322.75
877.279	6267.75
877.522	6267.75
877.764	6316.75
878.007	6234.75
878.249	6304.75
878.491	6277.75
878.734	6271.75
878.976	6215.75
879.218	6116.75
879.46	6141.75
879.702	6111.75
879.945	6033.75
880.187	6052.75
880.429	5973.75
880.671	5935.75
880.912	5929.75
881.154	5950.75
881.396	5816.75
881.638	5835.75
881.88	5850.75
882.121	5869.75
882.363	5871.75
882.605	5933.75
882.846	5867.75
883.088	5823.75
883.329	5814.75
883.571	5763.75
883.812	5831.75
884.053	5973.75
884.295	6059.75
884.536	6152.75
884.777	6041.75
885.018	6017.75
885.259	6049.75
885.5	5899.75
885.742	6174.75
885.982	5964.75
886.223	5820.75
886.464	5840.75
886.705	5733.75
886.946	5734.75
887.187	5655.75
887.428	5600.75
887.668	5512.75
887.909	5417.75
888.15	5391.75
888.39	5443.75
888.631	5463.75
888.871	5372.75
889.111	5305.75
889.352	5277.75
889.592	5230.75
889.833	5210.75
890.073	5208.75
890.313	5198.75
890.553	5093.75
890.793	5093.75
891.033	5057.75
891.273	5064.75
891.513	5030.75
891.753	5100.75
891.993	5026.75
892.233	5056.75
892.473	5086.75
892.713	5040.75
892.952	5012.75
893.192	4997.75
893.432	5027.75
893.671	4991.75
893.911	5003.75
894.15	4952.75
894.39	4821.75
894.629	4853.75
894.869	4902.75
895.108	4824.75
895.347	4754.75
895.587	4836.75
895.826	4733.75
896.065	4747.75
896.304	4772.75
896.543	4694.75
896.782	4693.75
897.021	4743.75
897.26	4712.75
897.499	4748.75
897.738	4724.75
897.977	4665.75
898.216	4670.75
898.454	4575.75
898.693	4533.75
898.932	4543.75
899.17	4502.75
899.409	4530.75
899.647	4486.75
899.886	4460.75
900.124	4506.75
900.363	4456.75
900.601	4474.75
900.839	4477.75
901.078	4477.75
901.316	4492.75
901.554	4487.75
901.792	4477.75
902.03	4448.75
902.268	4506.75
902.506	4520.75
902.744	4494.75
902.982	4469.75
903.22	4373.75
903.458	4334.75
903.695	4340.75
903.933	4311.75
904.171	4180.75
904.409	4105.75
904.646	4123.75
904.884	4032.75
905.121	4082.75
905.359	4034.75
905.596	3991.75
905.833	3866.75
906.071	3866.75
906.308	3934.75
906.545	3898.75
906.783	3867.75
907.02	3884.75
907.257	3821.75
907.494	3835.75
907.731	3838.75
907.968	3852.75
908.205	3829.75
908.442	3777.75
908.679	3766.75
908.915	3742.75
909.152	3726.75
909.389	3656.75
909.626	3670.75
909.862	3616.75
910.099	3621.75
910.335	3638.75
910.572	3535.75
910.808	3618.75
911.045	3548.75
911.281	3518.75
911.518	3596.75
911.754	3524.75
911.99	3522.75
912.226	3476.75
912.463	3475.75
912.699	3429.75
912.935	3450.75
913.171	3391.75
913.407	3344.75
913.643	3384.75
913.879	3295.75
914.114	3318.75
914.35	3288.75
914.586	3273.75
914.822	3185.75
915.057	3310.75
915.293	3122.75
915.529	3124.75
915.764	3164.75
916	3169.75
916.235	3169.75
916.471	3177.75
916.706	3084.75
916.941	3120.75
917.177	3083.75
917.412	3108.75
917.647	3117.75
917.882	3084.75
918.117	3139.75
918.352	3089.75
918.588	3123.75
918.823	3018.75
919.057	2983.75
919.292	2940.75
919.527	3055.75
919.762	2944.75
919.997	2991.75
920.232	2907.75
920.466	2950.75
920.701	2795.75
920.935	2853.75
921.17	2810.75
921.405	2795.75
921.639	2824.75
921.873	2818.75
922.108	2800.75
922.342	2815.75
922.576	2728.75
922.811	2743.75
923.045	2761.75
923.279	2790.75
923.513	2635.75
923.747	2774.75
923.981	2718.75
924.215	2704.75
924.449	2640.75
924.683	2599.75
924.917	2597.75
925.151	2612.75
925.385	2661.75
925.618	2591.75
925.852	2573.75
926.086	2555.75
926.319	2547.75
926.553	2602.75
926.786	2598.75
927.02	2621.75
927.253	2612.75
927.486	2616.75
927.72	2554.75
927.953	2618.75
928.186	2534.75
928.42	2550.75
928.653	2510.75
928.886	2495.75
929.119	2535.75
929.352	2519.75
929.585	2532.75
929.818	2448.75
930.051	2500.75
930.284	2428.75
930.516	2386.75
930.749	2391.75
930.982	2450.75
931.215	2400.75
931.447	2345.75
931.68	2381.75
931.912	2341.75
932.145	2380.75
932.377	2378.75
932.61	2537.75
932.842	2298.75
933.074	2360.75
933.307	2297.75
933.539	2407.75
933.771	2408.75
934.003	2357.75
934.236	2432.75
934.468	2447.75
934.7	2337.75
934.932	2392.75
935.164	2308.75
935.395	2344.75
935.627	2324.75
935.859	2288.75
936.091	2271.75
936.323	2344.75
936.554	2357.75
936.786	2316.75
937.017	2219.75
937.249	2284.75
937.481	2172.75
937.712	2300.75
937.943	2261.75
938.175	2209.75
938.406	2222.75
938.637	2330.75
938.869	2188.75
939.1	2243.75
939.331	2213.75
939.562	2229.75
939.793	2200.75
940.024	2239.75
940.255	2245.75
940.486	2182.75
940.717	2178.75
940.948	2169.75
941.179	2144.75
941.409	2153.75
941.64	2163.75
941.871	2160.75
942.102	2120.75
942.332	2139.75
942.563	2161.75
942.793	2158.75
943.024	2111.75
943.254	2135.75
943.484	2190.75
943.715	2177.75
943.945	2158.75
944.175	2094.75
944.405	2100.75
944.636	2092.75
944.866	2116.75
945.096	2115.75
945.326	2050.75
945.556	2127.75
945.786	2125.75
946.016	2076.75
946.245	2021.75
946.475	2045.75
946.705	2055.75
946.935	2023.75
947.164	2037.75
947.394	2004.75
947.624	2000.75
947.853	2087.75
948.083	2025.75
948.312	2005.75
948.542	1955.75
948.771	1920.75
949	1957.75
949.23	1940.75
949.459	1960.75
949.688	2039.75
949.917	1974.75
950.146	1991.75
950.375	2057.75
950.604	1925.75
950.833	2024.75
951.062	2027.75
951.291	1963.75
951.52	1928.75
951.749	1975.75
951.978	1901.75
952.206	1916.75
952.435	1875.75
952.664	1939.75
952.892	1930.75
953.121	1905.75
953.349	1951.75
953.578	1910.75
953.806	1939.75
954.035	1852.75
954.263	1907.75
954.491	1814.75
954.719	1901.75
954.948	1835.75
955.176	1863.75
955.404	1773.75
955.632	1860.75
955.86	1888.75
956.088	1832.75
956.316	1867.75
956.544	1886.75
956.772	1808.75
956.999	1792.75
957.227	1865.75
957.455	1759.75
957.683	1808.75
957.91	1753.75
958.138	1738.75
958.365	1751.75
958.593	1750.75
958.82	1715.75
959.048	1771.75
959.275	1698.75
959.502	1719.75
959.73	1687.75
959.957	1757.75
960.184	1750.75
960.411	1694.75
960.638	1768.75
960.865	1716.75
961.092	1752.75
961.319	1678.75
961.546	1782.75
961.773	1734.75
962	1705.75
962.227	1733.75
962.454	1730.75
962.68	1685.75
962.907	1709.75
963.134	1658.75
963.36	1737.75
963.587	1704.75
963.813	1654.75
964.04	1701.75
964.266	1619.75
964.493	1696.75
964.719	1673.75
964.945	1699.75
965.171	1605.75
965.398	1652.75
965.624	1633.75
965.85	1629.75
966.076	1601.75
966.302	1653.75
966.528	1618.75
966.754	1629.75
966.98	1615.75
967.206	1614.75
967.431	1544.75
967.657	1600.75
967.883	1590.75
968.109	1592.75
968.334	1548.75
968.56	1530.75
968.785	1550.75
969.011	1515.75
969.236	1560.75
969.462	1513.75
969.687	1560.75
969.912	1599.75
970.138	1625.75
970.363	1516.75
970.588	1533.75
970.813	1532.75
971.038	1503.75
971.263	1550.75
971.488	1523.75
971.713	1540.75
971.938	1542.75
972.163	1454.75
972.388	1506.75
972.613	1493.75
972.838	1504.75
973.062	1464.75
973.287	1478.75
973.512	1395.75
973.736	1476.75
973.961	1430.75
974.185	1447.75
974.41	1470.75
974.634	1361.75
974.858	1399.75
975.083	1434.75
975.307	1467.75
975.531	1399.75
975.755	1367.75
975.98	1378.75
976.204	1309.75
976.428	1353.75
976.652	1314.75
976.876	1313.75
977.1	1365.75
977.324	1313.75
977.547	1357.75
977.771	1374.75
977.995	1340.75
978.219	1287.75
978.442	1418.75
978.666	1343.75
978.89	1323.75
979.113	1350.75
979.337	1324.75
979.56	1311.75
979.783	1383.75
980.007	1295.75
980.23	1304.75
980.453	1302.75
980.677	1310.75
980.9	1283.75
981.123	1218.75
981.346	1313.75
981.569	1314.75
981.792	1324.75
982.015	1278.75
982.238	1230.75
982.461	1270.75
982.684	1229.75
982.907	1222.75
983.129	1228.75
983.352	1294.75
983.575	1261.75
983.797	1261.75
984.02	1199.75
984.242	1215.75
984.465	1204.75
984.687	1281.75
984.91	1277.75
985.132	1239.75
985.354	1275.75
985.577	1243.75
985.799	1216.75
986.021	1161.75
986.243	1177.75
986.465	1213.75
986.687	1243.75
986.909	1289.75
987.131	1239.75
987.353	1192.75
987.575	1216.75
987.797	1203.75
988.019	1103.75
988.241	1211.75
988.462	1163.75
988.684	1202.75
988.906	1249.75
989.127	1269.75
989.349	1143.75
989.57	1179.75
989.792	1207.75
990.013	1214.75
990.234	1240.75
990.456	1262.75
990.677	1239.75
990.898	1183.75
991.119	1195.75
991.341	1208.75
991.562	1128.75
991.783	1187.75
992.004	1130.75
992.225	1113.75
992.446	1182.75
992.667	1087.75
992.887	1185.75
993.108	1058.75
993.329	1215.75
993.55	1160.75
993.77	1097.75
993.991	1096.75
994.212	1137.75
994.432	1143.75
994.653	1125.75
994.873	1132.75
995.093	1041.75
995.314	1066.75
995.534	1165.75
995.754	1162.75
995.975	1188.75
996.195	1071.75
996.415	1130.75
996.635	1094.75
996.855	1120.75
997.075	1089.75
997.295	1098.75
997.515	1084.75
997.735	1123.75
997.955	1104.75
998.174	1088.75
998.394	1053.75
998.614	1122.75
998.834	1077.75
999.053	1153.75
999.273	1091.75
999.492	1162.75
999.712	1091.75
999.931	1080.75
1000.151	1104.75
1000.37	1100.75
1000.589	1160.75
1000.809	1076.75
1001.028	1220.75
1001.247	1140.75
1001.466	1038.75
1001.685	1188.75
1001.904	1117.75
1002.123	1087.75
1002.342	1136.75
1002.561	1083.75
1002.78	1108.75
1002.999	1175.75
1003.218	1116.75
1003.436	1091.75
1003.655	1117.75
1003.874	1056.75
1004.092	1094.75
1004.311	1131.75
1004.53	1111.75
1004.748	1183.75
1004.966	1114.75
1005.185	1145.75
1005.403	1135.75
1005.622	1127.75
1005.84	1202.75
1006.058	1096.75
1006.276	1116.75
1006.494	1610.75
1006.712	1113.75
1006.931	1183.75
1007.149	1077.75
1007.367	1071.75
1007.584	1116.75
1007.802	1140.75
1008.02	1098.75
1008.238	1171.75
1008.456	1202.75
1008.673	1024.75
1008.891	1168.75
1009.109	1095.75
1009.326	1145.75
1009.544	1207.75
1009.761	1112.75
1009.979	1197.75
1010.196	1167.75
1010.413	1256.75
1010.631	1268.75
1010.848	1299.75
1011.065	1298.75
1011.282	1234.75
1011.5	1197.75
1011.717	1302.75
1011.934	1244.75
1012.151	1276.75
1012.368	1236.75
1012.585	1185.75
1012.801	1249.75
1013.018	1224.75
1013.235	1169.75
1013.452	1172.75
1013.669	1193.75
1013.885	1179.75
1014.102	1227.75
1014.318	1204.75
1014.535	1133.75
1014.751	1179.75
1014.968	1177.75
1015.184	1222.75
1015.401	1155.75
1015.617	1174.75
1015.833	1107.75
1016.049	1127.75
1016.266	1109.75
1016.482	1095.75
1016.698	1032.75
1016.914	1099.75
1017.13	1039.75
1017.346	1032.75
1017.562	1115.75
1017.778	1039.75
1017.993	1022.75
1018.209	1079.75
1018.425	1049.75
1018.641	1023.75
1018.856	989.75
1019.072	1030.75
1019.288	1071.75
1019.503	1027.75
1019.719	960.75
1019.934	963.75
1020.149	1034.75
1020.365	999.75
1020.58	943.75
1020.795	986.75
1021.011	937.75
1021.226	932.75
1021.441	963.75
1021.656	887.75
1021.871	842.75
1022.086	852.75
1022.301	829.75
1022.516	834.75
1022.731	893.75
1022.946	821.75
1023.16	815.75
1023.375	788.75
1023.59	769.75
1023.804	743.75
1024.019	854.75
1024.234	726.75
1024.448	776.75
1024.663	697.75
1024.877	727.75
1025.092	734.75
1025.306	749.75
1025.52	664.75
1025.734	754.75
1025.949	691.75
1026.163	655.75
1026.377	623.75
1026.591	668.75
1026.805	605.75
1027.019	600.75
1027.233	559.75
1027.447	522.75
1027.661	620.75
1027.875	565.75
1028.088	586.75
1028.302	537.75
1028.516	530.75
1028.73	526.75
1028.943	521.75
1029.157	486.75
1029.37	451.75
1029.584	-1.25
1029.797	-4.25
1030.011	-0.25
1030.224	-1.25
