Data from QEP037381__34__10-01-19-926.txt Node

Date: Wed Dec 21 10:01:19 EST 2022
User: dcclab
Spectrometer: QEP03738
Trigger mode: 4
Integration Time (sec): 1.000000E1
Scans to average: 1
Electric dark correction enabled: true
Nonlinearity correction enabled: false
Boxcar width: 0
XAxis mode: Wavelengths
Number of Pixels in Spectrum: 1044
>>>>>Begin Spectral Data<<<<<
784.041	11.25
784.3	-0.75
784.558	2.25
784.817	-4.75
785.075	109154.25
785.334	19119.25
785.592	9015.25
785.851	6193.25
786.109	4637.25
786.368	3628.25
786.626	2940.25
786.884	2445.25
787.143	2012.25
787.401	1681.25
787.659	1524.25
787.917	1283.25
788.175	1178.25
788.433	1023.25
788.691	929.25
788.949	843.25
789.207	792.25
789.465	717.25
789.723	664.25
789.98	608.25
790.238	641.25
790.496	606.25
790.753	577.25
791.011	619.25
791.268	546.25
791.526	525.25
791.783	541.25
792.041	521.25
792.298	431.25
792.556	492.25
792.813	472.25
793.07	455.25
793.327	432.25
793.584	526.25
793.841	430.25
794.099	454.25
794.356	503.25
794.613	406.25
794.869	434.25
795.126	407.25
795.383	397.25
795.64	401.25
795.897	363.25
796.153	401.25
796.41	409.25
796.667	386.25
796.923	392.25
797.18	398.25
797.436	412.25
797.693	384.25
797.949	431.25
798.206	452.25
798.462	364.25
798.718	418.25
798.974	383.25
799.231	442.25
799.487	424.25
799.743	430.25
799.999	453.25
800.255	435.25
800.511	415.25
800.767	445.25
801.023	421.25
801.279	440.25
801.534	466.25
801.79	491.25
802.046	492.25
802.302	586.25
802.557	603.25
802.813	710.25
803.068	781.25
803.324	1031.25
803.579	1275.25
803.835	1671.25
804.09	2291.25
804.345	2944.25
804.601	3648.25
804.856	4445.25
805.111	5054.25
805.366	5557.25
805.621	5897.25
805.876	6114.25
806.131	6249.25
806.386	6401.25
806.641	6427.25
806.896	6507.25
807.151	6717.25
807.406	6744.25
807.661	6849.25
807.915	6986.25
808.17	7015.25
808.425	7067.25
808.679	7141.25
808.934	7219.25
809.188	7198.25
809.443	7333.25
809.697	7382.25
809.951	7383.25
810.206	7436.25
810.46	7509.25
810.714	7547.25
810.968	7674.25
811.223	7550.25
811.477	7742.25
811.731	7835.25
811.985	7733.25
812.239	7773.25
812.493	7900.25
812.747	7935.25
813	7895.25
813.254	7939.25
813.508	7996.25
813.762	7991.25
814.015	7953.25
814.269	8064.25
814.522	8173.25
814.776	8228.25
815.03	8320.25
815.283	8336.25
815.536	8511.25
815.79	8590.25
816.043	8667.25
816.296	8802.25
816.55	8867.25
816.803	8960.25
817.056	9174.25
817.309	9134.25
817.562	9209.25
817.815	9291.25
818.068	9350.25
818.321	9387.25
818.574	9515.25
818.827	9605.25
819.079	9681.25
819.332	9962.25
819.585	9905.25
819.838	10102.25
820.09	10050.25
820.343	10233.25
820.595	10212.25
820.848	10262.25
821.1	10386.25
821.353	10325.25
821.605	10330.25
821.857	10342.25
822.11	10270.25
822.362	10268.25
822.614	10249.25
822.866	10346.25
823.118	10315.25
823.37	10432.25
823.622	10347.25
823.874	10353.25
824.126	10465.25
824.378	10424.25
824.63	10483.25
824.882	10495.25
825.134	10469.25
825.385	10433.25
825.637	10500.25
825.888	10317.25
826.14	10362.25
826.392	10308.25
826.643	10235.25
826.895	10278.25
827.146	10141.25
827.397	10052.25
827.649	10150.25
827.9	10088.25
828.151	10088.25
828.402	10089.25
828.653	10171.25
828.905	10238.25
829.156	10254.25
829.407	10120.25
829.658	10233.25
829.909	10229.25
830.159	10201.25
830.41	10162.25
830.661	10068.25
830.912	9968.25
831.162	10034.25
831.413	9972.25
831.664	10033.25
831.914	9928.25
832.165	9929.25
832.415	10023.25
832.666	9931.25
832.916	10068.25
833.167	9978.25
833.417	10043.25
833.667	9908.25
833.917	9948.25
834.168	9953.25
834.418	9883.25
834.668	9843.25
834.918	9795.25
835.168	9787.25
835.418	9721.25
835.668	9713.25
835.918	9706.25
836.167	9647.25
836.417	9620.25
836.667	9642.25
836.917	9613.25
837.166	9566.25
837.416	9593.25
837.666	9636.25
837.915	9569.25
838.165	9560.25
838.414	9426.25
838.663	9399.25
838.913	9503.25
839.162	9366.25
839.411	9438.25
839.661	9348.25
839.91	9327.25
840.159	9435.25
840.408	9379.25
840.657	9401.25
840.906	9416.25
841.155	9367.25
841.404	9365.25
841.653	9361.25
841.902	9236.25
842.15	9301.25
842.399	9379.25
842.648	9397.25
842.897	9277.25
843.145	9300.25
843.394	9175.25
843.642	9189.25
843.891	9077.25
844.139	9119.25
844.388	8977.25
844.636	8971.25
844.884	8992.25
845.133	8927.25
845.381	8977.25
845.629	8980.25
845.877	8949.25
846.125	8909.25
846.373	8974.25
846.621	8950.25
846.869	8923.25
847.117	8775.25
847.365	8785.25
847.613	8759.25
847.861	8786.25
848.108	8783.25
848.356	8643.25
848.604	8590.25
848.851	8682.25
849.099	8697.25
849.346	8724.25
849.594	8755.25
849.841	8745.25
850.089	8729.25
850.336	8796.25
850.583	8730.25
850.831	8762.25
851.078	8742.25
851.325	8619.25
851.572	8607.25
851.819	8594.25
852.066	8479.25
852.313	8332.25
852.56	8270.25
852.807	8269.25
853.054	8227.25
853.301	8214.25
853.548	8284.25
853.794	8406.25
854.041	8277.25
854.288	8322.25
854.534	8493.25
854.781	8428.25
855.028	8380.25
855.274	8417.25
855.52	8289.25
855.767	8251.25
856.013	8279.25
856.26	8551.25
856.506	8123.25
856.752	8173.25
856.998	8172.25
857.244	8109.25
857.49	8154.25
857.736	8194.25
857.982	8236.25
858.228	8202.25
858.474	8168.25
858.72	8109.25
858.966	7989.25
859.212	8006.25
859.458	7934.25
859.703	7812.25
859.949	7749.25
860.195	7777.25
860.44	7653.25
860.686	7591.25
860.931	7654.25
861.177	7531.25
861.422	7555.25
861.667	7541.25
861.913	7579.25
862.158	7617.25
862.403	7571.25
862.648	7607.25
862.893	7590.25
863.138	7612.25
863.384	7529.25
863.629	7561.25
863.873	7546.25
864.118	7523.25
864.363	7469.25
864.608	7511.25
864.853	7469.25
865.098	7366.25
865.342	7317.25
865.587	7349.25
865.832	7375.25
866.076	7293.25
866.321	7247.25
866.565	7259.25
866.81	7190.25
867.054	7209.25
867.298	7204.25
867.543	7143.25
867.787	7188.25
868.031	7128.25
868.275	7116.25
868.519	7113.25
868.764	7092.25
869.008	7096.25
869.252	7091.25
869.496	7048.25
869.739	7034.25
869.983	7065.25
870.227	7124.25
870.471	7040.25
870.715	7073.25
870.958	7061.25
871.202	7001.25
871.446	7039.25
871.689	6986.25
871.933	7048.25
872.176	7040.25
872.42	7046.25
872.663	7037.25
872.906	7050.25
873.15	6981.25
873.393	6923.25
873.636	6989.25
873.879	6935.25
874.122	6838.25
874.366	6650.25
874.609	6690.25
874.852	6615.25
875.095	6599.25
875.337	6521.25
875.58	6512.25
875.823	6545.25
876.066	6547.25
876.309	6635.25
876.551	6481.25
876.794	6487.25
877.037	6467.25
877.279	6367.25
877.522	6317.25
877.764	6489.25
878.007	6396.25
878.249	6420.25
878.491	6345.25
878.734	6429.25
878.976	6405.25
879.218	6348.25
879.46	6278.25
879.702	6241.25
879.945	6188.25
880.187	6204.25
880.429	6112.25
880.671	6128.25
880.912	6063.25
881.154	6039.25
881.396	5983.25
881.638	6066.25
881.88	6002.25
882.121	5978.25
882.363	5976.25
882.605	6036.25
882.846	5969.25
883.088	5976.25
883.329	5897.25
883.571	5884.25
883.812	5926.25
884.053	6016.25
884.295	6117.25
884.536	6233.25
884.777	6162.25
885.018	6160.25
885.259	6106.25
885.5	6039.25
885.742	6310.25
885.982	6005.25
886.223	6040.25
886.464	5923.25
886.705	5780.25
886.946	5886.25
887.187	5745.25
887.428	5791.25
887.668	5684.25
887.909	5613.25
888.15	5522.25
888.39	5537.25
888.631	5532.25
888.871	5510.25
889.111	5470.25
889.352	5371.25
889.592	5294.25
889.833	5380.25
890.073	5249.25
890.313	5320.25
890.553	5211.25
890.793	5162.25
891.033	5160.25
891.273	5118.25
891.513	5128.25
891.753	5191.25
891.993	5121.25
892.233	5135.25
892.473	5193.25
892.713	5160.25
892.952	5097.25
893.192	5134.25
893.432	5090.25
893.671	5159.25
893.911	5092.25
894.15	5019.25
894.39	4989.25
894.629	5003.25
894.869	4939.25
895.108	4932.25
895.347	4890.25
895.587	4930.25
895.826	4875.25
896.065	4814.25
896.304	4899.25
896.543	4896.25
896.782	4788.25
897.021	4798.25
897.26	4795.25
897.499	4846.25
897.738	4846.25
897.977	4730.25
898.216	4716.25
898.454	4674.25
898.693	4635.25
898.932	4630.25
899.17	4581.25
899.409	4596.25
899.647	4526.25
899.886	4554.25
900.124	4582.25
900.363	4514.25
900.601	4618.25
900.839	4583.25
901.078	4581.25
901.316	4606.25
901.554	4622.25
901.792	4648.25
902.03	4528.25
902.268	4568.25
902.506	4586.25
902.744	4513.25
902.982	4551.25
903.22	4458.25
903.458	4422.25
903.695	4394.25
903.933	4369.25
904.171	4264.25
904.409	4246.25
904.646	4221.25
904.884	4134.25
905.121	4160.25
905.359	4080.25
905.596	4097.25
905.833	4009.25
906.071	4004.25
906.308	4063.25
906.545	4036.25
906.783	3954.25
907.02	3950.25
907.257	3923.25
907.494	3945.25
907.731	3982.25
907.968	3900.25
908.205	3896.25
908.442	3838.25
908.679	3891.25
908.915	3822.25
909.152	3817.25
909.389	3719.25
909.626	3726.25
909.862	3679.25
910.099	3650.25
910.335	3747.25
910.572	3620.25
910.808	3693.25
911.045	3635.25
911.281	3588.25
911.518	3690.25
911.754	3595.25
911.99	3593.25
912.226	3562.25
912.463	3563.25
912.699	3487.25
912.935	3510.25
913.171	3476.25
913.407	3391.25
913.643	3489.25
913.879	3424.25
914.114	3376.25
914.35	3344.25
914.586	3334.25
914.822	3259.25
915.057	3368.25
915.293	3234.25
915.529	3160.25
915.764	3280.25
916	3234.25
916.235	3226.25
916.471	3256.25
916.706	3123.25
916.941	3199.25
917.177	3159.25
917.412	3191.25
917.647	3200.25
917.882	3150.25
918.117	3203.25
918.352	3165.25
918.588	3208.25
918.823	3151.25
919.057	3118.25
919.292	3030.25
919.527	3120.25
919.762	3011.25
919.997	3028.25
920.232	2964.25
920.466	3033.25
920.701	2898.25
920.935	2927.25
921.17	2869.25
921.405	2856.25
921.639	2868.25
921.873	2847.25
922.108	2859.25
922.342	2889.25
922.576	2772.25
922.811	2837.25
923.045	2873.25
923.279	2869.25
923.513	2728.25
923.747	2797.25
923.981	2775.25
924.215	2718.25
924.449	2718.25
924.683	2693.25
924.917	2718.25
925.151	2693.25
925.385	2725.25
925.618	2678.25
925.852	2672.25
926.086	2617.25
926.319	2662.25
926.553	2644.25
926.786	2654.25
927.02	2671.25
927.253	2663.25
927.486	2661.25
927.72	2601.25
927.953	2689.25
928.186	2615.25
928.42	2636.25
928.653	2577.25
928.886	2587.25
929.119	2585.25
929.352	2580.25
929.585	2574.25
929.818	2486.25
930.051	2537.25
930.284	2541.25
930.516	2441.25
930.749	2443.25
930.982	2489.25
931.215	2467.25
931.447	2412.25
931.68	2439.25
931.912	2429.25
932.145	2381.25
932.377	2414.25
932.61	2529.25
932.842	2325.25
933.074	2442.25
933.307	2375.25
933.539	2463.25
933.771	2422.25
934.003	2380.25
934.236	2483.25
934.468	2474.25
934.7	2390.25
934.932	2397.25
935.164	2339.25
935.395	2346.25
935.627	2391.25
935.859	2349.25
936.091	2291.25
936.323	2323.25
936.554	2356.25
936.786	2311.25
937.017	2252.25
937.249	2298.25
937.481	2253.25
937.712	2341.25
937.943	2289.25
938.175	2304.25
938.406	2296.25
938.637	2342.25
938.869	2257.25
939.1	2305.25
939.331	2279.25
939.562	2296.25
939.793	2279.25
940.024	2279.25
940.255	2277.25
940.486	2232.25
940.717	2226.25
940.948	2226.25
941.179	2172.25
941.409	2201.25
941.64	2188.25
941.871	2193.25
942.102	2152.25
942.332	2173.25
942.563	2221.25
942.793	2193.25
943.024	2148.25
943.254	2187.25
943.484	2219.25
943.715	2219.25
943.945	2152.25
944.175	2152.25
944.405	2088.25
944.636	2104.25
944.866	2179.25
945.096	2174.25
945.326	2113.25
945.556	2199.25
945.786	2180.25
946.016	2135.25
946.245	2101.25
946.475	2085.25
946.705	2077.25
946.935	2075.25
947.164	2074.25
947.394	2047.25
947.624	2089.25
947.853	2097.25
948.083	2073.25
948.312	2028.25
948.542	1995.25
948.771	1963.25
949	1983.25
949.23	1999.25
949.459	2034.25
949.688	2061.25
949.917	2003.25
950.146	2009.25
950.375	2081.25
950.604	1945.25
950.833	2082.25
951.062	2036.25
951.291	1984.25
951.52	1942.25
951.749	2007.25
951.978	1924.25
952.206	1968.25
952.435	1938.25
952.664	1974.25
952.892	1979.25
953.121	1979.25
953.349	1985.25
953.578	1931.25
953.806	1936.25
954.035	1860.25
954.263	1943.25
954.491	1862.25
954.719	1905.25
954.948	1896.25
955.176	1895.25
955.404	1823.25
955.632	1865.25
955.86	1890.25
956.088	1814.25
956.316	1907.25
956.544	1893.25
956.772	1838.25
956.999	1821.25
957.227	1896.25
957.455	1818.25
957.683	1793.25
957.91	1781.25
958.138	1779.25
958.365	1787.25
958.593	1755.25
958.82	1746.25
959.048	1800.25
959.275	1767.25
959.502	1756.25
959.73	1732.25
959.957	1790.25
960.184	1773.25
960.411	1767.25
960.638	1801.25
960.865	1776.25
961.092	1772.25
961.319	1703.25
961.546	1797.25
961.773	1783.25
962	1712.25
962.227	1789.25
962.454	1714.25
962.68	1729.25
962.907	1743.25
963.134	1686.25
963.36	1718.25
963.587	1764.25
963.813	1666.25
964.04	1707.25
964.266	1643.25
964.493	1736.25
964.719	1723.25
964.945	1710.25
965.171	1627.25
965.398	1667.25
965.624	1698.25
965.85	1629.25
966.076	1618.25
966.302	1678.25
966.528	1631.25
966.754	1655.25
966.98	1653.25
967.206	1630.25
967.431	1563.25
967.657	1664.25
967.883	1628.25
968.109	1648.25
968.334	1592.25
968.56	1527.25
968.785	1574.25
969.011	1562.25
969.236	1590.25
969.462	1537.25
969.687	1558.25
969.912	1600.25
970.138	1614.25
970.363	1519.25
970.588	1569.25
970.813	1532.25
971.038	1524.25
971.263	1567.25
971.488	1559.25
971.713	1592.25
971.938	1574.25
972.163	1485.25
972.388	1509.25
972.613	1488.25
972.838	1519.25
973.062	1481.25
973.287	1491.25
973.512	1433.25
973.736	1494.25
973.961	1462.25
974.185	1436.25
974.41	1491.25
974.634	1390.25
974.858	1429.25
975.083	1447.25
975.307	1472.25
975.531	1430.25
975.755	1357.25
975.98	1380.25
976.204	1337.25
976.428	1356.25
976.652	1324.25
976.876	1337.25
977.1	1354.25
977.324	1324.25
977.547	1373.25
977.771	1406.25
977.995	1363.25
978.219	1300.25
978.442	1421.25
978.666	1354.25
978.89	1325.25
979.113	1367.25
979.337	1324.25
979.56	1300.25
979.783	1395.25
980.007	1295.25
980.23	1322.25
980.453	1294.25
980.677	1320.25
980.9	1302.25
981.123	1243.25
981.346	1330.25
981.569	1311.25
981.792	1347.25
982.015	1302.25
982.238	1259.25
982.461	1287.25
982.684	1272.25
982.907	1210.25
983.129	1225.25
983.352	1293.25
983.575	1256.25
983.797	1282.25
984.02	1232.25
984.242	1234.25
984.465	1269.25
984.687	1267.25
984.91	1274.25
985.132	1244.25
985.354	1292.25
985.577	1252.25
985.799	1241.25
986.021	1194.25
986.243	1192.25
986.465	1217.25
986.687	1254.25
986.909	1302.25
987.131	1233.25
987.353	1193.25
987.575	1233.25
987.797	1205.25
988.019	1153.25
988.241	1209.25
988.462	1164.25
988.684	1224.25
988.906	1270.25
989.127	1264.25
989.349	1145.25
989.57	1184.25
989.792	1228.25
990.013	1232.25
990.234	1225.25
990.456	1262.25
990.677	1224.25
990.898	1201.25
991.119	1197.25
991.341	1233.25
991.562	1160.25
991.783	1199.25
992.004	1126.25
992.225	1095.25
992.446	1168.25
992.667	1114.25
992.887	1188.25
993.108	1082.25
993.329	1210.25
993.55	1177.25
993.77	1107.25
993.991	1107.25
994.212	1149.25
994.432	1131.25
994.653	1185.25
994.873	1161.25
995.093	1039.25
995.314	1073.25
995.534	1164.25
995.754	1177.25
995.975	1215.25
996.195	1076.25
996.415	1146.25
996.635	1122.25
996.855	1131.25
997.075	1105.25
997.295	1104.25
997.515	1073.25
997.735	1115.25
997.955	1101.25
998.174	1097.25
998.394	1081.25
998.614	1109.25
998.834	1068.25
999.053	1152.25
999.273	1122.25
999.492	1166.25
999.712	1107.25
999.931	1089.25
1000.151	1116.25
1000.37	1110.25
1000.589	1164.25
1000.809	1076.25
1001.028	1181.25
1001.247	1146.25
1001.466	1039.25
1001.685	1178.25
1001.904	1134.25
1002.123	1114.25
1002.342	1115.25
1002.561	1084.25
1002.78	1130.25
1002.999	1180.25
1003.218	1109.25
1003.436	1078.25
1003.655	1139.25
1003.874	1085.25
1004.092	1125.25
1004.311	1145.25
1004.53	1110.25
1004.748	1178.25
1004.966	1100.25
1005.185	1152.25
1005.403	1138.25
1005.622	1150.25
1005.84	1197.25
1006.058	1097.25
1006.276	1117.25
1006.494	1607.25
1006.712	1119.25
1006.931	1169.25
1007.149	1093.25
1007.367	1112.25
1007.584	1148.25
1007.802	1150.25
1008.02	1123.25
1008.238	1210.25
1008.456	1154.25
1008.673	1045.25
1008.891	1164.25
1009.109	1087.25
1009.326	1125.25
1009.544	1239.25
1009.761	1110.25
1009.979	1158.25
1010.196	1181.25
1010.413	1239.25
1010.631	1272.25
1010.848	1313.25
1011.065	1259.25
1011.282	1225.25
1011.5	1181.25
1011.717	1282.25
1011.934	1209.25
1012.151	1259.25
1012.368	1238.25
1012.585	1174.25
1012.801	1241.25
1013.018	1199.25
1013.235	1156.25
1013.452	1154.25
1013.669	1187.25
1013.885	1166.25
1014.102	1198.25
1014.318	1177.25
1014.535	1133.25
1014.751	1165.25
1014.968	1161.25
1015.184	1209.25
1015.401	1124.25
1015.617	1132.25
1015.833	1095.25
1016.049	1107.25
1016.266	1098.25
1016.482	1131.25
1016.698	1037.25
1016.914	1095.25
1017.13	1034.25
1017.346	1033.25
1017.562	1126.25
1017.778	1042.25
1017.993	1017.25
1018.209	1083.25
1018.425	1047.25
1018.641	1027.25
1018.856	975.25
1019.072	1006.25
1019.288	1044.25
1019.503	1025.25
1019.719	929.25
1019.934	953.25
1020.149	1031.25
1020.365	971.25
1020.58	937.25
1020.795	979.25
1021.011	952.25
1021.226	936.25
1021.441	945.25
1021.656	880.25
1021.871	830.25
1022.086	838.25
1022.301	849.25
1022.516	837.25
1022.731	907.25
1022.946	807.25
1023.16	803.25
1023.375	778.25
1023.59	766.25
1023.804	751.25
1024.019	854.25
1024.234	729.25
1024.448	759.25
1024.663	685.25
1024.877	710.25
1025.092	740.25
1025.306	738.25
1025.52	661.25
1025.734	751.25
1025.949	708.25
1026.163	672.25
1026.377	605.25
1026.591	669.25
1026.805	585.25
1027.019	596.25
1027.233	570.25
1027.447	518.25
1027.661	618.25
1027.875	573.25
1028.088	569.25
1028.302	514.25
1028.516	535.25
1028.73	522.25
1028.943	525.25
1029.157	466.25
1029.37	457.25
1029.584	-2.75
1029.797	-2.75
1030.011	-2.75
1030.224	0.25
