Data from QEP037381__8__09-56-59-926.txt Node

Date: Wed Dec 21 09:56:59 EST 2022
User: dcclab
Spectrometer: QEP03738
Trigger mode: 4
Integration Time (sec): 1.000000E1
Scans to average: 1
Electric dark correction enabled: true
Nonlinearity correction enabled: false
Boxcar width: 0
XAxis mode: Wavelengths
Number of Pixels in Spectrum: 1044
>>>>>Begin Spectral Data<<<<<
784.041	13.25
784.3	-1.75
784.558	-1.75
784.817	-6.75
785.075	113728.25
785.334	20113.25
785.592	9475.25
785.851	6561.25
786.109	4933.25
786.368	3817.25
786.626	3079.25
786.884	2589.25
787.143	2172.25
787.401	1752.25
787.659	1582.25
787.917	1353.25
788.175	1226.25
788.433	1061.25
788.691	964.25
788.949	884.25
789.207	816.25
789.465	708.25
789.723	689.25
789.98	632.25
790.238	668.25
790.496	616.25
790.753	581.25
791.011	633.25
791.268	550.25
791.526	529.25
791.783	547.25
792.041	540.25
792.298	468.25
792.556	503.25
792.813	486.25
793.07	466.25
793.327	453.25
793.584	532.25
793.841	441.25
794.099	453.25
794.356	529.25
794.613	432.25
794.869	460.25
795.126	421.25
795.383	396.25
795.64	421.25
795.897	379.25
796.153	438.25
796.41	410.25
796.667	406.25
796.923	401.25
797.18	405.25
797.436	434.25
797.693	395.25
797.949	434.25
798.206	462.25
798.462	382.25
798.718	439.25
798.974	413.25
799.231	464.25
799.487	427.25
799.743	448.25
799.999	460.25
800.255	470.25
800.511	452.25
800.767	475.25
801.023	453.25
801.279	485.25
801.534	503.25
801.79	538.25
802.046	549.25
802.302	639.25
802.557	716.25
802.813	860.25
803.068	1000.25
803.324	1352.25
803.579	1732.25
803.835	2350.25
804.09	3186.25
804.345	4061.25
804.601	5081.25
804.856	6141.25
805.111	7046.25
805.366	7643.25
805.621	8053.25
805.876	8454.25
806.131	8637.25
806.386	8739.25
806.641	8808.25
806.896	8977.25
807.151	9114.25
807.406	9209.25
807.661	9323.25
807.915	9513.25
808.17	9622.25
808.425	9711.25
808.679	9717.25
808.934	9913.25
809.188	9968.25
809.443	9966.25
809.697	10102.25
809.951	10146.25
810.206	10241.25
810.46	10333.25
810.714	10374.25
810.968	10475.25
811.223	10421.25
811.477	10563.25
811.731	10637.25
811.985	10645.25
812.239	10604.25
812.493	10759.25
812.747	10817.25
813	10744.25
813.254	10802.25
813.508	10852.25
813.762	10918.25
814.015	10915.25
814.269	10971.25
814.522	11147.25
814.776	11219.25
815.03	11280.25
815.283	11511.25
815.536	11635.25
815.79	11751.25
816.043	11892.25
816.296	12017.25
816.55	12183.25
816.803	12278.25
817.056	12481.25
817.309	12450.25
817.562	12535.25
817.815	12746.25
818.068	12709.25
818.321	12848.25
818.574	12984.25
818.827	13128.25
819.079	13246.25
819.332	13513.25
819.585	13581.25
819.838	13685.25
820.09	13831.25
820.343	14116.25
820.595	13982.25
820.848	14065.25
821.1	14151.25
821.353	14113.25
821.605	14016.25
821.857	14142.25
822.11	14003.25
822.362	14088.25
822.614	13973.25
822.866	14068.25
823.118	14051.25
823.37	14158.25
823.622	14130.25
823.874	14069.25
824.126	14236.25
824.378	14194.25
824.63	14182.25
824.882	14339.25
825.134	14267.25
825.385	14219.25
825.637	14237.25
825.888	14040.25
826.14	14127.25
826.392	13951.25
826.643	13905.25
826.895	13998.25
827.146	13880.25
827.397	13818.25
827.649	13873.25
827.9	13758.25
828.151	13830.25
828.402	13824.25
828.653	13896.25
828.905	13922.25
829.156	13982.25
829.407	13910.25
829.658	13933.25
829.909	13963.25
830.159	13809.25
830.41	13804.25
830.661	13672.25
830.912	13611.25
831.162	13607.25
831.413	13511.25
831.664	13632.25
831.914	13529.25
832.165	13572.25
832.415	13531.25
832.666	13549.25
832.916	13550.25
833.167	13544.25
833.417	13547.25
833.667	13476.25
833.917	13530.25
834.168	13529.25
834.418	13374.25
834.668	13338.25
834.918	13271.25
835.168	13232.25
835.418	13240.25
835.668	13192.25
835.918	13135.25
836.167	13127.25
836.417	13063.25
836.667	13109.25
836.917	13115.25
837.166	12979.25
837.416	12953.25
837.666	13049.25
837.915	12929.25
838.165	12894.25
838.414	12771.25
838.663	12743.25
838.913	12782.25
839.162	12681.25
839.411	12776.25
839.661	12655.25
839.91	12632.25
840.159	12598.25
840.408	12680.25
840.657	12689.25
840.906	12652.25
841.155	12720.25
841.404	12533.25
841.653	12598.25
841.902	12510.25
842.15	12634.25
842.399	12656.25
842.648	12579.25
842.897	12547.25
843.145	12487.25
843.394	12401.25
843.642	12325.25
843.891	12242.25
844.139	12255.25
844.388	12093.25
844.636	12119.25
844.884	12120.25
845.133	12031.25
845.381	12069.25
845.629	12127.25
845.877	11987.25
846.125	12042.25
846.373	11987.25
846.621	11983.25
846.869	11976.25
847.117	11862.25
847.365	11748.25
847.613	11757.25
847.861	11705.25
848.108	11736.25
848.356	11704.25
848.604	11638.25
848.851	11688.25
849.099	11639.25
849.346	11713.25
849.594	11758.25
849.841	11813.25
850.089	11793.25
850.336	11833.25
850.583	11749.25
850.831	11728.25
851.078	11691.25
851.325	11650.25
851.572	11618.25
851.819	11464.25
852.066	11321.25
852.313	11195.25
852.56	11171.25
852.807	11062.25
853.054	11064.25
853.301	11089.25
853.548	11010.25
853.794	11142.25
854.041	11119.25
854.288	11143.25
854.534	11358.25
854.781	11282.25
855.028	11171.25
855.274	11182.25
855.52	11132.25
855.767	11059.25
856.013	11025.25
856.26	11211.25
856.506	10919.25
856.752	10910.25
856.998	10945.25
857.244	10922.25
857.49	10940.25
857.736	11043.25
857.982	11023.25
858.228	11025.25
858.474	10858.25
858.72	10790.25
858.966	10768.25
859.212	10586.25
859.458	10535.25
859.703	10487.25
859.949	10249.25
860.195	10269.25
860.44	10285.25
860.686	10128.25
860.931	10165.25
861.177	10086.25
861.422	10091.25
861.667	10075.25
861.913	10111.25
862.158	10102.25
862.403	10146.25
862.648	10133.25
862.893	10127.25
863.138	10095.25
863.384	10076.25
863.629	10068.25
863.873	10046.25
864.118	10009.25
864.363	9965.25
864.608	9950.25
864.853	9932.25
865.098	9888.25
865.342	9758.25
865.587	9795.25
865.832	9765.25
866.076	9762.25
866.321	9698.25
866.565	9661.25
866.81	9588.25
867.054	9626.25
867.298	9594.25
867.543	9571.25
867.787	9564.25
868.031	9502.25
868.275	9508.25
868.519	9471.25
868.764	9431.25
869.008	9439.25
869.252	9456.25
869.496	9324.25
869.739	9240.25
869.983	9318.25
870.227	9348.25
870.471	9252.25
870.715	9367.25
870.958	9343.25
871.202	9296.25
871.446	9314.25
871.689	9332.25
871.933	9299.25
872.176	9355.25
872.42	9306.25
872.663	9314.25
872.906	9349.25
873.15	9216.25
873.393	9198.25
873.636	9142.25
873.879	9024.25
874.122	9065.25
874.366	8878.25
874.609	8841.25
874.852	8829.25
875.095	8737.25
875.337	8677.25
875.58	8618.25
875.823	8631.25
876.066	8716.25
876.309	8605.25
876.551	8511.25
876.794	8496.25
877.037	8518.25
877.279	8409.25
877.522	8503.25
877.764	8474.25
878.007	8457.25
878.249	8462.25
878.491	8431.25
878.734	8414.25
878.976	8385.25
879.218	8308.25
879.46	8390.25
879.702	8249.25
879.945	8134.25
880.187	8161.25
880.429	8074.25
880.671	8051.25
880.912	8037.25
881.154	8071.25
881.396	7897.25
881.638	7972.25
881.88	7961.25
882.121	7895.25
882.363	7866.25
882.605	7994.25
882.846	7957.25
883.088	7856.25
883.329	7819.25
883.571	7835.25
883.812	7872.25
884.053	7932.25
884.295	8024.25
884.536	8134.25
884.777	8050.25
885.018	8006.25
885.259	7948.25
885.5	7886.25
885.742	8141.25
885.982	7913.25
886.223	7828.25
886.464	7786.25
886.705	7682.25
886.946	7664.25
887.187	7523.25
887.428	7583.25
887.668	7381.25
887.909	7345.25
888.15	7263.25
888.39	7302.25
888.631	7332.25
888.871	7180.25
889.111	7155.25
889.352	7100.25
889.592	7084.25
889.833	6972.25
890.073	6999.25
890.313	6986.25
890.553	6811.25
890.793	6850.25
891.033	6848.25
891.273	6766.25
891.513	6756.25
891.753	6764.25
891.993	6716.25
892.233	6767.25
892.473	6813.25
892.713	6712.25
892.952	6692.25
893.192	6753.25
893.432	6721.25
893.671	6683.25
893.911	6612.25
894.15	6688.25
894.39	6525.25
894.629	6496.25
894.869	6494.25
895.108	6444.25
895.347	6364.25
895.587	6420.25
895.826	6392.25
896.065	6410.25
896.304	6374.25
896.543	6397.25
896.782	6261.25
897.021	6331.25
897.26	6281.25
897.499	6285.25
897.738	6315.25
897.977	6236.25
898.216	6163.25
898.454	6073.25
898.693	6077.25
898.932	6090.25
899.17	6009.25
899.409	5950.25
899.647	5971.25
899.886	5938.25
900.124	5985.25
900.363	5901.25
900.601	5930.25
900.839	5942.25
901.078	5947.25
901.316	6014.25
901.554	5976.25
901.792	5977.25
902.03	5916.25
902.268	5893.25
902.506	5958.25
902.744	5914.25
902.982	5853.25
903.22	5793.25
903.458	5784.25
903.695	5706.25
903.933	5663.25
904.171	5525.25
904.409	5476.25
904.646	5503.25
904.884	5405.25
905.121	5387.25
905.359	5260.25
905.596	5259.25
905.833	5190.25
906.071	5230.25
906.308	5237.25
906.545	5191.25
906.783	5112.25
907.02	5162.25
907.257	5100.25
907.494	5132.25
907.731	5141.25
907.968	5064.25
908.205	5058.25
908.442	5034.25
908.679	5004.25
908.915	4945.25
909.152	4953.25
909.389	4862.25
909.626	4852.25
909.862	4807.25
910.099	4809.25
910.335	4842.25
910.572	4748.25
910.808	4773.25
911.045	4742.25
911.281	4664.25
911.518	4740.25
911.754	4640.25
911.99	4670.25
912.226	4640.25
912.463	4572.25
912.699	4585.25
912.935	4541.25
913.171	4542.25
913.407	4477.25
913.643	4481.25
913.879	4424.25
914.114	4385.25
914.35	4311.25
914.586	4270.25
914.822	4232.25
915.057	4310.25
915.293	4131.25
915.529	4134.25
915.764	4241.25
916	4215.25
916.235	4155.25
916.471	4190.25
916.706	4063.25
916.941	4153.25
917.177	4120.25
917.412	4146.25
917.647	4115.25
917.882	4086.25
918.117	4129.25
918.352	4073.25
918.588	4123.25
918.823	4005.25
919.057	3978.25
919.292	3896.25
919.527	3972.25
919.762	3846.25
919.997	3845.25
920.232	3805.25
920.466	3870.25
920.701	3707.25
920.935	3743.25
921.17	3692.25
921.405	3665.25
921.639	3697.25
921.873	3684.25
922.108	3621.25
922.342	3687.25
922.576	3571.25
922.811	3598.25
923.045	3623.25
923.279	3616.25
923.513	3479.25
923.747	3606.25
923.981	3544.25
924.215	3477.25
924.449	3505.25
924.683	3417.25
924.917	3436.25
925.151	3409.25
925.385	3454.25
925.618	3433.25
925.852	3404.25
926.086	3409.25
926.319	3343.25
926.553	3361.25
926.786	3384.25
927.02	3379.25
927.253	3382.25
927.486	3383.25
927.72	3320.25
927.953	3393.25
928.186	3339.25
928.42	3325.25
928.653	3288.25
928.886	3273.25
929.119	3289.25
929.352	3267.25
929.585	3269.25
929.818	3216.25
930.051	3214.25
930.284	3207.25
930.516	3093.25
930.749	3095.25
930.982	3125.25
931.215	3162.25
931.447	3024.25
931.68	3078.25
931.912	3075.25
932.145	3054.25
932.377	3067.25
932.61	3185.25
932.842	3009.25
933.074	3075.25
933.307	2987.25
933.539	3097.25
933.771	3071.25
934.003	3041.25
934.236	3100.25
934.468	3061.25
934.7	3040.25
934.932	3051.25
935.164	2986.25
935.395	2973.25
935.627	2984.25
935.859	2984.25
936.091	2924.25
936.323	2984.25
936.554	3019.25
936.786	2945.25
937.017	2872.25
937.249	2902.25
937.481	2876.25
937.712	2916.25
937.943	2891.25
938.175	2852.25
938.406	2875.25
938.637	2945.25
938.869	2828.25
939.1	2862.25
939.331	2846.25
939.562	2867.25
939.793	2851.25
940.024	2856.25
940.255	2852.25
940.486	2821.25
940.717	2795.25
940.948	2749.25
941.179	2772.25
941.409	2750.25
941.64	2727.25
941.871	2760.25
942.102	2716.25
942.332	2732.25
942.563	2761.25
942.793	2755.25
943.024	2706.25
943.254	2736.25
943.484	2776.25
943.715	2797.25
943.945	2740.25
944.175	2689.25
944.405	2655.25
944.636	2686.25
944.866	2713.25
945.096	2732.25
945.326	2633.25
945.556	2698.25
945.786	2696.25
946.016	2663.25
946.245	2608.25
946.475	2596.25
946.705	2566.25
946.935	2592.25
947.164	2598.25
947.394	2531.25
947.624	2553.25
947.853	2606.25
948.083	2532.25
948.312	2514.25
948.542	2494.25
948.771	2457.25
949	2465.25
949.23	2451.25
949.459	2503.25
949.688	2559.25
949.917	2486.25
950.146	2532.25
950.375	2549.25
950.604	2455.25
950.833	2526.25
951.062	2516.25
951.291	2493.25
951.52	2457.25
951.749	2448.25
951.978	2406.25
952.206	2438.25
952.435	2415.25
952.664	2446.25
952.892	2442.25
953.121	2391.25
953.349	2421.25
953.578	2441.25
953.806	2411.25
954.035	2340.25
954.263	2408.25
954.491	2328.25
954.719	2390.25
954.948	2304.25
955.176	2301.25
955.404	2242.25
955.632	2297.25
955.86	2319.25
956.088	2301.25
956.316	2369.25
956.544	2344.25
956.772	2260.25
956.999	2264.25
957.227	2318.25
957.455	2224.25
957.683	2259.25
957.91	2183.25
958.138	2168.25
958.365	2192.25
958.593	2201.25
958.82	2133.25
959.048	2189.25
959.275	2179.25
959.502	2142.25
959.73	2163.25
959.957	2174.25
960.184	2208.25
960.411	2125.25
960.638	2200.25
960.865	2140.25
961.092	2185.25
961.319	2066.25
961.546	2184.25
961.773	2155.25
962	2126.25
962.227	2174.25
962.454	2128.25
962.68	2112.25
962.907	2107.25
963.134	2054.25
963.36	2101.25
963.587	2115.25
963.813	2039.25
964.04	2097.25
964.266	1992.25
964.493	2101.25
964.719	2032.25
964.945	2069.25
965.171	1958.25
965.398	2038.25
965.624	2056.25
965.85	1954.25
966.076	1976.25
966.302	2013.25
966.528	1964.25
966.754	1993.25
966.98	1995.25
967.206	1991.25
967.431	1861.25
967.657	1982.25
967.883	1964.25
968.109	1949.25
968.334	1924.25
968.56	1879.25
968.785	1918.25
969.011	1858.25
969.236	1940.25
969.462	1847.25
969.687	1873.25
969.912	1912.25
970.138	1936.25
970.363	1874.25
970.588	1906.25
970.813	1860.25
971.038	1824.25
971.263	1896.25
971.488	1880.25
971.713	1879.25
971.938	1860.25
972.163	1771.25
972.388	1823.25
972.613	1797.25
972.838	1834.25
973.062	1798.25
973.287	1821.25
973.512	1773.25
973.736	1774.25
973.961	1775.25
974.185	1768.25
974.41	1762.25
974.634	1685.25
974.858	1726.25
975.083	1747.25
975.307	1727.25
975.531	1693.25
975.755	1646.25
975.98	1643.25
976.204	1637.25
976.428	1585.25
976.652	1624.25
976.876	1634.25
977.1	1623.25
977.324	1618.25
977.547	1636.25
977.771	1661.25
977.995	1628.25
978.219	1565.25
978.442	1686.25
978.666	1628.25
978.89	1595.25
979.113	1606.25
979.337	1606.25
979.56	1552.25
979.783	1669.25
980.007	1527.25
980.23	1592.25
980.453	1537.25
980.677	1556.25
980.9	1571.25
981.123	1464.25
981.346	1558.25
981.569	1558.25
981.792	1594.25
982.015	1534.25
982.238	1489.25
982.461	1520.25
982.684	1472.25
982.907	1477.25
983.129	1475.25
983.352	1498.25
983.575	1486.25
983.797	1509.25
984.02	1466.25
984.242	1463.25
984.465	1474.25
984.687	1520.25
984.91	1503.25
985.132	1497.25
985.354	1508.25
985.577	1462.25
985.799	1472.25
986.021	1392.25
986.243	1392.25
986.465	1430.25
986.687	1478.25
986.909	1507.25
987.131	1418.25
987.353	1404.25
987.575	1447.25
987.797	1403.25
988.019	1334.25
988.241	1402.25
988.462	1371.25
988.684	1437.25
988.906	1467.25
989.127	1465.25
989.349	1350.25
989.57	1384.25
989.792	1413.25
990.013	1437.25
990.234	1446.25
990.456	1449.25
990.677	1407.25
990.898	1358.25
991.119	1393.25
991.341	1409.25
991.562	1324.25
991.783	1400.25
992.004	1312.25
992.225	1292.25
992.446	1357.25
992.667	1282.25
992.887	1369.25
993.108	1260.25
993.329	1381.25
993.55	1327.25
993.77	1279.25
993.991	1289.25
994.212	1312.25
994.432	1292.25
994.653	1321.25
994.873	1319.25
995.093	1213.25
995.314	1242.25
995.534	1331.25
995.754	1346.25
995.975	1336.25
996.195	1232.25
996.415	1287.25
996.635	1259.25
996.855	1269.25
997.075	1248.25
997.295	1258.25
997.515	1244.25
997.735	1287.25
997.955	1269.25
998.174	1239.25
998.394	1227.25
998.614	1259.25
998.834	1205.25
999.053	1298.25
999.273	1232.25
999.492	1300.25
999.712	1253.25
999.931	1231.25
1000.151	1250.25
1000.37	1232.25
1000.589	1289.25
1000.809	1229.25
1001.028	1338.25
1001.247	1295.25
1001.466	1162.25
1001.685	1305.25
1001.904	1242.25
1002.123	1253.25
1002.342	1259.25
1002.561	1215.25
1002.78	1237.25
1002.999	1295.25
1003.218	1266.25
1003.436	1225.25
1003.655	1271.25
1003.874	1220.25
1004.092	1236.25
1004.311	1261.25
1004.53	1238.25
1004.748	1297.25
1004.966	1215.25
1005.185	1284.25
1005.403	1273.25
1005.622	1234.25
1005.84	1307.25
1006.058	1210.25
1006.276	1242.25
1006.494	1744.25
1006.712	1237.25
1006.931	1322.25
1007.149	1211.25
1007.367	1213.25
1007.584	1235.25
1007.802	1256.25
1008.02	1218.25
1008.238	1315.25
1008.456	1286.25
1008.673	1161.25
1008.891	1272.25
1009.109	1229.25
1009.326	1265.25
1009.544	1328.25
1009.761	1224.25
1009.979	1300.25
1010.196	1293.25
1010.413	1356.25
1010.631	1378.25
1010.848	1405.25
1011.065	1380.25
1011.282	1371.25
1011.5	1278.25
1011.717	1392.25
1011.934	1334.25
1012.151	1367.25
1012.368	1362.25
1012.585	1295.25
1012.801	1342.25
1013.018	1312.25
1013.235	1283.25
1013.452	1287.25
1013.669	1303.25
1013.885	1269.25
1014.102	1311.25
1014.318	1268.25
1014.535	1251.25
1014.751	1270.25
1014.968	1267.25
1015.184	1325.25
1015.401	1207.25
1015.617	1257.25
1015.833	1211.25
1016.049	1221.25
1016.266	1192.25
1016.482	1224.25
1016.698	1153.25
1016.914	1188.25
1017.13	1141.25
1017.346	1131.25
1017.562	1226.25
1017.778	1153.25
1017.993	1083.25
1018.209	1154.25
1018.425	1125.25
1018.641	1112.25
1018.856	1061.25
1019.072	1115.25
1019.288	1151.25
1019.503	1099.25
1019.719	1010.25
1019.934	1009.25
1020.149	1115.25
1020.365	1050.25
1020.58	1028.25
1020.795	1074.25
1021.011	997.25
1021.226	996.25
1021.441	1039.25
1021.656	969.25
1021.871	915.25
1022.086	912.25
1022.301	899.25
1022.516	909.25
1022.731	970.25
1022.946	892.25
1023.16	878.25
1023.375	853.25
1023.59	846.25
1023.804	808.25
1024.019	897.25
1024.234	790.25
1024.448	838.25
1024.663	761.25
1024.877	778.25
1025.092	799.25
1025.306	819.25
1025.52	727.25
1025.734	833.25
1025.949	741.25
1026.163	711.25
1026.377	666.25
1026.591	720.25
1026.805	646.25
1027.019	653.25
1027.233	606.25
1027.447	583.25
1027.661	671.25
1027.875	620.25
1028.088	624.25
1028.302	567.25
1028.516	561.25
1028.73	567.25
1028.943	554.25
1029.157	509.25
1029.37	501.25
1029.584	-0.75
1029.797	-0.75
1030.011	0.25
1030.224	-1.75
