Data from QEP037381__13__09-57-49-926.txt Node

Date: Wed Dec 21 09:57:49 EST 2022
User: dcclab
Spectrometer: QEP03738
Trigger mode: 4
Integration Time (sec): 1.000000E1
Scans to average: 1
Electric dark correction enabled: true
Nonlinearity correction enabled: false
Boxcar width: 0
XAxis mode: Wavelengths
Number of Pixels in Spectrum: 1044
>>>>>Begin Spectral Data<<<<<
784.041	11.75
784.3	-1.25
784.558	-0.25
784.817	-5.25
785.075	112847.75
785.334	19929.75
785.592	9335.75
785.851	6401.75
786.109	4805.75
786.368	3763.75
786.626	3021.75
786.884	2478.75
787.143	2068.75
787.401	1725.75
787.659	1553.75
787.917	1287.75
788.175	1201.75
788.433	1043.75
788.691	929.75
788.949	868.75
789.207	822.75
789.465	709.75
789.723	687.75
789.98	632.75
790.238	680.75
790.496	598.75
790.753	580.75
791.011	622.75
791.268	545.75
791.526	540.75
791.783	552.75
792.041	547.75
792.298	452.75
792.556	497.75
792.813	484.75
793.07	453.75
793.327	447.75
793.584	532.75
793.841	438.75
794.099	447.75
794.356	531.75
794.613	424.75
794.869	460.75
795.126	406.75
795.383	391.75
795.64	411.75
795.897	366.75
796.153	424.75
796.41	405.75
796.667	399.75
796.923	395.75
797.18	402.75
797.436	418.75
797.693	389.75
797.949	439.75
798.206	460.75
798.462	367.75
798.718	434.75
798.974	402.75
799.231	452.75
799.487	434.75
799.743	430.75
799.999	463.75
800.255	455.75
800.511	435.75
800.767	476.75
801.023	444.75
801.279	459.75
801.534	480.75
801.79	522.75
802.046	510.75
802.302	605.75
802.557	658.75
802.813	760.75
803.068	867.75
803.324	1138.75
803.579	1459.75
803.835	1942.75
804.09	2635.75
804.345	3368.75
804.601	4198.75
804.856	5057.75
805.111	5827.75
805.366	6342.75
805.621	6790.75
805.876	7088.75
806.131	7172.75
806.386	7283.75
806.641	7355.75
806.896	7488.75
807.151	7678.75
807.406	7707.75
807.661	7842.75
807.915	7974.75
808.17	8065.75
808.425	8112.75
808.679	8091.75
808.934	8228.75
809.188	8214.75
809.443	8308.75
809.697	8427.75
809.951	8471.75
810.206	8552.75
810.46	8647.75
810.714	8658.75
810.968	8746.75
811.223	8681.75
811.477	8875.75
811.731	8912.75
811.985	8907.75
812.239	8865.75
812.493	8953.75
812.747	9011.75
813	8964.75
813.254	8955.75
813.508	9095.75
813.762	9109.75
814.015	9105.75
814.269	9165.75
814.522	9284.75
814.776	9346.75
815.03	9431.75
815.283	9570.75
815.536	9750.75
815.79	9812.75
816.043	9983.75
816.296	10049.75
816.55	10177.75
816.803	10198.75
817.056	10377.75
817.309	10418.75
817.562	10578.75
817.815	10611.75
818.068	10571.75
818.321	10711.75
818.574	10762.75
818.827	11053.75
819.079	11044.75
819.332	11308.75
819.585	11336.75
819.838	11523.75
820.09	11554.75
820.343	11535.75
820.595	11604.75
820.848	11752.75
821.1	11810.75
821.353	11818.75
821.605	11735.75
821.857	11764.75
822.11	11781.75
822.362	11695.75
822.614	11651.75
822.866	11710.75
823.118	11690.75
823.37	11821.75
823.622	11791.75
823.874	11822.75
824.126	11897.75
824.378	11883.75
824.63	11920.75
824.882	11861.75
825.134	11890.75
825.385	11796.75
825.637	11892.75
825.888	11784.75
826.14	11687.75
826.392	11724.75
826.643	11570.75
826.895	11622.75
827.146	11543.75
827.397	11507.75
827.649	11557.75
827.9	11479.75
828.151	11508.75
828.402	11542.75
828.653	11594.75
828.905	11550.75
829.156	11683.75
829.407	11601.75
829.658	11516.75
829.909	11662.75
830.159	11599.75
830.41	11504.75
830.661	11470.75
830.912	11436.75
831.162	11323.75
831.413	11326.75
831.664	11330.75
831.914	11330.75
832.165	11372.75
832.415	11383.75
832.666	11249.75
832.916	11283.75
833.167	11382.75
833.417	11352.75
833.667	11275.75
833.917	11260.75
834.168	11275.75
834.418	11266.75
834.668	11158.75
834.918	11116.75
835.168	11146.75
835.418	10975.75
835.668	11033.75
835.918	10992.75
836.167	10981.75
836.417	10903.75
836.667	11000.75
836.917	10964.75
837.166	10908.75
837.416	10891.75
837.666	10937.75
837.915	10874.75
838.165	10780.75
838.414	10689.75
838.663	10685.75
838.913	10678.75
839.162	10670.75
839.411	10691.75
839.661	10635.75
839.91	10611.75
840.159	10669.75
840.408	10602.75
840.657	10572.75
840.906	10612.75
841.155	10687.75
841.404	10556.75
841.653	10599.75
841.902	10490.75
842.15	10595.75
842.399	10613.75
842.648	10544.75
842.897	10528.75
843.145	10438.75
843.394	10337.75
843.642	10399.75
843.891	10370.75
844.139	10224.75
844.388	10188.75
844.636	10105.75
844.884	10195.75
845.133	10189.75
845.381	10155.75
845.629	10183.75
845.877	10078.75
846.125	10131.75
846.373	10075.75
846.621	10031.75
846.869	10095.75
847.117	9977.75
847.365	9877.75
847.613	9924.75
847.861	9861.75
848.108	9877.75
848.356	9833.75
848.604	9834.75
848.851	9800.75
849.099	9826.75
849.346	9800.75
849.594	9857.75
849.841	9904.75
850.089	9895.75
850.336	9832.75
850.583	9967.75
850.831	9895.75
851.078	9831.75
851.325	9745.75
851.572	9781.75
851.819	9709.75
852.066	9578.75
852.313	9389.75
852.56	9329.75
852.807	9322.75
853.054	9380.75
853.301	9279.75
853.548	9364.75
853.794	9394.75
854.041	9421.75
854.288	9407.75
854.534	9554.75
854.781	9538.75
855.028	9419.75
855.274	9423.75
855.52	9393.75
855.767	9271.75
856.013	9308.75
856.26	9623.75
856.506	9155.75
856.752	9280.75
856.998	9197.75
857.244	9201.75
857.49	9275.75
857.736	9276.75
857.982	9303.75
858.228	9254.75
858.474	9115.75
858.72	9166.75
858.966	9060.75
859.212	8998.75
859.458	8886.75
859.703	8822.75
859.949	8754.75
860.195	8663.75
860.44	8688.75
860.686	8636.75
860.931	8626.75
861.177	8503.75
861.422	8507.75
861.667	8453.75
861.913	8507.75
862.158	8547.75
862.403	8584.75
862.648	8616.75
862.893	8578.75
863.138	8568.75
863.384	8507.75
863.629	8446.75
863.873	8523.75
864.118	8444.75
864.363	8383.75
864.608	8451.75
864.853	8374.75
865.098	8318.75
865.342	8302.75
865.587	8213.75
865.832	8271.75
866.076	8311.75
866.321	8197.75
866.565	8238.75
866.81	8116.75
867.054	8129.75
867.298	8140.75
867.543	8125.75
867.787	8087.75
868.031	8037.75
868.275	8004.75
868.519	8059.75
868.764	7996.75
869.008	8021.75
869.252	8031.75
869.496	7964.75
869.739	7999.75
869.983	7938.75
870.227	7892.75
870.471	7892.75
870.715	7949.75
870.958	7937.75
871.202	7849.75
871.446	7921.75
871.689	7844.75
871.933	7941.75
872.176	7851.75
872.42	7884.75
872.663	7818.75
872.906	7914.75
873.15	7856.75
873.393	7727.75
873.636	7775.75
873.879	7729.75
874.122	7659.75
874.366	7583.75
874.609	7553.75
874.852	7483.75
875.095	7471.75
875.337	7327.75
875.58	7332.75
875.823	7339.75
876.066	7354.75
876.309	7326.75
876.551	7246.75
876.794	7172.75
877.037	7222.75
877.279	7136.75
877.522	7177.75
877.764	7230.75
878.007	7149.75
878.249	7183.75
878.491	7148.75
878.734	7226.75
878.976	7167.75
879.218	7086.75
879.46	7092.75
879.702	7046.75
879.945	7037.75
880.187	6899.75
880.429	6868.75
880.671	6767.75
880.912	6859.75
881.154	6784.75
881.396	6711.75
881.638	6778.75
881.88	6756.75
882.121	6730.75
882.363	6698.75
882.605	6688.75
882.846	6674.75
883.088	6753.75
883.329	6645.75
883.571	6596.75
883.812	6669.75
884.053	6740.75
884.295	6904.75
884.536	6938.75
884.777	6883.75
885.018	6869.75
885.259	6812.75
885.5	6750.75
885.742	7038.75
885.982	6707.75
886.223	6661.75
886.464	6663.75
886.705	6603.75
886.946	6570.75
887.187	6458.75
887.428	6497.75
887.668	6324.75
887.909	6277.75
888.15	6202.75
888.39	6199.75
888.631	6256.75
888.871	6209.75
889.111	6096.75
889.352	6040.75
889.592	6000.75
889.833	5944.75
890.073	5925.75
890.313	5980.75
890.553	5808.75
890.793	5851.75
891.033	5800.75
891.273	5784.75
891.513	5776.75
891.753	5773.75
891.993	5735.75
892.233	5724.75
892.473	5872.75
892.713	5780.75
892.952	5724.75
893.192	5788.75
893.432	5669.75
893.671	5763.75
893.911	5649.75
894.15	5627.75
894.39	5537.75
894.629	5576.75
894.869	5560.75
895.108	5528.75
895.347	5481.75
895.587	5549.75
895.826	5413.75
896.065	5427.75
896.304	5446.75
896.543	5457.75
896.782	5334.75
897.021	5363.75
897.26	5372.75
897.499	5430.75
897.738	5390.75
897.977	5323.75
898.216	5198.75
898.454	5187.75
898.693	5121.75
898.932	5163.75
899.17	5100.75
899.409	5127.75
899.647	5097.75
899.886	5083.75
900.124	5113.75
900.363	5033.75
900.601	5051.75
900.839	5127.75
901.078	5124.75
901.316	5069.75
901.554	5104.75
901.792	5119.75
902.03	5098.75
902.268	5075.75
902.506	5094.75
902.744	5044.75
902.982	5044.75
903.22	4939.75
903.458	4963.75
903.695	4923.75
903.933	4831.75
904.171	4757.75
904.409	4717.75
904.646	4702.75
904.884	4621.75
905.121	4641.75
905.359	4559.75
905.596	4520.75
905.833	4476.75
906.071	4438.75
906.308	4535.75
906.545	4479.75
906.783	4408.75
907.02	4458.75
907.257	4400.75
907.494	4343.75
907.731	4425.75
907.968	4362.75
908.205	4290.75
908.442	4314.75
908.679	4313.75
908.915	4247.75
909.152	4247.75
909.389	4165.75
909.626	4151.75
909.862	4139.75
910.099	4117.75
910.335	4121.75
910.572	4042.75
910.808	4074.75
911.045	4020.75
911.281	4031.75
911.518	4123.75
911.754	4037.75
911.99	4042.75
912.226	3977.75
912.463	3922.75
912.699	3895.75
912.935	3905.75
913.171	3904.75
913.407	3814.75
913.643	3834.75
913.879	3788.75
914.114	3763.75
914.35	3696.75
914.586	3673.75
914.822	3640.75
915.057	3715.75
915.293	3607.75
915.529	3509.75
915.764	3609.75
916	3608.75
916.235	3602.75
916.471	3620.75
916.706	3520.75
916.941	3533.75
917.177	3501.75
917.412	3553.75
917.647	3553.75
917.882	3490.75
918.117	3556.75
918.352	3501.75
918.588	3510.75
918.823	3421.75
919.057	3455.75
919.292	3310.75
919.527	3449.75
919.762	3343.75
919.997	3338.75
920.232	3274.75
920.466	3325.75
920.701	3190.75
920.935	3229.75
921.17	3223.75
921.405	3148.75
921.639	3179.75
921.873	3174.75
922.108	3179.75
922.342	3191.75
922.576	3097.75
922.811	3090.75
923.045	3155.75
923.279	3146.75
923.513	3065.75
923.747	3095.75
923.981	3050.75
924.215	3022.75
924.449	3010.75
924.683	2923.75
924.917	2964.75
925.151	2951.75
925.385	2993.75
925.618	2977.75
925.852	2975.75
926.086	2910.75
926.319	2940.75
926.553	2942.75
926.786	2955.75
927.02	2904.75
927.253	2961.75
927.486	2951.75
927.72	2875.75
927.953	2929.75
928.186	2875.75
928.42	2890.75
928.653	2826.75
928.886	2832.75
929.119	2869.75
929.352	2865.75
929.585	2819.75
929.818	2758.75
930.051	2775.75
930.284	2805.75
930.516	2697.75
930.749	2698.75
930.982	2744.75
931.215	2718.75
931.447	2628.75
931.68	2675.75
931.912	2623.75
932.145	2666.75
932.377	2670.75
932.61	2797.75
932.842	2576.75
933.074	2686.75
933.307	2607.75
933.539	2736.75
933.771	2683.75
934.003	2635.75
934.236	2676.75
934.468	2732.75
934.7	2620.75
934.932	2657.75
935.164	2598.75
935.395	2582.75
935.627	2607.75
935.859	2592.75
936.091	2561.75
936.323	2599.75
936.554	2648.75
936.786	2572.75
937.017	2495.75
937.249	2542.75
937.481	2478.75
937.712	2553.75
937.943	2517.75
938.175	2497.75
938.406	2499.75
938.637	2551.75
938.869	2453.75
939.1	2500.75
939.331	2477.75
939.562	2514.75
939.793	2510.75
940.024	2486.75
940.255	2494.75
940.486	2458.75
940.717	2435.75
940.948	2421.75
941.179	2389.75
941.409	2423.75
941.64	2387.75
941.871	2400.75
942.102	2400.75
942.332	2381.75
942.563	2457.75
942.793	2385.75
943.024	2326.75
943.254	2369.75
943.484	2413.75
943.715	2425.75
943.945	2413.75
944.175	2316.75
944.405	2317.75
944.636	2351.75
944.866	2371.75
945.096	2346.75
945.326	2316.75
945.556	2363.75
945.786	2386.75
946.016	2315.75
946.245	2260.75
946.475	2251.75
946.705	2282.75
946.935	2303.75
947.164	2278.75
947.394	2237.75
947.624	2213.75
947.853	2261.75
948.083	2217.75
948.312	2213.75
948.542	2152.75
948.771	2157.75
949	2191.75
949.23	2212.75
949.459	2197.75
949.688	2227.75
949.917	2214.75
950.146	2217.75
950.375	2258.75
950.604	2126.75
950.833	2245.75
951.062	2208.75
951.291	2194.75
951.52	2125.75
951.749	2142.75
951.978	2118.75
952.206	2112.75
952.435	2132.75
952.664	2151.75
952.892	2164.75
953.121	2120.75
953.349	2131.75
953.578	2119.75
953.806	2089.75
954.035	2076.75
954.263	2116.75
954.491	2044.75
954.719	2106.75
954.948	2057.75
955.176	2050.75
955.404	2003.75
955.632	2030.75
955.86	2035.75
956.088	2024.75
956.316	2058.75
956.544	2058.75
956.772	2035.75
956.999	1945.75
957.227	2074.75
957.455	1972.75
957.683	1992.75
957.91	1939.75
958.138	1927.75
958.365	1953.75
958.593	1948.75
958.82	1861.75
959.048	1969.75
959.275	1936.75
959.502	1933.75
959.73	1869.75
959.957	1931.75
960.184	1954.75
960.411	1879.75
960.638	1983.75
960.865	1890.75
961.092	1925.75
961.319	1838.75
961.546	1938.75
961.773	1954.75
962	1882.75
962.227	1942.75
962.454	1891.75
962.68	1852.75
962.907	1914.75
963.134	1836.75
963.36	1876.75
963.587	1893.75
963.813	1813.75
964.04	1815.75
964.266	1789.75
964.493	1860.75
964.719	1854.75
964.945	1852.75
965.171	1739.75
965.398	1806.75
965.624	1814.75
965.85	1744.75
966.076	1765.75
966.302	1789.75
966.528	1754.75
966.754	1775.75
966.98	1752.75
967.206	1771.75
967.431	1680.75
967.657	1765.75
967.883	1774.75
968.109	1763.75
968.334	1688.75
968.56	1690.75
968.785	1689.75
969.011	1651.75
969.236	1719.75
969.462	1667.75
969.687	1673.75
969.912	1727.75
970.138	1737.75
970.363	1656.75
970.588	1678.75
970.813	1660.75
971.038	1634.75
971.263	1662.75
971.488	1679.75
971.713	1693.75
971.938	1686.75
972.163	1582.75
972.388	1633.75
972.613	1595.75
972.838	1611.75
973.062	1617.75
973.287	1614.75
973.512	1562.75
973.736	1597.75
973.961	1570.75
974.185	1528.75
974.41	1564.75
974.634	1491.75
974.858	1508.75
975.083	1568.75
975.307	1579.75
975.531	1539.75
975.755	1464.75
975.98	1498.75
976.204	1449.75
976.428	1459.75
976.652	1450.75
976.876	1433.75
977.1	1478.75
977.324	1425.75
977.547	1489.75
977.771	1474.75
977.995	1465.75
978.219	1414.75
978.442	1501.75
978.666	1437.75
978.89	1498.75
979.113	1466.75
979.337	1458.75
979.56	1406.75
979.783	1498.75
980.007	1397.75
980.23	1428.75
980.453	1376.75
980.677	1436.75
980.9	1398.75
981.123	1338.75
981.346	1417.75
981.569	1386.75
981.792	1450.75
982.015	1387.75
982.238	1351.75
982.461	1408.75
982.684	1334.75
982.907	1352.75
983.129	1327.75
983.352	1378.75
983.575	1341.75
983.797	1354.75
984.02	1307.75
984.242	1333.75
984.465	1334.75
984.687	1357.75
984.91	1394.75
985.132	1326.75
985.354	1359.75
985.577	1310.75
985.799	1332.75
986.021	1222.75
986.243	1279.75
986.465	1296.75
986.687	1339.75
986.909	1366.75
987.131	1319.75
987.353	1280.75
987.575	1294.75
987.797	1290.75
988.019	1209.75
988.241	1318.75
988.462	1215.75
988.684	1311.75
988.906	1317.75
989.127	1347.75
989.349	1233.75
989.57	1289.75
989.792	1297.75
990.013	1302.75
990.234	1328.75
990.456	1320.75
990.677	1319.75
990.898	1246.75
991.119	1268.75
991.341	1283.75
991.562	1235.75
991.783	1263.75
992.004	1206.75
992.225	1200.75
992.446	1246.75
992.667	1169.75
992.887	1232.75
993.108	1131.75
993.329	1291.75
993.55	1215.75
993.77	1168.75
993.991	1195.75
994.212	1219.75
994.432	1193.75
994.653	1222.75
994.873	1216.75
995.093	1108.75
995.314	1130.75
995.534	1208.75
995.754	1237.75
995.975	1253.75
996.195	1139.75
996.415	1215.75
996.635	1154.75
996.855	1176.75
997.075	1162.75
997.295	1132.75
997.515	1158.75
997.735	1196.75
997.955	1150.75
998.174	1131.75
998.394	1128.75
998.614	1158.75
998.834	1119.75
999.053	1207.75
999.273	1182.75
999.492	1223.75
999.712	1162.75
999.931	1116.75
1000.151	1181.75
1000.37	1155.75
1000.589	1226.75
1000.809	1152.75
1001.028	1235.75
1001.247	1206.75
1001.466	1116.75
1001.685	1235.75
1001.904	1191.75
1002.123	1171.75
1002.342	1186.75
1002.561	1124.75
1002.78	1159.75
1002.999	1222.75
1003.218	1170.75
1003.436	1137.75
1003.655	1212.75
1003.874	1129.75
1004.092	1154.75
1004.311	1199.75
1004.53	1125.75
1004.748	1221.75
1004.966	1141.75
1005.185	1202.75
1005.403	1192.75
1005.622	1160.75
1005.84	1221.75
1006.058	1122.75
1006.276	1168.75
1006.494	1664.75
1006.712	1172.75
1006.931	1249.75
1007.149	1147.75
1007.367	1129.75
1007.584	1158.75
1007.802	1185.75
1008.02	1158.75
1008.238	1246.75
1008.456	1204.75
1008.673	1071.75
1008.891	1187.75
1009.109	1127.75
1009.326	1171.75
1009.544	1260.75
1009.761	1161.75
1009.979	1227.75
1010.196	1205.75
1010.413	1279.75
1010.631	1294.75
1010.848	1334.75
1011.065	1332.75
1011.282	1271.75
1011.5	1210.75
1011.717	1328.75
1011.934	1250.75
1012.151	1298.75
1012.368	1274.75
1012.585	1211.75
1012.801	1277.75
1013.018	1228.75
1013.235	1199.75
1013.452	1208.75
1013.669	1231.75
1013.885	1221.75
1014.102	1245.75
1014.318	1221.75
1014.535	1150.75
1014.751	1189.75
1014.968	1194.75
1015.184	1247.75
1015.401	1136.75
1015.617	1182.75
1015.833	1145.75
1016.049	1132.75
1016.266	1132.75
1016.482	1127.75
1016.698	1065.75
1016.914	1163.75
1017.13	1063.75
1017.346	1085.75
1017.562	1157.75
1017.778	1096.75
1017.993	1043.75
1018.209	1125.75
1018.425	1095.75
1018.641	1038.75
1018.856	1030.75
1019.072	1037.75
1019.288	1088.75
1019.503	1036.75
1019.719	952.75
1019.934	985.75
1020.149	1054.75
1020.365	1000.75
1020.58	962.75
1020.795	1009.75
1021.011	972.75
1021.226	968.75
1021.441	980.75
1021.656	923.75
1021.871	863.75
1022.086	866.75
1022.301	852.75
1022.516	867.75
1022.731	918.75
1022.946	833.75
1023.16	797.75
1023.375	820.75
1023.59	781.75
1023.804	769.75
1024.019	873.75
1024.234	752.75
1024.448	799.75
1024.663	723.75
1024.877	737.75
1025.092	763.75
1025.306	768.75
1025.52	690.75
1025.734	787.75
1025.949	721.75
1026.163	686.75
1026.377	643.75
1026.591	671.75
1026.805	622.75
1027.019	610.75
1027.233	576.75
1027.447	546.75
1027.661	642.75
1027.875	589.75
1028.088	604.75
1028.302	519.75
1028.516	510.75
1028.73	545.75
1028.943	544.75
1029.157	494.75
1029.37	457.75
1029.584	-1.25
1029.797	-1.25
1030.011	2.75
1030.224	-5.25
