Data from QEP037381__73__10-07-49-929.txt Node

Date: Wed Dec 21 10:07:49 EST 2022
User: dcclab
Spectrometer: QEP03738
Trigger mode: 4
Integration Time (sec): 1.000000E1
Scans to average: 1
Electric dark correction enabled: true
Nonlinearity correction enabled: false
Boxcar width: 0
XAxis mode: Wavelengths
Number of Pixels in Spectrum: 1044
>>>>>Begin Spectral Data<<<<<
784.041	13.75
784.3	0.75
784.558	-2.25
784.817	-3.25
785.075	108841.75
785.334	18749.75
785.592	8783.75
785.851	6034.75
786.109	4522.75
786.368	3516.75
786.626	2832.75
786.884	2336.75
787.143	1931.75
787.401	1593.75
787.659	1442.75
787.917	1230.75
788.175	1120.75
788.433	976.75
788.691	882.75
788.949	795.75
789.207	747.75
789.465	660.75
789.723	634.75
789.98	586.75
790.238	628.75
790.496	584.75
790.753	570.75
791.011	607.75
791.268	526.75
791.526	520.75
791.783	534.75
792.041	498.75
792.298	413.75
792.556	495.75
792.813	474.75
793.07	445.75
793.327	430.75
793.584	503.75
793.841	428.75
794.099	446.75
794.356	500.75
794.613	403.75
794.869	439.75
795.126	413.75
795.383	402.75
795.64	412.75
795.897	378.75
796.153	419.75
796.41	401.75
796.667	389.75
796.923	396.75
797.18	392.75
797.436	425.75
797.693	376.75
797.949	429.75
798.206	457.75
798.462	365.75
798.718	424.75
798.974	404.75
799.231	432.75
799.487	420.75
799.743	437.75
799.999	447.75
800.255	422.75
800.511	441.75
800.767	457.75
801.023	427.75
801.279	443.75
801.534	467.75
801.79	500.75
802.046	488.75
802.302	570.75
802.557	605.75
802.813	690.75
803.068	777.75
803.324	1013.75
803.579	1300.75
803.835	1730.75
804.09	2333.75
804.345	2966.75
804.601	3809.75
804.856	4526.75
805.111	5248.75
805.366	5719.75
805.621	6081.75
805.876	6375.75
806.131	6446.75
806.386	6574.75
806.641	6659.75
806.896	6758.75
807.151	6870.75
807.406	6939.75
807.661	7008.75
807.915	7153.75
808.17	7200.75
808.425	7263.75
808.679	7303.75
808.934	7468.75
809.188	7422.75
809.443	7556.75
809.697	7698.75
809.951	7593.75
810.206	7753.75
810.46	7766.75
810.714	7816.75
810.968	7837.75
811.223	7905.75
811.477	7979.75
811.731	8105.75
811.985	8050.75
812.239	8032.75
812.493	8156.75
812.747	8186.75
813	8144.75
813.254	8188.75
813.508	8246.75
813.762	8181.75
814.015	8257.75
814.269	8318.75
814.522	8353.75
814.776	8450.75
815.03	8625.75
815.283	8667.75
815.536	8742.75
815.79	8985.75
816.043	9005.75
816.296	9130.75
816.55	9288.75
816.803	9209.75
817.056	9456.75
817.309	9464.75
817.562	9499.75
817.815	9665.75
818.068	9621.75
818.321	9760.75
818.574	9872.75
818.827	9965.75
819.079	10061.75
819.332	10294.75
819.585	10394.75
819.838	10557.75
820.09	10547.75
820.343	10636.75
820.595	10623.75
820.848	10712.75
821.1	10764.75
821.353	10785.75
821.605	10737.75
821.857	10827.75
822.11	10682.75
822.362	10674.75
822.614	10665.75
822.866	10657.75
823.118	10580.75
823.37	10750.75
823.622	10820.75
823.874	10737.75
824.126	10868.75
824.378	10839.75
824.63	10859.75
824.882	10944.75
825.134	10809.75
825.385	10929.75
825.637	10787.75
825.888	10748.75
826.14	10687.75
826.392	10657.75
826.643	10600.75
826.895	10606.75
827.146	10521.75
827.397	10523.75
827.649	10552.75
827.9	10520.75
828.151	10504.75
828.402	10482.75
828.653	10571.75
828.905	10576.75
829.156	10548.75
829.407	10536.75
829.658	10516.75
829.909	10574.75
830.159	10716.75
830.41	10588.75
830.661	10443.75
830.912	10390.75
831.162	10355.75
831.413	10371.75
831.664	10346.75
831.914	10393.75
832.165	10331.75
832.415	10336.75
832.666	10451.75
832.916	10411.75
833.167	10310.75
833.417	10366.75
833.667	10337.75
833.917	10273.75
834.168	10292.75
834.418	10278.75
834.668	10282.75
834.918	10179.75
835.168	10187.75
835.418	10111.75
835.668	10111.75
835.918	10103.75
836.167	10067.75
836.417	10033.75
836.667	10070.75
836.917	10005.75
837.166	9951.75
837.416	9992.75
837.666	9993.75
837.915	9937.75
838.165	9937.75
838.414	9863.75
838.663	9777.75
838.913	9873.75
839.162	9763.75
839.411	9798.75
839.661	9716.75
839.91	9684.75
840.159	9755.75
840.408	9743.75
840.657	9733.75
840.906	9710.75
841.155	9784.75
841.404	9733.75
841.653	9719.75
841.902	9702.75
842.15	9710.75
842.399	9684.75
842.648	9699.75
842.897	9697.75
843.145	9603.75
843.394	9541.75
843.642	9508.75
843.891	9530.75
844.139	9475.75
844.388	9345.75
844.636	9274.75
844.884	9343.75
845.133	9302.75
845.381	9327.75
845.629	9406.75
845.877	9268.75
846.125	9274.75
846.373	9245.75
846.621	9223.75
846.869	9177.75
847.117	9220.75
847.365	9160.75
847.613	9057.75
847.861	9053.75
848.108	9073.75
848.356	9032.75
848.604	8953.75
848.851	9069.75
849.099	9021.75
849.346	9082.75
849.594	9151.75
849.841	9138.75
850.089	9219.75
850.336	9144.75
850.583	9152.75
850.831	9037.75
851.078	9104.75
851.325	8988.75
851.572	9027.75
851.819	8974.75
852.066	8825.75
852.313	8690.75
852.56	8656.75
852.807	8584.75
853.054	8559.75
853.301	8580.75
853.548	8612.75
853.794	8662.75
854.041	8639.75
854.288	8691.75
854.534	8860.75
854.781	8813.75
855.028	8684.75
855.274	8803.75
855.52	8693.75
855.767	8541.75
856.013	8691.75
856.26	8868.75
856.506	8480.75
856.752	8556.75
856.998	8456.75
857.244	8494.75
857.49	8556.75
857.736	8610.75
857.982	8599.75
858.228	8546.75
858.474	8464.75
858.72	8463.75
858.966	8394.75
859.212	8315.75
859.458	8201.75
859.703	8191.75
859.949	8058.75
860.195	8085.75
860.44	7982.75
860.686	7854.75
860.931	7961.75
861.177	7852.75
861.422	7926.75
861.667	7831.75
861.913	7858.75
862.158	7874.75
862.403	7958.75
862.648	7920.75
862.893	7974.75
863.138	7887.75
863.384	7927.75
863.629	7899.75
863.873	7921.75
864.118	7785.75
864.363	7797.75
864.608	7744.75
864.853	7768.75
865.098	7671.75
865.342	7653.75
865.587	7632.75
865.832	7637.75
866.076	7649.75
866.321	7558.75
866.565	7566.75
866.81	7434.75
867.054	7524.75
867.298	7510.75
867.543	7394.75
867.787	7538.75
868.031	7415.75
868.275	7380.75
868.519	7455.75
868.764	7465.75
869.008	7367.75
869.252	7383.75
869.496	7368.75
869.739	7286.75
869.983	7335.75
870.227	7349.75
870.471	7353.75
870.715	7381.75
870.958	7357.75
871.202	7325.75
871.446	7331.75
871.689	7360.75
871.933	7323.75
872.176	7357.75
872.42	7327.75
872.663	7274.75
872.906	7299.75
873.15	7251.75
873.393	7201.75
873.636	7250.75
873.879	7202.75
874.122	7186.75
874.366	7030.75
874.609	6981.75
874.852	6900.75
875.095	6930.75
875.337	6872.75
875.58	6769.75
875.823	6767.75
876.066	6776.75
876.309	6833.75
876.551	6732.75
876.794	6682.75
877.037	6711.75
877.279	6657.75
877.522	6684.75
877.764	6647.75
878.007	6671.75
878.249	6683.75
878.491	6668.75
878.734	6669.75
878.976	6627.75
879.218	6524.75
879.46	6573.75
879.702	6535.75
879.945	6501.75
880.187	6371.75
880.429	6371.75
880.671	6327.75
880.912	6347.75
881.154	6295.75
881.396	6259.75
881.638	6257.75
881.88	6252.75
882.121	6210.75
882.363	6186.75
882.605	6349.75
882.846	6233.75
883.088	6277.75
883.329	6188.75
883.571	6131.75
883.812	6201.75
884.053	6260.75
884.295	6425.75
884.536	6526.75
884.777	6485.75
885.018	6432.75
885.259	6420.75
885.5	6283.75
885.742	6608.75
885.982	6295.75
886.223	6235.75
886.464	6223.75
886.705	6124.75
886.946	6148.75
887.187	5991.75
887.428	6026.75
887.668	5906.75
887.909	5859.75
888.15	5783.75
888.39	5786.75
888.631	5783.75
888.871	5686.75
889.111	5627.75
889.352	5630.75
889.592	5587.75
889.833	5466.75
890.073	5486.75
890.313	5526.75
890.553	5405.75
890.793	5397.75
891.033	5337.75
891.273	5328.75
891.513	5320.75
891.753	5344.75
891.993	5359.75
892.233	5328.75
892.473	5392.75
892.713	5341.75
892.952	5321.75
893.192	5346.75
893.432	5341.75
893.671	5331.75
893.911	5265.75
894.15	5255.75
894.39	5138.75
894.629	5131.75
894.869	5181.75
895.108	5157.75
895.347	5073.75
895.587	5087.75
895.826	5064.75
896.065	5039.75
896.304	5104.75
896.543	5021.75
896.782	4980.75
897.021	5012.75
897.26	4990.75
897.499	5028.75
897.738	5037.75
897.977	4976.75
898.216	4914.75
898.454	4827.75
898.693	4791.75
898.932	4838.75
899.17	4804.75
899.409	4767.75
899.647	4742.75
899.886	4773.75
900.124	4778.75
900.363	4711.75
900.601	4763.75
900.839	4767.75
901.078	4760.75
901.316	4774.75
901.554	4722.75
901.792	4793.75
902.03	4713.75
902.268	4719.75
902.506	4773.75
902.744	4749.75
902.982	4757.75
903.22	4586.75
903.458	4563.75
903.695	4573.75
903.933	4576.75
904.171	4405.75
904.409	4419.75
904.646	4377.75
904.884	4292.75
905.121	4330.75
905.359	4226.75
905.596	4221.75
905.833	4134.75
906.071	4164.75
906.308	4195.75
906.545	4173.75
906.783	4024.75
907.02	4134.75
907.257	4089.75
907.494	4080.75
907.731	4114.75
907.968	4062.75
908.205	4022.75
908.442	3995.75
908.679	3987.75
908.915	3972.75
909.152	3951.75
909.389	3845.75
909.626	3870.75
909.862	3861.75
910.099	3876.75
910.335	3870.75
910.572	3726.75
910.808	3797.75
911.045	3762.75
911.281	3734.75
911.518	3761.75
911.754	3718.75
911.99	3729.75
912.226	3716.75
912.463	3650.75
912.699	3672.75
912.935	3627.75
913.171	3604.75
913.407	3556.75
913.643	3611.75
913.879	3545.75
914.114	3520.75
914.35	3469.75
914.586	3424.75
914.822	3382.75
915.057	3453.75
915.293	3336.75
915.529	3321.75
915.764	3372.75
916	3373.75
916.235	3353.75
916.471	3345.75
916.706	3278.75
916.941	3310.75
917.177	3263.75
917.412	3323.75
917.647	3323.75
917.882	3259.75
918.117	3318.75
918.352	3326.75
918.588	3315.75
918.823	3249.75
919.057	3215.75
919.292	3136.75
919.527	3227.75
919.762	3098.75
919.997	3196.75
920.232	3078.75
920.466	3079.75
920.701	2941.75
920.935	3039.75
921.17	2986.75
921.405	2964.75
921.639	3006.75
921.873	2931.75
922.108	2976.75
922.342	2971.75
922.576	2899.75
922.811	2891.75
923.045	2955.75
923.279	2961.75
923.513	2834.75
923.747	2882.75
923.981	2867.75
924.215	2811.75
924.449	2808.75
924.683	2756.75
924.917	2795.75
925.151	2768.75
925.385	2822.75
925.618	2775.75
925.852	2754.75
926.086	2718.75
926.319	2762.75
926.553	2724.75
926.786	2749.75
927.02	2718.75
927.253	2765.75
927.486	2770.75
927.72	2680.75
927.953	2738.75
928.186	2676.75
928.42	2776.75
928.653	2687.75
928.886	2670.75
929.119	2677.75
929.352	2649.75
929.585	2646.75
929.818	2604.75
930.051	2625.75
930.284	2621.75
930.516	2561.75
930.749	2550.75
930.982	2576.75
931.215	2567.75
931.447	2446.75
931.68	2529.75
931.912	2467.75
932.145	2485.75
932.377	2504.75
932.61	2613.75
932.842	2442.75
933.074	2508.75
933.307	2447.75
933.539	2563.75
933.771	2538.75
934.003	2473.75
934.236	2545.75
934.468	2540.75
934.7	2480.75
934.932	2497.75
935.164	2448.75
935.395	2391.75
935.627	2465.75
935.859	2435.75
936.091	2414.75
936.323	2505.75
936.554	2437.75
936.786	2388.75
937.017	2353.75
937.249	2415.75
937.481	2310.75
937.712	2411.75
937.943	2354.75
938.175	2353.75
938.406	2356.75
938.637	2427.75
938.869	2316.75
939.1	2392.75
939.331	2349.75
939.562	2355.75
939.793	2382.75
940.024	2392.75
940.255	2398.75
940.486	2322.75
940.717	2319.75
940.948	2236.75
941.179	2241.75
941.409	2278.75
941.64	2267.75
941.871	2263.75
942.102	2252.75
942.332	2275.75
942.563	2324.75
942.793	2282.75
943.024	2187.75
943.254	2239.75
943.484	2285.75
943.715	2326.75
943.945	2269.75
944.175	2214.75
944.405	2199.75
944.636	2219.75
944.866	2259.75
945.096	2257.75
945.326	2160.75
945.556	2245.75
945.786	2300.75
946.016	2207.75
946.245	2158.75
946.475	2156.75
946.705	2157.75
946.935	2175.75
947.164	2173.75
947.394	2114.75
947.624	2112.75
947.853	2152.75
948.083	2128.75
948.312	2120.75
948.542	2049.75
948.771	2061.75
949	2067.75
949.23	2061.75
949.459	2083.75
949.688	2123.75
949.917	2092.75
950.146	2077.75
950.375	2149.75
950.604	2006.75
950.833	2131.75
951.062	2112.75
951.291	2084.75
951.52	2025.75
951.749	2060.75
951.978	2070.75
952.206	2042.75
952.435	2016.75
952.664	2067.75
952.892	2071.75
953.121	2021.75
953.349	2072.75
953.578	2035.75
953.806	2012.75
954.035	1972.75
954.263	2010.75
954.491	1918.75
954.719	1984.75
954.948	1947.75
955.176	1946.75
955.404	1876.75
955.632	1956.75
955.86	1979.75
956.088	1921.75
956.316	1941.75
956.544	1987.75
956.772	1913.75
956.999	1870.75
957.227	1981.75
957.455	1869.75
957.683	1885.75
957.91	1832.75
958.138	1860.75
958.365	1827.75
958.593	1836.75
958.82	1809.75
959.048	1846.75
959.275	1814.75
959.502	1827.75
959.73	1804.75
959.957	1825.75
960.184	1844.75
960.411	1792.75
960.638	1859.75
960.865	1806.75
961.092	1835.75
961.319	1764.75
961.546	1843.75
961.773	1838.75
962	1795.75
962.227	1818.75
962.454	1788.75
962.68	1784.75
962.907	1813.75
963.134	1769.75
963.36	1780.75
963.587	1776.75
963.813	1718.75
964.04	1748.75
964.266	1719.75
964.493	1803.75
964.719	1755.75
964.945	1789.75
965.171	1707.75
965.398	1741.75
965.624	1747.75
965.85	1666.75
966.076	1668.75
966.302	1719.75
966.528	1708.75
966.754	1723.75
966.98	1692.75
967.206	1701.75
967.431	1635.75
967.657	1721.75
967.883	1676.75
968.109	1692.75
968.334	1640.75
968.56	1622.75
968.785	1621.75
969.011	1631.75
969.236	1654.75
969.462	1592.75
969.687	1625.75
969.912	1670.75
970.138	1689.75
970.363	1612.75
970.588	1610.75
970.813	1600.75
971.038	1600.75
971.263	1579.75
971.488	1624.75
971.713	1640.75
971.938	1643.75
972.163	1495.75
972.388	1568.75
972.613	1560.75
972.838	1566.75
973.062	1535.75
973.287	1559.75
973.512	1485.75
973.736	1527.75
973.961	1532.75
974.185	1493.75
974.41	1534.75
974.634	1444.75
974.858	1464.75
975.083	1494.75
975.307	1524.75
975.531	1437.75
975.755	1445.75
975.98	1456.75
976.204	1378.75
976.428	1390.75
976.652	1399.75
976.876	1366.75
977.1	1428.75
977.324	1417.75
977.547	1453.75
977.771	1430.75
977.995	1409.75
978.219	1349.75
978.442	1467.75
978.666	1417.75
978.89	1406.75
979.113	1403.75
979.337	1406.75
979.56	1356.75
979.783	1464.75
980.007	1352.75
980.23	1383.75
980.453	1329.75
980.677	1371.75
980.9	1396.75
981.123	1279.75
981.346	1392.75
981.569	1373.75
981.792	1358.75
982.015	1344.75
982.238	1329.75
982.461	1324.75
982.684	1304.75
982.907	1296.75
983.129	1298.75
983.352	1323.75
983.575	1309.75
983.797	1335.75
984.02	1271.75
984.242	1274.75
984.465	1289.75
984.687	1311.75
984.91	1329.75
985.132	1311.75
985.354	1325.75
985.577	1316.75
985.799	1293.75
986.021	1199.75
986.243	1240.75
986.465	1266.75
986.687	1307.75
986.909	1329.75
987.131	1275.75
987.353	1234.75
987.575	1277.75
987.797	1235.75
988.019	1178.75
988.241	1263.75
988.462	1229.75
988.684	1247.75
988.906	1316.75
989.127	1316.75
989.349	1204.75
989.57	1224.75
989.792	1285.75
990.013	1262.75
990.234	1310.75
990.456	1317.75
990.677	1311.75
990.898	1219.75
991.119	1210.75
991.341	1260.75
991.562	1202.75
991.783	1234.75
992.004	1174.75
992.225	1157.75
992.446	1226.75
992.667	1151.75
992.887	1206.75
993.108	1123.75
993.329	1280.75
993.55	1172.75
993.77	1136.75
993.991	1162.75
994.212	1216.75
994.432	1167.75
994.653	1172.75
994.873	1166.75
995.093	1065.75
995.314	1135.75
995.534	1197.75
995.754	1182.75
995.975	1236.75
996.195	1111.75
996.415	1182.75
996.635	1133.75
996.855	1191.75
997.075	1134.75
997.295	1119.75
997.515	1115.75
997.735	1167.75
997.955	1144.75
998.174	1149.75
998.394	1081.75
998.614	1143.75
998.834	1106.75
999.053	1188.75
999.273	1140.75
999.492	1204.75
999.712	1141.75
999.931	1112.75
1000.151	1155.75
1000.37	1132.75
1000.589	1237.75
1000.809	1121.75
1001.028	1258.75
1001.247	1163.75
1001.466	1076.75
1001.685	1221.75
1001.904	1154.75
1002.123	1174.75
1002.342	1140.75
1002.561	1106.75
1002.78	1146.75
1002.999	1186.75
1003.218	1148.75
1003.436	1102.75
1003.655	1158.75
1003.874	1130.75
1004.092	1135.75
1004.311	1171.75
1004.53	1146.75
1004.748	1223.75
1004.966	1125.75
1005.185	1189.75
1005.403	1190.75
1005.622	1160.75
1005.84	1229.75
1006.058	1128.75
1006.276	1149.75
1006.494	1646.75
1006.712	1137.75
1006.931	1222.75
1007.149	1114.75
1007.367	1150.75
1007.584	1138.75
1007.802	1170.75
1008.02	1101.75
1008.238	1231.75
1008.456	1195.75
1008.673	1077.75
1008.891	1159.75
1009.109	1134.75
1009.326	1171.75
1009.544	1262.75
1009.761	1161.75
1009.979	1234.75
1010.196	1211.75
1010.413	1293.75
1010.631	1331.75
1010.848	1342.75
1011.065	1350.75
1011.282	1265.75
1011.5	1230.75
1011.717	1350.75
1011.934	1284.75
1012.151	1297.75
1012.368	1279.75
1012.585	1257.75
1012.801	1282.75
1013.018	1244.75
1013.235	1216.75
1013.452	1255.75
1013.669	1229.75
1013.885	1208.75
1014.102	1271.75
1014.318	1202.75
1014.535	1191.75
1014.751	1225.75
1014.968	1215.75
1015.184	1251.75
1015.401	1169.75
1015.617	1214.75
1015.833	1154.75
1016.049	1160.75
1016.266	1141.75
1016.482	1148.75
1016.698	1099.75
1016.914	1147.75
1017.13	1107.75
1017.346	1066.75
1017.562	1150.75
1017.778	1098.75
1017.993	1051.75
1018.209	1111.75
1018.425	1080.75
1018.641	1078.75
1018.856	1012.75
1019.072	1068.75
1019.288	1111.75
1019.503	1073.75
1019.719	976.75
1019.934	999.75
1020.149	1076.75
1020.365	995.75
1020.58	972.75
1020.795	1026.75
1021.011	956.75
1021.226	955.75
1021.441	994.75
1021.656	906.75
1021.871	855.75
1022.086	861.75
1022.301	869.75
1022.516	876.75
1022.731	922.75
1022.946	852.75
1023.16	827.75
1023.375	812.75
1023.59	796.75
1023.804	775.75
1024.019	884.75
1024.234	736.75
1024.448	779.75
1024.663	726.75
1024.877	751.75
1025.092	745.75
1025.306	765.75
1025.52	680.75
1025.734	790.75
1025.949	697.75
1026.163	693.75
1026.377	641.75
1026.591	698.75
1026.805	617.75
1027.019	613.75
1027.233	584.75
1027.447	530.75
1027.661	637.75
1027.875	594.75
1028.088	603.75
1028.302	535.75
1028.516	527.75
1028.73	532.75
1028.943	538.75
1029.157	487.75
1029.37	461.75
1029.584	-2.25
1029.797	-1.25
1030.011	-3.25
1030.224	-2.25
