Data from QEP037381__57__10-05-09-928.txt Node

Date: Wed Dec 21 10:05:09 EST 2022
User: dcclab
Spectrometer: QEP03738
Trigger mode: 4
Integration Time (sec): 1.000000E1
Scans to average: 1
Electric dark correction enabled: true
Nonlinearity correction enabled: false
Boxcar width: 0
XAxis mode: Wavelengths
Number of Pixels in Spectrum: 1044
>>>>>Begin Spectral Data<<<<<
784.041	12.38
784.3	-2.62
784.558	-0.62
784.817	-1.62
785.075	111948.38
785.334	19106.38
785.592	8909.38
785.851	6050.38
786.109	4585.38
786.368	3527.38
786.626	2882.38
786.884	2352.38
787.143	2012.38
787.401	1662.38
787.659	1467.38
787.917	1269.38
788.175	1119.38
788.433	980.38
788.691	906.38
788.949	825.38
789.207	777.38
789.465	679.38
789.723	652.38
789.98	616.38
790.238	637.38
790.496	609.38
790.753	556.38
791.011	602.38
791.268	537.38
791.526	533.38
791.783	548.38
792.041	508.38
792.298	429.38
792.556	493.38
792.813	471.38
793.07	447.38
793.327	419.38
793.584	521.38
793.841	429.38
794.099	454.38
794.356	498.38
794.613	406.38
794.869	448.38
795.126	413.38
795.383	380.38
795.64	391.38
795.897	358.38
796.153	425.38
796.41	402.38
796.667	379.38
796.923	392.38
797.18	390.38
797.436	427.38
797.693	367.38
797.949	432.38
798.206	451.38
798.462	367.38
798.718	422.38
798.974	393.38
799.231	423.38
799.487	405.38
799.743	416.38
799.999	448.38
800.255	435.38
800.511	416.38
800.767	452.38
801.023	423.38
801.279	449.38
801.534	459.38
801.79	481.38
802.046	489.38
802.302	559.38
802.557	595.38
802.813	674.38
803.068	730.38
803.324	985.38
803.579	1211.38
803.835	1558.38
804.09	2191.38
804.345	2753.38
804.601	3432.38
804.856	4157.38
805.111	4744.38
805.366	5194.38
805.621	5488.38
805.876	5720.38
806.131	5857.38
806.386	5893.38
806.641	5913.38
806.896	6053.38
807.151	6220.38
807.406	6279.38
807.661	6297.38
807.915	6423.38
808.17	6549.38
808.425	6510.38
808.679	6590.38
808.934	6687.38
809.188	6682.38
809.443	6749.38
809.697	6848.38
809.951	6849.38
810.206	6859.38
810.46	6966.38
810.714	6959.38
810.968	7096.38
811.223	7124.38
811.477	7137.38
811.731	7266.38
811.985	7183.38
812.239	7132.38
812.493	7270.38
812.747	7310.38
813	7310.38
813.254	7310.38
813.508	7438.38
813.762	7331.38
814.015	7416.38
814.269	7424.38
814.522	7556.38
814.776	7594.38
815.03	7719.38
815.283	7762.38
815.536	7869.38
815.79	7955.38
816.043	8058.38
816.296	8157.38
816.55	8227.38
816.803	8327.38
817.056	8483.38
817.309	8466.38
817.562	8535.38
817.815	8647.38
818.068	8577.38
818.321	8705.38
818.574	8841.38
818.827	8991.38
819.079	8943.38
819.332	9213.38
819.585	9252.38
819.838	9448.38
820.09	9385.38
820.343	9542.38
820.595	9544.38
820.848	9567.38
821.1	9658.38
821.353	9618.38
821.605	9621.38
821.857	9651.38
822.11	9551.38
822.362	9478.38
822.614	9518.38
822.866	9624.38
823.118	9527.38
823.37	9672.38
823.622	9714.38
823.874	9672.38
824.126	9713.38
824.378	9736.38
824.63	9761.38
824.882	9742.38
825.134	9676.38
825.385	9712.38
825.637	9665.38
825.888	9615.38
826.14	9583.38
826.392	9536.38
826.643	9446.38
826.895	9487.38
827.146	9383.38
827.397	9353.38
827.649	9461.38
827.9	9372.38
828.151	9388.38
828.402	9341.38
828.653	9482.38
828.905	9462.38
829.156	9541.38
829.407	9431.38
829.658	9501.38
829.909	9491.38
830.159	9492.38
830.41	9426.38
830.661	9377.38
830.912	9279.38
831.162	9238.38
831.413	9236.38
831.664	9309.38
831.914	9354.38
832.165	9334.38
832.415	9301.38
832.666	9182.38
832.916	9281.38
833.167	9250.38
833.417	9305.38
833.667	9270.38
833.917	9167.38
834.168	9232.38
834.418	9190.38
834.668	9150.38
834.918	9061.38
835.168	9103.38
835.418	8938.38
835.668	9049.38
835.918	9022.38
836.167	9001.38
836.417	8904.38
836.667	9025.38
836.917	8989.38
837.166	8876.38
837.416	8997.38
837.666	8903.38
837.915	8867.38
838.165	8851.38
838.414	8762.38
838.663	8753.38
838.913	8797.38
839.162	8770.38
839.411	8828.38
839.661	8731.38
839.91	8753.38
840.159	8689.38
840.408	8699.38
840.657	8665.38
840.906	8673.38
841.155	8803.38
841.404	8710.38
841.653	8638.38
841.902	8755.38
842.15	8728.38
842.399	8702.38
842.648	8729.38
842.897	8694.38
843.145	8592.38
843.394	8488.38
843.642	8455.38
843.891	8539.38
844.139	8436.38
844.388	8367.38
844.636	8257.38
844.884	8360.38
845.133	8291.38
845.381	8330.38
845.629	8373.38
845.877	8343.38
846.125	8288.38
846.373	8275.38
846.621	8258.38
846.869	8267.38
847.117	8234.38
847.365	8141.38
847.613	8148.38
847.861	8159.38
848.108	8209.38
848.356	8073.38
848.604	8130.38
848.851	8060.38
849.099	8152.38
849.346	8106.38
849.594	8167.38
849.841	8141.38
850.089	8132.38
850.336	8170.38
850.583	8081.38
850.831	8174.38
851.078	8081.38
851.325	8043.38
851.572	8072.38
851.819	7972.38
852.066	7907.38
852.313	7809.38
852.56	7682.38
852.807	7702.38
853.054	7675.38
853.301	7732.38
853.548	7692.38
853.794	7765.38
854.041	7793.38
854.288	7752.38
854.534	7985.38
854.781	7931.38
855.028	7773.38
855.274	7876.38
855.52	7684.38
855.767	7644.38
856.013	7709.38
856.26	7978.38
856.506	7666.38
856.752	7607.38
856.998	7603.38
857.244	7600.38
857.49	7683.38
857.736	7675.38
857.982	7726.38
858.228	7697.38
858.474	7589.38
858.72	7563.38
858.966	7500.38
859.212	7462.38
859.458	7358.38
859.703	7277.38
859.949	7233.38
860.195	7232.38
860.44	7160.38
860.686	7115.38
860.931	7190.38
861.177	7052.38
861.422	7132.38
861.667	7005.38
861.913	7062.38
862.158	7047.38
862.403	7081.38
862.648	7123.38
862.893	7072.38
863.138	7080.38
863.384	7057.38
863.629	7094.38
863.873	7002.38
864.118	6946.38
864.363	6940.38
864.608	7032.38
864.853	6931.38
865.098	6870.38
865.342	6853.38
865.587	6832.38
865.832	6869.38
866.076	6868.38
866.321	6749.38
866.565	6795.38
866.81	6668.38
867.054	6769.38
867.298	6630.38
867.543	6687.38
867.787	6723.38
868.031	6741.38
868.275	6703.38
868.519	6633.38
868.764	6671.38
869.008	6626.38
869.252	6674.38
869.496	6547.38
869.739	6600.38
869.983	6696.38
870.227	6622.38
870.471	6535.38
870.715	6549.38
870.958	6569.38
871.202	6595.38
871.446	6577.38
871.689	6569.38
871.933	6598.38
872.176	6593.38
872.42	6567.38
872.663	6588.38
872.906	6612.38
873.15	6542.38
873.393	6474.38
873.636	6539.38
873.879	6534.38
874.122	6444.38
874.366	6324.38
874.609	6299.38
874.852	6206.38
875.095	6264.38
875.337	6146.38
875.58	6041.38
875.823	6147.38
876.066	6122.38
876.309	6186.38
876.551	6014.38
876.794	5997.38
877.037	6061.38
877.279	6026.38
877.522	6016.38
877.764	5970.38
878.007	5981.38
878.249	6019.38
878.491	5999.38
878.734	6002.38
878.976	5989.38
879.218	5864.38
879.46	5949.38
879.702	5847.38
879.945	5836.38
880.187	5681.38
880.429	5718.38
880.671	5744.38
880.912	5688.38
881.154	5620.38
881.396	5615.38
881.638	5653.38
881.88	5653.38
882.121	5592.38
882.363	5638.38
882.605	5630.38
882.846	5562.38
883.088	5621.38
883.329	5505.38
883.571	5570.38
883.812	5617.38
884.053	5715.38
884.295	5819.38
884.536	5916.38
884.777	5859.38
885.018	5861.38
885.259	5782.38
885.5	5708.38
885.742	5994.38
885.982	5720.38
886.223	5625.38
886.464	5600.38
886.705	5622.38
886.946	5527.38
887.187	5338.38
887.428	5407.38
887.668	5320.38
887.909	5276.38
888.15	5140.38
888.39	5183.38
888.631	5215.38
888.871	5151.38
889.111	5105.38
889.352	5065.38
889.592	5055.38
889.833	4970.38
890.073	4928.38
890.313	4986.38
890.553	4893.38
890.793	4847.38
891.033	4834.38
891.273	4848.38
891.513	4837.38
891.753	4814.38
891.993	4810.38
892.233	4793.38
892.473	4884.38
892.713	4788.38
892.952	4796.38
893.192	4785.38
893.432	4739.38
893.671	4779.38
893.911	4758.38
894.15	4774.38
894.39	4578.38
894.629	4693.38
894.869	4684.38
895.108	4585.38
895.347	4599.38
895.587	4576.38
895.826	4543.38
896.065	4515.38
896.304	4557.38
896.543	4555.38
896.782	4475.38
897.021	4507.38
897.26	4487.38
897.499	4539.38
897.738	4467.38
897.977	4417.38
898.216	4415.38
898.454	4400.38
898.693	4380.38
898.932	4382.38
899.17	4368.38
899.409	4312.38
899.647	4301.38
899.886	4266.38
900.124	4282.38
900.363	4255.38
900.601	4245.38
900.839	4286.38
901.078	4306.38
901.316	4306.38
901.554	4285.38
901.792	4379.38
902.03	4256.38
902.268	4334.38
902.506	4334.38
902.744	4241.38
902.982	4276.38
903.22	4211.38
903.458	4161.38
903.695	4143.38
903.933	4112.38
904.171	4007.38
904.409	3988.38
904.646	3974.38
904.884	3880.38
905.121	3922.38
905.359	3828.38
905.596	3777.38
905.833	3743.38
906.071	3734.38
906.308	3751.38
906.545	3725.38
906.783	3696.38
907.02	3692.38
907.257	3644.38
907.494	3669.38
907.731	3678.38
907.968	3695.38
908.205	3628.38
908.442	3605.38
908.679	3626.38
908.915	3585.38
909.152	3539.38
909.389	3466.38
909.626	3483.38
909.862	3459.38
910.099	3487.38
910.335	3514.38
910.572	3385.38
910.808	3438.38
911.045	3386.38
911.281	3379.38
911.518	3452.38
911.754	3405.38
911.99	3354.38
912.226	3329.38
912.463	3314.38
912.699	3298.38
912.935	3237.38
913.171	3271.38
913.407	3209.38
913.643	3227.38
913.879	3195.38
914.114	3156.38
914.35	3144.38
914.586	3118.38
914.822	3037.38
915.057	3154.38
915.293	2998.38
915.529	2997.38
915.764	3097.38
916	3030.38
916.235	3035.38
916.471	3041.38
916.706	2969.38
916.941	2962.38
917.177	2992.38
917.412	3022.38
917.647	3016.38
917.882	2931.38
918.117	2993.38
918.352	2964.38
918.588	3033.38
918.823	2898.38
919.057	2943.38
919.292	2812.38
919.527	2917.38
919.762	2845.38
919.997	2861.38
920.232	2779.38
920.466	2829.38
920.701	2681.38
920.935	2718.38
921.17	2724.38
921.405	2663.38
921.639	2746.38
921.873	2666.38
922.108	2696.38
922.342	2704.38
922.576	2639.38
922.811	2598.38
923.045	2700.38
923.279	2685.38
923.513	2541.38
923.747	2645.38
923.981	2588.38
924.215	2568.38
924.449	2561.38
924.683	2494.38
924.917	2531.38
925.151	2495.38
925.385	2581.38
925.618	2521.38
925.852	2505.38
926.086	2466.38
926.319	2502.38
926.553	2492.38
926.786	2539.38
927.02	2498.38
927.253	2527.38
927.486	2505.38
927.72	2422.38
927.953	2502.38
928.186	2451.38
928.42	2460.38
928.653	2437.38
928.886	2439.38
929.119	2466.38
929.352	2402.38
929.585	2446.38
929.818	2361.38
930.051	2383.38
930.284	2394.38
930.516	2327.38
930.749	2295.38
930.982	2368.38
931.215	2316.38
931.447	2252.38
931.68	2283.38
931.912	2270.38
932.145	2261.38
932.377	2295.38
932.61	2386.38
932.842	2218.38
933.074	2273.38
933.307	2244.38
933.539	2333.38
933.771	2349.38
934.003	2280.38
934.236	2362.38
934.468	2388.38
934.7	2302.38
934.932	2318.38
935.164	2299.38
935.395	2246.38
935.627	2256.38
935.859	2252.38
936.091	2153.38
936.323	2255.38
936.554	2260.38
936.786	2187.38
937.017	2138.38
937.249	2190.38
937.481	2137.38
937.712	2205.38
937.943	2195.38
938.175	2170.38
938.406	2127.38
938.637	2217.38
938.869	2114.38
939.1	2189.38
939.331	2113.38
939.562	2168.38
939.793	2130.38
940.024	2144.38
940.255	2168.38
940.486	2123.38
940.717	2098.38
940.948	2082.38
941.179	2047.38
941.409	2108.38
941.64	2069.38
941.871	2084.38
942.102	2046.38
942.332	2042.38
942.563	2106.38
942.793	2100.38
943.024	2022.38
943.254	2042.38
943.484	2117.38
943.715	2131.38
943.945	2091.38
944.175	1994.38
944.405	1997.38
944.636	2008.38
944.866	2032.38
945.096	2031.38
945.326	2008.38
945.556	2046.38
945.786	2068.38
946.016	1995.38
946.245	1996.38
946.475	1948.38
946.705	1989.38
946.935	1943.38
947.164	1990.38
947.394	1956.38
947.624	1915.38
947.853	1986.38
948.083	1979.38
948.312	1949.38
948.542	1857.38
948.771	1864.38
949	1864.38
949.23	1866.38
949.459	1918.38
949.688	1950.38
949.917	1899.38
950.146	1901.38
950.375	1990.38
950.604	1845.38
950.833	1955.38
951.062	1937.38
951.291	1893.38
951.52	1863.38
951.749	1881.38
951.978	1870.38
952.206	1834.38
952.435	1854.38
952.664	1887.38
952.892	1890.38
953.121	1866.38
953.349	1908.38
953.578	1862.38
953.806	1856.38
954.035	1800.38
954.263	1840.38
954.491	1770.38
954.719	1811.38
954.948	1790.38
955.176	1798.38
955.404	1714.38
955.632	1769.38
955.86	1784.38
956.088	1769.38
956.316	1816.38
956.544	1803.38
956.772	1741.38
956.999	1740.38
957.227	1792.38
957.455	1710.38
957.683	1745.38
957.91	1681.38
958.138	1685.38
958.365	1692.38
958.593	1685.38
958.82	1628.38
959.048	1683.38
959.275	1674.38
959.502	1661.38
959.73	1618.38
959.957	1686.38
960.184	1717.38
960.411	1635.38
960.638	1725.38
960.865	1658.38
961.092	1706.38
961.319	1588.38
961.546	1677.38
961.773	1712.38
962	1628.38
962.227	1688.38
962.454	1618.38
962.68	1643.38
962.907	1678.38
963.134	1620.38
963.36	1650.38
963.587	1685.38
963.813	1614.38
964.04	1619.38
964.266	1589.38
964.493	1673.38
964.719	1615.38
964.945	1630.38
965.171	1526.38
965.398	1602.38
965.624	1616.38
965.85	1540.38
966.076	1546.38
966.302	1608.38
966.528	1561.38
966.754	1578.38
966.98	1571.38
967.206	1560.38
967.431	1507.38
967.657	1591.38
967.883	1579.38
968.109	1574.38
968.334	1481.38
968.56	1515.38
968.785	1525.38
969.011	1489.38
969.236	1553.38
969.462	1487.38
969.687	1503.38
969.912	1542.38
970.138	1557.38
970.363	1468.38
970.588	1493.38
970.813	1482.38
971.038	1448.38
971.263	1480.38
971.488	1481.38
971.713	1530.38
971.938	1500.38
972.163	1400.38
972.388	1459.38
972.613	1430.38
972.838	1432.38
973.062	1436.38
973.287	1420.38
973.512	1379.38
973.736	1438.38
973.961	1404.38
974.185	1405.38
974.41	1418.38
974.634	1345.38
974.858	1352.38
975.083	1393.38
975.307	1441.38
975.531	1367.38
975.755	1300.38
975.98	1333.38
976.204	1290.38
976.428	1297.38
976.652	1286.38
976.876	1275.38
977.1	1339.38
977.324	1272.38
977.547	1331.38
977.771	1348.38
977.995	1293.38
978.219	1257.38
978.442	1359.38
978.666	1304.38
978.89	1308.38
979.113	1307.38
979.337	1279.38
979.56	1269.38
979.783	1341.38
980.007	1249.38
980.23	1276.38
980.453	1243.38
980.677	1285.38
980.9	1282.38
981.123	1171.38
981.346	1306.38
981.569	1264.38
981.792	1287.38
982.015	1255.38
982.238	1224.38
982.461	1243.38
982.684	1233.38
982.907	1195.38
983.129	1193.38
983.352	1275.38
983.575	1236.38
983.797	1232.38
984.02	1190.38
984.242	1194.38
984.465	1196.38
984.687	1234.38
984.91	1267.38
985.132	1195.38
985.354	1241.38
985.577	1200.38
985.799	1198.38
986.021	1125.38
986.243	1146.38
986.465	1170.38
986.687	1229.38
986.909	1248.38
987.131	1213.38
987.353	1165.38
987.575	1191.38
987.797	1178.38
988.019	1099.38
988.241	1162.38
988.462	1126.38
988.684	1216.38
988.906	1229.38
989.127	1250.38
989.349	1104.38
989.57	1165.38
989.792	1194.38
990.013	1206.38
990.234	1222.38
990.456	1244.38
990.677	1216.38
990.898	1153.38
991.119	1139.38
991.341	1165.38
991.562	1118.38
991.783	1168.38
992.004	1101.38
992.225	1121.38
992.446	1134.38
992.667	1052.38
992.887	1168.38
993.108	1035.38
993.329	1177.38
993.55	1128.38
993.77	1071.38
993.991	1090.38
994.212	1121.38
994.432	1117.38
994.653	1115.38
994.873	1127.38
995.093	1008.38
995.314	1063.38
995.534	1138.38
995.754	1144.38
995.975	1184.38
996.195	1027.38
996.415	1104.38
996.635	1076.38
996.855	1115.38
997.075	1095.38
997.295	1070.38
997.515	1073.38
997.735	1109.38
997.955	1074.38
998.174	1068.38
998.394	1028.38
998.614	1081.38
998.834	1032.38
999.053	1113.38
999.273	1100.38
999.492	1155.38
999.712	1089.38
999.931	1055.38
1000.151	1093.38
1000.37	1086.38
1000.589	1162.38
1000.809	1045.38
1001.028	1161.38
1001.247	1125.38
1001.466	1021.38
1001.685	1164.38
1001.904	1093.38
1002.123	1085.38
1002.342	1088.38
1002.561	1046.38
1002.78	1085.38
1002.999	1149.38
1003.218	1110.38
1003.436	1057.38
1003.655	1127.38
1003.874	1051.38
1004.092	1099.38
1004.311	1132.38
1004.53	1080.38
1004.748	1157.38
1004.966	1080.38
1005.185	1161.38
1005.403	1128.38
1005.622	1122.38
1005.84	1168.38
1006.058	1073.38
1006.276	1112.38
1006.494	1588.38
1006.712	1114.38
1006.931	1160.38
1007.149	1058.38
1007.367	1060.38
1007.584	1106.38
1007.802	1136.38
1008.02	1084.38
1008.238	1177.38
1008.456	1161.38
1008.673	1049.38
1008.891	1173.38
1009.109	1103.38
1009.326	1127.38
1009.544	1198.38
1009.761	1108.38
1009.979	1192.38
1010.196	1171.38
1010.413	1230.38
1010.631	1280.38
1010.848	1288.38
1011.065	1291.38
1011.282	1247.38
1011.5	1166.38
1011.717	1281.38
1011.934	1228.38
1012.151	1268.38
1012.368	1256.38
1012.585	1196.38
1012.801	1255.38
1013.018	1220.38
1013.235	1184.38
1013.452	1207.38
1013.669	1186.38
1013.885	1179.38
1014.102	1210.38
1014.318	1159.38
1014.535	1156.38
1014.751	1182.38
1014.968	1172.38
1015.184	1208.38
1015.401	1121.38
1015.617	1167.38
1015.833	1119.38
1016.049	1138.38
1016.266	1100.38
1016.482	1114.38
1016.698	1043.38
1016.914	1109.38
1017.13	1060.38
1017.346	1066.38
1017.562	1125.38
1017.778	1066.38
1017.993	1027.38
1018.209	1092.38
1018.425	1049.38
1018.641	1029.38
1018.856	1008.38
1019.072	1029.38
1019.288	1065.38
1019.503	1029.38
1019.719	938.38
1019.934	962.38
1020.149	1073.38
1020.365	1005.38
1020.58	956.38
1020.795	990.38
1021.011	954.38
1021.226	937.38
1021.441	967.38
1021.656	880.38
1021.871	815.38
1022.086	849.38
1022.301	844.38
1022.516	830.38
1022.731	910.38
1022.946	814.38
1023.16	810.38
1023.375	787.38
1023.59	763.38
1023.804	758.38
1024.019	842.38
1024.234	719.38
1024.448	746.38
1024.663	704.38
1024.877	720.38
1025.092	730.38
1025.306	762.38
1025.52	656.38
1025.734	759.38
1025.949	685.38
1026.163	660.38
1026.377	605.38
1026.591	679.38
1026.805	604.38
1027.019	607.38
1027.233	575.38
1027.447	509.38
1027.661	611.38
1027.875	569.38
1028.088	582.38
1028.302	515.38
1028.516	518.38
1028.73	537.38
1028.943	526.38
1029.157	480.38
1029.37	447.38
1029.584	-2.62
1029.797	0.38
1030.011	-4.62
1030.224	-0.62
