Data from QEP037381__18__09-58-39-926.txt Node

Date: Wed Dec 21 09:58:39 EST 2022
User: dcclab
Spectrometer: QEP03738
Trigger mode: 4
Integration Time (sec): 1.000000E1
Scans to average: 1
Electric dark correction enabled: true
Nonlinearity correction enabled: false
Boxcar width: 0
XAxis mode: Wavelengths
Number of Pixels in Spectrum: 1044
>>>>>Begin Spectral Data<<<<<
784.041	11.5
784.3	2.5
784.558	0.5
784.817	-4.5
785.075	115693.5
785.334	19928.5
785.592	9268.5
785.851	6383.5
786.109	4785.5
786.368	3742.5
786.626	3004.5
786.884	2499.5
787.143	2089.5
787.401	1742.5
787.659	1527.5
787.917	1303.5
788.175	1174.5
788.433	1034.5
788.691	919.5
788.949	857.5
789.207	814.5
789.465	694.5
789.723	670.5
789.98	622.5
790.238	647.5
790.496	592.5
790.753	584.5
791.011	611.5
791.268	554.5
791.526	543.5
791.783	550.5
792.041	534.5
792.298	432.5
792.556	497.5
792.813	465.5
793.07	445.5
793.327	447.5
793.584	532.5
793.841	444.5
794.099	466.5
794.356	496.5
794.613	412.5
794.869	470.5
795.126	411.5
795.383	392.5
795.64	415.5
795.897	365.5
796.153	430.5
796.41	419.5
796.667	402.5
796.923	407.5
797.18	399.5
797.436	431.5
797.693	401.5
797.949	436.5
798.206	472.5
798.462	376.5
798.718	438.5
798.974	409.5
799.231	445.5
799.487	441.5
799.743	421.5
799.999	453.5
800.255	453.5
800.511	452.5
800.767	457.5
801.023	441.5
801.279	471.5
801.534	494.5
801.79	528.5
802.046	526.5
802.302	631.5
802.557	664.5
802.813	786.5
803.068	916.5
803.324	1221.5
803.579	1534.5
803.835	2120.5
804.09	2869.5
804.345	3712.5
804.601	4667.5
804.856	5648.5
805.111	6532.5
805.366	7139.5
805.621	7584.5
805.876	7875.5
806.131	8056.5
806.386	8159.5
806.641	8263.5
806.896	8447.5
807.151	8544.5
807.406	8673.5
807.661	8791.5
807.915	8918.5
808.17	9097.5
808.425	9155.5
808.679	9181.5
808.934	9247.5
809.188	9251.5
809.443	9433.5
809.697	9516.5
809.951	9531.5
810.206	9557.5
810.46	9706.5
810.714	9767.5
810.968	9893.5
811.223	9854.5
811.477	9975.5
811.731	10057.5
811.985	10063.5
812.239	10060.5
812.493	10122.5
812.747	10163.5
813	10098.5
813.254	10248.5
813.508	10282.5
813.762	10288.5
814.015	10290.5
814.269	10404.5
814.522	10467.5
814.776	10622.5
815.03	10723.5
815.283	10849.5
815.536	11059.5
815.79	11179.5
816.043	11230.5
816.296	11442.5
816.55	11439.5
816.803	11560.5
817.056	11810.5
817.309	11797.5
817.562	11855.5
817.815	11962.5
818.068	12097.5
818.321	12158.5
818.574	12290.5
818.827	12466.5
819.079	12605.5
819.332	12828.5
819.585	12928.5
819.838	13031.5
820.09	13148.5
820.343	13189.5
820.595	13201.5
820.848	13334.5
821.1	13376.5
821.353	13485.5
821.605	13403.5
821.857	13483.5
822.11	13349.5
822.362	13222.5
822.614	13223.5
822.866	13349.5
823.118	13321.5
823.37	13517.5
823.622	13374.5
823.874	13442.5
824.126	13561.5
824.378	13625.5
824.63	13584.5
824.882	13592.5
825.134	13463.5
825.385	13529.5
825.637	13469.5
825.888	13478.5
826.14	13370.5
826.392	13374.5
826.643	13202.5
826.895	13306.5
827.146	13167.5
827.397	13154.5
827.649	13132.5
827.9	13104.5
828.151	13177.5
828.402	13168.5
828.653	13152.5
828.905	13243.5
829.156	13263.5
829.407	13195.5
829.658	13226.5
829.909	13260.5
830.159	13199.5
830.41	13175.5
830.661	13077.5
830.912	12961.5
831.162	12896.5
831.413	12897.5
831.664	12958.5
831.914	12862.5
832.165	12840.5
832.415	13031.5
832.666	12952.5
832.916	12959.5
833.167	12872.5
833.417	12905.5
833.667	12835.5
833.917	12821.5
834.168	12816.5
834.418	12798.5
834.668	12736.5
834.918	12641.5
835.168	12598.5
835.418	12543.5
835.668	12589.5
835.918	12552.5
836.167	12578.5
836.417	12407.5
836.667	12476.5
836.917	12446.5
837.166	12403.5
837.416	12463.5
837.666	12432.5
837.915	12303.5
838.165	12411.5
838.414	12264.5
838.663	12202.5
838.913	12200.5
839.162	12173.5
839.411	12238.5
839.661	12085.5
839.91	12101.5
840.159	12051.5
840.408	12109.5
840.657	12099.5
840.906	12050.5
841.155	12136.5
841.404	11994.5
841.653	12100.5
841.902	12015.5
842.15	12065.5
842.399	12042.5
842.648	11994.5
842.897	11987.5
843.145	11855.5
843.394	11926.5
843.642	11724.5
843.891	11783.5
844.139	11683.5
844.388	11585.5
844.636	11487.5
844.884	11611.5
845.133	11493.5
845.381	11560.5
845.629	11524.5
845.877	11603.5
846.125	11453.5
846.373	11501.5
846.621	11329.5
846.869	11451.5
847.117	11373.5
847.365	11251.5
847.613	11265.5
847.861	11294.5
848.108	11240.5
848.356	11171.5
848.604	11071.5
848.851	11124.5
849.099	11180.5
849.346	11213.5
849.594	11305.5
849.841	11386.5
850.089	11232.5
850.336	11283.5
850.583	11238.5
850.831	11288.5
851.078	11160.5
851.325	11151.5
851.572	11115.5
851.819	11078.5
852.066	10812.5
852.313	10706.5
852.56	10537.5
852.807	10600.5
853.054	10573.5
853.301	10607.5
853.548	10575.5
853.794	10665.5
854.041	10642.5
854.288	10634.5
854.534	10883.5
854.781	10735.5
855.028	10744.5
855.274	10762.5
855.52	10646.5
855.767	10593.5
856.013	10595.5
856.26	10808.5
856.506	10416.5
856.752	10501.5
856.998	10377.5
857.244	10434.5
857.49	10465.5
857.736	10453.5
857.982	10438.5
858.228	10462.5
858.474	10411.5
858.72	10384.5
858.966	10284.5
859.212	10176.5
859.458	10071.5
859.703	10040.5
859.949	9889.5
860.195	9913.5
860.44	9780.5
860.686	9673.5
860.931	9761.5
861.177	9639.5
861.422	9756.5
861.667	9588.5
861.913	9633.5
862.158	9750.5
862.403	9745.5
862.648	9771.5
862.893	9719.5
863.138	9732.5
863.384	9691.5
863.629	9701.5
863.873	9621.5
864.118	9565.5
864.363	9479.5
864.608	9517.5
864.853	9574.5
865.098	9443.5
865.342	9437.5
865.587	9293.5
865.832	9333.5
866.076	9304.5
866.321	9287.5
866.565	9300.5
866.81	9223.5
867.054	9190.5
867.298	9154.5
867.543	9119.5
867.787	9183.5
868.031	9124.5
868.275	9132.5
868.519	9054.5
868.764	9019.5
869.008	9064.5
869.252	9033.5
869.496	8938.5
869.739	8977.5
869.983	8887.5
870.227	8960.5
870.471	8962.5
870.715	8992.5
870.958	8949.5
871.202	8915.5
871.446	8911.5
871.689	8857.5
871.933	8934.5
872.176	8992.5
872.42	8960.5
872.663	8887.5
872.906	8871.5
873.15	8825.5
873.393	8746.5
873.636	8797.5
873.879	8669.5
874.122	8607.5
874.366	8532.5
874.609	8490.5
874.852	8443.5
875.095	8392.5
875.337	8386.5
875.58	8303.5
875.823	8286.5
876.066	8345.5
876.309	8307.5
876.551	8221.5
876.794	8108.5
877.037	8199.5
877.279	8165.5
877.522	8150.5
877.764	8187.5
878.007	8123.5
878.249	8196.5
878.491	8071.5
878.734	8109.5
878.976	8084.5
879.218	7967.5
879.46	8051.5
879.702	7947.5
879.945	7866.5
880.187	7795.5
880.429	7734.5
880.671	7724.5
880.912	7694.5
881.154	7739.5
881.396	7611.5
881.638	7741.5
881.88	7655.5
882.121	7544.5
882.363	7606.5
882.605	7611.5
882.846	7587.5
883.088	7613.5
883.329	7471.5
883.571	7434.5
883.812	7480.5
884.053	7545.5
884.295	7688.5
884.536	7774.5
884.777	7708.5
885.018	7656.5
885.259	7617.5
885.5	7485.5
885.742	7831.5
885.982	7586.5
886.223	7443.5
886.464	7435.5
886.705	7420.5
886.946	7435.5
887.187	7288.5
887.428	7308.5
887.668	7141.5
887.909	7116.5
888.15	6977.5
888.39	7024.5
888.631	7014.5
888.871	6868.5
889.111	6905.5
889.352	6840.5
889.592	6817.5
889.833	6717.5
890.073	6694.5
890.313	6713.5
890.553	6514.5
890.793	6558.5
891.033	6566.5
891.273	6490.5
891.513	6535.5
891.753	6517.5
891.993	6536.5
892.233	6552.5
892.473	6573.5
892.713	6518.5
892.952	6472.5
893.192	6476.5
893.432	6427.5
893.671	6493.5
893.911	6456.5
894.15	6450.5
894.39	6285.5
894.629	6268.5
894.869	6316.5
895.108	6268.5
895.347	6191.5
895.587	6189.5
895.826	6152.5
896.065	6092.5
896.304	6162.5
896.543	6174.5
896.782	6078.5
897.021	6105.5
897.26	6045.5
897.499	6068.5
897.738	6054.5
897.977	5974.5
898.216	5947.5
898.454	5932.5
898.693	5807.5
898.932	5841.5
899.17	5776.5
899.409	5760.5
899.647	5744.5
899.886	5756.5
900.124	5772.5
900.363	5717.5
900.601	5739.5
900.839	5743.5
901.078	5702.5
901.316	5755.5
901.554	5787.5
901.792	5798.5
902.03	5677.5
902.268	5729.5
902.506	5710.5
902.744	5641.5
902.982	5679.5
903.22	5557.5
903.458	5581.5
903.695	5500.5
903.933	5468.5
904.171	5324.5
904.409	5316.5
904.646	5295.5
904.884	5209.5
905.121	5205.5
905.359	5160.5
905.596	5134.5
905.833	5004.5
906.071	5056.5
906.308	5077.5
906.545	5044.5
906.783	4970.5
907.02	4998.5
907.257	4947.5
907.494	4891.5
907.731	4953.5
907.968	4910.5
908.205	4912.5
908.442	4844.5
908.679	4862.5
908.915	4789.5
909.152	4798.5
909.389	4719.5
909.626	4678.5
909.862	4647.5
910.099	4678.5
910.335	4669.5
910.572	4585.5
910.808	4642.5
911.045	4600.5
911.281	4538.5
911.518	4617.5
911.754	4517.5
911.99	4533.5
912.226	4484.5
912.463	4405.5
912.699	4406.5
912.935	4395.5
913.171	4318.5
913.407	4284.5
913.643	4380.5
913.879	4221.5
914.114	4224.5
914.35	4219.5
914.586	4150.5
914.822	4102.5
915.057	4144.5
915.293	4047.5
915.529	4010.5
915.764	4110.5
916	4073.5
916.235	3998.5
916.471	4035.5
916.706	3955.5
916.941	3986.5
917.177	3958.5
917.412	4008.5
917.647	3980.5
917.882	3918.5
918.117	3982.5
918.352	3969.5
918.588	4008.5
918.823	3885.5
919.057	3877.5
919.292	3765.5
919.527	3858.5
919.762	3755.5
919.997	3783.5
920.232	3698.5
920.466	3682.5
920.701	3555.5
920.935	3583.5
921.17	3578.5
921.405	3551.5
921.639	3620.5
921.873	3568.5
922.108	3583.5
922.342	3544.5
922.576	3501.5
922.811	3459.5
923.045	3537.5
923.279	3533.5
923.513	3388.5
923.747	3444.5
923.981	3449.5
924.215	3361.5
924.449	3362.5
924.683	3292.5
924.917	3325.5
925.151	3335.5
925.385	3370.5
925.618	3318.5
925.852	3308.5
926.086	3262.5
926.319	3316.5
926.553	3254.5
926.786	3289.5
927.02	3255.5
927.253	3298.5
927.486	3290.5
927.72	3221.5
927.953	3252.5
928.186	3229.5
928.42	3246.5
928.653	3209.5
928.886	3178.5
929.119	3200.5
929.352	3161.5
929.585	3129.5
929.818	3059.5
930.051	3097.5
930.284	3107.5
930.516	3029.5
930.749	3029.5
930.982	3050.5
931.215	3027.5
931.447	2973.5
931.68	2965.5
931.912	2969.5
932.145	2965.5
932.377	2984.5
932.61	3100.5
932.842	2889.5
933.074	2985.5
933.307	2913.5
933.539	3032.5
933.771	2986.5
934.003	2931.5
934.236	3009.5
934.468	3015.5
934.7	2928.5
934.932	2984.5
935.164	2873.5
935.395	2879.5
935.627	2896.5
935.859	2881.5
936.091	2849.5
936.323	2893.5
936.554	2900.5
936.786	2861.5
937.017	2817.5
937.249	2830.5
937.481	2772.5
937.712	2864.5
937.943	2816.5
938.175	2779.5
938.406	2766.5
938.637	2829.5
938.869	2754.5
939.1	2797.5
939.331	2769.5
939.562	2772.5
939.793	2793.5
940.024	2824.5
940.255	2814.5
940.486	2745.5
940.717	2710.5
940.948	2712.5
941.179	2666.5
941.409	2694.5
941.64	2654.5
941.871	2702.5
942.102	2672.5
942.332	2663.5
942.563	2704.5
942.793	2656.5
943.024	2640.5
943.254	2646.5
943.484	2707.5
943.715	2683.5
943.945	2680.5
944.175	2607.5
944.405	2641.5
944.636	2611.5
944.866	2628.5
945.096	2647.5
945.326	2584.5
945.556	2657.5
945.786	2688.5
946.016	2613.5
946.245	2548.5
946.475	2548.5
946.705	2563.5
946.935	2551.5
947.164	2532.5
947.394	2512.5
947.624	2508.5
947.853	2554.5
948.083	2497.5
948.312	2463.5
948.542	2411.5
948.771	2401.5
949	2439.5
949.23	2443.5
949.459	2446.5
949.688	2527.5
949.917	2410.5
950.146	2464.5
950.375	2521.5
950.604	2410.5
950.833	2478.5
951.062	2465.5
951.291	2423.5
951.52	2407.5
951.749	2427.5
951.978	2343.5
952.206	2383.5
952.435	2345.5
952.664	2392.5
952.892	2380.5
953.121	2349.5
953.349	2382.5
953.578	2358.5
953.806	2341.5
954.035	2276.5
954.263	2322.5
954.491	2268.5
954.719	2322.5
954.948	2268.5
955.176	2266.5
955.404	2151.5
955.632	2275.5
955.86	2281.5
956.088	2266.5
956.316	2265.5
956.544	2266.5
956.772	2204.5
956.999	2227.5
957.227	2283.5
957.455	2159.5
957.683	2196.5
957.91	2141.5
958.138	2134.5
958.365	2208.5
958.593	2161.5
958.82	2085.5
959.048	2194.5
959.275	2161.5
959.502	2121.5
959.73	2125.5
959.957	2108.5
960.184	2156.5
960.411	2058.5
960.638	2125.5
960.865	2078.5
961.092	2128.5
961.319	2009.5
961.546	2120.5
961.773	2111.5
962	2094.5
962.227	2142.5
962.454	2089.5
962.68	2027.5
962.907	2053.5
963.134	2032.5
963.36	2078.5
963.587	2074.5
963.813	2024.5
964.04	2061.5
964.266	1983.5
964.493	2075.5
964.719	2025.5
964.945	2003.5
965.171	1937.5
965.398	1989.5
965.624	1995.5
965.85	1938.5
966.076	1918.5
966.302	1964.5
966.528	1913.5
966.754	1968.5
966.98	1927.5
967.206	1954.5
967.431	1873.5
967.657	1962.5
967.883	1957.5
968.109	1941.5
968.334	1889.5
968.56	1856.5
968.785	1850.5
969.011	1843.5
969.236	1881.5
969.462	1824.5
969.687	1902.5
969.912	1906.5
970.138	1932.5
970.363	1831.5
970.588	1874.5
970.813	1815.5
971.038	1813.5
971.263	1832.5
971.488	1845.5
971.713	1823.5
971.938	1826.5
972.163	1775.5
972.388	1786.5
972.613	1786.5
972.838	1802.5
973.062	1787.5
973.287	1769.5
973.512	1698.5
973.736	1750.5
973.961	1743.5
974.185	1683.5
974.41	1735.5
974.634	1645.5
974.858	1689.5
975.083	1707.5
975.307	1747.5
975.531	1644.5
975.755	1642.5
975.98	1648.5
976.204	1596.5
976.428	1597.5
976.652	1576.5
976.876	1572.5
977.1	1624.5
977.324	1601.5
977.547	1624.5
977.771	1637.5
977.995	1616.5
978.219	1542.5
978.442	1655.5
978.666	1599.5
978.89	1604.5
979.113	1605.5
979.337	1571.5
979.56	1527.5
979.783	1631.5
980.007	1504.5
980.23	1549.5
980.453	1540.5
980.677	1571.5
980.9	1542.5
981.123	1458.5
981.346	1563.5
981.569	1522.5
981.792	1526.5
982.015	1479.5
982.238	1497.5
982.461	1495.5
982.684	1469.5
982.907	1459.5
983.129	1451.5
983.352	1519.5
983.575	1476.5
983.797	1484.5
984.02	1432.5
984.242	1439.5
984.465	1462.5
984.687	1474.5
984.91	1525.5
985.132	1462.5
985.354	1486.5
985.577	1466.5
985.799	1432.5
986.021	1387.5
986.243	1377.5
986.465	1387.5
986.687	1454.5
986.909	1492.5
987.131	1403.5
987.353	1383.5
987.575	1427.5
987.797	1375.5
988.019	1323.5
988.241	1374.5
988.462	1339.5
988.684	1420.5
988.906	1409.5
989.127	1472.5
989.349	1355.5
989.57	1347.5
989.792	1404.5
990.013	1411.5
990.234	1442.5
990.456	1446.5
990.677	1418.5
990.898	1370.5
991.119	1360.5
991.341	1403.5
991.562	1326.5
991.783	1350.5
992.004	1318.5
992.225	1262.5
992.446	1357.5
992.667	1254.5
992.887	1346.5
993.108	1238.5
993.329	1382.5
993.55	1311.5
993.77	1271.5
993.991	1259.5
994.212	1298.5
994.432	1289.5
994.653	1309.5
994.873	1298.5
995.093	1190.5
995.314	1258.5
995.534	1322.5
995.754	1320.5
995.975	1332.5
996.195	1194.5
996.415	1287.5
996.635	1257.5
996.855	1276.5
997.075	1231.5
997.295	1246.5
997.515	1212.5
997.735	1281.5
997.955	1224.5
998.174	1212.5
998.394	1188.5
998.614	1271.5
998.834	1206.5
999.053	1282.5
999.273	1231.5
999.492	1321.5
999.712	1223.5
999.931	1194.5
1000.151	1275.5
1000.37	1234.5
1000.589	1281.5
1000.809	1207.5
1001.028	1309.5
1001.247	1240.5
1001.466	1175.5
1001.685	1298.5
1001.904	1242.5
1002.123	1220.5
1002.342	1245.5
1002.561	1193.5
1002.78	1223.5
1002.999	1283.5
1003.218	1227.5
1003.436	1204.5
1003.655	1263.5
1003.874	1197.5
1004.092	1219.5
1004.311	1271.5
1004.53	1229.5
1004.748	1288.5
1004.966	1206.5
1005.185	1278.5
1005.403	1246.5
1005.622	1233.5
1005.84	1315.5
1006.058	1202.5
1006.276	1221.5
1006.494	1713.5
1006.712	1240.5
1006.931	1274.5
1007.149	1196.5
1007.367	1202.5
1007.584	1225.5
1007.802	1253.5
1008.02	1213.5
1008.238	1262.5
1008.456	1278.5
1008.673	1133.5
1008.891	1259.5
1009.109	1192.5
1009.326	1215.5
1009.544	1298.5
1009.761	1176.5
1009.979	1283.5
1010.196	1283.5
1010.413	1309.5
1010.631	1349.5
1010.848	1361.5
1011.065	1363.5
1011.282	1303.5
1011.5	1265.5
1011.717	1358.5
1011.934	1321.5
1012.151	1345.5
1012.368	1309.5
1012.585	1257.5
1012.801	1311.5
1013.018	1260.5
1013.235	1221.5
1013.452	1256.5
1013.669	1271.5
1013.885	1228.5
1014.102	1255.5
1014.318	1227.5
1014.535	1179.5
1014.751	1224.5
1014.968	1235.5
1015.184	1261.5
1015.401	1174.5
1015.617	1214.5
1015.833	1142.5
1016.049	1198.5
1016.266	1156.5
1016.482	1178.5
1016.698	1104.5
1016.914	1170.5
1017.13	1111.5
1017.346	1106.5
1017.562	1155.5
1017.778	1126.5
1017.993	1059.5
1018.209	1143.5
1018.425	1098.5
1018.641	1070.5
1018.856	1047.5
1019.072	1082.5
1019.288	1124.5
1019.503	1082.5
1019.719	1004.5
1019.934	1029.5
1020.149	1089.5
1020.365	1024.5
1020.58	990.5
1020.795	1030.5
1021.011	971.5
1021.226	977.5
1021.441	1016.5
1021.656	921.5
1021.871	877.5
1022.086	895.5
1022.301	887.5
1022.516	885.5
1022.731	956.5
1022.946	856.5
1023.16	874.5
1023.375	841.5
1023.59	827.5
1023.804	776.5
1024.019	901.5
1024.234	791.5
1024.448	813.5
1024.663	755.5
1024.877	772.5
1025.092	796.5
1025.306	806.5
1025.52	725.5
1025.734	795.5
1025.949	741.5
1026.163	702.5
1026.377	664.5
1026.591	723.5
1026.805	640.5
1027.019	647.5
1027.233	608.5
1027.447	566.5
1027.661	686.5
1027.875	606.5
1028.088	612.5
1028.302	549.5
1028.516	550.5
1028.73	539.5
1028.943	559.5
1029.157	522.5
1029.37	464.5
1029.584	-3.5
1029.797	-2.5
1030.011	1.5
1030.224	-5.5
