Data from QEP037381__20__09-58-59-926.txt Node

Date: Wed Dec 21 09:58:59 EST 2022
User: dcclab
Spectrometer: QEP03738
Trigger mode: 4
Integration Time (sec): 1.000000E1
Scans to average: 1
Electric dark correction enabled: true
Nonlinearity correction enabled: false
Boxcar width: 0
XAxis mode: Wavelengths
Number of Pixels in Spectrum: 1044
>>>>>Begin Spectral Data<<<<<
784.041	11.88
784.3	0.88
784.558	0.88
784.817	-5.12
785.075	105201.88
785.334	19115.88
785.592	9222.88
785.851	6398.88
786.109	4827.88
786.368	3742.88
786.626	2988.88
786.884	2505.88
787.143	2074.88
787.401	1714.88
787.659	1535.88
787.917	1303.88
788.175	1179.88
788.433	1033.88
788.691	920.88
788.949	852.88
789.207	786.88
789.465	697.88
789.723	670.88
789.98	619.88
790.238	641.88
790.496	600.88
790.753	562.88
791.011	606.88
791.268	546.88
791.526	534.88
791.783	542.88
792.041	519.88
792.298	447.88
792.556	495.88
792.813	481.88
793.07	465.88
793.327	449.88
793.584	513.88
793.841	433.88
794.099	447.88
794.356	516.88
794.613	413.88
794.869	448.88
795.126	409.88
795.383	402.88
795.64	409.88
795.897	370.88
796.153	429.88
796.41	405.88
796.667	386.88
796.923	388.88
797.18	393.88
797.436	417.88
797.693	367.88
797.949	432.88
798.206	468.88
798.462	391.88
798.718	434.88
798.974	398.88
799.231	439.88
799.487	415.88
799.743	436.88
799.999	454.88
800.255	436.88
800.511	424.88
800.767	443.88
801.023	447.88
801.279	465.88
801.534	482.88
801.79	493.88
802.046	516.88
802.302	596.88
802.557	627.88
802.813	737.88
803.068	827.88
803.324	1120.88
803.579	1394.88
803.835	1864.88
804.09	2498.88
804.345	3253.88
804.601	4033.88
804.856	4865.88
805.111	5610.88
805.366	6121.88
805.621	6540.88
805.876	6717.88
806.131	6895.88
806.386	6996.88
806.641	7055.88
806.896	7162.88
807.151	7383.88
807.406	7426.88
807.661	7474.88
807.915	7603.88
808.17	7728.88
808.425	7773.88
808.679	7806.88
808.934	7894.88
809.188	7942.88
809.443	8038.88
809.697	8109.88
809.951	8086.88
810.206	8167.88
810.46	8266.88
810.714	8321.88
810.968	8416.88
811.223	8345.88
811.477	8437.88
811.731	8549.88
811.985	8546.88
812.239	8494.88
812.493	8626.88
812.747	8626.88
813	8636.88
813.254	8746.88
813.508	8756.88
813.762	8717.88
814.015	8797.88
814.269	8809.88
814.522	8869.88
814.776	9000.88
815.03	9117.88
815.283	9209.88
815.536	9388.88
815.79	9407.88
816.043	9500.88
816.296	9700.88
816.55	9791.88
816.803	9804.88
817.056	9985.88
817.309	10019.88
817.562	10168.88
817.815	10302.88
818.068	10216.88
818.321	10340.88
818.574	10347.88
818.827	10568.88
819.079	10678.88
819.332	10867.88
819.585	10956.88
819.838	11105.88
820.09	11124.88
820.343	11206.88
820.595	11185.88
820.848	11360.88
821.1	11364.88
821.353	11383.88
821.605	11389.88
821.857	11493.88
822.11	11272.88
822.362	11249.88
822.614	11194.88
822.866	11306.88
823.118	11295.88
823.37	11441.88
823.622	11376.88
823.874	11447.88
824.126	11467.88
824.378	11432.88
824.63	11528.88
824.882	11551.88
825.134	11471.88
825.385	11470.88
825.637	11431.88
825.888	11305.88
826.14	11301.88
826.392	11338.88
826.643	11228.88
826.895	11266.88
827.146	11177.88
827.397	11140.88
827.649	11238.88
827.9	11089.88
828.151	11085.88
828.402	11049.88
828.653	11167.88
828.905	11187.88
829.156	11222.88
829.407	11146.88
829.658	11215.88
829.909	11272.88
830.159	11149.88
830.41	11130.88
830.661	11086.88
830.912	10976.88
831.162	11008.88
831.413	10923.88
831.664	10999.88
831.914	10888.88
832.165	10945.88
832.415	10973.88
832.666	10967.88
832.916	11019.88
833.167	10931.88
833.417	10956.88
833.667	10884.88
833.917	10908.88
834.168	10820.88
834.418	10818.88
834.668	10766.88
834.918	10671.88
835.168	10809.88
835.418	10715.88
835.668	10655.88
835.918	10732.88
836.167	10608.88
836.417	10625.88
836.667	10611.88
836.917	10561.88
837.166	10554.88
837.416	10522.88
837.666	10576.88
837.915	10504.88
838.165	10418.88
838.414	10408.88
838.663	10363.88
838.913	10366.88
839.162	10317.88
839.411	10363.88
839.661	10293.88
839.91	10312.88
840.159	10234.88
840.408	10208.88
840.657	10313.88
840.906	10333.88
841.155	10300.88
841.404	10263.88
841.653	10254.88
841.902	10233.88
842.15	10251.88
842.399	10225.88
842.648	10197.88
842.897	10207.88
843.145	10152.88
843.394	10015.88
843.642	10133.88
843.891	10035.88
844.139	9971.88
844.388	9837.88
844.636	9793.88
844.884	9844.88
845.133	9801.88
845.381	9817.88
845.629	9811.88
845.877	9803.88
846.125	9802.88
846.373	9797.88
846.621	9675.88
846.869	9742.88
847.117	9706.88
847.365	9565.88
847.613	9610.88
847.861	9514.88
848.108	9557.88
848.356	9490.88
848.604	9484.88
848.851	9495.88
849.099	9512.88
849.346	9532.88
849.594	9584.88
849.841	9621.88
850.089	9597.88
850.336	9612.88
850.583	9646.88
850.831	9640.88
851.078	9507.88
851.325	9544.88
851.572	9493.88
851.819	9401.88
852.066	9245.88
852.313	9168.88
852.56	9069.88
852.807	9032.88
853.054	9040.88
853.301	8986.88
853.548	8973.88
853.794	9124.88
854.041	9054.88
854.288	9072.88
854.534	9303.88
854.781	9196.88
855.028	9149.88
855.274	9175.88
855.52	9026.88
855.767	8988.88
856.013	9022.88
856.26	9287.88
856.506	8861.88
856.752	8960.88
856.998	8923.88
857.244	8899.88
857.49	8912.88
857.736	8973.88
857.982	8975.88
858.228	8953.88
858.474	8912.88
858.72	8804.88
858.966	8752.88
859.212	8749.88
859.458	8631.88
859.703	8545.88
859.949	8447.88
860.195	8402.88
860.44	8375.88
860.686	8306.88
860.931	8388.88
861.177	8267.88
861.422	8278.88
861.667	8247.88
861.913	8233.88
862.158	8232.88
862.403	8272.88
862.648	8328.88
862.893	8330.88
863.138	8299.88
863.384	8225.88
863.629	8303.88
863.873	8228.88
864.118	8193.88
864.363	8090.88
864.608	8150.88
864.853	8126.88
865.098	8077.88
865.342	8082.88
865.587	7980.88
865.832	8045.88
866.076	7977.88
866.321	7974.88
866.565	7923.88
866.81	7874.88
867.054	7866.88
867.298	7899.88
867.543	7854.88
867.787	7856.88
868.031	7833.88
868.275	7839.88
868.519	7835.88
868.764	7742.88
869.008	7731.88
869.252	7722.88
869.496	7712.88
869.739	7691.88
869.983	7700.88
870.227	7683.88
870.471	7650.88
870.715	7744.88
870.958	7713.88
871.202	7619.88
871.446	7638.88
871.689	7667.88
871.933	7665.88
872.176	7672.88
872.42	7674.88
872.663	7625.88
872.906	7688.88
873.15	7588.88
873.393	7547.88
873.636	7587.88
873.879	7527.88
874.122	7453.88
874.366	7309.88
874.609	7268.88
874.852	7256.88
875.095	7244.88
875.337	7123.88
875.58	7041.88
875.823	7163.88
876.066	7127.88
876.309	7127.88
876.551	7031.88
876.794	6983.88
877.037	7011.88
877.279	6943.88
877.522	6942.88
877.764	7015.88
878.007	6953.88
878.249	6958.88
878.491	6963.88
878.734	6940.88
878.976	6885.88
879.218	6843.88
879.46	6885.88
879.702	6794.88
879.945	6778.88
880.187	6704.88
880.429	6670.88
880.671	6629.88
880.912	6624.88
881.154	6616.88
881.396	6516.88
881.638	6512.88
881.88	6497.88
882.121	6518.88
882.363	6487.88
882.605	6569.88
882.846	6457.88
883.088	6501.88
883.329	6437.88
883.571	6442.88
883.812	6491.88
884.053	6575.88
884.295	6625.88
884.536	6779.88
884.777	6634.88
885.018	6634.88
885.259	6667.88
885.5	6559.88
885.742	6813.88
885.982	6566.88
886.223	6460.88
886.464	6435.88
886.705	6374.88
886.946	6367.88
887.187	6249.88
887.428	6232.88
887.668	6135.88
887.909	6077.88
888.15	5980.88
888.39	6047.88
888.631	6012.88
888.871	5922.88
889.111	5943.88
889.352	5877.88
889.592	5796.88
889.833	5839.88
890.073	5755.88
890.313	5726.88
890.553	5687.88
890.793	5654.88
891.033	5628.88
891.273	5601.88
891.513	5614.88
891.753	5665.88
891.993	5562.88
892.233	5611.88
892.473	5652.88
892.713	5654.88
892.952	5557.88
893.192	5564.88
893.432	5543.88
893.671	5568.88
893.911	5542.88
894.15	5475.88
894.39	5378.88
894.629	5457.88
894.869	5387.88
895.108	5358.88
895.347	5326.88
895.587	5308.88
895.826	5295.88
896.065	5274.88
896.304	5294.88
896.543	5311.88
896.782	5179.88
897.021	5284.88
897.26	5199.88
897.499	5246.88
897.738	5240.88
897.977	5118.88
898.216	5171.88
898.454	5084.88
898.693	5023.88
898.932	5077.88
899.17	5001.88
899.409	4951.88
899.647	4941.88
899.886	4933.88
900.124	4926.88
900.363	4912.88
900.601	4945.88
900.839	4960.88
901.078	4933.88
901.316	4990.88
901.554	4966.88
901.792	4991.88
902.03	4933.88
902.268	4958.88
902.506	4973.88
902.744	4928.88
902.982	4903.88
903.22	4833.88
903.458	4779.88
903.695	4827.88
903.933	4711.88
904.171	4637.88
904.409	4545.88
904.646	4528.88
904.884	4447.88
905.121	4542.88
905.359	4431.88
905.596	4392.88
905.833	4316.88
906.071	4334.88
906.308	4355.88
906.545	4331.88
906.783	4320.88
907.02	4329.88
907.257	4250.88
907.494	4254.88
907.731	4313.88
907.968	4266.88
908.205	4247.88
908.442	4154.88
908.679	4172.88
908.915	4128.88
909.152	4087.88
909.389	4024.88
909.626	4068.88
909.862	4044.88
910.099	3989.88
910.335	4052.88
910.572	3973.88
910.808	4001.88
911.045	3931.88
911.281	3949.88
911.518	3967.88
911.754	3891.88
911.99	3870.88
912.226	3909.88
912.463	3808.88
912.699	3785.88
912.935	3810.88
913.171	3724.88
913.407	3727.88
913.643	3798.88
913.879	3683.88
914.114	3656.88
914.35	3618.88
914.586	3639.88
914.822	3535.88
915.057	3625.88
915.293	3487.88
915.529	3422.88
915.764	3513.88
916	3525.88
916.235	3495.88
916.471	3496.88
916.706	3416.88
916.941	3443.88
917.177	3427.88
917.412	3484.88
917.647	3480.88
917.882	3429.88
918.117	3495.88
918.352	3404.88
918.588	3457.88
918.823	3399.88
919.057	3329.88
919.292	3259.88
919.527	3286.88
919.762	3231.88
919.997	3301.88
920.232	3224.88
920.466	3211.88
920.701	3133.88
920.935	3147.88
921.17	3091.88
921.405	3073.88
921.639	3117.88
921.873	3079.88
922.108	3083.88
922.342	3076.88
922.576	3026.88
922.811	3038.88
923.045	3051.88
923.279	3105.88
923.513	2939.88
923.747	3015.88
923.981	2984.88
924.215	2933.88
924.449	2950.88
924.683	2902.88
924.917	2868.88
925.151	2886.88
925.385	2945.88
925.618	2869.88
925.852	2903.88
926.086	2820.88
926.319	2884.88
926.553	2830.88
926.786	2862.88
927.02	2860.88
927.253	2881.88
927.486	2860.88
927.72	2804.88
927.953	2887.88
928.186	2828.88
928.42	2808.88
928.653	2771.88
928.886	2761.88
929.119	2797.88
929.352	2771.88
929.585	2741.88
929.818	2739.88
930.051	2694.88
930.284	2740.88
930.516	2614.88
930.749	2639.88
930.982	2699.88
931.215	2676.88
931.447	2609.88
931.68	2623.88
931.912	2563.88
932.145	2575.88
932.377	2607.88
932.61	2705.88
932.842	2512.88
933.074	2571.88
933.307	2533.88
933.539	2631.88
933.771	2612.88
934.003	2558.88
934.236	2638.88
934.468	2652.88
934.7	2571.88
934.932	2647.88
935.164	2494.88
935.395	2566.88
935.627	2517.88
935.859	2572.88
936.091	2452.88
936.323	2572.88
936.554	2569.88
936.786	2497.88
937.017	2458.88
937.249	2515.88
937.481	2417.88
937.712	2475.88
937.943	2486.88
938.175	2450.88
938.406	2440.88
938.637	2504.88
938.869	2417.88
939.1	2482.88
939.331	2436.88
939.562	2463.88
939.793	2416.88
940.024	2433.88
940.255	2454.88
940.486	2397.88
940.717	2379.88
940.948	2407.88
941.179	2339.88
941.409	2386.88
941.64	2349.88
941.871	2368.88
942.102	2344.88
942.332	2365.88
942.563	2370.88
942.793	2366.88
943.024	2287.88
943.254	2332.88
943.484	2412.88
943.715	2387.88
943.945	2357.88
944.175	2284.88
944.405	2281.88
944.636	2292.88
944.866	2298.88
945.096	2306.88
945.326	2306.88
945.556	2342.88
945.786	2286.88
946.016	2294.88
946.245	2215.88
946.475	2266.88
946.705	2255.88
946.935	2232.88
947.164	2230.88
947.394	2179.88
947.624	2224.88
947.853	2240.88
948.083	2204.88
948.312	2168.88
948.542	2117.88
948.771	2124.88
949	2129.88
949.23	2120.88
949.459	2128.88
949.688	2214.88
949.917	2168.88
950.146	2176.88
950.375	2208.88
950.604	2114.88
950.833	2223.88
951.062	2204.88
951.291	2117.88
951.52	2091.88
951.749	2099.88
951.978	2061.88
952.206	2059.88
952.435	2088.88
952.664	2116.88
952.892	2112.88
953.121	2112.88
953.349	2139.88
953.578	2152.88
953.806	2090.88
954.035	2033.88
954.263	2053.88
954.491	2008.88
954.719	2064.88
954.948	1980.88
955.176	1975.88
955.404	1911.88
955.632	2029.88
955.86	2000.88
956.088	2005.88
956.316	1997.88
956.544	2009.88
956.772	1957.88
956.999	1958.88
957.227	2018.88
957.455	1931.88
957.683	1933.88
957.91	1913.88
958.138	1884.88
958.365	1916.88
958.593	1878.88
958.82	1836.88
959.048	1919.88
959.275	1860.88
959.502	1881.88
959.73	1847.88
959.957	1894.88
960.184	1907.88
960.411	1878.88
960.638	1914.88
960.865	1838.88
961.092	1875.88
961.319	1793.88
961.546	1879.88
961.773	1860.88
962	1815.88
962.227	1919.88
962.454	1880.88
962.68	1826.88
962.907	1859.88
963.134	1805.88
963.36	1819.88
963.587	1822.88
963.813	1769.88
964.04	1802.88
964.266	1740.88
964.493	1845.88
964.719	1820.88
964.945	1805.88
965.171	1703.88
965.398	1806.88
965.624	1819.88
965.85	1708.88
966.076	1732.88
966.302	1756.88
966.528	1705.88
966.754	1757.88
966.98	1769.88
967.206	1736.88
967.431	1665.88
967.657	1751.88
967.883	1732.88
968.109	1736.88
968.334	1665.88
968.56	1685.88
968.785	1690.88
969.011	1660.88
969.236	1728.88
969.462	1618.88
969.687	1655.88
969.912	1680.88
970.138	1713.88
970.363	1607.88
970.588	1684.88
970.813	1667.88
971.038	1606.88
971.263	1670.88
971.488	1659.88
971.713	1658.88
971.938	1662.88
972.163	1553.88
972.388	1601.88
972.613	1605.88
972.838	1621.88
973.062	1584.88
973.287	1572.88
973.512	1497.88
973.736	1578.88
973.961	1548.88
974.185	1537.88
974.41	1594.88
974.634	1492.88
974.858	1504.88
975.083	1558.88
975.307	1560.88
975.531	1522.88
975.755	1449.88
975.98	1491.88
976.204	1417.88
976.428	1420.88
976.652	1405.88
976.876	1405.88
977.1	1466.88
977.324	1414.88
977.547	1460.88
977.771	1442.88
977.995	1439.88
978.219	1374.88
978.442	1502.88
978.666	1431.88
978.89	1436.88
979.113	1419.88
979.337	1417.88
979.56	1393.88
979.783	1469.88
980.007	1368.88
980.23	1397.88
980.453	1350.88
980.677	1394.88
980.9	1386.88
981.123	1316.88
981.346	1408.88
981.569	1370.88
981.792	1392.88
982.015	1358.88
982.238	1333.88
982.461	1356.88
982.684	1314.88
982.907	1305.88
983.129	1293.88
983.352	1347.88
983.575	1339.88
983.797	1336.88
984.02	1300.88
984.242	1315.88
984.465	1314.88
984.687	1334.88
984.91	1362.88
985.132	1334.88
985.354	1344.88
985.577	1336.88
985.799	1326.88
986.021	1240.88
986.243	1246.88
986.465	1312.88
986.687	1347.88
986.909	1332.88
987.131	1302.88
987.353	1268.88
987.575	1306.88
987.797	1246.88
988.019	1194.88
988.241	1262.88
988.462	1215.88
988.684	1295.88
988.906	1317.88
989.127	1349.88
989.349	1233.88
989.57	1256.88
989.792	1285.88
990.013	1313.88
990.234	1296.88
990.456	1331.88
990.677	1272.88
990.898	1236.88
991.119	1240.88
991.341	1285.88
991.562	1207.88
991.783	1249.88
992.004	1184.88
992.225	1173.88
992.446	1222.88
992.667	1157.88
992.887	1228.88
993.108	1153.88
993.329	1272.88
993.55	1205.88
993.77	1151.88
993.991	1154.88
994.212	1199.88
994.432	1185.88
994.653	1205.88
994.873	1185.88
995.093	1097.88
995.314	1127.88
995.534	1205.88
995.754	1240.88
995.975	1249.88
996.195	1137.88
996.415	1193.88
996.635	1166.88
996.855	1171.88
997.075	1147.88
997.295	1154.88
997.515	1140.88
997.735	1198.88
997.955	1161.88
998.174	1137.88
998.394	1120.88
998.614	1169.88
998.834	1123.88
999.053	1185.88
999.273	1122.88
999.492	1221.88
999.712	1168.88
999.931	1124.88
1000.151	1152.88
1000.37	1131.88
1000.589	1202.88
1000.809	1134.88
1001.028	1264.88
1001.247	1171.88
1001.466	1071.88
1001.685	1243.88
1001.904	1160.88
1002.123	1158.88
1002.342	1172.88
1002.561	1105.88
1002.78	1154.88
1002.999	1210.88
1003.218	1163.88
1003.436	1127.88
1003.655	1171.88
1003.874	1134.88
1004.092	1158.88
1004.311	1171.88
1004.53	1140.88
1004.748	1253.88
1004.966	1135.88
1005.185	1192.88
1005.403	1183.88
1005.622	1172.88
1005.84	1226.88
1006.058	1146.88
1006.276	1159.88
1006.494	1625.88
1006.712	1160.88
1006.931	1203.88
1007.149	1122.88
1007.367	1115.88
1007.584	1130.88
1007.802	1164.88
1008.02	1126.88
1008.238	1242.88
1008.456	1222.88
1008.673	1077.88
1008.891	1177.88
1009.109	1106.88
1009.326	1171.88
1009.544	1244.88
1009.761	1149.88
1009.979	1210.88
1010.196	1220.88
1010.413	1240.88
1010.631	1313.88
1010.848	1319.88
1011.065	1300.88
1011.282	1232.88
1011.5	1178.88
1011.717	1303.88
1011.934	1243.88
1012.151	1293.88
1012.368	1263.88
1012.585	1201.88
1012.801	1266.88
1013.018	1210.88
1013.235	1175.88
1013.452	1217.88
1013.669	1195.88
1013.885	1176.88
1014.102	1234.88
1014.318	1174.88
1014.535	1146.88
1014.751	1204.88
1014.968	1185.88
1015.184	1234.88
1015.401	1141.88
1015.617	1184.88
1015.833	1112.88
1016.049	1135.88
1016.266	1129.88
1016.482	1128.88
1016.698	1061.88
1016.914	1130.88
1017.13	1077.88
1017.346	1057.88
1017.562	1142.88
1017.778	1043.88
1017.993	1038.88
1018.209	1091.88
1018.425	1074.88
1018.641	1016.88
1018.856	1009.88
1019.072	1050.88
1019.288	1078.88
1019.503	1047.88
1019.719	969.88
1019.934	955.88
1020.149	1067.88
1020.365	993.88
1020.58	937.88
1020.795	989.88
1021.011	932.88
1021.226	955.88
1021.441	979.88
1021.656	896.88
1021.871	855.88
1022.086	880.88
1022.301	866.88
1022.516	862.88
1022.731	934.88
1022.946	831.88
1023.16	815.88
1023.375	800.88
1023.59	793.88
1023.804	755.88
1024.019	865.88
1024.234	759.88
1024.448	780.88
1024.663	715.88
1024.877	735.88
1025.092	785.88
1025.306	781.88
1025.52	691.88
1025.734	755.88
1025.949	693.88
1026.163	686.88
1026.377	617.88
1026.591	693.88
1026.805	606.88
1027.019	631.88
1027.233	580.88
1027.447	541.88
1027.661	651.88
1027.875	587.88
1028.088	580.88
1028.302	511.88
1028.516	526.88
1028.73	524.88
1028.943	519.88
1029.157	506.88
1029.37	459.88
1029.584	-0.12
1029.797	-1.12
1030.011	-2.12
1030.224	-5.12
