Data from QEP037381__45__10-03-09-927.txt Node

Date: Wed Dec 21 10:03:09 EST 2022
User: dcclab
Spectrometer: QEP03738
Trigger mode: 4
Integration Time (sec): 1.000000E1
Scans to average: 1
Electric dark correction enabled: true
Nonlinearity correction enabled: false
Boxcar width: 0
XAxis mode: Wavelengths
Number of Pixels in Spectrum: 1044
>>>>>Begin Spectral Data<<<<<
784.041	8.88
784.3	-2.12
784.558	-3.12
784.817	-3.12
785.075	115692.88
785.334	19954.88
785.592	9299.88
785.851	6364.88
786.109	4788.88
786.368	3721.88
786.626	2988.88
786.884	2398.88
787.143	2041.88
787.401	1672.88
787.659	1496.88
787.917	1278.88
788.175	1169.88
788.433	1015.88
788.691	895.88
788.949	836.88
789.207	801.88
789.465	689.88
789.723	653.88
789.98	594.88
790.238	632.88
790.496	586.88
790.753	564.88
791.011	621.88
791.268	548.88
791.526	519.88
791.783	551.88
792.041	527.88
792.298	432.88
792.556	498.88
792.813	483.88
793.07	457.88
793.327	438.88
793.584	518.88
793.841	431.88
794.099	462.88
794.356	513.88
794.613	415.88
794.869	457.88
795.126	416.88
795.383	404.88
795.64	422.88
795.897	375.88
796.153	426.88
796.41	402.88
796.667	383.88
796.923	406.88
797.18	393.88
797.436	433.88
797.693	371.88
797.949	439.88
798.206	458.88
798.462	366.88
798.718	431.88
798.974	400.88
799.231	431.88
799.487	419.88
799.743	426.88
799.999	441.88
800.255	426.88
800.511	427.88
800.767	446.88
801.023	433.88
801.279	463.88
801.534	468.88
801.79	498.88
802.046	483.88
802.302	579.88
802.557	621.88
802.813	716.88
803.068	821.88
803.324	1074.88
803.579	1371.88
803.835	1786.88
804.09	2477.88
804.345	3108.88
804.601	3876.88
804.856	4679.88
805.111	5390.88
805.366	5869.88
805.621	6249.88
805.876	6407.88
806.131	6621.88
806.386	6725.88
806.641	6662.88
806.896	6828.88
807.151	7044.88
807.406	7051.88
807.661	7213.88
807.915	7315.88
808.17	7391.88
808.425	7482.88
808.679	7453.88
808.934	7558.88
809.188	7528.88
809.443	7667.88
809.697	7740.88
809.951	7706.88
810.206	7795.88
810.46	7911.88
810.714	7895.88
810.968	8033.88
811.223	7979.88
811.477	8091.88
811.731	8189.88
811.985	8123.88
812.239	8177.88
812.493	8261.88
812.747	8237.88
813	8249.88
813.254	8343.88
813.508	8326.88
813.762	8323.88
814.015	8440.88
814.269	8460.88
814.522	8511.88
814.776	8609.88
815.03	8714.88
815.283	8798.88
815.536	8912.88
815.79	9013.88
816.043	9091.88
816.296	9264.88
816.55	9278.88
816.803	9405.88
817.056	9577.88
817.309	9589.88
817.562	9619.88
817.815	9694.88
818.068	9716.88
818.321	9851.88
818.574	9959.88
818.827	10068.88
819.079	10128.88
819.332	10429.88
819.585	10426.88
819.838	10601.88
820.09	10630.88
820.343	10718.88
820.595	10679.88
820.848	10791.88
821.1	10888.88
821.353	10952.88
821.605	10762.88
821.857	10906.88
822.11	10765.88
822.362	10812.88
822.614	10772.88
822.866	10769.88
823.118	10743.88
823.37	10823.88
823.622	10936.88
823.874	10887.88
824.126	10974.88
824.378	10910.88
824.63	10915.88
824.882	11018.88
825.134	10932.88
825.385	10918.88
825.637	10899.88
825.888	10842.88
826.14	10826.88
826.392	10756.88
826.643	10677.88
826.895	10689.88
827.146	10647.88
827.397	10550.88
827.649	10687.88
827.9	10526.88
828.151	10567.88
828.402	10545.88
828.653	10662.88
828.905	10669.88
829.156	10774.88
829.407	10615.88
829.658	10640.88
829.909	10732.88
830.159	10699.88
830.41	10593.88
830.661	10650.88
830.912	10491.88
831.162	10467.88
831.413	10358.88
831.664	10491.88
831.914	10451.88
832.165	10448.88
832.415	10431.88
832.666	10466.88
832.916	10463.88
833.167	10395.88
833.417	10387.88
833.667	10391.88
833.917	10357.88
834.168	10399.88
834.418	10432.88
834.668	10301.88
834.918	10275.88
835.168	10261.88
835.418	10187.88
835.668	10102.88
835.918	10203.88
836.167	10157.88
836.417	10055.88
836.667	10092.88
836.917	10062.88
837.166	10038.88
837.416	10096.88
837.666	10081.88
837.915	9985.88
838.165	9871.88
838.414	9956.88
838.663	9863.88
838.913	9848.88
839.162	9840.88
839.411	9891.88
839.661	9795.88
839.91	9784.88
840.159	9773.88
840.408	9821.88
840.657	9842.88
840.906	9806.88
841.155	9825.88
841.404	9869.88
841.653	9752.88
841.902	9728.88
842.15	9748.88
842.399	9771.88
842.648	9739.88
842.897	9746.88
843.145	9603.88
843.394	9617.88
843.642	9504.88
843.891	9524.88
844.139	9459.88
844.388	9411.88
844.636	9444.88
844.884	9346.88
845.133	9370.88
845.381	9320.88
845.629	9366.88
845.877	9323.88
846.125	9300.88
846.373	9333.88
846.621	9263.88
846.869	9320.88
847.117	9246.88
847.365	9160.88
847.613	9141.88
847.861	9129.88
848.108	9081.88
848.356	9047.88
848.604	9047.88
848.851	9001.88
849.099	9142.88
849.346	9079.88
849.594	9134.88
849.841	9179.88
850.089	9145.88
850.336	9179.88
850.583	9161.88
850.831	9141.88
851.078	9135.88
851.325	9072.88
851.572	9077.88
851.819	9004.88
852.066	8887.88
852.313	8754.88
852.56	8659.88
852.807	8610.88
853.054	8620.88
853.301	8610.88
853.548	8671.88
853.794	8776.88
854.041	8674.88
854.288	8723.88
854.534	8879.88
854.781	8777.88
855.028	8716.88
855.274	8829.88
855.52	8686.88
855.767	8595.88
856.013	8647.88
856.26	8943.88
856.506	8561.88
856.752	8542.88
856.998	8502.88
857.244	8580.88
857.49	8600.88
857.736	8628.88
857.982	8594.88
858.228	8553.88
858.474	8483.88
858.72	8441.88
858.966	8417.88
859.212	8331.88
859.458	8239.88
859.703	8142.88
859.949	8054.88
860.195	8045.88
860.44	8039.88
860.686	7990.88
860.931	8003.88
861.177	7848.88
861.422	7945.88
861.667	7804.88
861.913	7821.88
862.158	7836.88
862.403	7890.88
862.648	7947.88
862.893	7999.88
863.138	7886.88
863.384	7870.88
863.629	7910.88
863.873	7910.88
864.118	7814.88
864.363	7755.88
864.608	7725.88
864.853	7738.88
865.098	7684.88
865.342	7680.88
865.587	7604.88
865.832	7605.88
866.076	7660.88
866.321	7580.88
866.565	7618.88
866.81	7494.88
867.054	7538.88
867.298	7518.88
867.543	7407.88
867.787	7502.88
868.031	7407.88
868.275	7425.88
868.519	7419.88
868.764	7403.88
869.008	7400.88
869.252	7418.88
869.496	7367.88
869.739	7367.88
869.983	7368.88
870.227	7390.88
870.471	7332.88
870.715	7393.88
870.958	7423.88
871.202	7341.88
871.446	7356.88
871.689	7360.88
871.933	7387.88
872.176	7371.88
872.42	7349.88
872.663	7310.88
872.906	7332.88
873.15	7316.88
873.393	7241.88
873.636	7309.88
873.879	7205.88
874.122	7170.88
874.366	7039.88
874.609	6994.88
874.852	6902.88
875.095	6931.88
875.337	6882.88
875.58	6763.88
875.823	6824.88
876.066	6853.88
876.309	6877.88
876.551	6790.88
876.794	6644.88
877.037	6783.88
877.279	6686.88
877.522	6649.88
877.764	6724.88
878.007	6605.88
878.249	6649.88
878.491	6614.88
878.734	6721.88
878.976	6679.88
879.218	6550.88
879.46	6623.88
879.702	6566.88
879.945	6434.88
880.187	6343.88
880.429	6334.88
880.671	6331.88
880.912	6314.88
881.154	6260.88
881.396	6187.88
881.638	6316.88
881.88	6286.88
882.121	6243.88
882.363	6155.88
882.605	6275.88
882.846	6182.88
883.088	6277.88
883.329	6232.88
883.571	6133.88
883.812	6245.88
884.053	6341.88
884.295	6418.88
884.536	6540.88
884.777	6503.88
885.018	6440.88
885.259	6427.88
885.5	6306.88
885.742	6625.88
885.982	6305.88
886.223	6246.88
886.464	6178.88
886.705	6178.88
886.946	6107.88
887.187	5968.88
887.428	6022.88
887.668	5910.88
887.909	5796.88
888.15	5729.88
888.39	5797.88
888.631	5772.88
888.871	5748.88
889.111	5628.88
889.352	5595.88
889.592	5599.88
889.833	5539.88
890.073	5496.88
890.313	5523.88
890.553	5403.88
890.793	5343.88
891.033	5376.88
891.273	5321.88
891.513	5308.88
891.753	5338.88
891.993	5326.88
892.233	5318.88
892.473	5363.88
892.713	5319.88
892.952	5303.88
893.192	5312.88
893.432	5271.88
893.671	5310.88
893.911	5268.88
894.15	5274.88
894.39	5194.88
894.629	5152.88
894.869	5119.88
895.108	5083.88
895.347	4998.88
895.587	5058.88
895.826	5047.88
896.065	5013.88
896.304	5073.88
896.543	5117.88
896.782	4944.88
897.021	5038.88
897.26	4952.88
897.499	5015.88
897.738	5049.88
897.977	4954.88
898.216	4867.88
898.454	4815.88
898.693	4799.88
898.932	4787.88
899.17	4806.88
899.409	4760.88
899.647	4713.88
899.886	4693.88
900.124	4720.88
900.363	4735.88
900.601	4743.88
900.839	4723.88
901.078	4758.88
901.316	4788.88
901.554	4793.88
901.792	4787.88
902.03	4734.88
902.268	4777.88
902.506	4777.88
902.744	4719.88
902.982	4723.88
903.22	4649.88
903.458	4579.88
903.695	4555.88
903.933	4515.88
904.171	4444.88
904.409	4357.88
904.646	4386.88
904.884	4245.88
905.121	4270.88
905.359	4258.88
905.596	4207.88
905.833	4193.88
906.071	4087.88
906.308	4177.88
906.545	4124.88
906.783	4085.88
907.02	4128.88
907.257	4081.88
907.494	4066.88
907.731	4093.88
907.968	4098.88
908.205	4008.88
908.442	3966.88
908.679	4012.88
908.915	3940.88
909.152	3952.88
909.389	3815.88
909.626	3850.88
909.862	3791.88
910.099	3831.88
910.335	3837.88
910.572	3732.88
910.808	3747.88
911.045	3742.88
911.281	3707.88
911.518	3789.88
911.754	3715.88
911.99	3679.88
912.226	3689.88
912.463	3567.88
912.699	3596.88
912.935	3585.88
913.171	3594.88
913.407	3567.88
913.643	3575.88
913.879	3514.88
914.114	3474.88
914.35	3447.88
914.586	3407.88
914.822	3381.88
915.057	3457.88
915.293	3300.88
915.529	3292.88
915.764	3356.88
916	3335.88
916.235	3328.88
916.471	3364.88
916.706	3255.88
916.941	3293.88
917.177	3269.88
917.412	3318.88
917.647	3289.88
917.882	3235.88
918.117	3312.88
918.352	3258.88
918.588	3330.88
918.823	3227.88
919.057	3185.88
919.292	3060.88
919.527	3176.88
919.762	3083.88
919.997	3128.88
920.232	3048.88
920.466	3079.88
920.701	2932.88
920.935	2987.88
921.17	2926.88
921.405	2909.88
921.639	2976.88
921.873	2959.88
922.108	2943.88
922.342	2954.88
922.576	2907.88
922.811	2876.88
923.045	2941.88
923.279	2965.88
923.513	2818.88
923.747	2879.88
923.981	2886.88
924.215	2807.88
924.449	2776.88
924.683	2704.88
924.917	2725.88
925.151	2755.88
925.385	2812.88
925.618	2767.88
925.852	2785.88
926.086	2705.88
926.319	2730.88
926.553	2774.88
926.786	2737.88
927.02	2703.88
927.253	2736.88
927.486	2778.88
927.72	2677.88
927.953	2717.88
928.186	2676.88
928.42	2709.88
928.653	2635.88
928.886	2620.88
929.119	2637.88
929.352	2613.88
929.585	2605.88
929.818	2599.88
930.051	2595.88
930.284	2598.88
930.516	2529.88
930.749	2501.88
930.982	2546.88
931.215	2529.88
931.447	2454.88
931.68	2464.88
931.912	2444.88
932.145	2457.88
932.377	2492.88
932.61	2581.88
932.842	2419.88
933.074	2479.88
933.307	2450.88
933.539	2513.88
933.771	2505.88
934.003	2463.88
934.236	2527.88
934.468	2529.88
934.7	2420.88
934.932	2463.88
935.164	2428.88
935.395	2422.88
935.627	2456.88
935.859	2401.88
936.091	2388.88
936.323	2420.88
936.554	2441.88
936.786	2389.88
937.017	2359.88
937.249	2374.88
937.481	2323.88
937.712	2427.88
937.943	2336.88
938.175	2343.88
938.406	2321.88
938.637	2398.88
938.869	2275.88
939.1	2387.88
939.331	2338.88
939.562	2324.88
939.793	2332.88
940.024	2352.88
940.255	2377.88
940.486	2313.88
940.717	2304.88
940.948	2318.88
941.179	2208.88
941.409	2235.88
941.64	2284.88
941.871	2265.88
942.102	2221.88
942.332	2251.88
942.563	2301.88
942.793	2257.88
943.024	2210.88
943.254	2255.88
943.484	2251.88
943.715	2288.88
943.945	2248.88
944.175	2176.88
944.405	2160.88
944.636	2185.88
944.866	2212.88
945.096	2234.88
945.326	2145.88
945.556	2220.88
945.786	2217.88
946.016	2192.88
946.245	2111.88
946.475	2172.88
946.705	2137.88
946.935	2135.88
947.164	2169.88
947.394	2079.88
947.624	2115.88
947.853	2160.88
948.083	2093.88
948.312	2093.88
948.542	2030.88
948.771	2042.88
949	2057.88
949.23	2037.88
949.459	2049.88
949.688	2116.88
949.917	2017.88
950.146	2080.88
950.375	2115.88
950.604	1990.88
950.833	2123.88
951.062	2100.88
951.291	2047.88
951.52	2002.88
951.749	2030.88
951.978	2005.88
952.206	1991.88
952.435	1993.88
952.664	2047.88
952.892	2039.88
953.121	2010.88
953.349	2025.88
953.578	2035.88
953.806	2016.88
954.035	1942.88
954.263	1979.88
954.491	1933.88
954.719	1977.88
954.948	1954.88
955.176	1934.88
955.404	1857.88
955.632	1924.88
955.86	1923.88
956.088	1919.88
956.316	1951.88
956.544	1942.88
956.772	1888.88
956.999	1856.88
957.227	1925.88
957.455	1860.88
957.683	1869.88
957.91	1849.88
958.138	1806.88
958.365	1804.88
958.593	1872.88
958.82	1775.88
959.048	1840.88
959.275	1830.88
959.502	1785.88
959.73	1760.88
959.957	1808.88
960.184	1855.88
960.411	1771.88
960.638	1860.88
960.865	1794.88
961.092	1820.88
961.319	1719.88
961.546	1800.88
961.773	1805.88
962	1782.88
962.227	1829.88
962.454	1793.88
962.68	1756.88
962.907	1784.88
963.134	1741.88
963.36	1783.88
963.587	1783.88
963.813	1700.88
964.04	1778.88
964.266	1687.88
964.493	1782.88
964.719	1733.88
964.945	1747.88
965.171	1651.88
965.398	1716.88
965.624	1732.88
965.85	1666.88
966.076	1662.88
966.302	1709.88
966.528	1654.88
966.754	1709.88
966.98	1671.88
967.206	1687.88
967.431	1616.88
967.657	1709.88
967.883	1677.88
968.109	1673.88
968.334	1618.88
968.56	1615.88
968.785	1611.88
969.011	1587.88
969.236	1652.88
969.462	1587.88
969.687	1623.88
969.912	1643.88
970.138	1663.88
970.363	1567.88
970.588	1586.88
970.813	1560.88
971.038	1571.88
971.263	1603.88
971.488	1618.88
971.713	1580.88
971.938	1631.88
972.163	1520.88
972.388	1548.88
972.613	1524.88
972.838	1564.88
973.062	1541.88
973.287	1542.88
973.512	1463.88
973.736	1518.88
973.961	1520.88
974.185	1470.88
974.41	1541.88
974.634	1434.88
974.858	1455.88
975.083	1490.88
975.307	1513.88
975.531	1425.88
975.755	1405.88
975.98	1435.88
976.204	1340.88
976.428	1387.88
976.652	1400.88
976.876	1362.88
977.1	1426.88
977.324	1353.88
977.547	1409.88
977.771	1428.88
977.995	1406.88
978.219	1349.88
978.442	1468.88
978.666	1388.88
978.89	1382.88
979.113	1374.88
979.337	1394.88
979.56	1364.88
979.783	1425.88
980.007	1297.88
980.23	1340.88
980.453	1303.88
980.677	1387.88
980.9	1360.88
981.123	1248.88
981.346	1346.88
981.569	1347.88
981.792	1386.88
982.015	1310.88
982.238	1290.88
982.461	1324.88
982.684	1281.88
982.907	1266.88
983.129	1265.88
983.352	1332.88
983.575	1312.88
983.797	1312.88
984.02	1277.88
984.242	1253.88
984.465	1262.88
984.687	1319.88
984.91	1318.88
985.132	1289.88
985.354	1306.88
985.577	1299.88
985.799	1262.88
986.021	1185.88
986.243	1244.88
986.465	1237.88
986.687	1290.88
986.909	1306.88
987.131	1270.88
987.353	1239.88
987.575	1264.88
987.797	1226.88
988.019	1165.88
988.241	1235.88
988.462	1195.88
988.684	1261.88
988.906	1290.88
989.127	1286.88
989.349	1172.88
989.57	1221.88
989.792	1274.88
990.013	1281.88
990.234	1253.88
990.456	1298.88
990.677	1269.88
990.898	1232.88
991.119	1219.88
991.341	1257.88
991.562	1196.88
991.783	1217.88
992.004	1176.88
992.225	1131.88
992.446	1231.88
992.667	1105.88
992.887	1219.88
993.108	1100.88
993.329	1259.88
993.55	1179.88
993.77	1122.88
993.991	1137.88
994.212	1182.88
994.432	1137.88
994.653	1168.88
994.873	1159.88
995.093	1060.88
995.314	1110.88
995.534	1179.88
995.754	1200.88
995.975	1242.88
996.195	1117.88
996.415	1171.88
996.635	1140.88
996.855	1156.88
997.075	1145.88
997.295	1113.88
997.515	1104.88
997.735	1164.88
997.955	1138.88
998.174	1132.88
998.394	1118.88
998.614	1146.88
998.834	1084.88
999.053	1189.88
999.273	1136.88
999.492	1163.88
999.712	1124.88
999.931	1086.88
1000.151	1144.88
1000.37	1126.88
1000.589	1179.88
1000.809	1106.88
1001.028	1193.88
1001.247	1170.88
1001.466	1066.88
1001.685	1194.88
1001.904	1178.88
1002.123	1139.88
1002.342	1150.88
1002.561	1087.88
1002.78	1116.88
1002.999	1198.88
1003.218	1125.88
1003.436	1122.88
1003.655	1166.88
1003.874	1101.88
1004.092	1133.88
1004.311	1169.88
1004.53	1117.88
1004.748	1200.88
1004.966	1133.88
1005.185	1176.88
1005.403	1152.88
1005.622	1162.88
1005.84	1209.88
1006.058	1122.88
1006.276	1163.88
1006.494	1641.88
1006.712	1160.88
1006.931	1187.88
1007.149	1112.88
1007.367	1108.88
1007.584	1162.88
1007.802	1197.88
1008.02	1128.88
1008.238	1224.88
1008.456	1204.88
1008.673	1064.88
1008.891	1202.88
1009.109	1150.88
1009.326	1193.88
1009.544	1262.88
1009.761	1165.88
1009.979	1243.88
1010.196	1206.88
1010.413	1306.88
1010.631	1325.88
1010.848	1326.88
1011.065	1352.88
1011.282	1284.88
1011.5	1225.88
1011.717	1362.88
1011.934	1296.88
1012.151	1320.88
1012.368	1292.88
1012.585	1255.88
1012.801	1276.88
1013.018	1264.88
1013.235	1234.88
1013.452	1243.88
1013.669	1240.88
1013.885	1211.88
1014.102	1257.88
1014.318	1238.88
1014.535	1188.88
1014.751	1248.88
1014.968	1232.88
1015.184	1249.88
1015.401	1173.88
1015.617	1198.88
1015.833	1146.88
1016.049	1156.88
1016.266	1153.88
1016.482	1156.88
1016.698	1113.88
1016.914	1165.88
1017.13	1088.88
1017.346	1094.88
1017.562	1154.88
1017.778	1100.88
1017.993	1045.88
1018.209	1130.88
1018.425	1097.88
1018.641	1059.88
1018.856	1039.88
1019.072	1086.88
1019.288	1111.88
1019.503	1069.88
1019.719	983.88
1019.934	1003.88
1020.149	1097.88
1020.365	1048.88
1020.58	956.88
1020.795	1051.88
1021.011	964.88
1021.226	943.88
1021.441	1013.88
1021.656	929.88
1021.871	871.88
1022.086	879.88
1022.301	860.88
1022.516	878.88
1022.731	933.88
1022.946	834.88
1023.16	816.88
1023.375	828.88
1023.59	790.88
1023.804	770.88
1024.019	866.88
1024.234	751.88
1024.448	783.88
1024.663	722.88
1024.877	757.88
1025.092	757.88
1025.306	785.88
1025.52	687.88
1025.734	769.88
1025.949	717.88
1026.163	671.88
1026.377	625.88
1026.591	672.88
1026.805	591.88
1027.019	606.88
1027.233	589.88
1027.447	533.88
1027.661	640.88
1027.875	568.88
1028.088	591.88
1028.302	521.88
1028.516	527.88
1028.73	532.88
1028.943	531.88
1029.157	481.88
1029.37	474.88
1029.584	1.88
1029.797	-0.12
1030.011	-2.12
1030.224	-0.12
