Data from QEP037381__17__09-58-29-926.txt Node

Date: Wed Dec 21 09:58:29 EST 2022
User: dcclab
Spectrometer: QEP03738
Trigger mode: 4
Integration Time (sec): 1.000000E1
Scans to average: 1
Electric dark correction enabled: true
Nonlinearity correction enabled: false
Boxcar width: 0
XAxis mode: Wavelengths
Number of Pixels in Spectrum: 1044
>>>>>Begin Spectral Data<<<<<
784.041	7.25
784.3	-1.75
784.558	-0.75
784.817	-1.75
785.075	109917.25
785.334	19143.25
785.592	8943.25
785.851	6217.25
786.109	4646.25
786.368	3571.25
786.626	2937.25
786.884	2420.25
787.143	2026.25
787.401	1654.25
787.659	1498.25
787.917	1261.25
788.175	1142.25
788.433	991.25
788.691	911.25
788.949	830.25
789.207	789.25
789.465	681.25
789.723	659.25
789.98	603.25
790.238	643.25
790.496	589.25
790.753	564.25
791.011	625.25
791.268	556.25
791.526	518.25
791.783	563.25
792.041	535.25
792.298	452.25
792.556	514.25
792.813	485.25
793.07	443.25
793.327	430.25
793.584	518.25
793.841	450.25
794.099	465.25
794.356	513.25
794.613	412.25
794.869	446.25
795.126	420.25
795.383	390.25
795.64	410.25
795.897	376.25
796.153	417.25
796.41	416.25
796.667	399.25
796.923	398.25
797.18	411.25
797.436	427.25
797.693	382.25
797.949	432.25
798.206	462.25
798.462	395.25
798.718	437.25
798.974	408.25
799.231	462.25
799.487	439.25
799.743	437.25
799.999	455.25
800.255	456.25
800.511	433.25
800.767	468.25
801.023	454.25
801.279	476.25
801.534	484.25
801.79	528.25
802.046	523.25
802.302	629.25
802.557	662.25
802.813	802.25
803.068	913.25
803.324	1212.25
803.579	1580.25
803.835	2085.25
804.09	2898.25
804.345	3690.25
804.601	4640.25
804.856	5642.25
805.111	6547.25
805.366	7138.25
805.621	7611.25
805.876	7951.25
806.131	8114.25
806.386	8207.25
806.641	8322.25
806.896	8371.25
807.151	8615.25
807.406	8690.25
807.661	8823.25
807.915	8917.25
808.17	8967.25
808.425	9107.25
808.679	9138.25
808.934	9285.25
809.188	9309.25
809.443	9463.25
809.697	9536.25
809.951	9536.25
810.206	9680.25
810.46	9706.25
810.714	9782.25
810.968	9916.25
811.223	9860.25
811.477	9901.25
811.731	10054.25
811.985	10019.25
812.239	10106.25
812.493	10107.25
812.747	10262.25
813	10215.25
813.254	10260.25
813.508	10327.25
813.762	10252.25
814.015	10349.25
814.269	10480.25
814.522	10543.25
814.776	10598.25
815.03	10737.25
815.283	10906.25
815.536	11033.25
815.79	11161.25
816.043	11276.25
816.296	11371.25
816.55	11482.25
816.803	11641.25
817.056	11858.25
817.309	11830.25
817.562	11945.25
817.815	12094.25
818.068	12022.25
818.321	12166.25
818.574	12326.25
818.827	12481.25
819.079	12516.25
819.332	12845.25
819.585	12927.25
819.838	13103.25
820.09	13145.25
820.343	13215.25
820.595	13225.25
820.848	13301.25
821.1	13452.25
821.353	13416.25
821.605	13468.25
821.857	13434.25
822.11	13302.25
822.362	13337.25
822.614	13345.25
822.866	13330.25
823.118	13332.25
823.37	13422.25
823.622	13512.25
823.874	13505.25
824.126	13581.25
824.378	13539.25
824.63	13533.25
824.882	13565.25
825.134	13518.25
825.385	13565.25
825.637	13513.25
825.888	13412.25
826.14	13433.25
826.392	13251.25
826.643	13250.25
826.895	13339.25
827.146	13134.25
827.397	13270.25
827.649	13174.25
827.9	13109.25
828.151	13128.25
828.402	13182.25
828.653	13199.25
828.905	13225.25
829.156	13328.25
829.407	13215.25
829.658	13217.25
829.909	13267.25
830.159	13283.25
830.41	13135.25
830.661	13068.25
830.912	12990.25
831.162	12855.25
831.413	12872.25
831.664	12904.25
831.914	12936.25
832.165	12948.25
832.415	12954.25
832.666	12891.25
832.916	12926.25
833.167	12836.25
833.417	12962.25
833.667	12861.25
833.917	12817.25
834.168	12830.25
834.418	12734.25
834.668	12777.25
834.918	12610.25
835.168	12630.25
835.418	12582.25
835.668	12527.25
835.918	12549.25
836.167	12503.25
836.417	12460.25
836.667	12426.25
836.917	12510.25
837.166	12477.25
837.416	12428.25
837.666	12474.25
837.915	12360.25
838.165	12405.25
838.414	12242.25
838.663	12183.25
838.913	12224.25
839.162	12112.25
839.411	12190.25
839.661	12129.25
839.91	12042.25
840.159	12098.25
840.408	11997.25
840.657	12172.25
840.906	12073.25
841.155	12142.25
841.404	12102.25
841.653	12017.25
841.902	12025.25
842.15	12026.25
842.399	12036.25
842.648	12003.25
842.897	11997.25
843.145	11887.25
843.394	11784.25
843.642	11835.25
843.891	11768.25
844.139	11695.25
844.388	11626.25
844.636	11535.25
844.884	11605.25
845.133	11573.25
845.381	11575.25
845.629	11588.25
845.877	11478.25
846.125	11488.25
846.373	11491.25
846.621	11450.25
846.869	11414.25
847.117	11435.25
847.365	11241.25
847.613	11246.25
847.861	11289.25
848.108	11247.25
848.356	11199.25
848.604	11137.25
848.851	11145.25
849.099	11163.25
849.346	11222.25
849.594	11308.25
849.841	11309.25
850.089	11310.25
850.336	11291.25
850.583	11335.25
850.831	11206.25
851.078	11111.25
851.325	11190.25
851.572	11184.25
851.819	11001.25
852.066	10885.25
852.313	10727.25
852.56	10664.25
852.807	10642.25
853.054	10527.25
853.301	10553.25
853.548	10589.25
853.794	10705.25
854.041	10619.25
854.288	10738.25
854.534	10935.25
854.781	10818.25
855.028	10717.25
855.274	10749.25
855.52	10686.25
855.767	10546.25
856.013	10533.25
856.26	10788.25
856.506	10505.25
856.752	10470.25
856.998	10367.25
857.244	10430.25
857.49	10544.25
857.736	10478.25
857.982	10465.25
858.228	10527.25
858.474	10366.25
858.72	10393.25
858.966	10286.25
859.212	10198.25
859.458	10064.25
859.703	10008.25
859.949	9883.25
860.195	9907.25
860.44	9766.25
860.686	9721.25
860.931	9786.25
861.177	9601.25
861.422	9739.25
861.667	9664.25
861.913	9693.25
862.158	9685.25
862.403	9725.25
862.648	9802.25
862.893	9798.25
863.138	9714.25
863.384	9601.25
863.629	9718.25
863.873	9701.25
864.118	9610.25
864.363	9560.25
864.608	9570.25
864.853	9549.25
865.098	9477.25
865.342	9499.25
865.587	9402.25
865.832	9450.25
866.076	9365.25
866.321	9298.25
866.565	9356.25
866.81	9196.25
867.054	9197.25
867.298	9228.25
867.543	9088.25
867.787	9198.25
868.031	9221.25
868.275	9144.25
868.519	9127.25
868.764	9079.25
869.008	9044.25
869.252	9017.25
869.496	8981.25
869.739	8997.25
869.983	8982.25
870.227	8959.25
870.471	8886.25
870.715	9025.25
870.958	8961.25
871.202	8954.25
871.446	8885.25
871.689	8938.25
871.933	8919.25
872.176	8914.25
872.42	8998.25
872.663	8901.25
872.906	8987.25
873.15	8860.25
873.393	8816.25
873.636	8828.25
873.879	8726.25
874.122	8698.25
874.366	8540.25
874.609	8548.25
874.852	8427.25
875.095	8427.25
875.337	8372.25
875.58	8283.25
875.823	8344.25
876.066	8331.25
876.309	8334.25
876.551	8219.25
876.794	8181.25
877.037	8135.25
877.279	8113.25
877.522	8079.25
877.764	8194.25
878.007	8080.25
878.249	8087.25
878.491	8037.25
878.734	8101.25
878.976	8095.25
879.218	8035.25
879.46	8074.25
879.702	7982.25
879.945	7912.25
880.187	7783.25
880.429	7794.25
880.671	7791.25
880.912	7762.25
881.154	7709.25
881.396	7635.25
881.638	7678.25
881.88	7653.25
882.121	7634.25
882.363	7594.25
882.605	7606.25
882.846	7578.25
883.088	7571.25
883.329	7540.25
883.571	7435.25
883.812	7480.25
884.053	7557.25
884.295	7649.25
884.536	7815.25
884.777	7710.25
885.018	7646.25
885.259	7673.25
885.5	7570.25
885.742	7839.25
885.982	7632.25
886.223	7518.25
886.464	7507.25
886.705	7407.25
886.946	7420.25
887.187	7226.25
887.428	7300.25
887.668	7143.25
887.909	7079.25
888.15	6980.25
888.39	7005.25
888.631	7092.25
888.871	7021.25
889.111	6944.25
889.352	6833.25
889.592	6782.25
889.833	6773.25
890.073	6728.25
890.313	6758.25
890.553	6609.25
890.793	6572.25
891.033	6592.25
891.273	6505.25
891.513	6487.25
891.753	6587.25
891.993	6496.25
892.233	6530.25
892.473	6534.25
892.713	6499.25
892.952	6488.25
893.192	6521.25
893.432	6470.25
893.671	6530.25
893.911	6446.25
894.15	6383.25
894.39	6366.25
894.629	6381.25
894.869	6337.25
895.108	6278.25
895.347	6161.25
895.587	6210.25
895.826	6160.25
896.065	6102.25
896.304	6187.25
896.543	6141.25
896.782	6057.25
897.021	6117.25
897.26	6132.25
897.499	6151.25
897.738	6094.25
897.977	6029.25
898.216	5913.25
898.454	5862.25
898.693	5829.25
898.932	5865.25
899.17	5827.25
899.409	5785.25
899.647	5741.25
899.886	5732.25
900.124	5712.25
900.363	5730.25
900.601	5747.25
900.839	5772.25
901.078	5722.25
901.316	5781.25
901.554	5776.25
901.792	5710.25
902.03	5708.25
902.268	5725.25
902.506	5750.25
902.744	5690.25
902.982	5677.25
903.22	5604.25
903.458	5521.25
903.695	5531.25
903.933	5491.25
904.171	5362.25
904.409	5336.25
904.646	5330.25
904.884	5280.25
905.121	5233.25
905.359	5139.25
905.596	5161.25
905.833	5064.25
906.071	5015.25
906.308	5084.25
906.545	5016.25
906.783	4969.25
907.02	5028.25
907.257	4928.25
907.494	4969.25
907.731	4992.25
907.968	4993.25
908.205	4935.25
908.442	4891.25
908.679	4877.25
908.915	4836.25
909.152	4798.25
909.389	4714.25
909.626	4696.25
909.862	4663.25
910.099	4662.25
910.335	4721.25
910.572	4535.25
910.808	4604.25
911.045	4584.25
911.281	4531.25
911.518	4617.25
911.754	4531.25
911.99	4511.25
912.226	4514.25
912.463	4448.25
912.699	4404.25
912.935	4391.25
913.171	4314.25
913.407	4294.25
913.643	4357.25
913.879	4258.25
914.114	4258.25
914.35	4189.25
914.586	4144.25
914.822	4103.25
915.057	4171.25
915.293	4006.25
915.529	4024.25
915.764	4136.25
916	4059.25
916.235	4064.25
916.471	4060.25
916.706	3955.25
916.941	4016.25
917.177	3989.25
917.412	4021.25
917.647	3996.25
917.882	3922.25
918.117	3973.25
918.352	3938.25
918.588	3985.25
918.823	3904.25
919.057	3914.25
919.292	3764.25
919.527	3858.25
919.762	3760.25
919.997	3748.25
920.232	3698.25
920.466	3735.25
920.701	3609.25
920.935	3610.25
921.17	3580.25
921.405	3532.25
921.639	3573.25
921.873	3563.25
922.108	3550.25
922.342	3549.25
922.576	3470.25
922.811	3501.25
923.045	3533.25
923.279	3551.25
923.513	3402.25
923.747	3476.25
923.981	3447.25
924.215	3427.25
924.449	3409.25
924.683	3347.25
924.917	3351.25
925.151	3294.25
925.385	3377.25
925.618	3335.25
925.852	3302.25
926.086	3255.25
926.319	3291.25
926.553	3258.25
926.786	3285.25
927.02	3274.25
927.253	3329.25
927.486	3311.25
927.72	3226.25
927.953	3297.25
928.186	3192.25
928.42	3225.25
928.653	3199.25
928.886	3152.25
929.119	3202.25
929.352	3182.25
929.585	3162.25
929.818	3101.25
930.051	3123.25
930.284	3123.25
930.516	3021.25
930.749	3000.25
930.982	3074.25
931.215	3069.25
931.447	2973.25
931.68	2968.25
931.912	2939.25
932.145	2991.25
932.377	2968.25
932.61	3113.25
932.842	2897.25
933.074	3023.25
933.307	2945.25
933.539	3010.25
933.771	3023.25
934.003	2941.25
934.236	3025.25
934.468	3023.25
934.7	2934.25
934.932	2973.25
935.164	2921.25
935.395	2911.25
935.627	2896.25
935.859	2882.25
936.091	2865.25
936.323	2857.25
936.554	2963.25
936.786	2856.25
937.017	2827.25
937.249	2815.25
937.481	2758.25
937.712	2834.25
937.943	2811.25
938.175	2822.25
938.406	2818.25
938.637	2890.25
938.869	2780.25
939.1	2849.25
939.331	2785.25
939.562	2785.25
939.793	2811.25
940.024	2811.25
940.255	2804.25
940.486	2741.25
940.717	2745.25
940.948	2698.25
941.179	2645.25
941.409	2723.25
941.64	2701.25
941.871	2659.25
942.102	2641.25
942.332	2690.25
942.563	2722.25
942.793	2667.25
943.024	2669.25
943.254	2658.25
943.484	2725.25
943.715	2688.25
943.945	2653.25
944.175	2605.25
944.405	2603.25
944.636	2651.25
944.866	2733.25
945.096	2669.25
945.326	2551.25
945.556	2662.25
945.786	2688.25
946.016	2626.25
946.245	2521.25
946.475	2581.25
946.705	2576.25
946.935	2549.25
947.164	2531.25
947.394	2492.25
947.624	2527.25
947.853	2521.25
948.083	2509.25
948.312	2466.25
948.542	2400.25
948.771	2434.25
949	2381.25
949.23	2448.25
949.459	2435.25
949.688	2483.25
949.917	2452.25
950.146	2466.25
950.375	2510.25
950.604	2400.25
950.833	2484.25
951.062	2495.25
951.291	2424.25
951.52	2411.25
951.749	2434.25
951.978	2351.25
952.206	2395.25
952.435	2370.25
952.664	2387.25
952.892	2413.25
953.121	2361.25
953.349	2390.25
953.578	2357.25
953.806	2361.25
954.035	2322.25
954.263	2327.25
954.491	2280.25
954.719	2316.25
954.948	2293.25
955.176	2273.25
955.404	2228.25
955.632	2287.25
955.86	2323.25
956.088	2238.25
956.316	2286.25
956.544	2277.25
956.772	2227.25
956.999	2199.25
957.227	2285.25
957.455	2196.25
957.683	2204.25
957.91	2175.25
958.138	2142.25
958.365	2179.25
958.593	2123.25
958.82	2098.25
959.048	2158.25
959.275	2120.25
959.502	2148.25
959.73	2108.25
959.957	2134.25
960.184	2158.25
960.411	2099.25
960.638	2165.25
960.865	2110.25
961.092	2152.25
961.319	2036.25
961.546	2167.25
961.773	2149.25
962	2086.25
962.227	2119.25
962.454	2060.25
962.68	2077.25
962.907	2086.25
963.134	2044.25
963.36	2061.25
963.587	2066.25
963.813	2026.25
964.04	2036.25
964.266	2014.25
964.493	2082.25
964.719	2027.25
964.945	2025.25
965.171	1925.25
965.398	1995.25
965.624	2011.25
965.85	1926.25
966.076	1932.25
966.302	1986.25
966.528	1943.25
966.754	1949.25
966.98	1953.25
967.206	1960.25
967.431	1869.25
967.657	1959.25
967.883	1959.25
968.109	1933.25
968.334	1896.25
968.56	1862.25
968.785	1895.25
969.011	1833.25
969.236	1880.25
969.462	1848.25
969.687	1869.25
969.912	1902.25
970.138	1905.25
970.363	1813.25
970.588	1864.25
970.813	1858.25
971.038	1809.25
971.263	1837.25
971.488	1850.25
971.713	1906.25
971.938	1849.25
972.163	1763.25
972.388	1786.25
972.613	1777.25
972.838	1794.25
973.062	1757.25
973.287	1752.25
973.512	1685.25
973.736	1751.25
973.961	1760.25
974.185	1734.25
974.41	1760.25
974.634	1647.25
974.858	1694.25
975.083	1719.25
975.307	1721.25
975.531	1691.25
975.755	1630.25
975.98	1645.25
976.204	1581.25
976.428	1613.25
976.652	1579.25
976.876	1577.25
977.1	1620.25
977.324	1567.25
977.547	1624.25
977.771	1628.25
977.995	1622.25
978.219	1565.25
978.442	1656.25
978.666	1606.25
978.89	1576.25
979.113	1570.25
979.337	1603.25
979.56	1533.25
979.783	1636.25
980.007	1534.25
980.23	1556.25
980.453	1527.25
980.677	1555.25
980.9	1563.25
981.123	1462.25
981.346	1551.25
981.569	1539.25
981.792	1602.25
982.015	1506.25
982.238	1471.25
982.461	1496.25
982.684	1460.25
982.907	1454.25
983.129	1475.25
983.352	1518.25
983.575	1472.25
983.797	1483.25
984.02	1424.25
984.242	1414.25
984.465	1457.25
984.687	1487.25
984.91	1503.25
985.132	1444.25
985.354	1484.25
985.577	1443.25
985.799	1440.25
986.021	1377.25
986.243	1407.25
986.465	1386.25
986.687	1464.25
986.909	1491.25
987.131	1409.25
987.353	1402.25
987.575	1450.25
987.797	1376.25
988.019	1347.25
988.241	1394.25
988.462	1336.25
988.684	1429.25
988.906	1439.25
989.127	1484.25
989.349	1347.25
989.57	1369.25
989.792	1391.25
990.013	1421.25
990.234	1406.25
990.456	1433.25
990.677	1423.25
990.898	1369.25
991.119	1366.25
991.341	1397.25
991.562	1315.25
991.783	1366.25
992.004	1307.25
992.225	1276.25
992.446	1387.25
992.667	1262.25
992.887	1338.25
993.108	1240.25
993.329	1372.25
993.55	1328.25
993.77	1267.25
993.991	1255.25
994.212	1308.25
994.432	1284.25
994.653	1325.25
994.873	1290.25
995.093	1180.25
995.314	1255.25
995.534	1317.25
995.754	1328.25
995.975	1329.25
996.195	1224.25
996.415	1292.25
996.635	1280.25
996.855	1278.25
997.075	1266.25
997.295	1234.25
997.515	1210.25
997.735	1253.25
997.955	1255.25
998.174	1230.25
998.394	1202.25
998.614	1267.25
998.834	1219.25
999.053	1278.25
999.273	1249.25
999.492	1306.25
999.712	1238.25
999.931	1224.25
1000.151	1229.25
1000.37	1219.25
1000.589	1285.25
1000.809	1221.25
1001.028	1309.25
1001.247	1260.25
1001.466	1140.25
1001.685	1321.25
1001.904	1242.25
1002.123	1234.25
1002.342	1239.25
1002.561	1200.25
1002.78	1233.25
1002.999	1301.25
1003.218	1233.25
1003.436	1214.25
1003.655	1268.25
1003.874	1200.25
1004.092	1217.25
1004.311	1264.25
1004.53	1226.25
1004.748	1314.25
1004.966	1197.25
1005.185	1247.25
1005.403	1249.25
1005.622	1248.25
1005.84	1308.25
1006.058	1197.25
1006.276	1240.25
1006.494	1723.25
1006.712	1223.25
1006.931	1278.25
1007.149	1200.25
1007.367	1200.25
1007.584	1219.25
1007.802	1263.25
1008.02	1205.25
1008.238	1290.25
1008.456	1263.25
1008.673	1156.25
1008.891	1223.25
1009.109	1192.25
1009.326	1224.25
1009.544	1304.25
1009.761	1205.25
1009.979	1259.25
1010.196	1257.25
1010.413	1339.25
1010.631	1374.25
1010.848	1384.25
1011.065	1386.25
1011.282	1319.25
1011.5	1249.25
1011.717	1348.25
1011.934	1293.25
1012.151	1339.25
1012.368	1333.25
1012.585	1282.25
1012.801	1284.25
1013.018	1250.25
1013.235	1231.25
1013.452	1229.25
1013.669	1276.25
1013.885	1252.25
1014.102	1258.25
1014.318	1237.25
1014.535	1210.25
1014.751	1239.25
1014.968	1227.25
1015.184	1272.25
1015.401	1158.25
1015.617	1229.25
1015.833	1173.25
1016.049	1177.25
1016.266	1144.25
1016.482	1170.25
1016.698	1109.25
1016.914	1182.25
1017.13	1128.25
1017.346	1102.25
1017.562	1175.25
1017.778	1094.25
1017.993	1072.25
1018.209	1143.25
1018.425	1100.25
1018.641	1065.25
1018.856	1041.25
1019.072	1106.25
1019.288	1133.25
1019.503	1062.25
1019.719	974.25
1019.934	1008.25
1020.149	1115.25
1020.365	1017.25
1020.58	994.25
1020.795	1049.25
1021.011	1013.25
1021.226	1008.25
1021.441	1008.25
1021.656	926.25
1021.871	902.25
1022.086	917.25
1022.301	902.25
1022.516	901.25
1022.731	951.25
1022.946	867.25
1023.16	856.25
1023.375	833.25
1023.59	843.25
1023.804	806.25
1024.019	896.25
1024.234	787.25
1024.448	822.25
1024.663	741.25
1024.877	768.25
1025.092	784.25
1025.306	810.25
1025.52	705.25
1025.734	796.25
1025.949	737.25
1026.163	711.25
1026.377	668.25
1026.591	716.25
1026.805	634.25
1027.019	649.25
1027.233	617.25
1027.447	561.25
1027.661	668.25
1027.875	613.25
1028.088	607.25
1028.302	545.25
1028.516	560.25
1028.73	574.25
1028.943	529.25
1029.157	508.25
1029.37	467.25
1029.584	-3.75
1029.797	-1.75
1030.011	4.25
1030.224	-1.75
