Data from QEP037381__375__15-06-02-708.txt Node

Date: Fri Apr 28 15:06:02 EDT 2023
User: dcclab
Spectrometer: QEP03738
Trigger mode: 4
Integration Time (sec): 1.000000E1
Scans to average: 1
Electric dark correction enabled: true
Nonlinearity correction enabled: false
Boxcar width: 0
XAxis mode: Wavelengths
Number of Pixels in Spectrum: 1044
>>>>>Begin Spectral Data<<<<<
784.041	12.38
784.3	-1.62
784.558	-1.62
784.817	-0.62
785.075	63360.38
785.334	12622.38
785.592	6534.38
785.851	4604.38
786.109	3531.38
786.368	2770.38
786.626	2262.38
786.884	1892.38
787.143	1589.38
787.401	1312.38
787.659	1223.38
787.917	1024.38
788.175	966.38
788.433	857.38
788.691	773.38
788.949	697.38
789.207	680.38
789.465	597.38
789.723	583.38
789.98	535.38
790.238	572.38
790.496	555.38
790.753	508.38
791.011	576.38
791.268	500.38
791.526	484.38
791.783	512.38
792.041	487.38
792.298	410.38
792.556	473.38
792.813	469.38
793.07	441.38
793.327	430.38
793.584	515.38
793.841	431.38
794.099	444.38
794.356	504.38
794.613	397.38
794.869	451.38
795.126	408.38
795.383	391.38
795.64	402.38
795.897	368.38
796.153	420.38
796.41	427.38
796.667	379.38
796.923	401.38
797.18	390.38
797.436	433.38
797.693	395.38
797.949	440.38
798.206	479.38
798.462	388.38
798.718	441.38
798.974	428.38
799.231	453.38
799.487	461.38
799.743	465.38
799.999	488.38
800.255	478.38
800.511	473.38
800.767	512.38
801.023	499.38
801.279	532.38
801.534	568.38
801.79	611.38
802.046	660.38
802.302	786.38
802.557	921.38
802.813	1141.38
803.068	1417.38
803.324	2018.38
803.579	2819.38
803.835	3912.38
804.09	5387.38
804.345	6965.38
804.601	8546.38
804.856	10021.38
805.111	11169.38
805.366	11911.38
805.621	12519.38
805.876	12881.38
806.131	13056.38
806.386	13238.38
806.641	13365.38
806.896	13576.38
807.151	13854.38
807.406	14020.38
807.661	14253.38
807.915	14480.38
808.17	14663.38
808.425	14825.38
808.679	14907.38
808.934	15092.38
809.188	15224.38
809.443	15463.38
809.697	15573.38
809.951	15701.38
810.206	15719.38
810.46	15856.38
810.714	16074.38
810.968	16119.38
811.223	16119.38
811.477	16313.38
811.731	16469.38
811.985	16565.38
812.239	16601.38
812.493	16665.38
812.747	16754.38
813	16747.38
813.254	16771.38
813.508	16983.38
813.762	16954.38
814.015	16995.38
814.269	17179.38
814.522	17293.38
814.776	17466.38
815.03	17720.38
815.283	17857.38
815.536	18117.38
815.79	18315.38
816.043	18606.38
816.296	18749.38
816.55	19024.38
816.803	19224.38
817.056	19495.38
817.309	19595.38
817.562	19761.38
817.815	20015.38
818.068	20071.38
818.321	20346.38
818.574	20666.38
818.827	20868.38
819.079	21016.38
819.332	21511.38
819.585	21655.38
819.838	21916.38
820.09	22126.38
820.343	22308.38
820.595	22411.38
820.848	22447.38
821.1	22536.38
821.353	22522.38
821.605	22512.38
821.857	22632.38
822.11	22406.38
822.362	22411.38
822.614	22335.38
822.866	22430.38
823.118	22336.38
823.37	22528.38
823.622	22507.38
823.874	22550.38
824.126	22636.38
824.378	22713.38
824.63	22806.38
824.882	22700.38
825.134	22745.38
825.385	22745.38
825.637	22690.38
825.888	22595.38
826.14	22454.38
826.392	22386.38
826.643	22359.38
826.895	22409.38
827.146	22083.38
827.397	22042.38
827.649	22189.38
827.9	22089.38
828.151	22086.38
828.402	22117.38
828.653	22281.38
828.905	22205.38
829.156	22318.38
829.407	22150.38
829.658	22142.38
829.909	22178.38
830.159	22033.38
830.41	22053.38
830.661	21944.38
830.912	21782.38
831.162	21669.38
831.413	21637.38
831.664	21623.38
831.914	21615.38
832.165	21618.38
832.415	21641.38
832.666	21562.38
832.916	21640.38
833.167	21519.38
833.417	21552.38
833.667	21365.38
833.917	21326.38
834.168	21324.38
834.418	21237.38
834.668	21194.38
834.918	21012.38
835.168	21015.38
835.418	20870.38
835.668	20889.38
835.918	20790.38
836.167	20848.38
836.417	20559.38
836.667	20600.38
836.917	20619.38
837.166	20544.38
837.416	20620.38
837.666	20462.38
837.915	20421.38
838.165	20489.38
838.414	20263.38
838.663	20193.38
838.913	20160.38
839.162	20148.38
839.411	20097.38
839.661	20007.38
839.91	20021.38
840.159	19932.38
840.408	19944.38
840.657	19967.38
840.906	19872.38
841.155	19972.38
841.404	19939.38
841.653	19848.38
841.902	19876.38
842.15	19957.38
842.399	19788.38
842.648	19836.38
842.897	19796.38
843.145	19611.38
843.394	19536.38
843.642	19426.38
843.891	19402.38
844.139	19261.38
844.388	19220.38
844.636	18984.38
844.884	19067.38
845.133	18997.38
845.381	18923.38
845.629	19013.38
845.877	18898.38
846.125	18884.38
846.373	18870.38
846.621	18694.38
846.869	18774.38
847.117	18672.38
847.365	18491.38
847.613	18525.38
847.861	18391.38
848.108	18450.38
848.356	18386.38
848.604	18264.38
848.851	18352.38
849.099	18335.38
849.346	18327.38
849.594	18436.38
849.841	18524.38
850.089	18494.38
850.336	18336.38
850.583	18486.38
850.831	18285.38
851.078	18193.38
851.325	18245.38
851.572	18053.38
851.819	17921.38
852.066	17617.38
852.313	17431.38
852.56	17348.38
852.807	17330.38
853.054	17207.38
853.301	17158.38
853.548	17209.38
853.794	17319.38
854.041	17294.38
854.288	17303.38
854.534	17641.38
854.781	17459.38
855.028	17425.38
855.274	17390.38
855.52	17259.38
855.767	17115.38
856.013	17138.38
856.26	17285.38
856.506	16980.38
856.752	16985.38
856.998	16825.38
857.244	16877.38
857.49	16956.38
857.736	16978.38
857.982	17004.38
858.228	16974.38
858.474	16811.38
858.72	16816.38
858.966	16588.38
859.212	16554.38
859.458	16352.38
859.703	16124.38
859.949	16033.38
860.195	15933.38
860.44	15770.38
860.686	15713.38
860.931	15758.38
861.177	15577.38
861.422	15680.38
861.667	15461.38
861.913	15527.38
862.158	15614.38
862.403	15647.38
862.648	15738.38
862.893	15615.38
863.138	15608.38
863.384	15606.38
863.629	15526.38
863.873	15487.38
864.118	15362.38
864.363	15367.38
864.608	15303.38
864.853	15130.38
865.098	15065.38
865.342	14993.38
865.587	14955.38
865.832	14950.38
866.076	14966.38
866.321	14851.38
866.565	14738.38
866.81	14659.38
867.054	14670.38
867.298	14596.38
867.543	14593.38
867.787	14647.38
868.031	14620.38
868.275	14542.38
868.519	14548.38
868.764	14436.38
869.008	14416.38
869.252	14369.38
869.496	14318.38
869.739	14304.38
869.983	14325.38
870.227	14251.38
870.471	14229.38
870.715	14244.38
870.958	14273.38
871.202	14230.38
871.446	14270.38
871.689	14348.38
871.933	14367.38
872.176	14222.38
872.42	14199.38
872.663	14233.38
872.906	14226.38
873.15	14079.38
873.393	14007.38
873.636	13922.38
873.879	13754.38
874.122	13699.38
874.366	13442.38
874.609	13433.38
874.852	13315.38
875.095	13286.38
875.337	13313.38
875.58	13071.38
875.823	13112.38
876.066	13096.38
876.309	13093.38
876.551	12903.38
876.794	12976.38
877.037	12945.38
877.279	12827.38
877.522	12877.38
877.764	12950.38
878.007	12916.38
878.249	12897.38
878.491	12879.38
878.734	12889.38
878.976	12850.38
879.218	12759.38
879.46	12716.38
879.702	12565.38
879.945	12488.38
880.187	12302.38
880.429	12270.38
880.671	12272.38
880.912	12104.38
881.154	12121.38
881.396	11960.38
881.638	12094.38
881.88	12085.38
882.121	12032.38
882.363	12009.38
882.605	11976.38
882.846	11947.38
883.088	11945.38
883.329	11783.38
883.571	11808.38
883.812	11857.38
884.053	11851.38
884.295	12051.38
884.536	12135.38
884.777	11968.38
885.018	11863.38
885.259	11877.38
885.5	11810.38
885.742	11977.38
885.982	11841.38
886.223	11693.38
886.464	11682.38
886.705	11615.38
886.946	11581.38
887.187	11405.38
887.428	11404.38
887.668	11245.38
887.909	11128.38
888.15	11046.38
888.39	10961.38
888.631	10887.38
888.871	10862.38
889.111	10781.38
889.352	10745.38
889.592	10598.38
889.833	10540.38
890.073	10501.38
890.313	10466.38
890.553	10296.38
890.793	10376.38
891.033	10253.38
891.273	10228.38
891.513	10178.38
891.753	10226.38
891.993	10135.38
892.233	10141.38
892.473	10218.38
892.713	10191.38
892.952	10195.38
893.192	10143.38
893.432	10028.38
893.671	10147.38
893.911	9995.38
894.15	9904.38
894.39	9834.38
894.629	9819.38
894.869	9797.38
895.108	9630.38
895.347	9626.38
895.587	9599.38
895.826	9613.38
896.065	9472.38
896.304	9489.38
896.543	9503.38
896.782	9397.38
897.021	9433.38
897.26	9340.38
897.499	9388.38
897.738	9304.38
897.977	9228.38
898.216	9176.38
898.454	9069.38
898.693	9080.38
898.932	9071.38
899.17	9028.38
899.409	8944.38
899.647	8962.38
899.886	8897.38
900.124	8931.38
900.363	8905.38
900.601	8866.38
900.839	8887.38
901.078	8883.38
901.316	8953.38
901.554	8863.38
901.792	8928.38
902.03	8820.38
902.268	8853.38
902.506	8825.38
902.744	8750.38
902.982	8721.38
903.22	8584.38
903.458	8523.38
903.695	8511.38
903.933	8432.38
904.171	8253.38
904.409	8125.38
904.646	8198.38
904.884	8031.38
905.121	8021.38
905.359	7824.38
905.596	7858.38
905.833	7751.38
906.071	7724.38
906.308	7833.38
906.545	7699.38
906.783	7660.38
907.02	7634.38
907.257	7603.38
907.494	7579.38
907.731	7627.38
907.968	7611.38
908.205	7484.38
908.442	7427.38
908.679	7445.38
908.915	7398.38
909.152	7367.38
909.389	7203.38
909.626	7222.38
909.862	7112.38
910.099	7096.38
910.335	7157.38
910.572	7057.38
910.808	7089.38
911.045	6994.38
911.281	7020.38
911.518	7019.38
911.754	6954.38
911.99	6918.38
912.226	6913.38
912.463	6707.38
912.699	6709.38
912.935	6726.38
913.171	6655.38
913.407	6546.38
913.643	6595.38
913.879	6519.38
914.114	6431.38
914.35	6372.38
914.586	6277.38
914.822	6217.38
915.057	6218.38
915.293	6174.38
915.529	6129.38
915.764	6155.38
916	6102.38
916.235	6086.38
916.471	6126.38
916.706	6047.38
916.941	6032.38
917.177	6061.38
917.412	6062.38
917.647	6123.38
917.882	5985.38
918.117	6045.38
918.352	5964.38
918.588	5991.38
918.823	5947.38
919.057	5889.38
919.292	5727.38
919.527	5762.38
919.762	5691.38
919.997	5627.38
920.232	5580.38
920.466	5587.38
920.701	5431.38
920.935	5461.38
921.17	5389.38
921.405	5305.38
921.639	5339.38
921.873	5346.38
922.108	5363.38
922.342	5358.38
922.576	5257.38
922.811	5226.38
923.045	5266.38
923.279	5328.38
923.513	5151.38
923.747	5222.38
923.981	5169.38
924.215	5067.38
924.449	5030.38
924.683	4970.38
924.917	5013.38
925.151	4959.38
925.385	5058.38
925.618	4961.38
925.852	4941.38
926.086	4902.38
926.319	4931.38
926.553	4946.38
926.786	4940.38
927.02	4917.38
927.253	4961.38
927.486	4940.38
927.72	4827.38
927.953	4907.38
928.186	4847.38
928.42	4848.38
928.653	4798.38
928.886	4727.38
929.119	4788.38
929.352	4724.38
929.585	4714.38
929.818	4620.38
930.051	4630.38
930.284	4639.38
930.516	4489.38
930.749	4500.38
930.982	4517.38
931.215	4499.38
931.447	4386.38
931.68	4435.38
931.912	4419.38
932.145	4411.38
932.377	4460.38
932.61	4490.38
932.842	4283.38
933.074	4384.38
933.307	4359.38
933.539	4392.38
933.771	4427.38
934.003	4380.38
934.236	4465.38
934.468	4451.38
934.7	4384.38
934.932	4402.38
935.164	4295.38
935.395	4266.38
935.627	4306.38
935.859	4296.38
936.091	4214.38
936.323	4282.38
936.554	4271.38
936.786	4210.38
937.017	4171.38
937.249	4192.38
937.481	4102.38
937.712	4228.38
937.943	4137.38
938.175	4129.38
938.406	4106.38
938.637	4201.38
938.869	4123.38
939.1	4116.38
939.331	4073.38
939.562	4101.38
939.793	4101.38
940.024	4098.38
940.255	4102.38
940.486	3982.38
940.717	3977.38
940.948	4001.38
941.179	3903.38
941.409	3962.38
941.64	3912.38
941.871	3979.38
942.102	3936.38
942.332	3920.38
942.563	3932.38
942.793	3932.38
943.024	3919.38
943.254	3923.38
943.484	3964.38
943.715	3949.38
943.945	3919.38
944.175	3875.38
944.405	3870.38
944.636	3858.38
944.866	3847.38
945.096	3864.38
945.326	3820.38
945.556	3855.38
945.786	3810.38
946.016	3794.38
946.245	3756.38
946.475	3713.38
946.705	3693.38
946.935	3711.38
947.164	3703.38
947.394	3648.38
947.624	3641.38
947.853	3660.38
948.083	3654.38
948.312	3592.38
948.542	3518.38
948.771	3527.38
949	3536.38
949.23	3541.38
949.459	3545.38
949.688	3600.38
949.917	3547.38
950.146	3554.38
950.375	3591.38
950.604	3514.38
950.833	3612.38
951.062	3551.38
951.291	3512.38
951.52	3493.38
951.749	3516.38
951.978	3462.38
952.206	3458.38
952.435	3434.38
952.664	3472.38
952.892	3451.38
953.121	3442.38
953.349	3459.38
953.578	3404.38
953.806	3439.38
954.035	3309.38
954.263	3349.38
954.491	3251.38
954.719	3303.38
954.948	3281.38
955.176	3302.38
955.404	3195.38
955.632	3286.38
955.86	3263.38
956.088	3245.38
956.316	3263.38
956.544	3284.38
956.772	3158.38
956.999	3139.38
957.227	3225.38
957.455	3127.38
957.683	3142.38
957.91	3079.38
958.138	3101.38
958.365	3068.38
958.593	3062.38
958.82	2999.38
959.048	3068.38
959.275	2999.38
959.502	3028.38
959.73	3012.38
959.957	2998.38
960.184	3046.38
960.411	2979.38
960.638	3062.38
960.865	2963.38
961.092	3032.38
961.319	2953.38
961.546	2990.38
961.773	3008.38
962	2965.38
962.227	3026.38
962.454	2968.38
962.68	2965.38
962.907	2964.38
963.134	2885.38
963.36	2898.38
963.587	2946.38
963.813	2808.38
964.04	2896.38
964.266	2827.38
964.493	2936.38
964.719	2829.38
964.945	2839.38
965.171	2762.38
965.398	2762.38
965.624	2831.38
965.85	2773.38
966.076	2741.38
966.302	2727.38
966.528	2729.38
966.754	2762.38
966.98	2736.38
967.206	2698.38
967.431	2649.38
967.657	2752.38
967.883	2697.38
968.109	2675.38
968.334	2631.38
968.56	2623.38
968.785	2633.38
969.011	2608.38
969.236	2642.38
969.462	2588.38
969.687	2598.38
969.912	2615.38
970.138	2678.38
970.363	2562.38
970.588	2560.38
970.813	2538.38
971.038	2522.38
971.263	2559.38
971.488	2525.38
971.713	2563.38
971.938	2577.38
972.163	2472.38
972.388	2471.38
972.613	2437.38
972.838	2503.38
973.062	2485.38
973.287	2462.38
973.512	2372.38
973.736	2439.38
973.961	2418.38
974.185	2363.38
974.41	2441.38
974.634	2317.38
974.858	2329.38
975.083	2337.38
975.307	2358.38
975.531	2348.38
975.755	2279.38
975.98	2268.38
976.204	2229.38
976.428	2230.38
976.652	2248.38
976.876	2172.38
977.1	2222.38
977.324	2193.38
977.547	2244.38
977.771	2221.38
977.995	2192.38
978.219	2165.38
978.442	2262.38
978.666	2201.38
978.89	2187.38
979.113	2182.38
979.337	2167.38
979.56	2127.38
979.783	2209.38
980.007	2098.38
980.23	2116.38
980.453	2092.38
980.677	2129.38
980.9	2118.38
981.123	2042.38
981.346	2111.38
981.569	2094.38
981.792	2084.38
982.015	2073.38
982.238	2046.38
982.461	2036.38
982.684	1996.38
982.907	1984.38
983.129	1956.38
983.352	2026.38
983.575	2003.38
983.797	1993.38
984.02	1942.38
984.242	1950.38
984.465	1938.38
984.687	1982.38
984.91	1986.38
985.132	1937.38
985.354	1966.38
985.577	1951.38
985.799	1918.38
986.021	1852.38
986.243	1859.38
986.465	1897.38
986.687	1920.38
986.909	1979.38
987.131	1905.38
987.353	1875.38
987.575	1906.38
987.797	1837.38
988.019	1801.38
988.241	1870.38
988.462	1817.38
988.684	1874.38
988.906	1894.38
989.127	1921.38
989.349	1806.38
989.57	1822.38
989.792	1874.38
990.013	1896.38
990.234	1868.38
990.456	1895.38
990.677	1856.38
990.898	1772.38
991.119	1778.38
991.341	1830.38
991.562	1759.38
991.783	1776.38
992.004	1755.38
992.225	1695.38
992.446	1771.38
992.667	1675.38
992.887	1758.38
993.108	1646.38
993.329	1803.38
993.55	1718.38
993.77	1653.38
993.991	1664.38
994.212	1694.38
994.432	1673.38
994.653	1694.38
994.873	1703.38
995.093	1564.38
995.314	1576.38
995.534	1674.38
995.754	1685.38
995.975	1711.38
996.195	1591.38
996.415	1667.38
996.635	1634.38
996.855	1637.38
997.075	1630.38
997.295	1630.38
997.515	1582.38
997.735	1643.38
997.955	1604.38
998.174	1600.38
998.394	1574.38
998.614	1623.38
998.834	1560.38
999.053	1656.38
999.273	1595.38
999.492	1641.38
999.712	1576.38
999.931	1549.38
1000.151	1600.38
1000.37	1569.38
1000.589	1664.38
1000.809	1547.38
1001.028	1645.38
1001.247	1589.38
1001.466	1487.38
1001.685	1607.38
1001.904	1553.38
1002.123	1563.38
1002.342	1544.38
1002.561	1505.38
1002.78	1549.38
1002.999	1577.38
1003.218	1533.38
1003.436	1536.38
1003.655	1555.38
1003.874	1488.38
1004.092	1515.38
1004.311	1548.38
1004.53	1490.38
1004.748	1611.38
1004.966	1489.38
1005.185	1563.38
1005.403	1535.38
1005.622	1500.38
1005.84	1579.38
1006.058	1501.38
1006.276	1497.38
1006.494	1901.38
1006.712	1504.38
1006.931	1561.38
1007.149	1473.38
1007.367	1470.38
1007.584	1501.38
1007.802	1506.38
1008.02	1477.38
1008.238	1579.38
1008.456	1560.38
1008.673	1419.38
1008.891	1547.38
1009.109	1473.38
1009.326	1503.38
1009.544	1577.38
1009.761	1488.38
1009.979	1577.38
1010.196	1545.38
1010.413	1627.38
1010.631	1637.38
1010.848	1680.38
1011.065	1677.38
1011.282	1578.38
1011.5	1523.38
1011.717	1638.38
1011.934	1596.38
1012.151	1631.38
1012.368	1600.38
1012.585	1535.38
1012.801	1597.38
1013.018	1540.38
1013.235	1503.38
1013.452	1513.38
1013.669	1544.38
1013.885	1513.38
1014.102	1566.38
1014.318	1523.38
1014.535	1482.38
1014.751	1487.38
1014.968	1503.38
1015.184	1549.38
1015.401	1451.38
1015.617	1499.38
1015.833	1428.38
1016.049	1436.38
1016.266	1410.38
1016.482	1436.38
1016.698	1335.38
1016.914	1412.38
1017.13	1362.38
1017.346	1351.38
1017.562	1423.38
1017.778	1346.38
1017.993	1318.38
1018.209	1390.38
1018.425	1371.38
1018.641	1316.38
1018.856	1283.38
1019.072	1319.38
1019.288	1359.38
1019.503	1320.38
1019.719	1232.38
1019.934	1257.38
1020.149	1330.38
1020.365	1245.38
1020.58	1212.38
1020.795	1287.38
1021.011	1213.38
1021.226	1201.38
1021.441	1240.38
1021.656	1126.38
1021.871	1092.38
1022.086	1080.38
1022.301	1115.38
1022.516	1112.38
1022.731	1167.38
1022.946	1076.38
1023.16	1047.38
1023.375	1025.38
1023.59	995.38
1023.804	954.38
1024.019	1070.38
1024.234	950.38
1024.448	959.38
1024.663	934.38
1024.877	934.38
1025.092	977.38
1025.306	953.38
1025.52	879.38
1025.734	958.38
1025.949	876.38
1026.163	855.38
1026.377	795.38
1026.591	871.38
1026.805	784.38
1027.019	786.38
1027.233	766.38
1027.447	699.38
1027.661	818.38
1027.875	754.38
1028.088	746.38
1028.302	679.38
1028.516	657.38
1028.73	687.38
1028.943	653.38
1029.157	616.38
1029.37	593.38
1029.584	-4.62
1029.797	-3.62
1030.011	-0.62
1030.224	0.38
