Data from QEP037381__357__15-03-02-715.txt Node

Date: Fri Apr 28 15:03:02 EDT 2023
User: dcclab
Spectrometer: QEP03738
Trigger mode: 4
Integration Time (sec): 1.000000E1
Scans to average: 1
Electric dark correction enabled: true
Nonlinearity correction enabled: false
Boxcar width: 0
XAxis mode: Wavelengths
Number of Pixels in Spectrum: 1044
>>>>>Begin Spectral Data<<<<<
784.041	10.25
784.3	2.25
784.558	-2.75
784.817	-3.75
785.075	62835.25
785.334	12732.25
785.592	6786.25
785.851	4736.25
786.109	3686.25
786.368	2902.25
786.626	2378.25
786.884	1935.25
787.143	1649.25
787.401	1366.25
787.659	1244.25
787.917	1075.25
788.175	984.25
788.433	873.25
788.691	770.25
788.949	717.25
789.207	697.25
789.465	599.25
789.723	583.25
789.98	545.25
790.238	604.25
790.496	554.25
790.753	510.25
791.011	570.25
791.268	501.25
791.526	493.25
791.783	508.25
792.041	500.25
792.298	415.25
792.556	487.25
792.813	472.25
793.07	459.25
793.327	432.25
793.584	506.25
793.841	440.25
794.099	468.25
794.356	528.25
794.613	424.25
794.869	459.25
795.126	405.25
795.383	419.25
795.64	433.25
795.897	381.25
796.153	439.25
796.41	432.25
796.667	403.25
796.923	425.25
797.18	424.25
797.436	440.25
797.693	411.25
797.949	465.25
798.206	493.25
798.462	408.25
798.718	459.25
798.974	457.25
799.231	486.25
799.487	478.25
799.743	500.25
799.999	493.25
800.255	514.25
800.511	493.25
800.767	543.25
801.023	546.25
801.279	593.25
801.534	644.25
801.79	678.25
802.046	737.25
802.302	910.25
802.557	1044.25
802.813	1364.25
803.068	1729.25
803.324	2519.25
803.579	3486.25
803.835	4896.25
804.09	6760.25
804.345	8796.25
804.601	10820.25
804.856	12683.25
805.111	14148.25
805.366	14988.25
805.621	15686.25
805.876	16194.25
806.131	16490.25
806.386	16816.25
806.641	16992.25
806.896	17179.25
807.151	17547.25
807.406	17641.25
807.661	18028.25
807.915	18169.25
808.17	18420.25
808.425	18744.25
808.679	18806.25
808.934	19120.25
809.188	19267.25
809.443	19471.25
809.697	19615.25
809.951	19794.25
810.206	19957.25
810.46	20061.25
810.714	20224.25
810.968	20439.25
811.223	20468.25
811.477	20711.25
811.731	20687.25
811.985	20781.25
812.239	20972.25
812.493	21125.25
812.747	21210.25
813	21156.25
813.254	21297.25
813.508	21340.25
813.762	21466.25
814.015	21493.25
814.269	21649.25
814.522	21879.25
814.776	22128.25
815.03	22420.25
815.283	22630.25
815.536	22905.25
815.79	23259.25
816.043	23577.25
816.296	23762.25
816.55	24012.25
816.803	24203.25
817.056	24525.25
817.309	24768.25
817.562	24916.25
817.815	25176.25
818.068	25494.25
818.321	25710.25
818.574	25850.25
818.827	26318.25
819.079	26657.25
819.332	27095.25
819.585	27353.25
819.838	27686.25
820.09	27852.25
820.343	28114.25
820.595	28224.25
820.848	28468.25
821.1	28552.25
821.353	28434.25
821.605	28552.25
821.857	28468.25
822.11	28422.25
822.362	28204.25
822.614	28306.25
822.866	28285.25
823.118	28247.25
823.37	28431.25
823.622	28361.25
823.874	28607.25
824.126	28642.25
824.378	28615.25
824.63	28821.25
824.882	28823.25
825.134	28691.25
825.385	28804.25
825.637	28589.25
825.888	28597.25
826.14	28404.25
826.392	28395.25
826.643	28156.25
826.895	28119.25
827.146	28093.25
827.397	27984.25
827.649	27990.25
827.9	27861.25
828.151	28038.25
828.402	28020.25
828.653	28089.25
828.905	28114.25
829.156	28196.25
829.407	28030.25
829.658	28059.25
829.909	28113.25
830.159	28038.25
830.41	27825.25
830.661	27677.25
830.912	27525.25
831.162	27335.25
831.413	27396.25
831.664	27340.25
831.914	27432.25
832.165	27222.25
832.415	27397.25
832.666	27309.25
832.916	27330.25
833.167	27268.25
833.417	27260.25
833.667	27166.25
833.917	26939.25
834.168	26874.25
834.418	26831.25
834.668	26668.25
834.918	26564.25
835.168	26574.25
835.418	26407.25
835.668	26317.25
835.918	26294.25
836.167	26311.25
836.417	26129.25
836.667	26178.25
836.917	26040.25
837.166	25998.25
837.416	25977.25
837.666	25929.25
837.915	25861.25
838.165	25809.25
838.414	25631.25
838.663	25530.25
838.913	25627.25
839.162	25385.25
839.411	25509.25
839.661	25363.25
839.91	25348.25
840.159	25202.25
840.408	25174.25
840.657	25132.25
840.906	25267.25
841.155	25320.25
841.404	25164.25
841.653	25249.25
841.902	25147.25
842.15	25135.25
842.399	25105.25
842.648	25045.25
842.897	25035.25
843.145	24741.25
843.394	24612.25
843.642	24640.25
843.891	24524.25
844.139	24290.25
844.388	24237.25
844.636	24129.25
844.884	24032.25
845.133	23942.25
845.381	23966.25
845.629	23929.25
845.877	23974.25
846.125	23897.25
846.373	23881.25
846.621	23734.25
846.869	23602.25
847.117	23581.25
847.365	23360.25
847.613	23323.25
847.861	23296.25
848.108	23222.25
848.356	23203.25
848.604	23071.25
848.851	23119.25
849.099	23241.25
849.346	23115.25
849.594	23250.25
849.841	23322.25
850.089	23391.25
850.336	23400.25
850.583	23262.25
850.831	23152.25
851.078	22993.25
851.325	22783.25
851.572	22816.25
851.819	22589.25
852.066	22236.25
852.313	22028.25
852.56	21908.25
852.807	21785.25
853.054	21636.25
853.301	21783.25
853.548	21698.25
853.794	21905.25
854.041	21895.25
854.288	22026.25
854.534	22216.25
854.781	22129.25
855.028	22078.25
855.274	21920.25
855.52	21902.25
855.767	21622.25
856.013	21681.25
856.26	21784.25
856.506	21372.25
856.752	21381.25
856.998	21394.25
857.244	21390.25
857.49	21543.25
857.736	21464.25
857.982	21490.25
858.228	21433.25
858.474	21302.25
858.72	21183.25
858.966	21114.25
859.212	20895.25
859.458	20618.25
859.703	20354.25
859.949	20230.25
860.195	20073.25
860.44	19909.25
860.686	19823.25
860.931	19800.25
861.177	19749.25
861.422	19742.25
861.667	19653.25
861.913	19670.25
862.158	19652.25
862.403	19762.25
862.648	19751.25
862.893	19857.25
863.138	19741.25
863.384	19670.25
863.629	19559.25
863.873	19518.25
864.118	19443.25
864.363	19347.25
864.608	19302.25
864.853	19137.25
865.098	19009.25
865.342	18997.25
865.587	18927.25
865.832	18896.25
866.076	18880.25
866.321	18733.25
866.565	18697.25
866.81	18544.25
867.054	18597.25
867.298	18570.25
867.543	18432.25
867.787	18441.25
868.031	18389.25
868.275	18391.25
868.519	18405.25
868.764	18311.25
869.008	18217.25
869.252	18325.25
869.496	18156.25
869.739	18083.25
869.983	18141.25
870.227	18091.25
870.471	17959.25
870.715	18079.25
870.958	18059.25
871.202	18040.25
871.446	18083.25
871.689	18103.25
871.933	18053.25
872.176	17964.25
872.42	18064.25
872.663	17956.25
872.906	17880.25
873.15	17783.25
873.393	17610.25
873.636	17561.25
873.879	17398.25
874.122	17259.25
874.366	17053.25
874.609	16911.25
874.852	16852.25
875.095	16878.25
875.337	16644.25
875.58	16554.25
875.823	16558.25
876.066	16679.25
876.309	16506.25
876.551	16366.25
876.794	16274.25
877.037	16406.25
877.279	16284.25
877.522	16311.25
877.764	16454.25
878.007	16301.25
878.249	16355.25
878.491	16291.25
878.734	16307.25
878.976	16229.25
879.218	16055.25
879.46	16064.25
879.702	15851.25
879.945	15818.25
880.187	15657.25
880.429	15535.25
880.671	15346.25
880.912	15471.25
881.154	15297.25
881.396	15259.25
881.638	15307.25
881.88	15224.25
882.121	15191.25
882.363	15221.25
882.605	15165.25
882.846	15172.25
883.088	15060.25
883.329	15043.25
883.571	14945.25
883.812	15003.25
884.053	15067.25
884.295	15221.25
884.536	15334.25
884.777	15187.25
885.018	15092.25
885.259	15044.25
885.5	14958.25
885.742	15145.25
885.982	14877.25
886.223	14865.25
886.464	14789.25
886.705	14713.25
886.946	14666.25
887.187	14394.25
887.428	14334.25
887.668	14163.25
887.909	14047.25
888.15	13905.25
888.39	13956.25
888.631	13833.25
888.871	13725.25
889.111	13630.25
889.352	13507.25
889.592	13407.25
889.833	13305.25
890.073	13209.25
890.313	13131.25
890.553	13003.25
890.793	12971.25
891.033	12888.25
891.273	12915.25
891.513	12851.25
891.753	12804.25
891.993	12785.25
892.233	12868.25
892.473	12937.25
892.713	12902.25
892.952	12808.25
893.192	12848.25
893.432	12756.25
893.671	12729.25
893.911	12570.25
894.15	12586.25
894.39	12389.25
894.629	12359.25
894.869	12282.25
895.108	12245.25
895.347	12174.25
895.587	12127.25
895.826	12062.25
896.065	11963.25
896.304	11978.25
896.543	12001.25
896.782	11877.25
897.021	11844.25
897.26	11846.25
897.499	11853.25
897.738	11824.25
897.977	11678.25
898.216	11638.25
898.454	11496.25
898.693	11454.25
898.932	11370.25
899.17	11267.25
899.409	11309.25
899.647	11270.25
899.886	11168.25
900.124	11230.25
900.363	11237.25
900.601	11261.25
900.839	11262.25
901.078	11215.25
901.316	11212.25
901.554	11246.25
901.792	11255.25
902.03	11109.25
902.268	11186.25
902.506	11152.25
902.744	11105.25
902.982	11012.25
903.22	10920.25
903.458	10893.25
903.695	10786.25
903.933	10618.25
904.171	10411.25
904.409	10349.25
904.646	10213.25
904.884	10081.25
905.121	10067.25
905.359	10002.25
905.596	9928.25
905.833	9796.25
906.071	9766.25
906.308	9778.25
906.545	9765.25
906.783	9650.25
907.02	9684.25
907.257	9651.25
907.494	9545.25
907.731	9597.25
907.968	9553.25
908.205	9449.25
908.442	9419.25
908.679	9415.25
908.915	9314.25
909.152	9248.25
909.389	9051.25
909.626	9149.25
909.862	9036.25
910.099	8985.25
910.335	8998.25
910.572	8867.25
910.808	8861.25
911.045	8881.25
911.281	8778.25
911.518	8834.25
911.754	8714.25
911.99	8742.25
912.226	8676.25
912.463	8549.25
912.699	8467.25
912.935	8457.25
913.171	8363.25
913.407	8253.25
913.643	8316.25
913.879	8208.25
914.114	8125.25
914.35	8010.25
914.586	7969.25
914.822	7878.25
915.057	7874.25
915.293	7732.25
915.529	7686.25
915.764	7811.25
916	7735.25
916.235	7693.25
916.471	7724.25
916.706	7618.25
916.941	7711.25
917.177	7660.25
917.412	7635.25
917.647	7631.25
917.882	7620.25
918.117	7591.25
918.352	7604.25
918.588	7486.25
918.823	7410.25
919.057	7340.25
919.292	7228.25
919.527	7258.25
919.762	7155.25
919.997	7138.25
920.232	6974.25
920.466	6934.25
920.701	6826.25
920.935	6855.25
921.17	6802.25
921.405	6742.25
921.639	6733.25
921.873	6687.25
922.108	6691.25
922.342	6641.25
922.576	6642.25
922.811	6557.25
923.045	6612.25
923.279	6601.25
923.513	6442.25
923.747	6556.25
923.981	6458.25
924.215	6367.25
924.449	6381.25
924.683	6318.25
924.917	6305.25
925.151	6254.25
925.385	6255.25
925.618	6210.25
925.852	6201.25
926.086	6095.25
926.319	6177.25
926.553	6137.25
926.786	6131.25
927.02	6123.25
927.253	6145.25
927.486	6074.25
927.72	6022.25
927.953	6131.25
928.186	6078.25
928.42	6090.25
928.653	5997.25
928.886	5953.25
929.119	5974.25
929.352	5918.25
929.585	5909.25
929.818	5812.25
930.051	5819.25
930.284	5795.25
930.516	5672.25
930.749	5692.25
930.982	5643.25
931.215	5614.25
931.447	5507.25
931.68	5520.25
931.912	5465.25
932.145	5489.25
932.377	5541.25
932.61	5591.25
932.842	5441.25
933.074	5528.25
933.307	5443.25
933.539	5569.25
933.771	5527.25
934.003	5491.25
934.236	5570.25
934.468	5581.25
934.7	5428.25
934.932	5475.25
935.164	5369.25
935.395	5367.25
935.627	5371.25
935.859	5348.25
936.091	5308.25
936.323	5316.25
936.554	5303.25
936.786	5208.25
937.017	5194.25
937.249	5264.25
937.481	5163.25
937.712	5214.25
937.943	5177.25
938.175	5155.25
938.406	5159.25
938.637	5224.25
938.869	5102.25
939.1	5170.25
939.331	5085.25
939.562	5142.25
939.793	5129.25
940.024	5132.25
940.255	5093.25
940.486	5030.25
940.717	5002.25
940.948	4957.25
941.179	4900.25
941.409	4930.25
941.64	4909.25
941.871	4983.25
942.102	4920.25
942.332	4902.25
942.563	4964.25
942.793	4916.25
943.024	4827.25
943.254	4908.25
943.484	4921.25
943.715	4921.25
943.945	4871.25
944.175	4785.25
944.405	4812.25
944.636	4760.25
944.866	4873.25
945.096	4876.25
945.326	4779.25
945.556	4804.25
945.786	4780.25
946.016	4745.25
946.245	4643.25
946.475	4619.25
946.705	4649.25
946.935	4573.25
947.164	4596.25
947.394	4523.25
947.624	4555.25
947.853	4563.25
948.083	4500.25
948.312	4514.25
948.542	4382.25
948.771	4350.25
949	4380.25
949.23	4404.25
949.459	4448.25
949.688	4471.25
949.917	4433.25
950.146	4425.25
950.375	4479.25
950.604	4372.25
950.833	4461.25
951.062	4460.25
951.291	4346.25
951.52	4334.25
951.749	4317.25
951.978	4313.25
952.206	4275.25
952.435	4295.25
952.664	4330.25
952.892	4286.25
953.121	4218.25
953.349	4320.25
953.578	4217.25
953.806	4164.25
954.035	4159.25
954.263	4174.25
954.491	4075.25
954.719	4133.25
954.948	4063.25
955.176	4061.25
955.404	3964.25
955.632	4068.25
955.86	4043.25
956.088	4023.25
956.316	4059.25
956.544	4004.25
956.772	3947.25
956.999	3944.25
957.227	3983.25
957.455	3890.25
957.683	3868.25
957.91	3852.25
958.138	3782.25
958.365	3815.25
958.593	3755.25
958.82	3710.25
959.048	3807.25
959.275	3760.25
959.502	3749.25
959.73	3701.25
959.957	3731.25
960.184	3774.25
960.411	3683.25
960.638	3737.25
960.865	3687.25
961.092	3716.25
961.319	3629.25
961.546	3741.25
961.773	3746.25
962	3649.25
962.227	3694.25
962.454	3686.25
962.68	3610.25
962.907	3624.25
963.134	3568.25
963.36	3570.25
963.587	3585.25
963.813	3539.25
964.04	3519.25
964.266	3483.25
964.493	3531.25
964.719	3504.25
964.945	3551.25
965.171	3386.25
965.398	3402.25
965.624	3447.25
965.85	3321.25
966.076	3393.25
966.302	3375.25
966.528	3326.25
966.754	3366.25
966.98	3343.25
967.206	3338.25
967.431	3259.25
967.657	3357.25
967.883	3336.25
968.109	3270.25
968.334	3267.25
968.56	3247.25
968.785	3249.25
969.011	3191.25
969.236	3249.25
969.462	3178.25
969.687	3181.25
969.912	3214.25
970.138	3222.25
970.363	3129.25
970.588	3153.25
970.813	3124.25
971.038	3118.25
971.263	3168.25
971.488	3091.25
971.713	3160.25
971.938	3129.25
972.163	2994.25
972.388	3039.25
972.613	3042.25
972.838	3004.25
973.062	3041.25
973.287	2970.25
973.512	2893.25
973.736	2954.25
973.961	2925.25
974.185	2887.25
974.41	2957.25
974.634	2833.25
974.858	2826.25
975.083	2885.25
975.307	2883.25
975.531	2821.25
975.755	2769.25
975.98	2765.25
976.204	2710.25
976.428	2724.25
976.652	2697.25
976.876	2696.25
977.1	2705.25
977.324	2709.25
977.547	2732.25
977.771	2701.25
977.995	2670.25
978.219	2608.25
978.442	2737.25
978.666	2680.25
978.89	2635.25
979.113	2655.25
979.337	2664.25
979.56	2584.25
979.783	2667.25
980.007	2550.25
980.23	2598.25
980.453	2551.25
980.677	2585.25
980.9	2577.25
981.123	2451.25
981.346	2561.25
981.569	2545.25
981.792	2542.25
982.015	2485.25
982.238	2463.25
982.461	2430.25
982.684	2423.25
982.907	2420.25
983.129	2367.25
983.352	2448.25
983.575	2394.25
983.797	2406.25
984.02	2365.25
984.242	2371.25
984.465	2372.25
984.687	2372.25
984.91	2381.25
985.132	2331.25
985.354	2381.25
985.577	2348.25
985.799	2313.25
986.021	2226.25
986.243	2251.25
986.465	2280.25
986.687	2320.25
986.909	2353.25
987.131	2274.25
987.353	2252.25
987.575	2281.25
987.797	2253.25
988.019	2178.25
988.241	2218.25
988.462	2196.25
988.684	2261.25
988.906	2254.25
989.127	2298.25
989.349	2169.25
989.57	2193.25
989.792	2231.25
990.013	2226.25
990.234	2242.25
990.456	2270.25
990.677	2229.25
990.898	2132.25
991.119	2150.25
991.341	2154.25
991.562	2122.25
991.783	2155.25
992.004	2069.25
992.225	2032.25
992.446	2106.25
992.667	2019.25
992.887	2089.25
993.108	1961.25
993.329	2125.25
993.55	2045.25
993.77	2008.25
993.991	1962.25
994.212	2012.25
994.432	1992.25
994.653	2005.25
994.873	1972.25
995.093	1883.25
995.314	1907.25
995.534	2006.25
995.754	1995.25
995.975	1977.25
996.195	1897.25
996.415	1959.25
996.635	1911.25
996.855	1955.25
997.075	1894.25
997.295	1922.25
997.515	1859.25
997.735	1930.25
997.955	1870.25
998.174	1856.25
998.394	1831.25
998.614	1908.25
998.834	1848.25
999.053	1907.25
999.273	1874.25
999.492	1930.25
999.712	1868.25
999.931	1836.25
1000.151	1846.25
1000.37	1832.25
1000.589	1895.25
1000.809	1790.25
1001.028	1918.25
1001.247	1858.25
1001.466	1755.25
1001.685	1904.25
1001.904	1794.25
1002.123	1783.25
1002.342	1818.25
1002.561	1752.25
1002.78	1763.25
1002.999	1827.25
1003.218	1765.25
1003.436	1719.25
1003.655	1782.25
1003.874	1725.25
1004.092	1719.25
1004.311	1783.25
1004.53	1753.25
1004.748	1812.25
1004.966	1733.25
1005.185	1757.25
1005.403	1754.25
1005.622	1722.25
1005.84	1811.25
1006.058	1693.25
1006.276	1762.25
1006.494	2103.25
1006.712	1719.25
1006.931	1786.25
1007.149	1675.25
1007.367	1707.25
1007.584	1744.25
1007.802	1753.25
1008.02	1668.25
1008.238	1791.25
1008.456	1775.25
1008.673	1629.25
1008.891	1755.25
1009.109	1697.25
1009.326	1715.25
1009.544	1801.25
1009.761	1722.25
1009.979	1804.25
1010.196	1779.25
1010.413	1866.25
1010.631	1898.25
1010.848	1927.25
1011.065	1926.25
1011.282	1875.25
1011.5	1804.25
1011.717	1940.25
1011.934	1851.25
1012.151	1875.25
1012.368	1862.25
1012.585	1799.25
1012.801	1846.25
1013.018	1812.25
1013.235	1796.25
1013.452	1803.25
1013.669	1777.25
1013.885	1761.25
1014.102	1812.25
1014.318	1797.25
1014.535	1732.25
1014.751	1774.25
1014.968	1751.25
1015.184	1770.25
1015.401	1721.25
1015.617	1712.25
1015.833	1683.25
1016.049	1684.25
1016.266	1625.25
1016.482	1642.25
1016.698	1562.25
1016.914	1637.25
1017.13	1572.25
1017.346	1561.25
1017.562	1642.25
1017.778	1565.25
1017.993	1528.25
1018.209	1595.25
1018.425	1595.25
1018.641	1561.25
1018.856	1484.25
1019.072	1562.25
1019.288	1566.25
1019.503	1527.25
1019.719	1447.25
1019.934	1449.25
1020.149	1533.25
1020.365	1476.25
1020.58	1416.25
1020.795	1477.25
1021.011	1393.25
1021.226	1365.25
1021.441	1420.25
1021.656	1345.25
1021.871	1250.25
1022.086	1256.25
1022.301	1257.25
1022.516	1254.25
1022.731	1325.25
1022.946	1209.25
1023.16	1201.25
1023.375	1183.25
1023.59	1141.25
1023.804	1105.25
1024.019	1227.25
1024.234	1098.25
1024.448	1101.25
1024.663	1055.25
1024.877	1052.25
1025.092	1094.25
1025.306	1072.25
1025.52	993.25
1025.734	1072.25
1025.949	993.25
1026.163	987.25
1026.377	919.25
1026.591	957.25
1026.805	881.25
1027.019	892.25
1027.233	860.25
1027.447	798.25
1027.661	906.25
1027.875	833.25
1028.088	835.25
1028.302	772.25
1028.516	763.25
1028.73	762.25
1028.943	749.25
1029.157	695.25
1029.37	661.25
1029.584	-2.75
1029.797	-2.75
1030.011	1.25
1030.224	-1.75
