Data from QEP037381__373__15-05-42-709.txt Node

Date: Fri Apr 28 15:05:42 EDT 2023
User: dcclab
Spectrometer: QEP03738
Trigger mode: 4
Integration Time (sec): 1.000000E1
Scans to average: 1
Electric dark correction enabled: true
Nonlinearity correction enabled: false
Boxcar width: 0
XAxis mode: Wavelengths
Number of Pixels in Spectrum: 1044
>>>>>Begin Spectral Data<<<<<
784.041	14.25
784.3	4.25
784.558	-0.75
784.817	-6.75
785.075	60585.25
785.334	12417.25
785.592	6570.25
785.851	4655.25
786.109	3539.25
786.368	2806.25
786.626	2256.25
786.884	1930.25
787.143	1577.25
787.401	1310.25
787.659	1208.25
787.917	1059.25
788.175	972.25
788.433	857.25
788.691	794.25
788.949	715.25
789.207	683.25
789.465	606.25
789.723	599.25
789.98	543.25
790.238	587.25
790.496	552.25
790.753	538.25
791.011	585.25
791.268	512.25
791.526	496.25
791.783	525.25
792.041	512.25
792.298	419.25
792.556	498.25
792.813	474.25
793.07	456.25
793.327	438.25
793.584	517.25
793.841	447.25
794.099	482.25
794.356	511.25
794.613	438.25
794.869	471.25
795.126	429.25
795.383	419.25
795.64	435.25
795.897	394.25
796.153	445.25
796.41	439.25
796.667	422.25
796.923	419.25
797.18	431.25
797.436	461.25
797.693	425.25
797.949	495.25
798.206	505.25
798.462	413.25
798.718	499.25
798.974	477.25
799.231	512.25
799.487	507.25
799.743	524.25
799.999	540.25
800.255	551.25
800.511	548.25
800.767	597.25
801.023	584.25
801.279	655.25
801.534	700.25
801.79	770.25
802.046	831.25
802.302	1021.25
802.557	1246.25
802.813	1611.25
803.068	2121.25
803.324	3081.25
803.579	4350.25
803.835	6264.25
804.09	8573.25
804.345	11176.25
804.601	13820.25
804.856	16106.25
805.111	17933.25
805.366	19028.25
805.621	19818.25
805.876	20351.25
806.131	20765.25
806.386	20992.25
806.641	21323.25
806.896	21597.25
807.151	22087.25
807.406	22242.25
807.661	22629.25
807.915	23103.25
808.17	23454.25
808.425	23608.25
808.679	23766.25
808.934	24172.25
809.188	24439.25
809.443	24790.25
809.697	25021.25
809.951	25171.25
810.206	25294.25
810.46	25482.25
810.714	25662.25
810.968	25918.25
811.223	26056.25
811.477	26341.25
811.731	26453.25
811.985	26690.25
812.239	26642.25
812.493	26797.25
812.747	26956.25
813	27062.25
813.254	27168.25
813.508	27259.25
813.762	27346.25
814.015	27482.25
814.269	27579.25
814.522	27838.25
814.776	28171.25
815.03	28504.25
815.283	28848.25
815.536	29134.25
815.79	29721.25
816.043	30069.25
816.296	30230.25
816.55	30708.25
816.803	31046.25
817.056	31531.25
817.309	31833.25
817.562	32048.25
817.815	32371.25
818.068	32545.25
818.321	32929.25
818.574	33389.25
818.827	33938.25
819.079	34294.25
819.332	34938.25
819.585	35227.25
819.838	35722.25
820.09	36045.25
820.343	36309.25
820.595	36494.25
820.848	36662.25
821.1	36686.25
821.353	36907.25
821.605	36602.25
821.857	36731.25
822.11	36430.25
822.362	36610.25
822.614	36350.25
822.866	36451.25
823.118	36396.25
823.37	36527.25
823.622	36567.25
823.874	36761.25
824.126	36800.25
824.378	36907.25
824.63	36982.25
824.882	36952.25
825.134	36931.25
825.385	36853.25
825.637	36803.25
825.888	36659.25
826.14	36652.25
826.392	36350.25
826.643	36140.25
826.895	36174.25
827.146	35900.25
827.397	35909.25
827.649	35845.25
827.9	35828.25
828.151	35838.25
828.402	35985.25
828.653	35983.25
828.905	36113.25
829.156	36122.25
829.407	36111.25
829.658	35930.25
829.909	35837.25
830.159	35904.25
830.41	35626.25
830.661	35438.25
830.912	35385.25
831.162	35090.25
831.413	35068.25
831.664	34999.25
831.914	35098.25
832.165	35047.25
832.415	35054.25
832.666	34942.25
832.916	35018.25
833.167	34724.25
833.417	34644.25
833.667	34570.25
833.917	34475.25
834.168	34325.25
834.418	34294.25
834.668	34094.25
834.918	33874.25
835.168	33893.25
835.418	33648.25
835.668	33553.25
835.918	33705.25
836.167	33461.25
836.417	33277.25
836.667	33233.25
836.917	33283.25
837.166	33071.25
837.416	33125.25
837.666	33133.25
837.915	33100.25
838.165	32791.25
838.414	32704.25
838.663	32511.25
838.913	32553.25
839.162	32405.25
839.411	32388.25
839.661	32247.25
839.91	32290.25
840.159	32127.25
840.408	32139.25
840.657	32069.25
840.906	32149.25
841.155	32019.25
841.404	31989.25
841.653	31875.25
841.902	31999.25
842.15	32024.25
842.399	32003.25
842.648	31754.25
842.897	31722.25
843.145	31558.25
843.394	31354.25
843.642	31172.25
843.891	31078.25
844.139	30955.25
844.388	30826.25
844.636	30592.25
844.884	30583.25
845.133	30462.25
845.381	30375.25
845.629	30450.25
845.877	30284.25
846.125	30274.25
846.373	30383.25
846.621	29994.25
846.869	30029.25
847.117	29790.25
847.365	29579.25
847.613	29447.25
847.861	29441.25
848.108	29469.25
848.356	29368.25
848.604	29168.25
848.851	29281.25
849.099	29198.25
849.346	29344.25
849.594	29416.25
849.841	29486.25
850.089	29483.25
850.336	29551.25
850.583	29413.25
850.831	29252.25
851.078	28976.25
851.325	28810.25
851.572	28872.25
851.819	28565.25
852.066	28095.25
852.313	27828.25
852.56	27612.25
852.807	27540.25
853.054	27436.25
853.301	27389.25
853.548	27348.25
853.794	27421.25
854.041	27468.25
854.288	27674.25
854.534	27930.25
854.781	27766.25
855.028	27649.25
855.274	27612.25
855.52	27390.25
855.767	27321.25
856.013	27252.25
856.26	27465.25
856.506	26804.25
856.752	26902.25
856.998	26825.25
857.244	26992.25
857.49	27112.25
857.736	26977.25
857.982	27051.25
858.228	26882.25
858.474	26765.25
858.72	26608.25
858.966	26336.25
859.212	26150.25
859.458	25848.25
859.703	25598.25
859.949	25321.25
860.195	25175.25
860.44	24941.25
860.686	24750.25
860.931	24736.25
861.177	24702.25
861.422	24587.25
861.667	24514.25
861.913	24513.25
862.158	24691.25
862.403	24718.25
862.648	24702.25
862.893	24726.25
863.138	24637.25
863.384	24548.25
863.629	24640.25
863.873	24559.25
864.118	24424.25
864.363	24247.25
864.608	24051.25
864.853	23942.25
865.098	23741.25
865.342	23616.25
865.587	23561.25
865.832	23585.25
866.076	23435.25
866.321	23364.25
866.565	23209.25
866.81	23198.25
867.054	23058.25
867.298	23030.25
867.543	22962.25
867.787	23131.25
868.031	22989.25
868.275	22911.25
868.519	22802.25
868.764	22781.25
869.008	22768.25
869.252	22732.25
869.496	22573.25
869.739	22505.25
869.983	22442.25
870.227	22517.25
870.471	22388.25
870.715	22490.25
870.958	22462.25
871.202	22435.25
871.446	22431.25
871.689	22518.25
871.933	22492.25
872.176	22368.25
872.42	22321.25
872.663	22359.25
872.906	22147.25
873.15	22158.25
873.393	21935.25
873.636	21911.25
873.879	21610.25
874.122	21483.25
874.366	21151.25
874.609	21010.25
874.852	20836.25
875.095	20776.25
875.337	20757.25
875.58	20542.25
875.823	20531.25
876.066	20525.25
876.309	20463.25
876.551	20339.25
876.794	20172.25
877.037	20182.25
877.279	20096.25
877.522	20183.25
877.764	20125.25
878.007	20253.25
878.249	20207.25
878.491	20056.25
878.734	20095.25
878.976	20028.25
879.218	19941.25
879.46	19754.25
879.702	19682.25
879.945	19452.25
880.187	19218.25
880.429	19133.25
880.671	19068.25
880.912	18911.25
881.154	18867.25
881.396	18721.25
881.638	18871.25
881.88	18688.25
882.121	18698.25
882.363	18693.25
882.605	18662.25
882.846	18586.25
883.088	18543.25
883.329	18454.25
883.571	18417.25
883.812	18493.25
884.053	18603.25
884.295	18754.25
884.536	18862.25
884.777	18685.25
885.018	18637.25
885.259	18613.25
885.5	18512.25
885.742	18585.25
885.982	18333.25
886.223	18243.25
886.464	18192.25
886.705	18030.25
886.946	17961.25
887.187	17748.25
887.428	17577.25
887.668	17411.25
887.909	17289.25
888.15	17104.25
888.39	16994.25
888.631	16962.25
888.871	16739.25
889.111	16622.25
889.352	16557.25
889.592	16382.25
889.833	16196.25
890.073	16065.25
890.313	16108.25
890.553	16006.25
890.793	15776.25
891.033	15884.25
891.273	15699.25
891.513	15588.25
891.753	15695.25
891.993	15574.25
892.233	15589.25
892.473	15748.25
892.713	15663.25
892.952	15607.25
893.192	15575.25
893.432	15564.25
893.671	15579.25
893.911	15490.25
894.15	15337.25
894.39	15104.25
894.629	15038.25
894.869	14959.25
895.108	14855.25
895.347	14795.25
895.587	14772.25
895.826	14663.25
896.065	14676.25
896.304	14618.25
896.543	14613.25
896.782	14481.25
897.021	14536.25
897.26	14379.25
897.499	14442.25
897.738	14405.25
897.977	14259.25
898.216	14081.25
898.454	13959.25
898.693	13890.25
898.932	13851.25
899.17	13765.25
899.409	13658.25
899.647	13691.25
899.886	13632.25
900.124	13612.25
900.363	13575.25
900.601	13678.25
900.839	13683.25
901.078	13661.25
901.316	13633.25
901.554	13657.25
901.792	13684.25
902.03	13663.25
902.268	13575.25
902.506	13580.25
902.744	13497.25
902.982	13445.25
903.22	13261.25
903.458	13135.25
903.695	12928.25
903.933	12831.25
904.171	12656.25
904.409	12445.25
904.646	12365.25
904.884	12154.25
905.121	12146.25
905.359	11994.25
905.596	11878.25
905.833	11803.25
906.071	11786.25
906.308	11771.25
906.545	11677.25
906.783	11666.25
907.02	11674.25
907.257	11593.25
907.494	11575.25
907.731	11523.25
907.968	11491.25
908.205	11415.25
908.442	11422.25
908.679	11309.25
908.915	11165.25
909.152	11106.25
909.389	10959.25
909.626	10976.25
909.862	10797.25
910.099	10832.25
910.335	10811.25
910.572	10698.25
910.808	10680.25
911.045	10571.25
911.281	10581.25
911.518	10546.25
911.754	10495.25
911.99	10407.25
912.226	10311.25
912.463	10275.25
912.699	10196.25
912.935	10122.25
913.171	9973.25
913.407	9881.25
913.643	9828.25
913.879	9747.25
914.114	9622.25
914.35	9669.25
914.586	9504.25
914.822	9368.25
915.057	9423.25
915.293	9286.25
915.529	9223.25
915.764	9273.25
916	9341.25
916.235	9202.25
916.471	9186.25
916.706	9055.25
916.941	9076.25
917.177	9070.25
917.412	9130.25
917.647	9078.25
917.882	9030.25
918.117	9063.25
918.352	9034.25
918.588	9001.25
918.823	8911.25
919.057	8809.25
919.292	8616.25
919.527	8681.25
919.762	8510.25
919.997	8471.25
920.232	8355.25
920.466	8326.25
920.701	8125.25
920.935	8190.25
921.17	8073.25
921.405	8041.25
921.639	7969.25
921.873	7944.25
922.108	7966.25
922.342	7959.25
922.576	7853.25
922.811	7821.25
923.045	7900.25
923.279	7869.25
923.513	7732.25
923.747	7720.25
923.981	7731.25
924.215	7607.25
924.449	7668.25
924.683	7465.25
924.917	7458.25
925.151	7467.25
925.385	7468.25
925.618	7416.25
925.852	7351.25
926.086	7273.25
926.319	7340.25
926.553	7322.25
926.786	7325.25
927.02	7258.25
927.253	7303.25
927.486	7318.25
927.72	7247.25
927.953	7271.25
928.186	7098.25
928.42	7181.25
928.653	7044.25
928.886	7078.25
929.119	7109.25
929.352	7056.25
929.585	6958.25
929.818	6880.25
930.051	6860.25
930.284	6837.25
930.516	6689.25
930.749	6670.25
930.982	6712.25
931.215	6654.25
931.447	6614.25
931.68	6585.25
931.912	6492.25
932.145	6571.25
932.377	6527.25
932.61	6690.25
932.842	6479.25
933.074	6540.25
933.307	6482.25
933.539	6536.25
933.771	6573.25
934.003	6522.25
934.236	6580.25
934.468	6565.25
934.7	6422.25
934.932	6503.25
935.164	6358.25
935.395	6395.25
935.627	6392.25
935.859	6372.25
936.091	6214.25
936.323	6287.25
936.554	6276.25
936.786	6211.25
937.017	6195.25
937.249	6187.25
937.481	6064.25
937.712	6137.25
937.943	6137.25
938.175	6084.25
938.406	6015.25
938.637	6188.25
938.869	6004.25
939.1	6120.25
939.331	5984.25
939.562	6020.25
939.793	5987.25
940.024	6022.25
940.255	5994.25
940.486	5945.25
940.717	5855.25
940.948	5846.25
941.179	5785.25
941.409	5807.25
941.64	5790.25
941.871	5782.25
942.102	5795.25
942.332	5784.25
942.563	5841.25
942.793	5817.25
943.024	5767.25
943.254	5764.25
943.484	5736.25
943.715	5781.25
943.945	5761.25
944.175	5649.25
944.405	5640.25
944.636	5697.25
944.866	5694.25
945.096	5692.25
945.326	5585.25
945.556	5676.25
945.786	5629.25
946.016	5611.25
946.245	5497.25
946.475	5466.25
946.705	5493.25
946.935	5420.25
947.164	5417.25
947.394	5309.25
947.624	5326.25
947.853	5326.25
948.083	5367.25
948.312	5223.25
948.542	5194.25
948.771	5197.25
949	5199.25
949.23	5208.25
949.459	5177.25
949.688	5193.25
949.917	5192.25
950.146	5191.25
950.375	5230.25
950.604	5162.25
950.833	5217.25
951.062	5197.25
951.291	5156.25
951.52	5073.25
951.749	5111.25
951.978	5012.25
952.206	5077.25
952.435	5077.25
952.664	5055.25
952.892	5058.25
953.121	4995.25
953.349	5035.25
953.578	4985.25
953.806	4922.25
954.035	4887.25
954.263	4929.25
954.491	4821.25
954.719	4842.25
954.948	4787.25
955.176	4776.25
955.404	4740.25
955.632	4742.25
955.86	4719.25
956.088	4728.25
956.316	4735.25
956.544	4726.25
956.772	4612.25
956.999	4575.25
957.227	4670.25
957.455	4565.25
957.683	4571.25
957.91	4526.25
958.138	4475.25
958.365	4471.25
958.593	4405.25
958.82	4349.25
959.048	4437.25
959.275	4425.25
959.502	4408.25
959.73	4359.25
959.957	4380.25
960.184	4390.25
960.411	4341.25
960.638	4386.25
960.865	4366.25
961.092	4352.25
961.319	4231.25
961.546	4349.25
961.773	4378.25
962	4299.25
962.227	4347.25
962.454	4290.25
962.68	4245.25
962.907	4187.25
963.134	4184.25
963.36	4203.25
963.587	4217.25
963.813	4057.25
964.04	4130.25
964.266	4034.25
964.493	4145.25
964.719	4025.25
964.945	4082.25
965.171	3912.25
965.398	3991.25
965.624	3987.25
965.85	3932.25
966.076	3866.25
966.302	3913.25
966.528	3903.25
966.754	3905.25
966.98	3865.25
967.206	3804.25
967.431	3785.25
967.657	3888.25
967.883	3862.25
968.109	3823.25
968.334	3763.25
968.56	3771.25
968.785	3745.25
969.011	3706.25
969.236	3778.25
969.462	3711.25
969.687	3722.25
969.912	3664.25
970.138	3750.25
970.363	3639.25
970.588	3690.25
970.813	3638.25
971.038	3623.25
971.263	3667.25
971.488	3566.25
971.713	3593.25
971.938	3580.25
972.163	3474.25
972.388	3476.25
972.613	3494.25
972.838	3519.25
973.062	3531.25
973.287	3516.25
973.512	3444.25
973.736	3441.25
973.961	3433.25
974.185	3387.25
974.41	3431.25
974.634	3274.25
974.858	3318.25
975.083	3315.25
975.307	3362.25
975.531	3251.25
975.755	3193.25
975.98	3243.25
976.204	3148.25
976.428	3127.25
976.652	3176.25
976.876	3140.25
977.1	3141.25
977.324	3081.25
977.547	3149.25
977.771	3151.25
977.995	3097.25
978.219	3027.25
978.442	3151.25
978.666	3072.25
978.89	3067.25
979.113	3061.25
979.337	3009.25
979.56	3047.25
979.783	3110.25
980.007	2966.25
980.23	3009.25
980.453	2936.25
980.677	2992.25
980.9	2952.25
981.123	2881.25
981.346	2946.25
981.569	2898.25
981.792	2949.25
982.015	2894.25
982.238	2886.25
982.461	2854.25
982.684	2832.25
982.907	2770.25
983.129	2731.25
983.352	2817.25
983.575	2756.25
983.797	2755.25
984.02	2732.25
984.242	2718.25
984.465	2700.25
984.687	2740.25
984.91	2727.25
985.132	2680.25
985.354	2729.25
985.577	2716.25
985.799	2674.25
986.021	2599.25
986.243	2610.25
986.465	2621.25
986.687	2633.25
986.909	2695.25
987.131	2638.25
987.353	2568.25
987.575	2559.25
987.797	2582.25
988.019	2503.25
988.241	2571.25
988.462	2510.25
988.684	2558.25
988.906	2594.25
989.127	2620.25
989.349	2450.25
989.57	2483.25
989.792	2519.25
990.013	2551.25
990.234	2503.25
990.456	2544.25
990.677	2501.25
990.898	2481.25
991.119	2480.25
991.341	2479.25
991.562	2425.25
991.783	2425.25
992.004	2338.25
992.225	2312.25
992.446	2395.25
992.667	2288.25
992.887	2365.25
993.108	2246.25
993.329	2394.25
993.55	2331.25
993.77	2224.25
993.991	2241.25
994.212	2294.25
994.432	2267.25
994.653	2292.25
994.873	2253.25
995.093	2129.25
995.314	2179.25
995.534	2277.25
995.754	2250.25
995.975	2267.25
996.195	2153.25
996.415	2211.25
996.635	2179.25
996.855	2167.25
997.075	2164.25
997.295	2140.25
997.515	2139.25
997.735	2162.25
997.955	2163.25
998.174	2167.25
998.394	2129.25
998.614	2160.25
998.834	2115.25
999.053	2196.25
999.273	2129.25
999.492	2177.25
999.712	2086.25
999.931	2065.25
1000.151	2084.25
1000.37	2098.25
1000.589	2150.25
1000.809	2038.25
1001.028	2128.25
1001.247	2093.25
1001.466	1951.25
1001.685	2079.25
1001.904	2030.25
1002.123	2045.25
1002.342	2019.25
1002.561	1948.25
1002.78	1981.25
1002.999	2022.25
1003.218	1968.25
1003.436	1945.25
1003.655	1972.25
1003.874	1931.25
1004.092	1941.25
1004.311	1976.25
1004.53	1939.25
1004.748	2009.25
1004.966	1917.25
1005.185	1937.25
1005.403	1968.25
1005.622	1946.25
1005.84	2005.25
1006.058	1908.25
1006.276	1932.25
1006.494	2299.25
1006.712	1918.25
1006.931	1976.25
1007.149	1877.25
1007.367	1901.25
1007.584	1905.25
1007.802	1946.25
1008.02	1903.25
1008.238	1967.25
1008.456	1992.25
1008.673	1829.25
1008.891	1947.25
1009.109	1888.25
1009.326	1945.25
1009.544	2011.25
1009.761	1911.25
1009.979	2061.25
1010.196	2027.25
1010.413	2101.25
1010.631	2159.25
1010.848	2179.25
1011.065	2185.25
1011.282	2117.25
1011.5	2059.25
1011.717	2165.25
1011.934	2113.25
1012.151	2125.25
1012.368	2119.25
1012.585	2033.25
1012.801	2111.25
1013.018	2047.25
1013.235	2001.25
1013.452	2051.25
1013.669	2077.25
1013.885	2044.25
1014.102	2084.25
1014.318	2010.25
1014.535	1999.25
1014.751	2034.25
1014.968	1979.25
1015.184	2029.25
1015.401	1913.25
1015.617	1953.25
1015.833	1901.25
1016.049	1915.25
1016.266	1880.25
1016.482	1859.25
1016.698	1787.25
1016.914	1866.25
1017.13	1812.25
1017.346	1815.25
1017.562	1870.25
1017.778	1768.25
1017.993	1751.25
1018.209	1817.25
1018.425	1773.25
1018.641	1749.25
1018.856	1727.25
1019.072	1746.25
1019.288	1786.25
1019.503	1735.25
1019.719	1637.25
1019.934	1688.25
1020.149	1773.25
1020.365	1664.25
1020.58	1623.25
1020.795	1677.25
1021.011	1591.25
1021.226	1560.25
1021.441	1590.25
1021.656	1529.25
1021.871	1438.25
1022.086	1442.25
1022.301	1427.25
1022.516	1397.25
1022.731	1479.25
1022.946	1363.25
1023.16	1342.25
1023.375	1300.25
1023.59	1311.25
1023.804	1289.25
1024.019	1343.25
1024.234	1239.25
1024.448	1252.25
1024.663	1196.25
1024.877	1216.25
1025.092	1216.25
1025.306	1222.25
1025.52	1122.25
1025.734	1186.25
1025.949	1117.25
1026.163	1102.25
1026.377	1034.25
1026.591	1086.25
1026.805	1000.25
1027.019	1025.25
1027.233	942.25
1027.447	915.25
1027.661	1025.25
1027.875	945.25
1028.088	937.25
1028.302	869.25
1028.516	868.25
1028.73	851.25
1028.943	812.25
1029.157	778.25
1029.37	748.25
1029.584	-2.75
1029.797	-3.75
1030.011	-1.75
1030.224	-2.75
