Data from QEP037381__379__15-06-42-706.txt Node

Date: Fri Apr 28 15:06:42 EDT 2023
User: dcclab
Spectrometer: QEP03738
Trigger mode: 4
Integration Time (sec): 1.000000E1
Scans to average: 1
Electric dark correction enabled: true
Nonlinearity correction enabled: false
Boxcar width: 0
XAxis mode: Wavelengths
Number of Pixels in Spectrum: 1044
>>>>>Begin Spectral Data<<<<<
784.041	15
784.3	-2
784.558	-5
784.817	-7
785.075	63053
785.334	12569
785.592	6480
785.851	4571
786.109	3489
786.368	2725
786.626	2236
786.884	1878
787.143	1553
787.401	1318
787.659	1185
787.917	1000
788.175	941
788.433	826
788.691	740
788.949	702
789.207	670
789.465	569
789.723	574
789.98	517
790.238	560
790.496	539
790.753	494
791.011	549
791.268	489
791.526	474
791.783	504
792.041	495
792.298	410
792.556	469
792.813	450
793.07	431
793.327	412
793.584	495
793.841	419
794.099	441
794.356	488
794.613	406
794.869	448
795.126	391
795.383	394
795.64	418
795.897	366
796.153	426
796.41	401
796.667	394
796.923	401
797.18	404
797.436	433
797.693	381
797.949	445
798.206	463
798.462	372
798.718	421
798.974	400
799.231	448
799.487	446
799.743	438
799.999	464
800.255	474
800.511	436
800.767	500
801.023	479
801.279	492
801.534	538
801.79	582
802.046	594
802.302	744
802.557	828
802.813	1025
803.068	1260
803.324	1772
803.579	2445
803.835	3335
804.09	4567
804.345	5860
804.601	7246
804.856	8493
805.111	9511
805.366	10036
805.621	10499
805.876	10817
806.131	11038
806.386	11229
806.641	11272
806.896	11479
807.151	11660
807.406	11877
807.661	12084
807.915	12252
808.17	12381
808.425	12500
808.679	12528
808.934	12739
809.188	12852
809.443	13052
809.697	13126
809.951	13182
810.206	13314
810.46	13424
810.714	13532
810.968	13656
811.223	13637
811.477	13800
811.731	13863
811.985	13992
812.239	13941
812.493	13957
812.747	14127
813	14072
813.254	14234
813.508	14283
813.762	14343
814.015	14390
814.269	14509
814.522	14553
814.776	14729
815.03	14881
815.283	15103
815.536	15296
815.79	15444
816.043	15736
816.296	15883
816.55	15998
816.803	16175
817.056	16362
817.309	16529
817.562	16678
817.815	16829
818.068	16976
818.321	17122
818.574	17368
818.827	17459
819.079	17710
819.332	18167
819.585	18291
819.838	18529
820.09	18723
820.343	18795
820.595	18807
820.848	19061
821.1	18967
821.353	19075
821.605	18965
821.857	19196
822.11	19001
822.362	18989
822.614	18894
822.866	18866
823.118	19029
823.37	19104
823.622	19098
823.874	19092
824.126	19111
824.378	19247
824.63	19163
824.882	19175
825.134	19275
825.385	19343
825.637	19296
825.888	19156
826.14	19141
826.392	18971
826.643	18829
826.895	18860
827.146	18801
827.397	18738
827.649	18759
827.9	18695
828.151	18620
828.402	18730
828.653	18779
828.905	18865
829.156	18799
829.407	18657
829.658	18738
829.909	18830
830.159	18702
830.41	18619
830.661	18486
830.912	18406
831.162	18317
831.413	18251
831.664	18325
831.914	18376
832.165	18301
832.415	18316
832.666	18253
832.916	18340
833.167	18222
833.417	18176
833.667	18072
833.917	18096
834.168	18098
834.418	17967
834.668	17899
834.918	17786
835.168	17857
835.418	17800
835.668	17757
835.918	17520
836.167	17641
836.417	17511
836.667	17525
836.917	17438
837.166	17359
837.416	17379
837.666	17368
837.915	17319
838.165	17235
838.414	17166
838.663	17048
838.913	17031
839.162	16993
839.411	17096
839.661	17006
839.91	16975
840.159	16857
840.408	16840
840.657	16911
840.906	16876
841.155	16900
841.404	16808
841.653	16777
841.902	16800
842.15	16801
842.399	16873
842.648	16750
842.897	16726
843.145	16580
843.394	16523
843.642	16463
843.891	16419
844.139	16340
844.388	16111
844.636	16203
844.884	16144
845.133	16146
845.381	16073
845.629	16121
845.877	16015
846.125	16024
846.373	15917
846.621	15950
846.869	15920
847.117	15804
847.365	15709
847.613	15687
847.861	15560
848.108	15606
848.356	15463
848.604	15435
848.851	15499
849.099	15493
849.346	15562
849.594	15628
849.841	15581
850.089	15633
850.336	15659
850.583	15615
850.831	15515
851.078	15467
851.325	15326
851.572	15330
851.819	15171
852.066	14951
852.313	14766
852.56	14696
852.807	14552
853.054	14537
853.301	14513
853.548	14542
853.794	14732
854.041	14708
854.288	14865
854.534	15003
854.781	14831
855.028	14795
855.274	14803
855.52	14681
855.767	14588
856.013	14522
856.26	14759
856.506	14292
856.752	14402
856.998	14325
857.244	14305
857.49	14462
857.736	14428
857.982	14376
858.228	14375
858.474	14318
858.72	14255
858.966	14154
859.212	14056
859.458	13902
859.703	13792
859.949	13552
860.195	13513
860.44	13394
860.686	13260
860.931	13334
861.177	13181
861.422	13317
861.667	13212
861.913	13195
862.158	13215
862.403	13320
862.648	13330
862.893	13415
863.138	13335
863.384	13207
863.629	13213
863.873	13072
864.118	13090
864.363	12891
864.608	12947
864.853	12840
865.098	12787
865.342	12697
865.587	12801
865.832	12669
866.076	12675
866.321	12629
866.565	12605
866.81	12487
867.054	12496
867.298	12487
867.543	12441
867.787	12473
868.031	12410
868.275	12389
868.519	12346
868.764	12275
869.008	12318
869.252	12339
869.496	12209
869.739	12065
869.983	12188
870.227	12153
870.471	12060
870.715	12148
870.958	12153
871.202	12085
871.446	12130
871.689	12155
871.933	12077
872.176	12192
872.42	12139
872.663	12116
872.906	12025
873.15	11985
873.393	11870
873.636	11806
873.879	11739
874.122	11652
874.366	11456
874.609	11554
874.852	11412
875.095	11398
875.337	11253
875.58	11120
875.823	11159
876.066	11239
876.309	11155
876.551	11038
876.794	10982
877.037	11065
877.279	10974
877.522	10969
877.764	11055
878.007	10984
878.249	11006
878.491	10959
878.734	11000
878.976	10987
879.218	10820
879.46	10743
879.702	10758
879.945	10644
880.187	10489
880.429	10518
880.671	10436
880.912	10371
881.154	10336
881.396	10263
881.638	10324
881.88	10227
882.121	10296
882.363	10259
882.605	10301
882.846	10202
883.088	10113
883.329	10043
883.571	10027
883.812	10153
884.053	10066
884.295	10265
884.536	10349
884.777	10305
885.018	10190
885.259	10138
885.5	10075
885.742	10275
885.982	10056
886.223	9986
886.464	9956
886.705	9816
886.946	9874
887.187	9723
887.428	9692
887.668	9602
887.909	9448
888.15	9399
888.39	9372
888.631	9342
888.871	9316
889.111	9211
889.352	9130
889.592	8991
889.833	9019
890.073	8920
890.313	8943
890.553	8774
890.793	8760
891.033	8769
891.273	8712
891.513	8657
891.753	8805
891.993	8683
892.233	8686
892.473	8785
892.713	8712
892.952	8696
893.192	8685
893.432	8616
893.671	8633
893.911	8505
894.15	8554
894.39	8389
894.629	8410
894.869	8355
895.108	8257
895.347	8212
895.587	8231
895.826	8178
896.065	8146
896.304	8150
896.543	8174
896.782	8063
897.021	8078
897.26	8068
897.499	8043
897.738	8081
897.977	7987
898.216	7878
898.454	7823
898.693	7745
898.932	7763
899.17	7698
899.409	7715
899.647	7659
899.886	7672
900.124	7685
900.363	7564
900.601	7615
900.839	7612
901.078	7691
901.316	7646
901.554	7645
901.792	7634
902.03	7546
902.268	7620
902.506	7621
902.744	7518
902.982	7535
903.22	7366
903.458	7409
903.695	7314
903.933	7185
904.171	7094
904.409	6986
904.646	6968
904.884	6852
905.121	6879
905.359	6740
905.596	6682
905.833	6685
906.071	6622
906.308	6669
906.545	6673
906.783	6626
907.02	6591
907.257	6546
907.494	6538
907.731	6623
907.968	6526
908.205	6467
908.442	6387
908.679	6403
908.915	6323
909.152	6346
909.389	6189
909.626	6205
909.862	6144
910.099	6121
910.335	6126
910.572	6033
910.808	6079
911.045	6017
911.281	5969
911.518	6081
911.754	5960
911.99	5969
912.226	5926
912.463	5880
912.699	5803
912.935	5796
913.171	5723
913.407	5659
913.643	5688
913.879	5607
914.114	5570
914.35	5474
914.586	5464
914.822	5386
915.057	5422
915.293	5285
915.529	5219
915.764	5418
916	5298
916.235	5303
916.471	5251
916.706	5152
916.941	5248
917.177	5233
917.412	5271
917.647	5244
917.882	5178
918.117	5215
918.352	5184
918.588	5237
918.823	5103
919.057	5063
919.292	4955
919.527	5029
919.762	4929
919.997	4879
920.232	4824
920.466	4824
920.701	4675
920.935	4734
921.17	4680
921.405	4610
921.639	4638
921.873	4655
922.108	4634
922.342	4565
922.576	4557
922.811	4530
923.045	4586
923.279	4612
923.513	4409
923.747	4525
923.981	4476
924.215	4431
924.449	4396
924.683	4301
924.917	4313
925.151	4303
925.385	4350
925.618	4292
925.852	4274
926.086	4238
926.319	4277
926.553	4261
926.786	4245
927.02	4216
927.253	4260
927.486	4234
927.72	4185
927.953	4257
928.186	4175
928.42	4211
928.653	4128
928.886	4109
929.119	4101
929.352	4099
929.585	4077
929.818	4020
930.051	4021
930.284	3983
930.516	3887
930.749	3919
930.982	3915
931.215	3874
931.447	3785
931.68	3817
931.912	3772
932.145	3790
932.377	3832
932.61	3916
932.842	3800
933.074	3824
933.307	3802
933.539	3893
933.771	3832
934.003	3782
934.236	3908
934.468	3843
934.7	3780
934.932	3820
935.164	3759
935.395	3725
935.627	3720
935.859	3723
936.091	3654
936.323	3704
936.554	3757
936.786	3648
937.017	3621
937.249	3654
937.481	3560
937.712	3672
937.943	3598
938.175	3570
938.406	3593
938.637	3650
938.869	3536
939.1	3629
939.331	3536
939.562	3590
939.793	3590
940.024	3561
940.255	3559
940.486	3507
940.717	3485
940.948	3459
941.179	3416
941.409	3419
941.64	3415
941.871	3422
942.102	3408
942.332	3427
942.563	3449
942.793	3437
943.024	3374
943.254	3406
943.484	3469
943.715	3463
943.945	3418
944.175	3348
944.405	3363
944.636	3334
944.866	3342
945.096	3348
945.326	3331
945.556	3371
945.786	3343
946.016	3282
946.245	3230
946.475	3250
946.705	3220
946.935	3239
947.164	3234
947.394	3181
947.624	3202
947.853	3212
948.083	3150
948.312	3117
948.542	3092
948.771	3039
949	3098
949.23	3098
949.459	3066
949.688	3113
949.917	3138
950.146	3089
950.375	3150
950.604	3052
950.833	3111
951.062	3126
951.291	3102
951.52	3045
951.749	3022
951.978	3003
952.206	3011
952.435	2998
952.664	3044
952.892	3067
953.121	2978
953.349	3017
953.578	3007
953.806	2940
954.035	2895
954.263	2871
954.491	2880
954.719	2925
954.948	2889
955.176	2854
955.404	2781
955.632	2858
955.86	2879
956.088	2830
956.316	2853
956.544	2855
956.772	2807
956.999	2774
957.227	2819
957.455	2717
957.683	2726
957.91	2752
958.138	2696
958.365	2706
958.593	2705
958.82	2654
959.048	2697
959.275	2660
959.502	2641
959.73	2615
959.957	2682
960.184	2707
960.411	2574
960.638	2707
960.865	2616
961.092	2666
961.319	2568
961.546	2649
961.773	2641
962	2585
962.227	2646
962.454	2594
962.68	2578
962.907	2591
963.134	2542
963.36	2565
963.587	2540
963.813	2514
964.04	2524
964.266	2442
964.493	2573
964.719	2524
964.945	2502
965.171	2448
965.398	2435
965.624	2456
965.85	2371
966.076	2394
966.302	2446
966.528	2389
966.754	2443
966.98	2401
967.206	2379
967.431	2340
967.657	2398
967.883	2370
968.109	2375
968.334	2318
968.56	2294
968.785	2314
969.011	2274
969.236	2359
969.462	2288
969.687	2274
969.912	2326
970.138	2360
970.363	2246
970.588	2293
970.813	2266
971.038	2221
971.263	2236
971.488	2254
971.713	2268
971.938	2281
972.163	2180
972.388	2217
972.613	2174
972.838	2168
973.062	2148
973.287	2156
973.512	2088
973.736	2148
973.961	2164
974.185	2095
974.41	2113
974.634	2048
974.858	2055
975.083	2089
975.307	2119
975.531	2038
975.755	1987
975.98	2025
976.204	1966
976.428	1998
976.652	1959
976.876	1937
977.1	1989
977.324	1946
977.547	1973
977.771	1994
977.995	1958
978.219	1894
978.442	2025
978.666	1949
978.89	1937
979.113	1949
979.337	1898
979.56	1882
979.783	1992
980.007	1858
980.23	1907
980.453	1854
980.677	1898
980.9	1908
981.123	1781
981.346	1867
981.569	1844
981.792	1880
982.015	1827
982.238	1810
982.461	1837
982.684	1799
982.907	1739
983.129	1751
983.352	1827
983.575	1786
983.797	1761
984.02	1745
984.242	1714
984.465	1739
984.687	1761
984.91	1792
985.132	1768
985.354	1763
985.577	1767
985.799	1733
986.021	1620
986.243	1681
986.465	1686
986.687	1733
986.909	1767
987.131	1689
987.353	1669
987.575	1681
987.797	1688
988.019	1623
988.241	1657
988.462	1612
988.684	1700
988.906	1720
989.127	1717
989.349	1594
989.57	1636
989.792	1653
990.013	1677
990.234	1659
990.456	1727
990.677	1680
990.898	1597
991.119	1596
991.341	1635
991.562	1550
991.783	1636
992.004	1534
992.225	1534
992.446	1588
992.667	1501
992.887	1596
993.108	1490
993.329	1624
993.55	1562
993.77	1480
993.991	1501
994.212	1532
994.432	1512
994.653	1523
994.873	1521
995.093	1385
995.314	1424
995.534	1530
995.754	1539
995.975	1565
996.195	1445
996.415	1507
996.635	1473
996.855	1489
997.075	1460
997.295	1430
997.515	1415
997.735	1473
997.955	1458
998.174	1412
998.394	1429
998.614	1451
998.834	1416
999.053	1491
999.273	1434
999.492	1510
999.712	1419
999.931	1405
1000.151	1448
1000.37	1435
1000.589	1496
1000.809	1433
1001.028	1524
1001.247	1459
1001.466	1372
1001.685	1486
1001.904	1442
1002.123	1423
1002.342	1411
1002.561	1395
1002.78	1410
1002.999	1457
1003.218	1404
1003.436	1375
1003.655	1430
1003.874	1391
1004.092	1402
1004.311	1421
1004.53	1380
1004.748	1473
1004.966	1399
1005.185	1441
1005.403	1412
1005.622	1385
1005.84	1439
1006.058	1359
1006.276	1374
1006.494	1747
1006.712	1377
1006.931	1480
1007.149	1340
1007.367	1360
1007.584	1386
1007.802	1403
1008.02	1346
1008.238	1453
1008.456	1431
1008.673	1277
1008.891	1403
1009.109	1354
1009.326	1387
1009.544	1468
1009.761	1361
1009.979	1430
1010.196	1410
1010.413	1484
1010.631	1489
1010.848	1530
1011.065	1514
1011.282	1454
1011.5	1404
1011.717	1507
1011.934	1426
1012.151	1468
1012.368	1446
1012.585	1402
1012.801	1451
1013.018	1408
1013.235	1384
1013.452	1396
1013.669	1430
1013.885	1383
1014.102	1412
1014.318	1369
1014.535	1359
1014.751	1384
1014.968	1353
1015.184	1423
1015.401	1323
1015.617	1356
1015.833	1311
1016.049	1317
1016.266	1289
1016.482	1311
1016.698	1252
1016.914	1303
1017.13	1235
1017.346	1257
1017.562	1296
1017.778	1223
1017.993	1196
1018.209	1276
1018.425	1202
1018.641	1211
1018.856	1148
1019.072	1193
1019.288	1258
1019.503	1186
1019.719	1109
1019.934	1136
1020.149	1191
1020.365	1157
1020.58	1115
1020.795	1169
1021.011	1099
1021.226	1108
1021.441	1122
1021.656	1062
1021.871	1016
1022.086	996
1022.301	996
1022.516	1020
1022.731	1058
1022.946	983
1023.16	957
1023.375	936
1023.59	923
1023.804	892
1024.019	994
1024.234	875
1024.448	939
1024.663	856
1024.877	864
1025.092	893
1025.306	915
1025.52	801
1025.734	885
1025.949	824
1026.163	816
1026.377	754
1026.591	805
1026.805	731
1027.019	731
1027.233	687
1027.447	651
1027.661	756
1027.875	701
1028.088	712
1028.302	631
1028.516	624
1028.73	626
1028.943	633
1029.157	585
1029.37	553
1029.584	2
1029.797	-1
1030.011	1
1030.224	-3
