Data from QEP037381__358__15-03-12-715.txt Node

Date: Fri Apr 28 15:03:12 EDT 2023
User: dcclab
Spectrometer: QEP03738
Trigger mode: 4
Integration Time (sec): 1.000000E1
Scans to average: 1
Electric dark correction enabled: true
Nonlinearity correction enabled: false
Boxcar width: 0
XAxis mode: Wavelengths
Number of Pixels in Spectrum: 1044
>>>>>Begin Spectral Data<<<<<
784.041	12.5
784.3	0.5
784.558	-4.5
784.817	-4.5
785.075	62374.5
785.334	12433.5
785.592	6583.5
785.851	4649.5
786.109	3509.5
786.368	2754.5
786.626	2252.5
786.884	1833.5
787.143	1602.5
787.401	1306.5
787.659	1191.5
787.917	1020.5
788.175	958.5
788.433	840.5
788.691	770.5
788.949	711.5
789.207	704.5
789.465	599.5
789.723	609.5
789.98	546.5
790.238	585.5
790.496	550.5
790.753	516.5
791.011	581.5
791.268	510.5
791.526	514.5
791.783	532.5
792.041	509.5
792.298	414.5
792.556	501.5
792.813	486.5
793.07	458.5
793.327	458.5
793.584	528.5
793.841	444.5
794.099	457.5
794.356	516.5
794.613	430.5
794.869	463.5
795.126	430.5
795.383	418.5
795.64	444.5
795.897	383.5
796.153	452.5
796.41	430.5
796.667	419.5
796.923	424.5
797.18	444.5
797.436	477.5
797.693	424.5
797.949	470.5
798.206	509.5
798.462	418.5
798.718	481.5
798.974	458.5
799.231	506.5
799.487	499.5
799.743	521.5
799.999	536.5
800.255	539.5
800.511	514.5
800.767	557.5
801.023	568.5
801.279	629.5
801.534	654.5
801.79	735.5
802.046	787.5
802.302	998.5
802.557	1168.5
802.813	1506.5
803.068	1987.5
803.324	2830.5
803.579	4041.5
803.835	5650.5
804.09	7719.5
804.345	9932.5
804.601	12286.5
804.856	14255.5
805.111	15759.5
805.366	16889.5
805.621	17629.5
805.876	18143.5
806.131	18503.5
806.386	18701.5
806.641	19091.5
806.896	19305.5
807.151	19620.5
807.406	19947.5
807.661	20207.5
807.915	20572.5
808.17	20809.5
808.425	21174.5
808.679	21259.5
808.934	21453.5
809.188	21706.5
809.443	22051.5
809.697	22270.5
809.951	22390.5
810.206	22564.5
810.46	22738.5
810.714	22820.5
810.968	23051.5
811.223	23244.5
811.477	23401.5
811.731	23582.5
811.985	23637.5
812.239	23729.5
812.493	23897.5
812.747	23971.5
813	24035.5
813.254	24065.5
813.508	24335.5
813.762	24370.5
814.015	24300.5
814.269	24519.5
814.522	24906.5
814.776	25049.5
815.03	25369.5
815.283	25669.5
815.536	26073.5
815.79	26335.5
816.043	26627.5
816.296	26975.5
816.55	27330.5
816.803	27572.5
817.056	28029.5
817.309	28163.5
817.562	28325.5
817.815	28690.5
818.068	28905.5
818.321	29276.5
818.574	29615.5
818.827	30092.5
819.079	30397.5
819.332	31012.5
819.585	31193.5
819.838	31691.5
820.09	31809.5
820.343	32015.5
820.595	32170.5
820.848	32374.5
821.1	32488.5
821.353	32480.5
821.605	32462.5
821.857	32535.5
822.11	32202.5
822.362	32322.5
822.614	32038.5
822.866	32275.5
823.118	32168.5
823.37	32289.5
823.622	32444.5
823.874	32559.5
824.126	32606.5
824.378	32667.5
824.63	32785.5
824.882	32892.5
825.134	32747.5
825.385	32811.5
825.637	32766.5
825.888	32698.5
826.14	32367.5
826.392	32382.5
826.643	32287.5
826.895	32043.5
827.146	32132.5
827.397	31920.5
827.649	31930.5
827.9	31986.5
828.151	31808.5
828.402	31739.5
828.653	32121.5
828.905	32090.5
829.156	32303.5
829.407	32016.5
829.658	32059.5
829.909	31961.5
830.159	31879.5
830.41	31722.5
830.661	31576.5
830.912	31321.5
831.162	31284.5
831.413	31182.5
831.664	31164.5
831.914	31253.5
832.165	31230.5
832.415	31168.5
832.666	31193.5
832.916	31102.5
833.167	31126.5
833.417	31047.5
833.667	30874.5
833.917	30702.5
834.168	30699.5
834.418	30709.5
834.668	30452.5
834.918	30317.5
835.168	30220.5
835.418	30085.5
835.668	30130.5
835.918	29952.5
836.167	29850.5
836.417	29886.5
836.667	29764.5
836.917	29707.5
837.166	29568.5
837.416	29553.5
837.666	29603.5
837.915	29473.5
838.165	29357.5
838.414	29255.5
838.663	29247.5
838.913	29150.5
839.162	29053.5
839.411	28992.5
839.661	28838.5
839.91	28836.5
840.159	28833.5
840.408	28769.5
840.657	28787.5
840.906	28635.5
841.155	28693.5
841.404	28654.5
841.653	28737.5
841.902	28630.5
842.15	28750.5
842.399	28691.5
842.648	28571.5
842.897	28505.5
843.145	28366.5
843.394	28103.5
843.642	27967.5
843.891	27920.5
844.139	27697.5
844.388	27700.5
844.636	27443.5
844.884	27465.5
845.133	27358.5
845.381	27416.5
845.629	27378.5
845.877	27376.5
846.125	27214.5
846.373	27171.5
846.621	27052.5
846.869	27057.5
847.117	26879.5
847.365	26717.5
847.613	26729.5
847.861	26542.5
848.108	26427.5
848.356	26340.5
848.604	26304.5
848.851	26349.5
849.099	26478.5
849.346	26400.5
849.594	26503.5
849.841	26641.5
850.089	26564.5
850.336	26474.5
850.583	26541.5
850.831	26332.5
851.078	26213.5
851.325	26133.5
851.572	25968.5
851.819	25715.5
852.066	25325.5
852.313	25071.5
852.56	24904.5
852.807	24811.5
853.054	24783.5
853.301	24727.5
853.548	24706.5
853.794	24903.5
854.041	24931.5
854.288	24937.5
854.534	25200.5
854.781	25118.5
855.028	25002.5
855.274	24968.5
855.52	24840.5
855.767	24548.5
856.013	24696.5
856.26	24816.5
856.506	24458.5
856.752	24360.5
856.998	24319.5
857.244	24368.5
857.49	24471.5
857.736	24518.5
857.982	24455.5
858.228	24434.5
858.474	24315.5
858.72	24061.5
858.966	23884.5
859.212	23676.5
859.458	23435.5
859.703	23286.5
859.949	22905.5
860.195	22967.5
860.44	22627.5
860.686	22580.5
860.931	22640.5
861.177	22478.5
861.422	22476.5
861.667	22331.5
861.913	22424.5
862.158	22460.5
862.403	22574.5
862.648	22565.5
862.893	22591.5
863.138	22428.5
863.384	22375.5
863.629	22425.5
863.873	22294.5
864.118	22130.5
864.363	21966.5
864.608	21844.5
864.853	21796.5
865.098	21575.5
865.342	21535.5
865.587	21409.5
865.832	21491.5
866.076	21339.5
866.321	21336.5
866.565	21246.5
866.81	21065.5
867.054	21034.5
867.298	21138.5
867.543	20987.5
867.787	20976.5
868.031	20918.5
868.275	20907.5
868.519	20855.5
868.764	20878.5
869.008	20795.5
869.252	20684.5
869.496	20558.5
869.739	20573.5
869.983	20619.5
870.227	20571.5
870.471	20530.5
870.715	20520.5
870.958	20713.5
871.202	20640.5
871.446	20562.5
871.689	20515.5
871.933	20538.5
872.176	20558.5
872.42	20475.5
872.663	20477.5
872.906	20365.5
873.15	20292.5
873.393	20086.5
873.636	19982.5
873.879	19802.5
874.122	19703.5
874.366	19454.5
874.609	19296.5
874.852	19089.5
875.095	19087.5
875.337	19003.5
875.58	18898.5
875.823	18860.5
876.066	18763.5
876.309	18871.5
876.551	18711.5
876.794	18631.5
877.037	18539.5
877.279	18552.5
877.522	18560.5
877.764	18640.5
878.007	18504.5
878.249	18454.5
878.491	18422.5
878.734	18481.5
878.976	18467.5
879.218	18214.5
879.46	18207.5
879.702	17940.5
879.945	17902.5
880.187	17529.5
880.429	17639.5
880.671	17461.5
880.912	17398.5
881.154	17388.5
881.396	17281.5
881.638	17322.5
881.88	17417.5
882.121	17223.5
882.363	17218.5
882.605	17260.5
882.846	17200.5
883.088	17117.5
883.329	17002.5
883.571	16979.5
883.812	17075.5
884.053	17215.5
884.295	17334.5
884.536	17480.5
884.777	17218.5
885.018	17191.5
885.259	17139.5
885.5	17108.5
885.742	17293.5
885.982	17016.5
886.223	16904.5
886.464	16859.5
886.705	16657.5
886.946	16615.5
887.187	16403.5
887.428	16302.5
887.668	16009.5
887.909	15942.5
888.15	15774.5
888.39	15696.5
888.631	15631.5
888.871	15534.5
889.111	15386.5
889.352	15374.5
889.592	15143.5
889.833	15079.5
890.073	15040.5
890.313	14973.5
890.553	14748.5
890.793	14679.5
891.033	14600.5
891.273	14552.5
891.513	14514.5
891.753	14443.5
891.993	14469.5
892.233	14463.5
892.473	14563.5
892.713	14472.5
892.952	14518.5
893.192	14512.5
893.432	14508.5
893.671	14449.5
893.911	14334.5
894.15	14199.5
894.39	14061.5
894.629	13927.5
894.869	13909.5
895.108	13815.5
895.347	13778.5
895.587	13737.5
895.826	13652.5
896.065	13610.5
896.304	13645.5
896.543	13527.5
896.782	13378.5
897.021	13485.5
897.26	13415.5
897.499	13352.5
897.738	13362.5
897.977	13253.5
898.216	13169.5
898.454	13033.5
898.693	12929.5
898.932	12927.5
899.17	12806.5
899.409	12733.5
899.647	12736.5
899.886	12722.5
900.124	12737.5
900.363	12732.5
900.601	12742.5
900.839	12682.5
901.078	12797.5
901.316	12750.5
901.554	12756.5
901.792	12695.5
902.03	12688.5
902.268	12687.5
902.506	12631.5
902.744	12631.5
902.982	12565.5
903.22	12360.5
903.458	12269.5
903.695	12160.5
903.933	12022.5
904.171	11839.5
904.409	11611.5
904.646	11582.5
904.884	11373.5
905.121	11384.5
905.359	11206.5
905.596	11229.5
905.833	11022.5
906.071	10904.5
906.308	11014.5
906.545	10986.5
906.783	10823.5
907.02	10898.5
907.257	10856.5
907.494	10902.5
907.731	10805.5
907.968	10783.5
908.205	10667.5
908.442	10651.5
908.679	10549.5
908.915	10474.5
909.152	10436.5
909.389	10288.5
909.626	10212.5
909.862	10191.5
910.099	10221.5
910.335	10090.5
910.572	10010.5
910.808	10039.5
911.045	9942.5
911.281	9925.5
911.518	9959.5
911.754	9885.5
911.99	9829.5
912.226	9683.5
912.463	9655.5
912.699	9543.5
912.935	9510.5
913.171	9388.5
913.407	9305.5
913.643	9313.5
913.879	9204.5
914.114	9144.5
914.35	9004.5
914.586	9004.5
914.822	8862.5
915.057	8792.5
915.293	8689.5
915.529	8698.5
915.764	8741.5
916	8682.5
916.235	8619.5
916.471	8660.5
916.706	8572.5
916.941	8566.5
917.177	8536.5
917.412	8594.5
917.647	8523.5
917.882	8508.5
918.117	8560.5
918.352	8516.5
918.588	8484.5
918.823	8361.5
919.057	8256.5
919.292	8107.5
919.527	8130.5
919.762	7985.5
919.997	8029.5
920.232	7901.5
920.466	7808.5
920.701	7681.5
920.935	7651.5
921.17	7666.5
921.405	7540.5
921.639	7586.5
921.873	7532.5
922.108	7506.5
922.342	7502.5
922.576	7494.5
922.811	7416.5
923.045	7407.5
923.279	7476.5
923.513	7286.5
923.747	7380.5
923.981	7266.5
924.215	7261.5
924.449	7147.5
924.683	7082.5
924.917	6992.5
925.151	7029.5
925.385	7086.5
925.618	7007.5
925.852	7004.5
926.086	6893.5
926.319	6930.5
926.553	6941.5
926.786	6919.5
927.02	6876.5
927.253	6889.5
927.486	6831.5
927.72	6831.5
927.953	6838.5
928.186	6777.5
928.42	6830.5
928.653	6709.5
928.886	6675.5
929.119	6697.5
929.352	6634.5
929.585	6647.5
929.818	6505.5
930.051	6504.5
930.284	6415.5
930.516	6282.5
930.749	6305.5
930.982	6317.5
931.215	6315.5
931.447	6196.5
931.68	6256.5
931.912	6168.5
932.145	6207.5
932.377	6169.5
932.61	6308.5
932.842	6177.5
933.074	6201.5
933.307	6102.5
933.539	6207.5
933.771	6194.5
934.003	6152.5
934.236	6252.5
934.468	6195.5
934.7	6118.5
934.932	6168.5
935.164	6084.5
935.395	6014.5
935.627	6020.5
935.859	6008.5
936.091	5919.5
936.323	5962.5
936.554	6010.5
936.786	5910.5
937.017	5847.5
937.249	5908.5
937.481	5799.5
937.712	5861.5
937.943	5829.5
938.175	5743.5
938.406	5727.5
938.637	5893.5
938.869	5730.5
939.1	5802.5
939.331	5736.5
939.562	5739.5
939.793	5717.5
940.024	5731.5
940.255	5683.5
940.486	5608.5
940.717	5608.5
940.948	5552.5
941.179	5505.5
941.409	5558.5
941.64	5526.5
941.871	5509.5
942.102	5467.5
942.332	5492.5
942.563	5553.5
942.793	5552.5
943.024	5461.5
943.254	5471.5
943.484	5489.5
943.715	5514.5
943.945	5471.5
944.175	5381.5
944.405	5364.5
944.636	5383.5
944.866	5380.5
945.096	5405.5
945.326	5322.5
945.556	5395.5
945.786	5384.5
946.016	5353.5
946.245	5192.5
946.475	5172.5
946.705	5152.5
946.935	5137.5
947.164	5144.5
947.394	5078.5
947.624	5102.5
947.853	5103.5
948.083	5056.5
948.312	5001.5
948.542	4934.5
948.771	4966.5
949	4899.5
949.23	4975.5
949.459	4952.5
949.688	5019.5
949.917	4921.5
950.146	4949.5
950.375	4976.5
950.604	4880.5
950.833	4961.5
951.062	4957.5
951.291	4873.5
951.52	4849.5
951.749	4858.5
951.978	4803.5
952.206	4780.5
952.435	4777.5
952.664	4811.5
952.892	4806.5
953.121	4781.5
953.349	4741.5
953.578	4757.5
953.806	4694.5
954.035	4640.5
954.263	4660.5
954.491	4606.5
954.719	4601.5
954.948	4549.5
955.176	4528.5
955.404	4480.5
955.632	4509.5
955.86	4512.5
956.088	4519.5
956.316	4488.5
956.544	4503.5
956.772	4419.5
956.999	4376.5
957.227	4380.5
957.455	4305.5
957.683	4328.5
957.91	4268.5
958.138	4232.5
958.365	4230.5
958.593	4260.5
958.82	4185.5
959.048	4268.5
959.275	4192.5
959.502	4173.5
959.73	4140.5
959.957	4196.5
960.184	4263.5
960.411	4104.5
960.638	4175.5
960.865	4178.5
961.092	4129.5
961.319	4032.5
961.546	4140.5
961.773	4125.5
962	4080.5
962.227	4122.5
962.454	4081.5
962.68	4072.5
962.907	3994.5
963.134	4016.5
963.36	3975.5
963.587	3978.5
963.813	3918.5
964.04	3962.5
964.266	3899.5
964.493	3964.5
964.719	3884.5
964.945	3866.5
965.171	3795.5
965.398	3786.5
965.624	3794.5
965.85	3770.5
966.076	3732.5
966.302	3764.5
966.528	3740.5
966.754	3765.5
966.98	3677.5
967.206	3665.5
967.431	3651.5
967.657	3660.5
967.883	3679.5
968.109	3653.5
968.334	3638.5
968.56	3595.5
968.785	3572.5
969.011	3527.5
969.236	3606.5
969.462	3560.5
969.687	3548.5
969.912	3561.5
970.138	3593.5
970.363	3513.5
970.588	3520.5
970.813	3449.5
971.038	3437.5
971.263	3494.5
971.488	3464.5
971.713	3492.5
971.938	3448.5
972.163	3353.5
972.388	3358.5
972.613	3313.5
972.838	3360.5
973.062	3333.5
973.287	3356.5
973.512	3265.5
973.736	3293.5
973.961	3259.5
974.185	3241.5
974.41	3247.5
974.634	3152.5
974.858	3111.5
975.083	3183.5
975.307	3227.5
975.531	3099.5
975.755	3039.5
975.98	3083.5
976.204	3017.5
976.428	3024.5
976.652	3011.5
976.876	3030.5
977.1	3000.5
977.324	2979.5
977.547	3009.5
977.771	2992.5
977.995	2982.5
978.219	2907.5
978.442	3034.5
978.666	2969.5
978.89	2925.5
979.113	2949.5
979.337	2909.5
979.56	2880.5
979.783	2944.5
980.007	2849.5
980.23	2901.5
980.453	2877.5
980.677	2857.5
980.9	2828.5
981.123	2753.5
981.346	2803.5
981.569	2835.5
981.792	2793.5
982.015	2750.5
982.238	2708.5
982.461	2739.5
982.684	2691.5
982.907	2670.5
983.129	2659.5
983.352	2681.5
983.575	2646.5
983.797	2650.5
984.02	2655.5
984.242	2608.5
984.465	2596.5
984.687	2647.5
984.91	2642.5
985.132	2589.5
985.354	2619.5
985.577	2564.5
985.799	2564.5
986.021	2476.5
986.243	2461.5
986.465	2487.5
986.687	2541.5
986.909	2590.5
987.131	2472.5
987.353	2476.5
987.575	2514.5
987.797	2470.5
988.019	2368.5
988.241	2456.5
988.462	2419.5
988.684	2423.5
988.906	2469.5
989.127	2484.5
989.349	2366.5
989.57	2408.5
989.792	2458.5
990.013	2455.5
990.234	2428.5
990.456	2479.5
990.677	2408.5
990.898	2389.5
991.119	2342.5
991.341	2384.5
991.562	2345.5
991.783	2353.5
992.004	2270.5
992.225	2238.5
992.446	2305.5
992.667	2203.5
992.887	2262.5
993.108	2181.5
993.329	2293.5
993.55	2226.5
993.77	2157.5
993.991	2174.5
994.212	2218.5
994.432	2171.5
994.653	2180.5
994.873	2151.5
995.093	2091.5
995.314	2135.5
995.534	2171.5
995.754	2160.5
995.975	2158.5
996.195	2093.5
996.415	2129.5
996.635	2084.5
996.855	2113.5
997.075	2065.5
997.295	2079.5
997.515	2046.5
997.735	2121.5
997.955	2073.5
998.174	2064.5
998.394	2054.5
998.614	2068.5
998.834	1988.5
999.053	2081.5
999.273	2034.5
999.492	2102.5
999.712	2029.5
999.931	2013.5
1000.151	2042.5
1000.37	2008.5
1000.589	2041.5
1000.809	1979.5
1001.028	2103.5
1001.247	1999.5
1001.466	1902.5
1001.685	2042.5
1001.904	1978.5
1002.123	1954.5
1002.342	1976.5
1002.561	1920.5
1002.78	1923.5
1002.999	1947.5
1003.218	1924.5
1003.436	1859.5
1003.655	1936.5
1003.874	1871.5
1004.092	1878.5
1004.311	1893.5
1004.53	1881.5
1004.748	1965.5
1004.966	1849.5
1005.185	1924.5
1005.403	1906.5
1005.622	1865.5
1005.84	1963.5
1006.058	1847.5
1006.276	1851.5
1006.494	2251.5
1006.712	1841.5
1006.931	1922.5
1007.149	1819.5
1007.367	1827.5
1007.584	1852.5
1007.802	1874.5
1008.02	1828.5
1008.238	1905.5
1008.456	1917.5
1008.673	1796.5
1008.891	1864.5
1009.109	1846.5
1009.326	1902.5
1009.544	1958.5
1009.761	1870.5
1009.979	1945.5
1010.196	1967.5
1010.413	2052.5
1010.631	2069.5
1010.848	2106.5
1011.065	2105.5
1011.282	2036.5
1011.5	1964.5
1011.717	2064.5
1011.934	2005.5
1012.151	2059.5
1012.368	2039.5
1012.585	1960.5
1012.801	2039.5
1013.018	1980.5
1013.235	1936.5
1013.452	1955.5
1013.669	1978.5
1013.885	1954.5
1014.102	1995.5
1014.318	1955.5
1014.535	1922.5
1014.751	1963.5
1014.968	1938.5
1015.184	1930.5
1015.401	1866.5
1015.617	1908.5
1015.833	1814.5
1016.049	1827.5
1016.266	1789.5
1016.482	1793.5
1016.698	1719.5
1016.914	1814.5
1017.13	1697.5
1017.346	1736.5
1017.562	1792.5
1017.778	1723.5
1017.993	1687.5
1018.209	1739.5
1018.425	1729.5
1018.641	1679.5
1018.856	1667.5
1019.072	1690.5
1019.288	1715.5
1019.503	1700.5
1019.719	1600.5
1019.934	1618.5
1020.149	1690.5
1020.365	1645.5
1020.58	1550.5
1020.795	1601.5
1021.011	1531.5
1021.226	1517.5
1021.441	1520.5
1021.656	1446.5
1021.871	1377.5
1022.086	1394.5
1022.301	1363.5
1022.516	1362.5
1022.731	1429.5
1022.946	1322.5
1023.16	1299.5
1023.375	1269.5
1023.59	1269.5
1023.804	1205.5
1024.019	1301.5
1024.234	1199.5
1024.448	1220.5
1024.663	1120.5
1024.877	1168.5
1025.092	1196.5
1025.306	1175.5
1025.52	1080.5
1025.734	1177.5
1025.949	1080.5
1026.163	1057.5
1026.377	994.5
1026.591	1065.5
1026.805	962.5
1027.019	959.5
1027.233	929.5
1027.447	850.5
1027.661	949.5
1027.875	915.5
1028.088	896.5
1028.302	829.5
1028.516	818.5
1028.73	812.5
1028.943	793.5
1029.157	734.5
1029.37	719.5
1029.584	-1.5
1029.797	-1.5
1030.011	0.5
1030.224	-1.5
