Data from QEP037381__352__15-02-12-717.txt Node

Date: Fri Apr 28 15:02:12 EDT 2023
User: dcclab
Spectrometer: QEP03738
Trigger mode: 4
Integration Time (sec): 1.000000E1
Scans to average: 1
Electric dark correction enabled: true
Nonlinearity correction enabled: false
Boxcar width: 0
XAxis mode: Wavelengths
Number of Pixels in Spectrum: 1044
>>>>>Begin Spectral Data<<<<<
784.041	14
784.3	-3
784.558	-1
784.817	-6
785.075	66517
785.334	13327
785.592	6971
785.851	4945
786.109	3720
786.368	2950
786.626	2405
786.884	2010
787.143	1659
787.401	1381
787.659	1245
787.917	1080
788.175	1007
788.433	875
788.691	795
788.949	727
789.207	685
789.465	616
789.723	590
789.98	542
790.238	597
790.496	559
790.753	526
791.011	576
791.268	502
791.526	510
791.783	530
792.041	505
792.298	423
792.556	499
792.813	477
793.07	459
793.327	433
793.584	522
793.841	461
794.099	457
794.356	519
794.613	420
794.869	456
795.126	424
795.383	403
795.64	424
795.897	389
796.153	452
796.41	445
796.667	413
796.923	417
797.18	421
797.436	445
797.693	396
797.949	476
798.206	490
798.462	410
798.718	473
798.974	457
799.231	487
799.487	484
799.743	493
799.999	514
800.255	513
800.511	501
800.767	550
801.023	541
801.279	597
801.534	619
801.79	691
802.046	773
802.302	910
802.557	1082
802.813	1407
803.068	1827
803.324	2597
803.579	3680
803.835	5154
804.09	7065
804.345	9109
804.601	11120
804.856	12910
805.111	14322
805.366	15359
805.621	15838
805.876	16282
806.131	16578
806.386	16802
806.641	17062
806.896	17264
807.151	17534
807.406	17762
807.661	18024
807.915	18299
808.17	18595
808.425	18715
808.679	18943
808.934	19043
809.188	19270
809.443	19396
809.697	19733
809.951	19710
810.206	19915
810.46	20132
810.714	20137
810.968	20387
811.223	20393
811.477	20406
811.731	20796
811.985	20792
812.239	20881
812.493	21039
812.747	21187
813	21066
813.254	21287
813.508	21265
813.762	21336
814.015	21444
814.269	21647
814.522	21719
814.776	21848
815.03	22160
815.283	22397
815.536	22712
815.79	22968
816.043	23207
816.296	23543
816.55	23756
816.803	23932
817.056	24339
817.309	24524
817.562	24774
817.815	24950
818.068	25039
818.321	25356
818.574	25631
818.827	26136
819.079	26306
819.332	26824
819.585	27132
819.838	27404
820.09	27529
820.343	27905
820.595	27899
820.848	28064
821.1	28241
821.353	28071
821.605	27991
821.857	28130
822.11	27999
822.362	27949
822.614	27831
822.866	28002
823.118	27933
823.37	28033
823.622	28012
823.874	28174
824.126	28210
824.378	28198
824.63	28407
824.882	28322
825.134	28356
825.385	28400
825.637	28327
825.888	28235
826.14	28101
826.392	27981
826.643	27817
826.895	27810
827.146	27699
827.397	27540
827.649	27650
827.9	27485
828.151	27549
828.402	27720
828.653	27610
828.905	27562
829.156	27801
829.407	27650
829.658	27689
829.909	27628
830.159	27626
830.41	27384
830.661	27203
830.912	27064
831.162	27038
831.413	26961
831.664	26864
831.914	26895
832.165	26868
832.415	26967
832.666	26871
832.916	26838
833.167	26795
833.417	26804
833.667	26616
833.917	26464
834.168	26447
834.418	26305
834.668	26180
834.918	26162
835.168	26058
835.418	26054
835.668	25895
835.918	25910
836.167	25936
836.417	25699
836.667	25817
836.917	25697
837.166	25577
837.416	25585
837.666	25471
837.915	25326
838.165	25459
838.414	25191
838.663	25015
838.913	25161
839.162	24982
839.411	25046
839.661	24938
839.91	24874
840.159	24721
840.408	24861
840.657	24814
840.906	24802
841.155	24754
841.404	24797
841.653	24597
841.902	24633
842.15	24684
842.399	24710
842.648	24560
842.897	24415
843.145	24207
843.394	24140
843.642	24030
843.891	23957
844.139	23880
844.388	23765
844.636	23635
844.884	23704
845.133	23569
845.381	23522
845.629	23476
845.877	23555
846.125	23266
846.373	23396
846.621	23226
846.869	23255
847.117	23075
847.365	22974
847.613	22870
847.861	22770
848.108	22778
848.356	22635
848.604	22568
848.851	22689
849.099	22723
849.346	22719
849.594	22739
849.841	22851
850.089	22871
850.336	22829
850.583	22762
850.831	22556
851.078	22470
851.325	22366
851.572	22279
851.819	22011
852.066	21750
852.313	21609
852.56	21462
852.807	21421
853.054	21235
853.301	21217
853.548	21233
853.794	21436
854.041	21421
854.288	21362
854.534	21679
854.781	21582
855.028	21433
855.274	21472
855.52	21213
855.767	21153
856.013	20985
856.26	21221
856.506	20839
856.752	20833
856.998	20828
857.244	20880
857.49	20949
857.736	21007
857.982	20893
858.228	20862
858.474	20796
858.72	20635
858.966	20491
859.212	20363
859.458	20129
859.703	19870
859.949	19723
860.195	19494
860.44	19469
860.686	19386
860.931	19295
861.177	19296
861.422	19221
861.667	19189
861.913	19181
862.158	19317
862.403	19333
862.648	19269
862.893	19290
863.138	19236
863.384	19183
863.629	19171
863.873	19117
864.118	19046
864.363	18849
864.608	18775
864.853	18585
865.098	18640
865.342	18439
865.587	18355
865.832	18362
866.076	18397
866.321	18291
866.565	18239
866.81	18148
867.054	18100
867.298	18123
867.543	18080
867.787	18079
868.031	18011
868.275	18002
868.519	17840
868.764	17766
869.008	17786
869.252	17755
869.496	17715
869.739	17587
869.983	17645
870.227	17496
870.471	17482
870.715	17595
870.958	17484
871.202	17484
871.446	17498
871.689	17530
871.933	17518
872.176	17528
872.42	17501
872.663	17490
872.906	17316
873.15	17174
873.393	17041
873.636	17008
873.879	16787
874.122	16725
874.366	16558
874.609	16455
874.852	16380
875.095	16308
875.337	16230
875.58	16116
875.823	16151
876.066	16148
876.309	16079
876.551	15903
876.794	15826
877.037	15824
877.279	15840
877.522	15792
877.764	15899
878.007	15866
878.249	15828
878.491	15839
878.734	15758
878.976	15828
879.218	15630
879.46	15607
879.702	15551
879.945	15349
880.187	15212
880.429	15078
880.671	15012
880.912	14961
881.154	14918
881.396	14865
881.638	14816
881.88	14829
882.121	14727
882.363	14685
882.605	14709
882.846	14641
883.088	14687
883.329	14559
883.571	14517
883.812	14515
884.053	14478
884.295	14637
884.536	14639
884.777	14566
885.018	14532
885.259	14407
885.5	14390
885.742	14561
885.982	14411
886.223	14302
886.464	14237
886.705	14253
886.946	14118
887.187	13984
887.428	13912
887.668	13785
887.909	13636
888.15	13498
888.39	13527
888.631	13471
888.871	13336
889.111	13289
889.352	13109
889.592	12907
889.833	12935
890.073	12826
890.313	12761
890.553	12640
890.793	12564
891.033	12600
891.273	12483
891.513	12447
891.753	12526
891.993	12389
892.233	12529
892.473	12546
892.713	12523
892.952	12399
893.192	12463
893.432	12343
893.671	12399
893.911	12324
894.15	12157
894.39	11998
894.629	12023
894.869	11962
895.108	11843
895.347	11742
895.587	11731
895.826	11679
896.065	11593
896.304	11703
896.543	11668
896.782	11533
897.021	11506
897.26	11476
897.499	11506
897.738	11509
897.977	11287
898.216	11189
898.454	11200
898.693	11106
898.932	11034
899.17	11000
899.409	10929
899.647	10931
899.886	10850
900.124	10859
900.363	10822
900.601	10816
900.839	10835
901.078	10836
901.316	10788
901.554	10869
901.792	10862
902.03	10728
902.268	10723
902.506	10730
902.744	10667
902.982	10673
903.22	10525
903.458	10393
903.695	10310
903.933	10289
904.171	10141
904.409	10013
904.646	9899
904.884	9792
905.121	9819
905.359	9613
905.596	9574
905.833	9419
906.071	9423
906.308	9441
906.545	9428
906.783	9379
907.02	9366
907.257	9429
907.494	9295
907.731	9346
907.968	9330
908.205	9238
908.442	9153
908.679	9078
908.915	9021
909.152	8992
909.389	8810
909.626	8834
909.862	8686
910.099	8744
910.335	8708
910.572	8628
910.808	8642
911.045	8548
911.281	8514
911.518	8544
911.754	8491
911.99	8463
912.226	8350
912.463	8260
912.699	8272
912.935	8180
913.171	8082
913.407	7992
913.643	8052
913.879	7886
914.114	7814
914.35	7778
914.586	7755
914.822	7602
915.057	7668
915.293	7483
915.529	7437
915.764	7547
916	7558
916.235	7516
916.471	7398
916.706	7384
916.941	7471
917.177	7331
917.412	7341
917.647	7399
917.882	7293
918.117	7327
918.352	7351
918.588	7362
918.823	7155
919.057	7126
919.292	6966
919.527	7066
919.762	6901
919.997	6889
920.232	6766
920.466	6752
920.701	6594
920.935	6632
921.17	6591
921.405	6527
921.639	6557
921.873	6468
922.108	6510
922.342	6509
922.576	6419
922.811	6380
923.045	6367
923.279	6433
923.513	6270
923.747	6293
923.981	6273
924.215	6145
924.449	6189
924.683	6063
924.917	6089
925.151	6064
925.385	6073
925.618	6054
925.852	6015
926.086	5938
926.319	5983
926.553	5948
926.786	5950
927.02	5879
927.253	5990
927.486	5936
927.72	5896
927.953	5904
928.186	5831
928.42	5875
928.653	5738
928.886	5766
929.119	5752
929.352	5707
929.585	5672
929.818	5572
930.051	5608
930.284	5600
930.516	5422
930.749	5452
930.982	5435
931.215	5457
931.447	5339
931.68	5334
931.912	5354
932.145	5342
932.377	5369
932.61	5473
932.842	5258
933.074	5311
933.307	5284
933.539	5297
933.771	5373
934.003	5255
934.236	5304
934.468	5327
934.7	5228
934.932	5283
935.164	5243
935.395	5165
935.627	5168
935.859	5180
936.091	5043
936.323	5163
936.554	5142
936.786	5084
937.017	4995
937.249	5075
937.481	4976
937.712	5043
937.943	4992
938.175	4978
938.406	4990
938.637	4990
938.869	4903
939.1	4984
939.331	4884
939.562	4867
939.793	4880
940.024	4915
940.255	4924
940.486	4833
940.717	4839
940.948	4775
941.179	4773
941.409	4775
941.64	4726
941.871	4733
942.102	4715
942.332	4754
942.563	4775
942.793	4767
943.024	4680
943.254	4696
943.484	4724
943.715	4723
943.945	4700
944.175	4605
944.405	4662
944.636	4640
944.866	4656
945.096	4645
945.326	4573
945.556	4626
945.786	4617
946.016	4556
946.245	4480
946.475	4451
946.705	4437
946.935	4471
947.164	4429
947.394	4336
947.624	4387
947.853	4360
948.083	4334
948.312	4260
948.542	4267
948.771	4272
949	4225
949.23	4237
949.459	4271
949.688	4329
949.917	4269
950.146	4252
950.375	4278
950.604	4170
950.833	4309
951.062	4294
951.291	4240
951.52	4169
951.749	4194
951.978	4100
952.206	4092
952.435	4083
952.664	4147
952.892	4143
953.121	4036
953.349	4166
953.578	4076
953.806	4040
954.035	3966
954.263	4000
954.491	3906
954.719	3995
954.948	3907
955.176	3959
955.404	3809
955.632	3901
955.86	3824
956.088	3875
956.316	3837
956.544	3851
956.772	3800
956.999	3753
957.227	3819
957.455	3691
957.683	3768
957.91	3688
958.138	3628
958.365	3660
958.593	3655
958.82	3569
959.048	3666
959.275	3615
959.502	3576
959.73	3556
959.957	3566
960.184	3651
960.411	3545
960.638	3624
960.865	3537
961.092	3574
961.319	3475
961.546	3584
961.773	3551
962	3521
962.227	3571
962.454	3526
962.68	3473
962.907	3442
963.134	3418
963.36	3471
963.587	3414
963.813	3341
964.04	3382
964.266	3318
964.493	3382
964.719	3373
964.945	3325
965.171	3236
965.398	3267
965.624	3298
965.85	3215
966.076	3247
966.302	3232
966.528	3208
966.754	3226
966.98	3200
967.206	3203
967.431	3124
967.657	3183
967.883	3188
968.109	3150
968.334	3081
968.56	3099
968.785	3102
969.011	3049
969.236	3141
969.462	3028
969.687	3083
969.912	3063
970.138	3118
970.363	3006
970.588	3012
970.813	2991
971.038	2972
971.263	3011
971.488	2980
971.713	2989
971.938	3024
972.163	2904
972.388	2952
972.613	2914
972.838	2892
973.062	2844
973.287	2879
973.512	2829
973.736	2822
973.961	2843
974.185	2779
974.41	2841
974.634	2708
974.858	2688
975.083	2748
975.307	2757
975.531	2675
975.755	2652
975.98	2684
976.204	2620
976.428	2574
976.652	2573
976.876	2614
977.1	2625
977.324	2524
977.547	2662
977.771	2589
977.995	2566
978.219	2511
978.442	2568
978.666	2535
978.89	2556
979.113	2523
979.337	2509
979.56	2501
979.783	2566
980.007	2431
980.23	2473
980.453	2444
980.677	2474
980.9	2429
981.123	2314
981.346	2435
981.569	2427
981.792	2456
982.015	2352
982.238	2369
982.461	2357
982.684	2343
982.907	2275
983.129	2299
983.352	2351
983.575	2267
983.797	2294
984.02	2259
984.242	2266
984.465	2275
984.687	2254
984.91	2293
985.132	2249
985.354	2264
985.577	2242
985.799	2258
986.021	2156
986.243	2162
986.465	2177
986.687	2247
986.909	2253
987.131	2180
987.353	2142
987.575	2186
987.797	2137
988.019	2081
988.241	2116
988.462	2077
988.684	2151
988.906	2172
989.127	2181
989.349	2060
989.57	2093
989.792	2111
990.013	2148
990.234	2136
990.456	2151
990.677	2107
990.898	2033
991.119	2064
991.341	2074
991.562	2001
991.783	2040
992.004	1995
992.225	1960
992.446	1994
992.667	1932
992.887	2006
993.108	1881
993.329	2023
993.55	1985
993.77	1884
993.991	1902
994.212	1950
994.432	1882
994.653	1932
994.873	1908
995.093	1803
995.314	1837
995.534	1895
995.754	1922
995.975	1919
996.195	1802
996.415	1878
996.635	1827
996.855	1865
997.075	1823
997.295	1792
997.515	1787
997.735	1839
997.955	1799
998.174	1792
998.394	1773
998.614	1799
998.834	1752
999.053	1805
999.273	1814
999.492	1828
999.712	1759
999.931	1723
1000.151	1800
1000.37	1771
1000.589	1812
1000.809	1734
1001.028	1846
1001.247	1794
1001.466	1663
1001.685	1813
1001.904	1745
1002.123	1705
1002.342	1714
1002.561	1707
1002.78	1710
1002.999	1761
1003.218	1703
1003.436	1669
1003.655	1727
1003.874	1677
1004.092	1654
1004.311	1730
1004.53	1662
1004.748	1754
1004.966	1644
1005.185	1716
1005.403	1705
1005.622	1679
1005.84	1750
1006.058	1620
1006.276	1678
1006.494	2005
1006.712	1670
1006.931	1677
1007.149	1592
1007.367	1639
1007.584	1664
1007.802	1668
1008.02	1608
1008.238	1685
1008.456	1713
1008.673	1555
1008.891	1661
1009.109	1620
1009.326	1635
1009.544	1708
1009.761	1608
1009.979	1728
1010.196	1668
1010.413	1741
1010.631	1775
1010.848	1792
1011.065	1762
1011.282	1745
1011.5	1669
1011.717	1765
1011.934	1698
1012.151	1728
1012.368	1721
1012.585	1652
1012.801	1696
1013.018	1638
1013.235	1611
1013.452	1619
1013.669	1674
1013.885	1623
1014.102	1664
1014.318	1596
1014.535	1559
1014.751	1571
1014.968	1609
1015.184	1610
1015.401	1515
1015.617	1567
1015.833	1523
1016.049	1527
1016.266	1503
1016.482	1512
1016.698	1464
1016.914	1518
1017.13	1442
1017.346	1424
1017.562	1508
1017.778	1452
1017.993	1407
1018.209	1474
1018.425	1422
1018.641	1409
1018.856	1382
1019.072	1409
1019.288	1470
1019.503	1392
1019.719	1327
1019.934	1329
1020.149	1429
1020.365	1338
1020.58	1317
1020.795	1365
1021.011	1278
1021.226	1277
1021.441	1299
1021.656	1202
1021.871	1170
1022.086	1166
1022.301	1171
1022.516	1160
1022.731	1232
1022.946	1130
1023.16	1094
1023.375	1084
1023.59	1061
1023.804	1051
1024.019	1155
1024.234	1003
1024.448	1046
1024.663	999
1024.877	997
1025.092	1008
1025.306	1050
1025.52	913
1025.734	1028
1025.949	949
1026.163	902
1026.377	859
1026.591	908
1026.805	860
1027.019	838
1027.233	810
1027.447	770
1027.661	871
1027.875	801
1028.088	812
1028.302	741
1028.516	721
1028.73	735
1028.943	732
1029.157	662
1029.37	612
1029.584	-1
1029.797	-2
1030.011	-3
1030.224	2
