Data from QEP037381__81__14-53-25-876.txt Node

Date: Wed Dec 21 14:53:25 EST 2022
User: dcclab
Spectrometer: QEP03738
Trigger mode: 4
Integration Time (sec): 1.000000E1
Scans to average: 1
Electric dark correction enabled: true
Nonlinearity correction enabled: false
Boxcar width: 0
XAxis mode: Wavelengths
Number of Pixels in Spectrum: 1044
>>>>>Begin Spectral Data<<<<<
784.041	11.38
784.3	1.38
784.558	-1.62
784.817	-4.62
785.075	100036.38
785.334	17269.38
785.592	7979.38
785.851	5448.38
786.109	4107.38
786.368	3162.38
786.626	2556.38
786.884	2116.38
787.143	1776.38
787.401	1472.38
787.659	1312.38
787.917	1148.38
788.175	1049.38
788.433	929.38
788.691	825.38
788.949	792.38
789.207	749.38
789.465	636.38
789.723	624.38
789.98	575.38
790.238	626.38
790.496	579.38
790.753	559.38
791.011	616.38
791.268	548.38
791.526	543.38
791.783	528.38
792.041	515.38
792.298	442.38
792.556	505.38
792.813	486.38
793.07	475.38
793.327	452.38
793.584	525.38
793.841	451.38
794.099	470.38
794.356	525.38
794.613	434.38
794.869	468.38
795.126	418.38
795.383	418.38
795.64	419.38
795.897	402.38
796.153	458.38
796.41	440.38
796.667	419.38
796.923	419.38
797.18	411.38
797.436	462.38
797.693	431.38
797.949	468.38
798.206	504.38
798.462	405.38
798.718	482.38
798.974	457.38
799.231	480.38
799.487	475.38
799.743	490.38
799.999	507.38
800.255	512.38
800.511	499.38
800.767	544.38
801.023	535.38
801.279	575.38
801.534	604.38
801.79	663.38
802.046	675.38
802.302	848.38
802.557	979.38
802.813	1197.38
803.068	1498.38
803.324	2062.38
803.579	2808.38
803.835	3878.38
804.09	5292.38
804.345	6897.38
804.601	8644.38
804.856	10532.38
805.111	12080.38
805.366	13329.38
805.621	14245.38
805.876	14856.38
806.131	15206.38
806.386	15543.38
806.641	15822.38
806.896	16023.38
807.151	16521.38
807.406	16588.38
807.661	16955.38
807.915	17232.38
808.17	17552.38
808.425	17753.38
808.679	17815.38
808.934	18039.38
809.188	18113.38
809.443	18355.38
809.697	18596.38
809.951	18719.38
810.206	18820.38
810.46	18974.38
810.714	19109.38
810.968	19313.38
811.223	19563.38
811.477	19583.38
811.731	19825.38
811.985	19899.38
812.239	19987.38
812.493	20102.38
812.747	20029.38
813	20121.38
813.254	20271.38
813.508	20386.38
813.762	20423.38
814.015	20580.38
814.269	20657.38
814.522	20785.38
814.776	21139.38
815.03	21358.38
815.283	21537.38
815.536	21876.38
815.79	22322.38
816.043	22678.38
816.296	22931.38
816.55	23296.38
816.803	23388.38
817.056	23880.38
817.309	23970.38
817.562	24110.38
817.815	24392.38
818.068	24614.38
818.321	24899.38
818.574	25182.38
818.827	25372.38
819.079	25736.38
819.332	26323.38
819.585	26499.38
819.838	26803.38
820.09	27023.38
820.343	27041.38
820.595	27154.38
820.848	27424.38
821.1	27558.38
821.353	27541.38
821.605	27464.38
821.857	27618.38
822.11	27356.38
822.362	27240.38
822.614	27165.38
822.866	27251.38
823.118	27241.38
823.37	27358.38
823.622	27496.38
823.874	27452.38
824.126	27542.38
824.378	27550.38
824.63	27626.38
824.882	27760.38
825.134	27641.38
825.385	27637.38
825.637	27700.38
825.888	27405.38
826.14	27411.38
826.392	27362.38
826.643	27263.38
826.895	27119.38
827.146	27048.38
827.397	26841.38
827.649	26943.38
827.9	27011.38
828.151	26918.38
828.402	26962.38
828.653	27197.38
828.905	27135.38
829.156	27218.38
829.407	27203.38
829.658	27363.38
829.909	27474.38
830.159	27506.38
830.41	27405.38
830.661	27030.38
830.912	26915.38
831.162	26828.38
831.413	26825.38
831.664	26865.38
831.914	26825.38
832.165	26737.38
832.415	26675.38
832.666	26659.38
832.916	26701.38
833.167	26669.38
833.417	26721.38
833.667	26751.38
833.917	26490.38
834.168	26391.38
834.418	26457.38
834.668	26213.38
834.918	26064.38
835.168	25977.38
835.418	25945.38
835.668	25855.38
835.918	25851.38
836.167	25715.38
836.417	25635.38
836.667	25618.38
836.917	25699.38
837.166	25677.38
837.416	25685.38
837.666	25648.38
837.915	25641.38
838.165	25541.38
838.414	25566.38
838.663	25528.38
838.913	25570.38
839.162	25441.38
839.411	25490.38
839.661	25310.38
839.91	25245.38
840.159	25271.38
840.408	25264.38
840.657	25296.38
840.906	25283.38
841.155	25223.38
841.404	25198.38
841.653	25327.38
841.902	25325.38
842.15	25425.38
842.399	25454.38
842.648	25312.38
842.897	25320.38
843.145	25155.38
843.394	24991.38
843.642	24911.38
843.891	24606.38
844.139	24308.38
844.388	24307.38
844.636	24291.38
844.884	24299.38
845.133	24141.38
845.381	24257.38
845.629	24271.38
845.877	24168.38
846.125	24148.38
846.373	24242.38
846.621	24027.38
846.869	24005.38
847.117	23934.38
847.365	23685.38
847.613	23623.38
847.861	23547.38
848.108	23617.38
848.356	23427.38
848.604	23403.38
848.851	23440.38
849.099	23516.38
849.346	23614.38
849.594	23680.38
849.841	23790.38
850.089	23825.38
850.336	23831.38
850.583	23805.38
850.831	23625.38
851.078	23609.38
851.325	23637.38
851.572	23671.38
851.819	23529.38
852.066	22938.38
852.313	22566.38
852.56	22476.38
852.807	22404.38
853.054	22280.38
853.301	22201.38
853.548	22313.38
853.794	22386.38
854.041	22459.38
854.288	22616.38
854.534	22781.38
854.781	22671.38
855.028	22655.38
855.274	22715.38
855.52	22467.38
855.767	22585.38
856.013	22574.38
856.26	22882.38
856.506	22276.38
856.752	22257.38
856.998	22314.38
857.244	22464.38
857.49	22566.38
857.736	22571.38
857.982	22492.38
858.228	22384.38
858.474	22239.38
858.72	21946.38
858.966	21834.38
859.212	21638.38
859.458	21374.38
859.703	21205.38
859.949	20984.38
860.195	20888.38
860.44	20712.38
860.686	20627.38
860.931	20729.38
861.177	20573.38
861.422	20375.38
861.667	20163.38
861.913	20222.38
862.158	20224.38
862.403	20208.38
862.648	20326.38
862.893	20370.38
863.138	20408.38
863.384	20253.38
863.629	20290.38
863.873	20244.38
864.118	20241.38
864.363	20072.38
864.608	19967.38
864.853	19911.38
865.098	19783.38
865.342	19736.38
865.587	19634.38
865.832	19616.38
866.076	19610.38
866.321	19458.38
866.565	19519.38
866.81	19330.38
867.054	19394.38
867.298	19276.38
867.543	19213.38
867.787	19186.38
868.031	19115.38
868.275	19042.38
868.519	19142.38
868.764	19061.38
869.008	19048.38
869.252	19103.38
869.496	19027.38
869.739	19028.38
869.983	18991.38
870.227	18960.38
870.471	19050.38
870.715	19081.38
870.958	19168.38
871.202	19061.38
871.446	19206.38
871.689	19099.38
871.933	19181.38
872.176	19276.38
872.42	19176.38
872.663	19083.38
872.906	19090.38
873.15	19064.38
873.393	19072.38
873.636	18945.38
873.879	18796.38
874.122	18552.38
874.366	18347.38
874.609	18140.38
874.852	17967.38
875.095	17865.38
875.337	17761.38
875.58	17622.38
875.823	17482.38
876.066	17530.38
876.309	17511.38
876.551	17351.38
876.794	17260.38
877.037	17234.38
877.279	17125.38
877.522	17168.38
877.764	17262.38
878.007	17140.38
878.249	17037.38
878.491	16953.38
878.734	17026.38
878.976	17016.38
879.218	16821.38
879.46	16794.38
879.702	16583.38
879.945	16483.38
880.187	16305.38
880.429	16251.38
880.671	16115.38
880.912	16041.38
881.154	15916.38
881.396	15957.38
881.638	16020.38
881.88	16052.38
882.121	15844.38
882.363	15977.38
882.605	15951.38
882.846	15931.38
883.088	15889.38
883.329	15875.38
883.571	16019.38
883.812	16331.38
884.053	16645.38
884.295	17096.38
884.536	17468.38
884.777	17297.38
885.018	17198.38
885.259	17024.38
885.5	16807.38
885.742	17015.38
885.982	16697.38
886.223	16487.38
886.464	16367.38
886.705	16249.38
886.946	15963.38
887.187	15637.38
887.428	15480.38
887.668	15173.38
887.909	14993.38
888.15	14759.38
888.39	14592.38
888.631	14551.38
888.871	14382.38
889.111	14235.38
889.352	14122.38
889.592	13994.38
889.833	13893.38
890.073	13764.38
890.313	13717.38
890.553	13529.38
890.793	13583.38
891.033	13464.38
891.273	13355.38
891.513	13326.38
891.753	13349.38
891.993	13246.38
892.233	13323.38
892.473	13396.38
892.713	13340.38
892.952	13302.38
893.192	13276.38
893.432	13298.38
893.671	13316.38
893.911	13171.38
894.15	13066.38
894.39	13032.38
894.629	12884.38
894.869	12867.38
895.108	12799.38
895.347	12731.38
895.587	12677.38
895.826	12670.38
896.065	12634.38
896.304	12626.38
896.543	12678.38
896.782	12506.38
897.021	12526.38
897.26	12501.38
897.499	12572.38
897.738	12570.38
897.977	12385.38
898.216	12259.38
898.454	12152.38
898.693	12093.38
898.932	12059.38
899.17	11960.38
899.409	11915.38
899.647	11978.38
899.886	11872.38
900.124	11967.38
900.363	11931.38
900.601	12000.38
900.839	12044.38
901.078	12087.38
901.316	12108.38
901.554	12190.38
901.792	12292.38
902.03	12338.38
902.268	12316.38
902.506	12262.38
902.744	12197.38
902.982	12073.38
903.22	11848.38
903.458	11709.38
903.695	11559.38
903.933	11396.38
904.171	11122.38
904.409	10931.38
904.646	10862.38
904.884	10700.38
905.121	10553.38
905.359	10418.38
905.596	10359.38
905.833	10189.38
906.071	10228.38
906.308	10192.38
906.545	10181.38
906.783	10145.38
907.02	10135.38
907.257	10046.38
907.494	10079.38
907.731	10036.38
907.968	10019.38
908.205	9906.38
908.442	9823.38
908.679	9737.38
908.915	9728.38
909.152	9728.38
909.389	9583.38
909.626	9464.38
909.862	9404.38
910.099	9399.38
910.335	9373.38
910.572	9259.38
910.808	9290.38
911.045	9250.38
911.281	9181.38
911.518	9250.38
911.754	9104.38
911.99	8984.38
912.226	9055.38
912.463	8948.38
912.699	8901.38
912.935	8804.38
913.171	8724.38
913.407	8562.38
913.643	8668.38
913.879	8553.38
914.114	8464.38
914.35	8356.38
914.586	8322.38
914.822	8150.38
915.057	8235.38
915.293	8112.38
915.529	8052.38
915.764	8082.38
916	8074.38
916.235	8022.38
916.471	7936.38
916.706	7951.38
916.941	7960.38
917.177	7952.38
917.412	7952.38
917.647	7939.38
917.882	7919.38
918.117	7881.38
918.352	7886.38
918.588	7870.38
918.823	7753.38
919.057	7699.38
919.292	7590.38
919.527	7606.38
919.762	7496.38
919.997	7496.38
920.232	7324.38
920.466	7287.38
920.701	7138.38
920.935	7222.38
921.17	7084.38
921.405	7059.38
921.639	7069.38
921.873	7008.38
922.108	6989.38
922.342	7023.38
922.576	6921.38
922.811	6870.38
923.045	6923.38
923.279	6975.38
923.513	6791.38
923.747	6855.38
923.981	6777.38
924.215	6687.38
924.449	6680.38
924.683	6570.38
924.917	6582.38
925.151	6542.38
925.385	6562.38
925.618	6546.38
925.852	6527.38
926.086	6462.38
926.319	6528.38
926.553	6481.38
926.786	6449.38
927.02	6409.38
927.253	6496.38
927.486	6409.38
927.72	6306.38
927.953	6405.38
928.186	6372.38
928.42	6367.38
928.653	6271.38
928.886	6253.38
929.119	6251.38
929.352	6227.38
929.585	6205.38
929.818	6093.38
930.051	6126.38
930.284	6095.38
930.516	5938.38
930.749	5907.38
930.982	5936.38
931.215	5927.38
931.447	5795.38
931.68	5866.38
931.912	5848.38
932.145	5833.38
932.377	5758.38
932.61	5939.38
932.842	5708.38
933.074	5810.38
933.307	5741.38
933.539	5853.38
933.771	5795.38
934.003	5766.38
934.236	5824.38
934.468	5822.38
934.7	5729.38
934.932	5771.38
935.164	5733.38
935.395	5671.38
935.627	5677.38
935.859	5668.38
936.091	5628.38
936.323	5658.38
936.554	5625.38
936.786	5585.38
937.017	5483.38
937.249	5554.38
937.481	5446.38
937.712	5517.38
937.943	5481.38
938.175	5434.38
938.406	5426.38
938.637	5495.38
938.869	5382.38
939.1	5427.38
939.331	5389.38
939.562	5416.38
939.793	5387.38
940.024	5352.38
940.255	5359.38
940.486	5326.38
940.717	5278.38
940.948	5214.38
941.179	5201.38
941.409	5273.38
941.64	5244.38
941.871	5230.38
942.102	5201.38
942.332	5160.38
942.563	5232.38
942.793	5221.38
943.024	5133.38
943.254	5175.38
943.484	5215.38
943.715	5201.38
943.945	5180.38
944.175	5145.38
944.405	5093.38
944.636	5067.38
944.866	5115.38
945.096	5119.38
945.326	5034.38
945.556	5074.38
945.786	5123.38
946.016	5015.38
946.245	4935.38
946.475	4926.38
946.705	4920.38
946.935	4873.38
947.164	4894.38
947.394	4796.38
947.624	4813.38
947.853	4847.38
948.083	4789.38
948.312	4771.38
948.542	4725.38
948.771	4692.38
949	4721.38
949.23	4671.38
949.459	4689.38
949.688	4757.38
949.917	4683.38
950.146	4677.38
950.375	4760.38
950.604	4624.38
950.833	4717.38
951.062	4702.38
951.291	4670.38
951.52	4594.38
951.749	4558.38
951.978	4581.38
952.206	4518.38
952.435	4544.38
952.664	4553.38
952.892	4597.38
953.121	4484.38
953.349	4533.38
953.578	4547.38
953.806	4541.38
954.035	4443.38
954.263	4458.38
954.491	4338.38
954.719	4384.38
954.948	4363.38
955.176	4324.38
955.404	4252.38
955.632	4342.38
955.86	4302.38
956.088	4272.38
956.316	4304.38
956.544	4249.38
956.772	4206.38
956.999	4194.38
957.227	4211.38
957.455	4154.38
957.683	4129.38
957.91	4101.38
958.138	4062.38
958.365	4071.38
958.593	4021.38
958.82	4025.38
959.048	4049.38
959.275	4031.38
959.502	4009.38
959.73	4022.38
959.957	3999.38
960.184	4009.38
960.411	3956.38
960.638	4030.38
960.865	3970.38
961.092	4002.38
961.319	3857.38
961.546	3979.38
961.773	3946.38
962	3923.38
962.227	3961.38
962.454	3914.38
962.68	3894.38
962.907	3903.38
963.134	3801.38
963.36	3795.38
963.587	3777.38
963.813	3721.38
964.04	3785.38
964.266	3702.38
964.493	3766.38
964.719	3751.38
964.945	3773.38
965.171	3634.38
965.398	3644.38
965.624	3687.38
965.85	3581.38
966.076	3561.38
966.302	3600.38
966.528	3548.38
966.754	3578.38
966.98	3568.38
967.206	3593.38
967.431	3492.38
967.657	3511.38
967.883	3523.38
968.109	3507.38
968.334	3456.38
968.56	3415.38
968.785	3472.38
969.011	3414.38
969.236	3500.38
969.462	3388.38
969.687	3379.38
969.912	3435.38
970.138	3439.38
970.363	3367.38
970.588	3367.38
970.813	3337.38
971.038	3306.38
971.263	3359.38
971.488	3326.38
971.713	3325.38
971.938	3309.38
972.163	3227.38
972.388	3247.38
972.613	3189.38
972.838	3223.38
973.062	3205.38
973.287	3199.38
973.512	3125.38
973.736	3199.38
973.961	3126.38
974.185	3103.38
974.41	3162.38
974.634	3048.38
974.858	3035.38
975.083	3076.38
975.307	3078.38
975.531	2986.38
975.755	2972.38
975.98	2990.38
976.204	2899.38
976.428	2888.38
976.652	2895.38
976.876	2862.38
977.1	2913.38
977.324	2842.38
977.547	2893.38
977.771	2921.38
977.995	2880.38
978.219	2820.38
978.442	2918.38
978.666	2834.38
978.89	2838.38
979.113	2829.38
979.337	2828.38
979.56	2789.38
979.783	2878.38
980.007	2775.38
980.23	2758.38
980.453	2740.38
980.677	2751.38
980.9	2785.38
981.123	2670.38
981.346	2717.38
981.569	2762.38
981.792	2698.38
982.015	2665.38
982.238	2625.38
982.461	2634.38
982.684	2586.38
982.907	2585.38
983.129	2557.38
983.352	2610.38
983.575	2598.38
983.797	2572.38
984.02	2542.38
984.242	2511.38
984.465	2579.38
984.687	2537.38
984.91	2614.38
985.132	2521.38
985.354	2556.38
985.577	2488.38
985.799	2472.38
986.021	2427.38
986.243	2411.38
986.465	2473.38
986.687	2505.38
986.909	2535.38
987.131	2444.38
987.353	2392.38
987.575	2427.38
987.797	2402.38
988.019	2335.38
988.241	2371.38
988.462	2350.38
988.684	2418.38
988.906	2428.38
989.127	2462.38
989.349	2286.38
989.57	2344.38
989.792	2380.38
990.013	2367.38
990.234	2368.38
990.456	2359.38
990.677	2387.38
990.898	2305.38
991.119	2305.38
991.341	2322.38
991.562	2238.38
991.783	2296.38
992.004	2233.38
992.225	2200.38
992.446	2278.38
992.667	2192.38
992.887	2255.38
993.108	2122.38
993.329	2264.38
993.55	2198.38
993.77	2088.38
993.991	2115.38
994.212	2187.38
994.432	2157.38
994.653	2146.38
994.873	2165.38
995.093	2032.38
995.314	2054.38
995.534	2121.38
995.754	2142.38
995.975	2170.38
996.195	2026.38
996.415	2109.38
996.635	2079.38
996.855	2104.38
997.075	2077.38
997.295	2069.38
997.515	2039.38
997.735	2121.38
997.955	2062.38
998.174	2054.38
998.394	2036.38
998.614	2091.38
998.834	2013.38
999.053	2069.38
999.273	2080.38
999.492	2074.38
999.712	2038.38
999.931	1959.38
1000.151	1988.38
1000.37	1987.38
1000.589	2057.38
1000.809	1957.38
1001.028	2052.38
1001.247	1989.38
1001.466	1888.38
1001.685	1996.38
1001.904	1970.38
1002.123	1926.38
1002.342	1917.38
1002.561	1873.38
1002.78	1889.38
1002.999	1962.38
1003.218	1904.38
1003.436	1876.38
1003.655	1914.38
1003.874	1862.38
1004.092	1873.38
1004.311	1912.38
1004.53	1873.38
1004.748	1937.38
1004.966	1855.38
1005.185	1875.38
1005.403	1902.38
1005.622	1868.38
1005.84	1951.38
1006.058	1822.38
1006.276	1838.38
1006.494	2344.38
1006.712	1860.38
1006.931	1913.38
1007.149	1830.38
1007.367	1828.38
1007.584	1888.38
1007.802	1903.38
1008.02	1894.38
1008.238	1975.38
1008.456	1988.38
1008.673	1872.38
1008.891	1978.38
1009.109	1955.38
1009.326	2013.38
1009.544	2128.38
1009.761	2068.38
1009.979	2168.38
1010.196	2222.38
1010.413	2375.38
1010.631	2478.38
1010.848	2549.38
1011.065	2516.38
1011.282	2534.38
1011.5	2473.38
1011.717	2525.38
1011.934	2459.38
1012.151	2509.38
1012.368	2496.38
1012.585	2421.38
1012.801	2459.38
1013.018	2430.38
1013.235	2402.38
1013.452	2427.38
1013.669	2481.38
1013.885	2442.38
1014.102	2497.38
1014.318	2468.38
1014.535	2442.38
1014.751	2478.38
1014.968	2414.38
1015.184	2458.38
1015.401	2358.38
1015.617	2322.38
1015.833	2307.38
1016.049	2287.38
1016.266	2284.38
1016.482	2237.38
1016.698	2183.38
1016.914	2237.38
1017.13	2096.38
1017.346	2176.38
1017.562	2167.38
1017.778	2111.38
1017.993	2067.38
1018.209	2141.38
1018.425	2117.38
1018.641	2041.38
1018.856	2048.38
1019.072	2040.38
1019.288	2127.38
1019.503	2065.38
1019.719	1994.38
1019.934	1970.38
1020.149	2032.38
1020.365	1973.38
1020.58	1902.38
1020.795	1931.38
1021.011	1862.38
1021.226	1808.38
1021.441	1819.38
1021.656	1686.38
1021.871	1650.38
1022.086	1639.38
1022.301	1610.38
1022.516	1572.38
1022.731	1616.38
1022.946	1511.38
1023.16	1490.38
1023.375	1470.38
1023.59	1452.38
1023.804	1370.38
1024.019	1454.38
1024.234	1327.38
1024.448	1332.38
1024.663	1265.38
1024.877	1285.38
1025.092	1296.38
1025.306	1271.38
1025.52	1139.38
1025.734	1230.38
1025.949	1134.38
1026.163	1115.38
1026.377	1040.38
1026.591	1095.38
1026.805	1030.38
1027.019	992.38
1027.233	939.38
1027.447	894.38
1027.661	1007.38
1027.875	940.38
1028.088	936.38
1028.302	861.38
1028.516	848.38
1028.73	818.38
1028.943	821.38
1029.157	752.38
1029.37	715.38
1029.584	-0.62
1029.797	0.38
1030.011	-4.62
1030.224	-1.62
