Data from QEP037381__75__14-52-25-876.txt Node

Date: Wed Dec 21 14:52:25 EST 2022
User: dcclab
Spectrometer: QEP03738
Trigger mode: 4
Integration Time (sec): 1.000000E1
Scans to average: 1
Electric dark correction enabled: true
Nonlinearity correction enabled: false
Boxcar width: 0
XAxis mode: Wavelengths
Number of Pixels in Spectrum: 1044
>>>>>Begin Spectral Data<<<<<
784.041	12.75
784.3	0.75
784.558	-3.25
784.817	-6.25
785.075	102220.75
785.334	17470.75
785.592	8135.75
785.851	5652.75
786.109	4328.75
786.368	3293.75
786.626	2718.75
786.884	2242.75
787.143	1887.75
787.401	1564.75
787.659	1389.75
787.917	1196.75
788.175	1089.75
788.433	962.75
788.691	875.75
788.949	790.75
789.207	798.75
789.465	655.75
789.723	651.75
789.98	597.75
790.238	626.75
790.496	584.75
790.753	583.75
791.011	611.75
791.268	535.75
791.526	539.75
791.783	560.75
792.041	548.75
792.298	457.75
792.556	512.75
792.813	499.75
793.07	483.75
793.327	456.75
793.584	541.75
793.841	448.75
794.099	478.75
794.356	552.75
794.613	434.75
794.869	479.75
795.126	436.75
795.383	427.75
795.64	455.75
795.897	399.75
796.153	465.75
796.41	455.75
796.667	427.75
796.923	448.75
797.18	421.75
797.436	463.75
797.693	443.75
797.949	485.75
798.206	506.75
798.462	444.75
798.718	483.75
798.974	483.75
799.231	526.75
799.487	519.75
799.743	505.75
799.999	524.75
800.255	530.75
800.511	526.75
800.767	578.75
801.023	565.75
801.279	603.75
801.534	656.75
801.79	717.75
802.046	730.75
802.302	927.75
802.557	1066.75
802.813	1363.75
803.068	1708.75
803.324	2362.75
803.579	3223.75
803.835	4485.75
804.09	6120.75
804.345	7882.75
804.601	9999.75
804.856	12060.75
805.111	13976.75
805.366	15385.75
805.621	16368.75
805.876	17250.75
806.131	17506.75
806.386	17971.75
806.641	18307.75
806.896	18571.75
807.151	19017.75
807.406	19258.75
807.661	19587.75
807.915	19928.75
808.17	20126.75
808.425	20470.75
808.679	20560.75
808.934	20881.75
809.188	20993.75
809.443	21171.75
809.697	21460.75
809.951	21537.75
810.206	21726.75
810.46	21946.75
810.714	22127.75
810.968	22299.75
811.223	22395.75
811.477	22676.75
811.731	22832.75
811.985	22957.75
812.239	22990.75
812.493	23178.75
812.747	23221.75
813	23316.75
813.254	23350.75
813.508	23478.75
813.762	23649.75
814.015	23729.75
814.269	23839.75
814.522	24017.75
814.776	24365.75
815.03	24666.75
815.283	25048.75
815.536	25410.75
815.79	25783.75
816.043	26031.75
816.296	26517.75
816.55	26745.75
816.803	27092.75
817.056	27446.75
817.309	27594.75
817.562	27855.75
817.815	28176.75
818.068	28329.75
818.321	28695.75
818.574	28839.75
818.827	29308.75
819.079	29714.75
819.332	30186.75
819.585	30582.75
819.838	30824.75
820.09	30972.75
820.343	31253.75
820.595	31409.75
820.848	31494.75
821.1	31637.75
821.353	31627.75
821.605	31549.75
821.857	31533.75
822.11	31365.75
822.362	31331.75
822.614	31372.75
822.866	31424.75
823.118	31420.75
823.37	31404.75
823.622	31560.75
823.874	31661.75
824.126	31747.75
824.378	31740.75
824.63	31748.75
824.882	31934.75
825.134	31867.75
825.385	31741.75
825.637	31754.75
825.888	31790.75
826.14	31671.75
826.392	31424.75
826.643	31403.75
826.895	31178.75
827.146	31248.75
827.397	31121.75
827.649	31108.75
827.9	31036.75
828.151	31148.75
828.402	31137.75
828.653	31229.75
828.905	31352.75
829.156	31394.75
829.407	31379.75
829.658	31615.75
829.909	31607.75
830.159	31558.75
830.41	31335.75
830.661	31067.75
830.912	30965.75
831.162	30766.75
831.413	30768.75
831.664	30908.75
831.914	30808.75
832.165	30691.75
832.415	30659.75
832.666	30800.75
832.916	30767.75
833.167	30665.75
833.417	30626.75
833.667	30705.75
833.917	30451.75
834.168	30525.75
834.418	30391.75
834.668	30254.75
834.918	30078.75
835.168	29983.75
835.418	29872.75
835.668	29845.75
835.918	29640.75
836.167	29618.75
836.417	29562.75
836.667	29509.75
836.917	29461.75
837.166	29351.75
837.416	29501.75
837.666	29549.75
837.915	29511.75
838.165	29515.75
838.414	29183.75
838.663	29196.75
838.913	29260.75
839.162	29188.75
839.411	29050.75
839.661	29035.75
839.91	28961.75
840.159	28975.75
840.408	28758.75
840.657	28989.75
840.906	28863.75
841.155	28979.75
841.404	28887.75
841.653	28911.75
841.902	28918.75
842.15	29119.75
842.399	29026.75
842.648	29005.75
842.897	28742.75
843.145	28629.75
843.394	28548.75
843.642	28391.75
843.891	28303.75
844.139	28073.75
844.388	27926.75
844.636	27784.75
844.884	27758.75
845.133	27697.75
845.381	27705.75
845.629	27752.75
845.877	27687.75
846.125	27655.75
846.373	27667.75
846.621	27503.75
846.869	27551.75
847.117	27421.75
847.365	27120.75
847.613	27006.75
847.861	26955.75
848.108	26966.75
848.356	26960.75
848.604	26712.75
848.851	26839.75
849.099	26968.75
849.346	26994.75
849.594	26995.75
849.841	27322.75
850.089	27200.75
850.336	27290.75
850.583	27321.75
850.831	27115.75
851.078	26993.75
851.325	27041.75
851.572	27040.75
851.819	26778.75
852.066	26310.75
852.313	25929.75
852.56	25705.75
852.807	25540.75
853.054	25443.75
853.301	25479.75
853.548	25515.75
853.794	25648.75
854.041	25635.75
854.288	25798.75
854.534	26028.75
854.781	26000.75
855.028	25861.75
855.274	25895.75
855.52	25744.75
855.767	25677.75
856.013	25695.75
856.26	25994.75
856.506	25319.75
856.752	25395.75
856.998	25434.75
857.244	25443.75
857.49	25673.75
857.736	25737.75
857.982	25578.75
858.228	25551.75
858.474	25232.75
858.72	25109.75
858.966	25032.75
859.212	24513.75
859.458	24379.75
859.703	23991.75
859.949	23970.75
860.195	23777.75
860.44	23773.75
860.686	23632.75
860.931	23629.75
861.177	23491.75
861.422	23295.75
861.667	23205.75
861.913	23190.75
862.158	23102.75
862.403	23281.75
862.648	23286.75
862.893	23453.75
863.138	23268.75
863.384	23224.75
863.629	23309.75
863.873	23157.75
864.118	23235.75
864.363	23033.75
864.608	22912.75
864.853	22848.75
865.098	22670.75
865.342	22576.75
865.587	22529.75
865.832	22588.75
866.076	22501.75
866.321	22397.75
866.565	22367.75
866.81	22267.75
867.054	22137.75
867.298	22117.75
867.543	22057.75
867.787	22061.75
868.031	21937.75
868.275	21939.75
868.519	21948.75
868.764	21875.75
869.008	21822.75
869.252	21875.75
869.496	21704.75
869.739	21582.75
869.983	21785.75
870.227	21725.75
870.471	21730.75
870.715	21810.75
870.958	21868.75
871.202	21863.75
871.446	21868.75
871.689	21931.75
871.933	21817.75
872.176	21907.75
872.42	21836.75
872.663	21851.75
872.906	21678.75
873.15	21757.75
873.393	21636.75
873.636	21650.75
873.879	21386.75
874.122	21170.75
874.366	20936.75
874.609	20664.75
874.852	20479.75
875.095	20421.75
875.337	20278.75
875.58	20159.75
875.823	20204.75
876.066	20148.75
876.309	20076.75
876.551	19931.75
876.794	19810.75
877.037	19798.75
877.279	19620.75
877.522	19683.75
877.764	19710.75
878.007	19613.75
878.249	19602.75
878.491	19567.75
878.734	19473.75
878.976	19455.75
879.218	19263.75
879.46	19179.75
879.702	18983.75
879.945	18949.75
880.187	18776.75
880.429	18714.75
880.671	18583.75
880.912	18518.75
881.154	18432.75
881.396	18314.75
881.638	18445.75
881.88	18379.75
882.121	18379.75
882.363	18301.75
882.605	18314.75
882.846	18271.75
883.088	18236.75
883.329	18196.75
883.571	18413.75
883.812	18585.75
884.053	18978.75
884.295	19443.75
884.536	19673.75
884.777	19500.75
885.018	19450.75
885.259	19306.75
885.5	19115.75
885.742	19303.75
885.982	18935.75
886.223	18809.75
886.464	18621.75
886.705	18360.75
886.946	18250.75
887.187	17953.75
887.428	17704.75
887.668	17352.75
887.909	17136.75
888.15	16903.75
888.39	16769.75
888.631	16683.75
888.871	16568.75
889.111	16497.75
889.352	16293.75
889.592	16036.75
889.833	15967.75
890.073	15859.75
890.313	15900.75
890.553	15686.75
890.793	15588.75
891.033	15535.75
891.273	15446.75
891.513	15411.75
891.753	15354.75
891.993	15330.75
892.233	15337.75
892.473	15538.75
892.713	15478.75
892.952	15363.75
893.192	15409.75
893.432	15373.75
893.671	15323.75
893.911	15296.75
894.15	15247.75
894.39	15069.75
894.629	14904.75
894.869	14920.75
895.108	14791.75
895.347	14720.75
895.587	14684.75
895.826	14585.75
896.065	14566.75
896.304	14569.75
896.543	14655.75
896.782	14465.75
897.021	14454.75
897.26	14424.75
897.499	14395.75
897.738	14371.75
897.977	14304.75
898.216	14162.75
898.454	14035.75
898.693	13928.75
898.932	13887.75
899.17	13856.75
899.409	13781.75
899.647	13751.75
899.886	13744.75
900.124	13784.75
900.363	13736.75
900.601	13765.75
900.839	13832.75
901.078	13918.75
901.316	14008.75
901.554	14096.75
901.792	14163.75
902.03	14115.75
902.268	14117.75
902.506	14068.75
902.744	13963.75
902.982	13942.75
903.22	13606.75
903.458	13446.75
903.695	13151.75
903.933	13173.75
904.171	12756.75
904.409	12677.75
904.646	12531.75
904.884	12311.75
905.121	12303.75
905.359	12109.75
905.596	11876.75
905.833	11812.75
906.071	11831.75
906.308	11818.75
906.545	11758.75
906.783	11733.75
907.02	11692.75
907.257	11604.75
907.494	11607.75
907.731	11596.75
907.968	11539.75
908.205	11412.75
908.442	11379.75
908.679	11282.75
908.915	11258.75
909.152	11114.75
909.389	11009.75
909.626	10959.75
909.862	10889.75
910.099	10795.75
910.335	10847.75
910.572	10659.75
910.808	10733.75
911.045	10678.75
911.281	10543.75
911.518	10599.75
911.754	10494.75
911.99	10448.75
912.226	10324.75
912.463	10247.75
912.699	10253.75
912.935	10107.75
913.171	10121.75
913.407	9975.75
913.643	9996.75
913.879	9823.75
914.114	9767.75
914.35	9653.75
914.586	9603.75
914.822	9485.75
915.057	9453.75
915.293	9297.75
915.529	9207.75
915.764	9267.75
916	9313.75
916.235	9274.75
916.471	9256.75
916.706	9163.75
916.941	9137.75
917.177	9143.75
917.412	9170.75
917.647	9209.75
917.882	9029.75
918.117	9148.75
918.352	9052.75
918.588	9047.75
918.823	8951.75
919.057	8853.75
919.292	8711.75
919.527	8734.75
919.762	8596.75
919.997	8547.75
920.232	8388.75
920.466	8427.75
920.701	8270.75
920.935	8252.75
921.17	8140.75
921.405	8188.75
921.639	8174.75
921.873	8099.75
922.108	8086.75
922.342	8102.75
922.576	7907.75
922.811	7960.75
923.045	7966.75
923.279	7938.75
923.513	7765.75
923.747	7833.75
923.981	7769.75
924.215	7704.75
924.449	7668.75
924.683	7638.75
924.917	7572.75
925.151	7568.75
925.385	7587.75
925.618	7518.75
925.852	7524.75
926.086	7422.75
926.319	7415.75
926.553	7414.75
926.786	7440.75
927.02	7364.75
927.253	7419.75
927.486	7458.75
927.72	7344.75
927.953	7393.75
928.186	7286.75
928.42	7290.75
928.653	7191.75
928.886	7223.75
929.119	7242.75
929.352	7087.75
929.585	7153.75
929.818	7010.75
930.051	6963.75
930.284	6926.75
930.516	6838.75
930.749	6835.75
930.982	6812.75
931.215	6799.75
931.447	6688.75
931.68	6684.75
931.912	6704.75
932.145	6661.75
932.377	6640.75
932.61	6834.75
932.842	6654.75
933.074	6710.75
933.307	6603.75
933.539	6667.75
933.771	6678.75
934.003	6653.75
934.236	6692.75
934.468	6779.75
934.7	6655.75
934.932	6682.75
935.164	6563.75
935.395	6523.75
935.627	6575.75
935.859	6558.75
936.091	6425.75
936.323	6473.75
936.554	6494.75
936.786	6423.75
937.017	6333.75
937.249	6337.75
937.481	6321.75
937.712	6364.75
937.943	6276.75
938.175	6282.75
938.406	6266.75
938.637	6332.75
938.869	6218.75
939.1	6286.75
939.331	6221.75
939.562	6255.75
939.793	6315.75
940.024	6497.75
940.255	6820.75
940.486	6958.75
940.717	6920.75
940.948	6674.75
941.179	6457.75
941.409	6296.75
941.64	6149.75
941.871	6070.75
942.102	5936.75
942.332	6015.75
942.563	5988.75
942.793	5921.75
943.024	5916.75
943.254	5938.75
943.484	5958.75
943.715	6017.75
943.945	5890.75
944.175	5829.75
944.405	5780.75
944.636	5875.75
944.866	5882.75
945.096	5876.75
945.326	5707.75
945.556	5837.75
945.786	5779.75
946.016	5685.75
946.245	5683.75
946.475	5648.75
946.705	5598.75
946.935	5570.75
947.164	5588.75
947.394	5520.75
947.624	5492.75
947.853	5548.75
948.083	5526.75
948.312	5471.75
948.542	5386.75
948.771	5325.75
949	5364.75
949.23	5318.75
949.459	5367.75
949.688	5421.75
949.917	5331.75
950.146	5367.75
950.375	5402.75
950.604	5291.75
950.833	5357.75
951.062	5366.75
951.291	5321.75
951.52	5222.75
951.749	5247.75
951.978	5221.75
952.206	5205.75
952.435	5185.75
952.664	5270.75
952.892	5180.75
953.121	5188.75
953.349	5146.75
953.578	5164.75
953.806	5119.75
954.035	4961.75
954.263	5076.75
954.491	5012.75
954.719	5001.75
954.948	4963.75
955.176	4944.75
955.404	4908.75
955.632	4916.75
955.86	4894.75
956.088	4818.75
956.316	4876.75
956.544	4830.75
956.772	4710.75
956.999	4717.75
957.227	4787.75
957.455	4703.75
957.683	4687.75
957.91	4644.75
958.138	4605.75
958.365	4599.75
958.593	4590.75
958.82	4533.75
959.048	4633.75
959.275	4538.75
959.502	4585.75
959.73	4522.75
959.957	4536.75
960.184	4539.75
960.411	4468.75
960.638	4511.75
960.865	4458.75
961.092	4502.75
961.319	4422.75
961.546	4479.75
961.773	4492.75
962	4434.75
962.227	4499.75
962.454	4433.75
962.68	4411.75
962.907	4372.75
963.134	4353.75
963.36	4335.75
963.587	4330.75
963.813	4241.75
964.04	4281.75
964.266	4211.75
964.493	4235.75
964.719	4235.75
964.945	4193.75
965.171	4079.75
965.398	4116.75
965.624	4122.75
965.85	4079.75
966.076	4045.75
966.302	4078.75
966.528	3998.75
966.754	4048.75
966.98	4024.75
967.206	4045.75
967.431	3943.75
967.657	3984.75
967.883	3979.75
968.109	3940.75
968.334	3862.75
968.56	3897.75
968.785	3919.75
969.011	3875.75
969.236	3885.75
969.462	3829.75
969.687	3843.75
969.912	3886.75
970.138	3831.75
970.363	3779.75
970.588	3802.75
970.813	3765.75
971.038	3745.75
971.263	3806.75
971.488	3747.75
971.713	3776.75
971.938	3755.75
972.163	3674.75
972.388	3679.75
972.613	3625.75
972.838	3625.75
973.062	3599.75
973.287	3596.75
973.512	3522.75
973.736	3592.75
973.961	3517.75
974.185	3519.75
974.41	3501.75
974.634	3434.75
974.858	3453.75
975.083	3460.75
975.307	3490.75
975.531	3366.75
975.755	3338.75
975.98	3355.75
976.204	3277.75
976.428	3274.75
976.652	3255.75
976.876	3228.75
977.1	3274.75
977.324	3199.75
977.547	3257.75
977.771	3330.75
977.995	3227.75
978.219	3163.75
978.442	3278.75
978.666	3200.75
978.89	3210.75
979.113	3179.75
979.337	3124.75
979.56	3103.75
979.783	3186.75
980.007	3065.75
980.23	3092.75
980.453	3068.75
980.677	3096.75
980.9	3086.75
981.123	2990.75
981.346	3054.75
981.569	3019.75
981.792	3051.75
982.015	3000.75
982.238	2960.75
982.461	2970.75
982.684	2940.75
982.907	2922.75
983.129	2894.75
983.352	2922.75
983.575	2904.75
983.797	2865.75
984.02	2833.75
984.242	2840.75
984.465	2826.75
984.687	2864.75
984.91	2880.75
985.132	2832.75
985.354	2837.75
985.577	2833.75
985.799	2777.75
986.021	2686.75
986.243	2715.75
986.465	2708.75
986.687	2782.75
986.909	2775.75
987.131	2714.75
987.353	2692.75
987.575	2703.75
987.797	2667.75
988.019	2632.75
988.241	2688.75
988.462	2587.75
988.684	2679.75
988.906	2693.75
989.127	2712.75
989.349	2574.75
989.57	2624.75
989.792	2638.75
990.013	2693.75
990.234	2633.75
990.456	2689.75
990.677	2656.75
990.898	2609.75
991.119	2547.75
991.341	2581.75
991.562	2518.75
991.783	2508.75
992.004	2468.75
992.225	2400.75
992.446	2511.75
992.667	2410.75
992.887	2486.75
993.108	2359.75
993.329	2529.75
993.55	2436.75
993.77	2370.75
993.991	2362.75
994.212	2397.75
994.432	2369.75
994.653	2362.75
994.873	2335.75
995.093	2218.75
995.314	2296.75
995.534	2325.75
995.754	2345.75
995.975	2370.75
996.195	2273.75
996.415	2323.75
996.635	2271.75
996.855	2313.75
997.075	2267.75
997.295	2283.75
997.515	2219.75
997.735	2352.75
997.955	2272.75
998.174	2238.75
998.394	2246.75
998.614	2300.75
998.834	2222.75
999.053	2272.75
999.273	2236.75
999.492	2284.75
999.712	2199.75
999.931	2148.75
1000.151	2207.75
1000.37	2179.75
1000.589	2226.75
1000.809	2143.75
1001.028	2248.75
1001.247	2179.75
1001.466	2072.75
1001.685	2168.75
1001.904	2160.75
1002.123	2112.75
1002.342	2114.75
1002.561	2052.75
1002.78	2069.75
1002.999	2138.75
1003.218	2053.75
1003.436	2021.75
1003.655	2078.75
1003.874	2046.75
1004.092	2050.75
1004.311	2067.75
1004.53	2003.75
1004.748	2086.75
1004.966	2016.75
1005.185	2056.75
1005.403	2029.75
1005.622	2041.75
1005.84	2095.75
1006.058	2014.75
1006.276	2001.75
1006.494	2495.75
1006.712	2032.75
1006.931	2062.75
1007.149	1972.75
1007.367	2001.75
1007.584	2070.75
1007.802	2077.75
1008.02	2014.75
1008.238	2150.75
1008.456	2113.75
1008.673	2024.75
1008.891	2127.75
1009.109	2119.75
1009.326	2162.75
1009.544	2276.75
1009.761	2181.75
1009.979	2324.75
1010.196	2375.75
1010.413	2534.75
1010.631	2635.75
1010.848	2678.75
1011.065	2695.75
1011.282	2657.75
1011.5	2574.75
1011.717	2700.75
1011.934	2610.75
1012.151	2684.75
1012.368	2614.75
1012.585	2565.75
1012.801	2603.75
1013.018	2538.75
1013.235	2532.75
1013.452	2554.75
1013.669	2558.75
1013.885	2590.75
1014.102	2640.75
1014.318	2623.75
1014.535	2555.75
1014.751	2523.75
1014.968	2572.75
1015.184	2590.75
1015.401	2491.75
1015.617	2472.75
1015.833	2420.75
1016.049	2395.75
1016.266	2363.75
1016.482	2386.75
1016.698	2277.75
1016.914	2323.75
1017.13	2282.75
1017.346	2244.75
1017.562	2289.75
1017.778	2254.75
1017.993	2184.75
1018.209	2263.75
1018.425	2215.75
1018.641	2207.75
1018.856	2139.75
1019.072	2205.75
1019.288	2222.75
1019.503	2194.75
1019.719	2109.75
1019.934	2105.75
1020.149	2106.75
1020.365	2071.75
1020.58	1998.75
1020.795	2043.75
1021.011	1932.75
1021.226	1915.75
1021.441	1899.75
1021.656	1806.75
1021.871	1747.75
1022.086	1721.75
1022.301	1715.75
1022.516	1690.75
1022.731	1734.75
1022.946	1609.75
1023.16	1609.75
1023.375	1550.75
1023.59	1534.75
1023.804	1481.75
1024.019	1560.75
1024.234	1418.75
1024.448	1439.75
1024.663	1359.75
1024.877	1340.75
1025.092	1359.75
1025.306	1339.75
1025.52	1252.75
1025.734	1304.75
1025.949	1231.75
1026.163	1185.75
1026.377	1142.75
1026.591	1170.75
1026.805	1092.75
1027.019	1082.75
1027.233	1030.75
1027.447	964.75
1027.661	1063.75
1027.875	1011.75
1028.088	1016.75
1028.302	930.75
1028.516	931.75
1028.73	909.75
1028.943	892.75
1029.157	830.75
1029.37	769.75
1029.584	-0.25
1029.797	-0.25
1030.011	-0.25
1030.224	-3.25
