Data from QEP037381__101__13-43-54-897.txt Node

Date: Wed Dec 21 13:43:54 EST 2022
User: dcclab
Spectrometer: QEP03738
Trigger mode: 4
Integration Time (sec): 1.000000E1
Scans to average: 1
Electric dark correction enabled: true
Nonlinearity correction enabled: false
Boxcar width: 0
XAxis mode: Wavelengths
Number of Pixels in Spectrum: 1044
>>>>>Begin Spectral Data<<<<<
784.041	12.75
784.3	-5.25
784.558	-1.25
784.817	-3.25
785.075	82507.75
785.334	14455.75
785.592	6826.75
785.851	4698.75
786.109	3592.75
786.368	2789.75
786.626	2256.75
786.884	1889.75
787.143	1595.75
787.401	1311.75
787.659	1197.75
787.917	1019.75
788.175	954.75
788.433	833.75
788.691	749.75
788.949	705.75
789.207	692.75
789.465	605.75
789.723	588.75
789.98	528.75
790.238	579.75
790.496	511.75
790.753	506.75
791.011	550.75
791.268	499.75
791.526	478.75
791.783	509.75
792.041	487.75
792.298	394.75
792.556	475.75
792.813	448.75
793.07	420.75
793.327	407.75
793.584	501.75
793.841	430.75
794.099	437.75
794.356	504.75
794.613	398.75
794.869	436.75
795.126	401.75
795.383	387.75
795.64	408.75
795.897	356.75
796.153	417.75
796.41	404.75
796.667	392.75
796.923	400.75
797.18	394.75
797.436	420.75
797.693	379.75
797.949	438.75
798.206	467.75
798.462	367.75
798.718	430.75
798.974	405.75
799.231	448.75
799.487	433.75
799.743	450.75
799.999	449.75
800.255	452.75
800.511	420.75
800.767	477.75
801.023	447.75
801.279	475.75
801.534	496.75
801.79	551.75
802.046	554.75
802.302	641.75
802.557	702.75
802.813	852.75
803.068	1005.75
803.324	1341.75
803.579	1749.75
803.835	2352.75
804.09	3135.75
804.345	4019.75
804.601	4970.75
804.856	6085.75
805.111	6906.75
805.366	7590.75
805.621	8086.75
805.876	8469.75
806.131	8747.75
806.386	8861.75
806.641	9027.75
806.896	9170.75
807.151	9430.75
807.406	9498.75
807.661	9745.75
807.915	9848.75
808.17	9958.75
808.425	10099.75
808.679	10195.75
808.934	10291.75
809.188	10393.75
809.443	10531.75
809.697	10671.75
809.951	10740.75
810.206	10825.75
810.46	10937.75
810.714	11019.75
810.968	11165.75
811.223	11249.75
811.477	11397.75
811.731	11379.75
811.985	11356.75
812.239	11463.75
812.493	11506.75
812.747	11580.75
813	11572.75
813.254	11674.75
813.508	11721.75
813.762	11779.75
814.015	11780.75
814.269	11855.75
814.522	12090.75
814.776	12229.75
815.03	12273.75
815.283	12497.75
815.536	12746.75
815.79	12937.75
816.043	13073.75
816.296	13286.75
816.55	13392.75
816.803	13520.75
817.056	13831.75
817.309	13851.75
817.562	14010.75
817.815	14243.75
818.068	14210.75
818.321	14438.75
818.574	14631.75
818.827	14821.75
819.079	14933.75
819.332	15342.75
819.585	15461.75
819.838	15672.75
820.09	15622.75
820.343	15777.75
820.595	15776.75
820.848	16020.75
821.1	15956.75
821.353	16076.75
821.605	16032.75
821.857	15934.75
822.11	15867.75
822.362	15851.75
822.614	15700.75
822.866	15756.75
823.118	15747.75
823.37	15993.75
823.622	15898.75
823.874	16094.75
824.126	16134.75
824.378	16081.75
824.63	16082.75
824.882	16158.75
825.134	16170.75
825.385	16099.75
825.637	16026.75
825.888	15951.75
826.14	15916.75
826.392	15876.75
826.643	15781.75
826.895	15868.75
827.146	15700.75
827.397	15657.75
827.649	15756.75
827.9	15759.75
828.151	15719.75
828.402	15730.75
828.653	15828.75
828.905	15811.75
829.156	15972.75
829.407	15884.75
829.658	15990.75
829.909	16172.75
830.159	16162.75
830.41	16059.75
830.661	16043.75
830.912	15843.75
831.162	15897.75
831.413	15872.75
831.664	15870.75
831.914	15814.75
832.165	15647.75
832.415	15792.75
832.666	15760.75
832.916	15902.75
833.167	15728.75
833.417	15769.75
833.667	15679.75
833.917	15733.75
834.168	15641.75
834.418	15671.75
834.668	15518.75
834.918	15410.75
835.168	15445.75
835.418	15325.75
835.668	15228.75
835.918	15351.75
836.167	15246.75
836.417	15147.75
836.667	15190.75
836.917	15219.75
837.166	15243.75
837.416	15275.75
837.666	15263.75
837.915	15171.75
838.165	15252.75
838.414	15114.75
838.663	15075.75
838.913	15259.75
839.162	15244.75
839.411	15188.75
839.661	15170.75
839.91	15145.75
840.159	15205.75
840.408	15204.75
840.657	15327.75
840.906	15274.75
841.155	15242.75
841.404	15247.75
841.653	15219.75
841.902	15218.75
842.15	15369.75
842.399	15366.75
842.648	15400.75
842.897	15300.75
843.145	15141.75
843.394	15066.75
843.642	14991.75
843.891	14888.75
844.139	14847.75
844.388	14704.75
844.636	14676.75
844.884	14665.75
845.133	14662.75
845.381	14741.75
845.629	14726.75
845.877	14655.75
846.125	14782.75
846.373	14698.75
846.621	14524.75
846.869	14645.75
847.117	14446.75
847.365	14433.75
847.613	14452.75
847.861	14365.75
848.108	14344.75
848.356	14339.75
848.604	14304.75
848.851	14257.75
849.099	14339.75
849.346	14458.75
849.594	14524.75
849.841	14577.75
850.089	14665.75
850.336	14655.75
850.583	14697.75
850.831	14643.75
851.078	14570.75
851.325	14532.75
851.572	14673.75
851.819	14520.75
852.066	14191.75
852.313	13929.75
852.56	13748.75
852.807	13727.75
853.054	13646.75
853.301	13780.75
853.548	13746.75
853.794	13928.75
854.041	13969.75
854.288	13986.75
854.534	14099.75
854.781	14062.75
855.028	13968.75
855.274	14142.75
855.52	13992.75
855.767	14030.75
856.013	14120.75
856.26	14373.75
856.506	13903.75
856.752	13833.75
856.998	13858.75
857.244	14033.75
857.49	14101.75
857.736	14062.75
857.982	14059.75
858.228	14001.75
858.474	13825.75
858.72	13662.75
858.966	13604.75
859.212	13446.75
859.458	13250.75
859.703	13163.75
859.949	12994.75
860.195	12969.75
860.44	12901.75
860.686	12906.75
860.931	12968.75
861.177	12775.75
861.422	12724.75
861.667	12638.75
861.913	12530.75
862.158	12565.75
862.403	12603.75
862.648	12665.75
862.893	12741.75
863.138	12658.75
863.384	12601.75
863.629	12596.75
863.873	12580.75
864.118	12623.75
864.363	12434.75
864.608	12430.75
864.853	12473.75
865.098	12310.75
865.342	12361.75
865.587	12281.75
865.832	12266.75
866.076	12295.75
866.321	12248.75
866.565	12223.75
866.81	12153.75
867.054	12151.75
867.298	12100.75
867.543	12063.75
867.787	12096.75
868.031	12109.75
868.275	11972.75
868.519	11958.75
868.764	12052.75
869.008	12048.75
869.252	12120.75
869.496	12139.75
869.739	12200.75
869.983	12161.75
870.227	12203.75
870.471	12200.75
870.715	12244.75
870.958	12380.75
871.202	12450.75
871.446	12468.75
871.689	12369.75
871.933	12404.75
872.176	12356.75
872.42	12331.75
872.663	12226.75
872.906	12343.75
873.15	12376.75
873.393	12342.75
873.636	12513.75
873.879	12317.75
874.122	12245.75
874.366	11918.75
874.609	11804.75
874.852	11727.75
875.095	11609.75
875.337	11462.75
875.58	11406.75
875.823	11402.75
876.066	11399.75
876.309	11335.75
876.551	11207.75
876.794	11238.75
877.037	11231.75
877.279	11145.75
877.522	11093.75
877.764	11119.75
878.007	10997.75
878.249	11004.75
878.491	10998.75
878.734	10938.75
878.976	11007.75
879.218	10773.75
879.46	10812.75
879.702	10697.75
879.945	10547.75
880.187	10518.75
880.429	10520.75
880.671	10397.75
880.912	10310.75
881.154	10325.75
881.396	10292.75
881.638	10448.75
881.88	10311.75
882.121	10244.75
882.363	10310.75
882.605	10354.75
882.846	10327.75
883.088	10386.75
883.329	10493.75
883.571	10516.75
883.812	10771.75
884.053	11161.75
884.295	11691.75
884.536	11876.75
884.777	11823.75
885.018	11708.75
885.259	11638.75
885.5	11463.75
885.742	11629.75
885.982	11365.75
886.223	11179.75
886.464	11049.75
886.705	10874.75
886.946	10665.75
887.187	10336.75
887.428	10218.75
887.668	9931.75
887.909	9747.75
888.15	9557.75
888.39	9538.75
888.631	9490.75
888.871	9404.75
889.111	9240.75
889.352	9152.75
889.592	9047.75
889.833	9008.75
890.073	8969.75
890.313	9026.75
890.553	8810.75
890.793	8803.75
891.033	8727.75
891.273	8661.75
891.513	8710.75
891.753	8696.75
891.993	8655.75
892.233	8724.75
892.473	8814.75
892.713	8674.75
892.952	8653.75
893.192	8772.75
893.432	8665.75
893.671	8728.75
893.911	8683.75
894.15	8677.75
894.39	8503.75
894.629	8465.75
894.869	8463.75
895.108	8422.75
895.347	8315.75
895.587	8376.75
895.826	8296.75
896.065	8331.75
896.304	8334.75
896.543	8310.75
896.782	8255.75
897.021	8326.75
897.26	8306.75
897.499	8343.75
897.738	8316.75
897.977	8223.75
898.216	8250.75
898.454	8126.75
898.693	8076.75
898.932	8083.75
899.17	8075.75
899.409	8154.75
899.647	8059.75
899.886	8061.75
900.124	8039.75
900.363	8095.75
900.601	8138.75
900.839	8226.75
901.078	8269.75
901.316	8394.75
901.554	8455.75
901.792	8568.75
902.03	8569.75
902.268	8597.75
902.506	8574.75
902.744	8469.75
902.982	8441.75
903.22	8220.75
903.458	8034.75
903.695	7903.75
903.933	7714.75
904.171	7528.75
904.409	7406.75
904.646	7310.75
904.884	7204.75
905.121	7112.75
905.359	6990.75
905.596	6943.75
905.833	6890.75
906.071	6804.75
906.308	6841.75
906.545	6763.75
906.783	6716.75
907.02	6725.75
907.257	6693.75
907.494	6704.75
907.731	6712.75
907.968	6705.75
908.205	6586.75
908.442	6559.75
908.679	6481.75
908.915	6483.75
909.152	6425.75
909.389	6319.75
909.626	6362.75
909.862	6249.75
910.099	6247.75
910.335	6203.75
910.572	6132.75
910.808	6185.75
911.045	6101.75
911.281	6105.75
911.518	6121.75
911.754	6080.75
911.99	5983.75
912.226	5988.75
912.463	5926.75
912.699	5911.75
912.935	5911.75
913.171	5785.75
913.407	5739.75
913.643	5773.75
913.879	5732.75
914.114	5606.75
914.35	5574.75
914.586	5552.75
914.822	5474.75
915.057	5542.75
915.293	5375.75
915.529	5352.75
915.764	5426.75
916	5392.75
916.235	5393.75
916.471	5400.75
916.706	5343.75
916.941	5377.75
917.177	5364.75
917.412	5388.75
917.647	5337.75
917.882	5276.75
918.117	5281.75
918.352	5258.75
918.588	5333.75
918.823	5207.75
919.057	5181.75
919.292	5041.75
919.527	5109.75
919.762	5027.75
919.997	5012.75
920.232	4933.75
920.466	4918.75
920.701	4816.75
920.935	4877.75
921.17	4817.75
921.405	4779.75
921.639	4806.75
921.873	4759.75
922.108	4782.75
922.342	4766.75
922.576	4701.75
922.811	4680.75
923.045	4712.75
923.279	4721.75
923.513	4597.75
923.747	4649.75
923.981	4629.75
924.215	4533.75
924.449	4533.75
924.683	4492.75
924.917	4460.75
925.151	4467.75
925.385	4526.75
925.618	4461.75
925.852	4473.75
926.086	4408.75
926.319	4418.75
926.553	4467.75
926.786	4412.75
927.02	4395.75
927.253	4443.75
927.486	4438.75
927.72	4324.75
927.953	4481.75
928.186	4301.75
928.42	4357.75
928.653	4314.75
928.886	4256.75
929.119	4315.75
929.352	4311.75
929.585	4253.75
929.818	4253.75
930.051	4229.75
930.284	4229.75
930.516	4087.75
930.749	4093.75
930.982	4151.75
931.215	4113.75
931.447	4046.75
931.68	4049.75
931.912	4065.75
932.145	4019.75
932.377	4052.75
932.61	4138.75
932.842	3942.75
933.074	4072.75
933.307	4026.75
933.539	4118.75
933.771	4101.75
934.003	4031.75
934.236	4139.75
934.468	4255.75
934.7	4215.75
934.932	4284.75
935.164	4181.75
935.395	4236.75
935.627	4147.75
935.859	4058.75
936.091	3948.75
936.323	4006.75
936.554	3964.75
936.786	3897.75
937.017	3857.75
937.249	3887.75
937.481	3816.75
937.712	3906.75
937.943	3904.75
938.175	3864.75
938.406	3813.75
938.637	3914.75
938.869	3843.75
939.1	3879.75
939.331	3860.75
939.562	3917.75
939.793	3916.75
940.024	3998.75
940.255	4348.75
940.486	4901.75
940.717	5289.75
940.948	5247.75
941.179	4811.75
941.409	4519.75
941.64	4238.75
941.871	3958.75
942.102	3838.75
942.332	3714.75
942.563	3732.75
942.793	3727.75
943.024	3640.75
943.254	3634.75
943.484	3738.75
943.715	3727.75
943.945	3632.75
944.175	3605.75
944.405	3578.75
944.636	3609.75
944.866	3677.75
945.096	3627.75
945.326	3553.75
945.556	3664.75
945.786	3603.75
946.016	3566.75
946.245	3496.75
946.475	3475.75
946.705	3518.75
946.935	3473.75
947.164	3493.75
947.394	3466.75
947.624	3458.75
947.853	3480.75
948.083	3426.75
948.312	3390.75
948.542	3315.75
948.771	3318.75
949	3345.75
949.23	3346.75
949.459	3364.75
949.688	3414.75
949.917	3384.75
950.146	3342.75
950.375	3393.75
950.604	3270.75
950.833	3419.75
951.062	3399.75
951.291	3281.75
951.52	3272.75
951.749	3324.75
951.978	3235.75
952.206	3280.75
952.435	3250.75
952.664	3253.75
952.892	3310.75
953.121	3279.75
953.349	3301.75
953.578	3253.75
953.806	3212.75
954.035	3141.75
954.263	3191.75
954.491	3117.75
954.719	3122.75
954.948	3105.75
955.176	3103.75
955.404	3037.75
955.632	3111.75
955.86	3078.75
956.088	3068.75
956.316	3118.75
956.544	3078.75
956.772	3029.75
956.999	2980.75
957.227	3066.75
957.455	2965.75
957.683	3011.75
957.91	2925.75
958.138	2933.75
958.365	2914.75
958.593	2896.75
958.82	2878.75
959.048	2961.75
959.275	2887.75
959.502	2896.75
959.73	2884.75
959.957	2932.75
960.184	2933.75
960.411	2842.75
960.638	2919.75
960.865	2873.75
961.092	2900.75
961.319	2773.75
961.546	2897.75
961.773	2873.75
962	2837.75
962.227	2907.75
962.454	2825.75
962.68	2819.75
962.907	2849.75
963.134	2788.75
963.36	2809.75
963.587	2783.75
963.813	2727.75
964.04	2778.75
964.266	2694.75
964.493	2763.75
964.719	2753.75
964.945	2740.75
965.171	2630.75
965.398	2676.75
965.624	2687.75
965.85	2621.75
966.076	2616.75
966.302	2642.75
966.528	2602.75
966.754	2633.75
966.98	2621.75
967.206	2641.75
967.431	2536.75
967.657	2648.75
967.883	2598.75
968.109	2585.75
968.334	2547.75
968.56	2549.75
968.785	2511.75
969.011	2513.75
969.236	2553.75
969.462	2493.75
969.687	2485.75
969.912	2505.75
970.138	2534.75
970.363	2479.75
970.588	2486.75
970.813	2468.75
971.038	2435.75
971.263	2481.75
971.488	2475.75
971.713	2529.75
971.938	2491.75
972.163	2358.75
972.388	2396.75
972.613	2386.75
972.838	2357.75
973.062	2386.75
973.287	2405.75
973.512	2311.75
973.736	2357.75
973.961	2334.75
974.185	2305.75
974.41	2356.75
974.634	2237.75
974.858	2257.75
975.083	2313.75
975.307	2312.75
975.531	2250.75
975.755	2191.75
975.98	2207.75
976.204	2164.75
976.428	2130.75
976.652	2164.75
976.876	2167.75
977.1	2162.75
977.324	2129.75
977.547	2180.75
977.771	2149.75
977.995	2126.75
978.219	2118.75
978.442	2229.75
978.666	2164.75
978.89	2152.75
979.113	2117.75
979.337	2112.75
979.56	2077.75
979.783	2139.75
980.007	2073.75
980.23	2096.75
980.453	2040.75
980.677	2106.75
980.9	2065.75
981.123	1980.75
981.346	2071.75
981.569	2063.75
981.792	2055.75
982.015	2020.75
982.238	1982.75
982.461	2015.75
982.684	1962.75
982.907	2005.75
983.129	1947.75
983.352	1997.75
983.575	1976.75
983.797	1941.75
984.02	1903.75
984.242	1907.75
984.465	1937.75
984.687	1952.75
984.91	1972.75
985.132	1892.75
985.354	1963.75
985.577	1915.75
985.799	1914.75
986.021	1856.75
986.243	1862.75
986.465	1893.75
986.687	1868.75
986.909	1961.75
987.131	1891.75
987.353	1860.75
987.575	1910.75
987.797	1854.75
988.019	1812.75
988.241	1843.75
988.462	1790.75
988.684	1851.75
988.906	1885.75
989.127	1875.75
989.349	1765.75
989.57	1822.75
989.792	1846.75
990.013	1837.75
990.234	1868.75
990.456	1880.75
990.677	1843.75
990.898	1820.75
991.119	1794.75
991.341	1850.75
991.562	1748.75
991.783	1844.75
992.004	1755.75
992.225	1708.75
992.446	1749.75
992.667	1688.75
992.887	1764.75
993.108	1643.75
993.329	1792.75
993.55	1735.75
993.77	1677.75
993.991	1678.75
994.212	1720.75
994.432	1691.75
994.653	1716.75
994.873	1717.75
995.093	1608.75
995.314	1636.75
995.534	1716.75
995.754	1727.75
995.975	1737.75
996.195	1649.75
996.415	1695.75
996.635	1662.75
996.855	1721.75
997.075	1644.75
997.295	1669.75
997.515	1649.75
997.735	1699.75
997.955	1669.75
998.174	1650.75
998.394	1663.75
998.614	1679.75
998.834	1648.75
999.053	1716.75
999.273	1664.75
999.492	1705.75
999.712	1656.75
999.931	1637.75
1000.151	1637.75
1000.37	1621.75
1000.589	1687.75
1000.809	1605.75
1001.028	1705.75
1001.247	1606.75
1001.466	1530.75
1001.685	1653.75
1001.904	1619.75
1002.123	1563.75
1002.342	1587.75
1002.561	1543.75
1002.78	1583.75
1002.999	1640.75
1003.218	1574.75
1003.436	1545.75
1003.655	1587.75
1003.874	1550.75
1004.092	1561.75
1004.311	1594.75
1004.53	1542.75
1004.748	1618.75
1004.966	1563.75
1005.185	1595.75
1005.403	1607.75
1005.622	1579.75
1005.84	1651.75
1006.058	1554.75
1006.276	1568.75
1006.494	2081.75
1006.712	1580.75
1006.931	1619.75
1007.149	1549.75
1007.367	1554.75
1007.584	1612.75
1007.802	1643.75
1008.02	1585.75
1008.238	1699.75
1008.456	1728.75
1008.673	1602.75
1008.891	1744.75
1009.109	1717.75
1009.326	1772.75
1009.544	1880.75
1009.761	1823.75
1009.979	1940.75
1010.196	2010.75
1010.413	2175.75
1010.631	2271.75
1010.848	2323.75
1011.065	2362.75
1011.282	2298.75
1011.5	2252.75
1011.717	2354.75
1011.934	2295.75
1012.151	2321.75
1012.368	2314.75
1012.585	2210.75
1012.801	2308.75
1013.018	2251.75
1013.235	2261.75
1013.452	2277.75
1013.669	2298.75
1013.885	2304.75
1014.102	2369.75
1014.318	2263.75
1014.535	2248.75
1014.751	2286.75
1014.968	2284.75
1015.184	2328.75
1015.401	2215.75
1015.617	2195.75
1015.833	2172.75
1016.049	2142.75
1016.266	2158.75
1016.482	2135.75
1016.698	2039.75
1016.914	2085.75
1017.13	2017.75
1017.346	2033.75
1017.562	2087.75
1017.778	2013.75
1017.993	1999.75
1018.209	2027.75
1018.425	2014.75
1018.641	1972.75
1018.856	1954.75
1019.072	1949.75
1019.288	2034.75
1019.503	1985.75
1019.719	1907.75
1019.934	1871.75
1020.149	1969.75
1020.365	1900.75
1020.58	1813.75
1020.795	1837.75
1021.011	1762.75
1021.226	1722.75
1021.441	1734.75
1021.656	1647.75
1021.871	1539.75
1022.086	1561.75
1022.301	1528.75
1022.516	1505.75
1022.731	1565.75
1022.946	1431.75
1023.16	1422.75
1023.375	1379.75
1023.59	1338.75
1023.804	1304.75
1024.019	1382.75
1024.234	1252.75
1024.448	1250.75
1024.663	1188.75
1024.877	1181.75
1025.092	1197.75
1025.306	1226.75
1025.52	1082.75
1025.734	1169.75
1025.949	1067.75
1026.163	1026.75
1026.377	977.75
1026.591	1040.75
1026.805	955.75
1027.019	922.75
1027.233	895.75
1027.447	843.75
1027.661	944.75
1027.875	887.75
1028.088	880.75
1028.302	804.75
1028.516	799.75
1028.73	794.75
1028.943	774.75
1029.157	724.75
1029.37	665.75
1029.584	-0.25
1029.797	-2.25
1030.011	1.75
1030.224	-2.25
