Data from QEP037381__84__13-41-04-905.txt Node

Date: Wed Dec 21 13:41:04 EST 2022
User: dcclab
Spectrometer: QEP03738
Trigger mode: 4
Integration Time (sec): 1.000000E1
Scans to average: 1
Electric dark correction enabled: true
Nonlinearity correction enabled: false
Boxcar width: 0
XAxis mode: Wavelengths
Number of Pixels in Spectrum: 1044
>>>>>Begin Spectral Data<<<<<
784.041	10.5
784.3	3.5
784.558	-2.5
784.817	-5.5
785.075	85775.5
785.334	14906.5
785.592	7002.5
785.851	4838.5
786.109	3634.5
786.368	2851.5
786.626	2314.5
786.884	1960.5
787.143	1634.5
787.401	1343.5
787.659	1228.5
787.917	1050.5
788.175	970.5
788.433	865.5
788.691	791.5
788.949	741.5
789.207	682.5
789.465	595.5
789.723	586.5
789.98	548.5
790.238	574.5
790.496	554.5
790.753	516.5
791.011	579.5
791.268	506.5
791.526	494.5
791.783	510.5
792.041	502.5
792.298	429.5
792.556	500.5
792.813	471.5
793.07	437.5
793.327	421.5
793.584	490.5
793.841	425.5
794.099	465.5
794.356	496.5
794.613	421.5
794.869	461.5
795.126	408.5
795.383	398.5
795.64	415.5
795.897	367.5
796.153	431.5
796.41	407.5
796.667	397.5
796.923	404.5
797.18	415.5
797.436	439.5
797.693	396.5
797.949	442.5
798.206	480.5
798.462	396.5
798.718	452.5
798.974	425.5
799.231	457.5
799.487	438.5
799.743	465.5
799.999	498.5
800.255	479.5
800.511	458.5
800.767	521.5
801.023	493.5
801.279	511.5
801.534	543.5
801.79	604.5
802.046	602.5
802.302	722.5
802.557	841.5
802.813	1005.5
803.068	1198.5
803.324	1674.5
803.579	2193.5
803.835	2992.5
804.09	4059.5
804.345	5209.5
804.601	6551.5
804.856	7909.5
805.111	9101.5
805.366	10009.5
805.621	10790.5
805.876	11264.5
806.131	11617.5
806.386	11746.5
806.641	11930.5
806.896	12257.5
807.151	12413.5
807.406	12662.5
807.661	12868.5
807.915	13058.5
808.17	13389.5
808.425	13458.5
808.679	13592.5
808.934	13797.5
809.188	13851.5
809.443	13929.5
809.697	14174.5
809.951	14217.5
810.206	14348.5
810.46	14545.5
810.714	14559.5
810.968	14848.5
811.223	14857.5
811.477	15103.5
811.731	15158.5
811.985	15239.5
812.239	15228.5
812.493	15282.5
812.747	15365.5
813	15299.5
813.254	15484.5
813.508	15597.5
813.762	15724.5
814.015	15662.5
814.269	15866.5
814.522	15913.5
814.776	16125.5
815.03	16401.5
815.283	16572.5
815.536	16822.5
815.79	17109.5
816.043	17358.5
816.296	17566.5
816.55	17791.5
816.803	18060.5
817.056	18330.5
817.309	18552.5
817.562	18621.5
817.815	18826.5
818.068	18984.5
818.321	19064.5
818.574	19282.5
818.827	19527.5
819.079	19823.5
819.332	20257.5
819.585	20504.5
819.838	20701.5
820.09	20674.5
820.343	20900.5
820.595	20982.5
820.848	21055.5
821.1	21109.5
821.353	21236.5
821.605	21202.5
821.857	21156.5
822.11	20876.5
822.362	20937.5
822.614	20996.5
822.866	20963.5
823.118	20855.5
823.37	21104.5
823.622	21127.5
823.874	21171.5
824.126	21254.5
824.378	21285.5
824.63	21378.5
824.882	21346.5
825.134	21397.5
825.385	21387.5
825.637	21238.5
825.888	21179.5
826.14	21059.5
826.392	21151.5
826.643	20952.5
826.895	20898.5
827.146	20805.5
827.397	20795.5
827.649	20763.5
827.9	20761.5
828.151	20779.5
828.402	20803.5
828.653	20987.5
828.905	21025.5
829.156	21131.5
829.407	20927.5
829.658	21079.5
829.909	21273.5
830.159	21223.5
830.41	21280.5
830.661	21074.5
830.912	20823.5
831.162	20694.5
831.413	20828.5
831.664	20677.5
831.914	20699.5
832.165	20699.5
832.415	20702.5
832.666	20809.5
832.916	20635.5
833.167	20660.5
833.417	20718.5
833.667	20713.5
833.917	20497.5
834.168	20628.5
834.418	20555.5
834.668	20401.5
834.918	20275.5
835.168	20177.5
835.418	20058.5
835.668	20095.5
835.918	20045.5
836.167	20045.5
836.417	19883.5
836.667	19930.5
836.917	19854.5
837.166	19950.5
837.416	19964.5
837.666	19981.5
837.915	19917.5
838.165	19879.5
838.414	19875.5
838.663	19811.5
838.913	19926.5
839.162	19857.5
839.411	19895.5
839.661	19811.5
839.91	19806.5
840.159	19749.5
840.408	19754.5
840.657	19804.5
840.906	19843.5
841.155	19853.5
841.404	19801.5
841.653	19901.5
841.902	19755.5
842.15	19890.5
842.399	19960.5
842.648	20033.5
842.897	19878.5
843.145	19645.5
843.394	19613.5
843.642	19389.5
843.891	19316.5
844.139	19190.5
844.388	19102.5
844.636	18954.5
844.884	19110.5
845.133	19079.5
845.381	19040.5
845.629	19033.5
845.877	19160.5
846.125	19090.5
846.373	19050.5
846.621	18953.5
846.869	18889.5
847.117	18756.5
847.365	18662.5
847.613	18613.5
847.861	18608.5
848.108	18618.5
848.356	18489.5
848.604	18543.5
848.851	18588.5
849.099	18622.5
849.346	18600.5
849.594	18657.5
849.841	18727.5
850.089	18806.5
850.336	18946.5
850.583	18965.5
850.831	18832.5
851.078	18763.5
851.325	18786.5
851.572	18858.5
851.819	18592.5
852.066	18301.5
852.313	17914.5
852.56	17771.5
852.807	17754.5
853.054	17706.5
853.301	17665.5
853.548	17756.5
853.794	17876.5
854.041	17885.5
854.288	17915.5
854.534	18249.5
854.781	18255.5
855.028	18029.5
855.274	18109.5
855.52	18055.5
855.767	18042.5
856.013	18099.5
856.26	18353.5
856.506	17857.5
856.752	17721.5
856.998	17772.5
857.244	17905.5
857.49	17982.5
857.736	17975.5
857.982	18076.5
858.228	18032.5
858.474	17734.5
858.72	17596.5
858.966	17392.5
859.212	17152.5
859.458	17078.5
859.703	16866.5
859.949	16646.5
860.195	16679.5
860.44	16659.5
860.686	16498.5
860.931	16579.5
861.177	16457.5
861.422	16320.5
861.667	16120.5
861.913	16156.5
862.158	16156.5
862.403	16253.5
862.648	16197.5
862.893	16309.5
863.138	16225.5
863.384	16181.5
863.629	16227.5
863.873	16150.5
864.118	16183.5
864.363	15998.5
864.608	16100.5
864.853	15974.5
865.098	15873.5
865.342	15707.5
865.587	15635.5
865.832	15804.5
866.076	15690.5
866.321	15632.5
866.565	15577.5
866.81	15621.5
867.054	15621.5
867.298	15464.5
867.543	15431.5
867.787	15422.5
868.031	15281.5
868.275	15411.5
868.519	15474.5
868.764	15457.5
869.008	15322.5
869.252	15394.5
869.496	15304.5
869.739	15350.5
869.983	15388.5
870.227	15463.5
870.471	15491.5
870.715	15563.5
870.958	15686.5
871.202	15575.5
871.446	15648.5
871.689	15624.5
871.933	15597.5
872.176	15575.5
872.42	15542.5
872.663	15485.5
872.906	15528.5
873.15	15558.5
873.393	15566.5
873.636	15613.5
873.879	15382.5
874.122	15305.5
874.366	14893.5
874.609	14875.5
874.852	14633.5
875.095	14523.5
875.337	14421.5
875.58	14330.5
875.823	14362.5
876.066	14275.5
876.309	14260.5
876.551	14109.5
876.794	14080.5
877.037	14155.5
877.279	14005.5
877.522	13992.5
877.764	13982.5
878.007	13872.5
878.249	13937.5
878.491	13819.5
878.734	13803.5
878.976	13780.5
879.218	13721.5
879.46	13637.5
879.702	13533.5
879.945	13486.5
880.187	13289.5
880.429	13209.5
880.671	13147.5
880.912	13090.5
881.154	13032.5
881.396	12977.5
881.638	13061.5
881.88	12996.5
882.121	12967.5
882.363	13022.5
882.605	13035.5
882.846	12991.5
883.088	13061.5
883.329	13048.5
883.571	13147.5
883.812	13400.5
884.053	13839.5
884.295	14216.5
884.536	14527.5
884.777	14442.5
885.018	14222.5
885.259	14142.5
885.5	14008.5
885.742	14055.5
885.982	13891.5
886.223	13786.5
886.464	13580.5
886.705	13474.5
886.946	13258.5
887.187	12896.5
887.428	12709.5
887.668	12393.5
887.909	12257.5
888.15	12022.5
888.39	11961.5
888.631	11886.5
888.871	11739.5
889.111	11653.5
889.352	11520.5
889.592	11394.5
889.833	11321.5
890.073	11218.5
890.313	11135.5
890.553	11011.5
890.793	11022.5
891.033	11008.5
891.273	10900.5
891.513	10895.5
891.753	10899.5
891.993	10829.5
892.233	10947.5
892.473	10953.5
892.713	10931.5
892.952	10888.5
893.192	10901.5
893.432	10915.5
893.671	10910.5
893.911	10743.5
894.15	10776.5
894.39	10635.5
894.629	10640.5
894.869	10614.5
895.108	10534.5
895.347	10406.5
895.587	10470.5
895.826	10405.5
896.065	10401.5
896.304	10355.5
896.543	10402.5
896.782	10301.5
897.021	10261.5
897.26	10231.5
897.499	10283.5
897.738	10286.5
897.977	10190.5
898.216	10136.5
898.454	9993.5
898.693	9989.5
898.932	9978.5
899.17	9862.5
899.409	9926.5
899.647	9906.5
899.886	9863.5
900.124	9914.5
900.363	9909.5
900.601	9953.5
900.839	10002.5
901.078	10114.5
901.316	10225.5
901.554	10231.5
901.792	10350.5
902.03	10337.5
902.268	10353.5
902.506	10350.5
902.744	10265.5
902.982	10153.5
903.22	9980.5
903.458	9808.5
903.695	9527.5
903.933	9521.5
904.171	9247.5
904.409	9081.5
904.646	9052.5
904.884	8813.5
905.121	8781.5
905.359	8662.5
905.596	8610.5
905.833	8469.5
906.071	8498.5
906.308	8511.5
906.545	8388.5
906.783	8370.5
907.02	8354.5
907.257	8312.5
907.494	8312.5
907.731	8343.5
907.968	8221.5
908.205	8132.5
908.442	8147.5
908.679	8113.5
908.915	8038.5
909.152	7955.5
909.389	7879.5
909.626	7881.5
909.862	7715.5
910.099	7743.5
910.335	7757.5
910.572	7658.5
910.808	7632.5
911.045	7570.5
911.281	7590.5
911.518	7569.5
911.754	7512.5
911.99	7494.5
912.226	7430.5
912.463	7351.5
912.699	7298.5
912.935	7273.5
913.171	7222.5
913.407	7049.5
913.643	7132.5
913.879	7041.5
914.114	7009.5
914.35	6875.5
914.586	6848.5
914.822	6745.5
915.057	6872.5
915.293	6668.5
915.529	6653.5
915.764	6682.5
916	6692.5
916.235	6688.5
916.471	6617.5
916.706	6552.5
916.941	6567.5
917.177	6573.5
917.412	6573.5
917.647	6553.5
917.882	6470.5
918.117	6516.5
918.352	6539.5
918.588	6530.5
918.823	6374.5
919.057	6336.5
919.292	6201.5
919.527	6362.5
919.762	6194.5
919.997	6191.5
920.232	6051.5
920.466	6053.5
920.701	5895.5
920.935	5980.5
921.17	5871.5
921.405	5840.5
921.639	5889.5
921.873	5836.5
922.108	5857.5
922.342	5848.5
922.576	5689.5
922.811	5730.5
923.045	5699.5
923.279	5761.5
923.513	5642.5
923.747	5695.5
923.981	5562.5
924.215	5544.5
924.449	5568.5
924.683	5461.5
924.917	5466.5
925.151	5447.5
925.385	5489.5
925.618	5389.5
925.852	5443.5
926.086	5343.5
926.319	5391.5
926.553	5406.5
926.786	5394.5
927.02	5361.5
927.253	5420.5
927.486	5359.5
927.72	5328.5
927.953	5385.5
928.186	5228.5
928.42	5305.5
928.653	5251.5
928.886	5197.5
929.119	5223.5
929.352	5185.5
929.585	5167.5
929.818	5088.5
930.051	5091.5
930.284	5074.5
930.516	4947.5
930.749	4956.5
930.982	4990.5
931.215	4920.5
931.447	4826.5
931.68	4871.5
931.912	4823.5
932.145	4785.5
932.377	4882.5
932.61	5017.5
932.842	4812.5
933.074	4861.5
933.307	4779.5
933.539	4875.5
933.771	4878.5
934.003	4818.5
934.236	4932.5
934.468	4861.5
934.7	4794.5
934.932	4862.5
935.164	4813.5
935.395	4749.5
935.627	4784.5
935.859	4721.5
936.091	4677.5
936.323	4707.5
936.554	4742.5
936.786	4685.5
937.017	4607.5
937.249	4653.5
937.481	4590.5
937.712	4652.5
937.943	4592.5
938.175	4581.5
938.406	4594.5
938.637	4622.5
938.869	4498.5
939.1	4553.5
939.331	4522.5
939.562	4587.5
939.793	4540.5
940.024	4572.5
940.255	4504.5
940.486	4457.5
940.717	4441.5
940.948	4419.5
941.179	4360.5
941.409	4349.5
941.64	4366.5
941.871	4399.5
942.102	4337.5
942.332	4353.5
942.563	4403.5
942.793	4312.5
943.024	4334.5
943.254	4359.5
943.484	4440.5
943.715	4384.5
943.945	4337.5
944.175	4286.5
944.405	4277.5
944.636	4278.5
944.866	4298.5
945.096	4329.5
945.326	4244.5
945.556	4311.5
945.786	4308.5
946.016	4228.5
946.245	4142.5
946.475	4159.5
946.705	4155.5
946.935	4123.5
947.164	4111.5
947.394	4069.5
947.624	4056.5
947.853	4104.5
948.083	4050.5
948.312	4044.5
948.542	3941.5
948.771	3930.5
949	3923.5
949.23	3946.5
949.459	3965.5
949.688	4024.5
949.917	3963.5
950.146	3995.5
950.375	4031.5
950.604	3928.5
950.833	3995.5
951.062	4018.5
951.291	3933.5
951.52	3899.5
951.749	3887.5
951.978	3853.5
952.206	3852.5
952.435	3843.5
952.664	3856.5
952.892	3890.5
953.121	3849.5
953.349	3820.5
953.578	3814.5
953.806	3776.5
954.035	3722.5
954.263	3783.5
954.491	3651.5
954.719	3758.5
954.948	3696.5
955.176	3667.5
955.404	3592.5
955.632	3690.5
955.86	3660.5
956.088	3652.5
956.316	3669.5
956.544	3640.5
956.772	3579.5
956.999	3535.5
957.227	3622.5
957.455	3543.5
957.683	3535.5
957.91	3478.5
958.138	3473.5
958.365	3442.5
958.593	3439.5
958.82	3358.5
959.048	3463.5
959.275	3436.5
959.502	3411.5
959.73	3362.5
959.957	3390.5
960.184	3427.5
960.411	3329.5
960.638	3395.5
960.865	3351.5
961.092	3407.5
961.319	3287.5
961.546	3337.5
961.773	3397.5
962	3319.5
962.227	3379.5
962.454	3289.5
962.68	3305.5
962.907	3323.5
963.134	3255.5
963.36	3224.5
963.587	3280.5
963.813	3180.5
964.04	3235.5
964.266	3174.5
964.493	3218.5
964.719	3178.5
964.945	3159.5
965.171	3100.5
965.398	3128.5
965.624	3149.5
965.85	3054.5
966.076	3026.5
966.302	3114.5
966.528	2999.5
966.754	3099.5
966.98	3059.5
967.206	3079.5
967.431	2951.5
967.657	3063.5
967.883	2978.5
968.109	3026.5
968.334	2984.5
968.56	2947.5
968.785	2945.5
969.011	2890.5
969.236	2971.5
969.462	2918.5
969.687	2902.5
969.912	2977.5
970.138	2925.5
970.363	2844.5
970.588	2923.5
970.813	2861.5
971.038	2821.5
971.263	2853.5
971.488	2857.5
971.713	2875.5
971.938	2892.5
972.163	2764.5
972.388	2780.5
972.613	2758.5
972.838	2731.5
973.062	2751.5
973.287	2744.5
973.512	2682.5
973.736	2729.5
973.961	2678.5
974.185	2693.5
974.41	2678.5
974.634	2602.5
974.858	2631.5
975.083	2638.5
975.307	2644.5
975.531	2568.5
975.755	2553.5
975.98	2567.5
976.204	2458.5
976.428	2478.5
976.652	2475.5
976.876	2500.5
977.1	2504.5
977.324	2472.5
977.547	2486.5
977.771	2531.5
977.995	2494.5
978.219	2427.5
978.442	2540.5
978.666	2465.5
978.89	2477.5
979.113	2458.5
979.337	2448.5
979.56	2362.5
979.783	2468.5
980.007	2371.5
980.23	2426.5
980.453	2382.5
980.677	2402.5
980.9	2398.5
981.123	2280.5
981.346	2361.5
981.569	2352.5
981.792	2395.5
982.015	2301.5
982.238	2278.5
982.461	2306.5
982.684	2261.5
982.907	2249.5
983.129	2195.5
983.352	2314.5
983.575	2238.5
983.797	2244.5
984.02	2162.5
984.242	2192.5
984.465	2216.5
984.687	2245.5
984.91	2249.5
985.132	2214.5
985.354	2224.5
985.577	2226.5
985.799	2168.5
986.021	2094.5
986.243	2098.5
986.465	2123.5
986.687	2199.5
986.909	2193.5
987.131	2130.5
987.353	2102.5
987.575	2149.5
987.797	2092.5
988.019	2048.5
988.241	2093.5
988.462	2060.5
988.684	2095.5
988.906	2145.5
989.127	2158.5
989.349	2003.5
989.57	2060.5
989.792	2109.5
990.013	2113.5
990.234	2117.5
990.456	2114.5
990.677	2090.5
990.898	2053.5
991.119	2059.5
991.341	2086.5
991.562	1984.5
991.783	2090.5
992.004	1984.5
992.225	1936.5
992.446	1985.5
992.667	1909.5
992.887	1969.5
993.108	1884.5
993.329	1993.5
993.55	1936.5
993.77	1911.5
993.991	1911.5
994.212	1907.5
994.432	1896.5
994.653	1905.5
994.873	1884.5
995.093	1806.5
995.314	1839.5
995.534	1914.5
995.754	1917.5
995.975	1943.5
996.195	1816.5
996.415	1894.5
996.635	1834.5
996.855	1869.5
997.075	1826.5
997.295	1836.5
997.515	1830.5
997.735	1894.5
997.955	1836.5
998.174	1852.5
998.394	1816.5
998.614	1850.5
998.834	1821.5
999.053	1859.5
999.273	1847.5
999.492	1875.5
999.712	1799.5
999.931	1782.5
1000.151	1821.5
1000.37	1792.5
1000.589	1818.5
1000.809	1754.5
1001.028	1866.5
1001.247	1786.5
1001.466	1686.5
1001.685	1795.5
1001.904	1767.5
1002.123	1732.5
1002.342	1744.5
1002.561	1706.5
1002.78	1721.5
1002.999	1801.5
1003.218	1757.5
1003.436	1698.5
1003.655	1711.5
1003.874	1649.5
1004.092	1699.5
1004.311	1738.5
1004.53	1682.5
1004.748	1749.5
1004.966	1682.5
1005.185	1736.5
1005.403	1714.5
1005.622	1715.5
1005.84	1789.5
1006.058	1672.5
1006.276	1709.5
1006.494	2197.5
1006.712	1723.5
1006.931	1758.5
1007.149	1684.5
1007.367	1713.5
1007.584	1709.5
1007.802	1765.5
1008.02	1704.5
1008.238	1830.5
1008.456	1853.5
1008.673	1721.5
1008.891	1830.5
1009.109	1825.5
1009.326	1890.5
1009.544	2002.5
1009.761	1913.5
1009.979	2059.5
1010.196	2074.5
1010.413	2255.5
1010.631	2304.5
1010.848	2417.5
1011.065	2400.5
1011.282	2348.5
1011.5	2312.5
1011.717	2404.5
1011.934	2358.5
1012.151	2379.5
1012.368	2332.5
1012.585	2280.5
1012.801	2334.5
1013.018	2333.5
1013.235	2291.5
1013.452	2309.5
1013.669	2344.5
1013.885	2321.5
1014.102	2357.5
1014.318	2341.5
1014.535	2303.5
1014.751	2343.5
1014.968	2314.5
1015.184	2332.5
1015.401	2223.5
1015.617	2264.5
1015.833	2181.5
1016.049	2168.5
1016.266	2159.5
1016.482	2144.5
1016.698	2070.5
1016.914	2124.5
1017.13	2068.5
1017.346	2036.5
1017.562	2106.5
1017.778	2034.5
1017.993	1982.5
1018.209	2073.5
1018.425	1996.5
1018.641	1989.5
1018.856	1953.5
1019.072	1971.5
1019.288	2032.5
1019.503	1977.5
1019.719	1910.5
1019.934	1920.5
1020.149	1993.5
1020.365	1900.5
1020.58	1825.5
1020.795	1848.5
1021.011	1773.5
1021.226	1729.5
1021.441	1737.5
1021.656	1595.5
1021.871	1556.5
1022.086	1561.5
1022.301	1537.5
1022.516	1506.5
1022.731	1558.5
1022.946	1479.5
1023.16	1433.5
1023.375	1429.5
1023.59	1380.5
1023.804	1299.5
1024.019	1438.5
1024.234	1246.5
1024.448	1290.5
1024.663	1239.5
1024.877	1206.5
1025.092	1245.5
1025.306	1228.5
1025.52	1085.5
1025.734	1208.5
1025.949	1079.5
1026.163	1079.5
1026.377	1008.5
1026.591	1049.5
1026.805	980.5
1027.019	973.5
1027.233	934.5
1027.447	853.5
1027.661	964.5
1027.875	886.5
1028.088	894.5
1028.302	835.5
1028.516	812.5
1028.73	804.5
1028.943	773.5
1029.157	752.5
1029.37	691.5
1029.584	-3.5
1029.797	-2.5
1030.011	1.5
1030.224	-1.5
