Data from QEP037381__110__13-45-24-893.txt Node

Date: Wed Dec 21 13:45:24 EST 2022
User: dcclab
Spectrometer: QEP03738
Trigger mode: 4
Integration Time (sec): 1.000000E1
Scans to average: 1
Electric dark correction enabled: true
Nonlinearity correction enabled: false
Boxcar width: 0
XAxis mode: Wavelengths
Number of Pixels in Spectrum: 1044
>>>>>Begin Spectral Data<<<<<
784.041	13.5
784.3	-1.5
784.558	-3.5
784.817	-4.5
785.075	81011.5
785.334	14367.5
785.592	6838.5
785.851	4760.5
786.109	3609.5
786.368	2796.5
786.626	2246.5
786.884	1922.5
787.143	1605.5
787.401	1349.5
787.659	1200.5
787.917	1044.5
788.175	955.5
788.433	826.5
788.691	766.5
788.949	733.5
789.207	699.5
789.465	585.5
789.723	576.5
789.98	544.5
790.238	561.5
790.496	548.5
790.753	511.5
791.011	552.5
791.268	501.5
791.526	476.5
791.783	493.5
792.041	486.5
792.298	391.5
792.556	467.5
792.813	451.5
793.07	424.5
793.327	415.5
793.584	505.5
793.841	410.5
794.099	435.5
794.356	475.5
794.613	389.5
794.869	435.5
795.126	394.5
795.383	374.5
795.64	391.5
795.897	355.5
796.153	406.5
796.41	397.5
796.667	384.5
796.923	392.5
797.18	382.5
797.436	407.5
797.693	372.5
797.949	424.5
798.206	454.5
798.462	356.5
798.718	422.5
798.974	389.5
799.231	422.5
799.487	411.5
799.743	424.5
799.999	435.5
800.255	442.5
800.511	415.5
800.767	441.5
801.023	413.5
801.279	438.5
801.534	477.5
801.79	494.5
802.046	501.5
802.302	597.5
802.557	616.5
802.813	713.5
803.068	809.5
803.324	1076.5
803.579	1353.5
803.835	1815.5
804.09	2504.5
804.345	3164.5
804.601	4030.5
804.856	4791.5
805.111	5579.5
805.366	6179.5
805.621	6546.5
805.876	6880.5
806.131	7028.5
806.386	7123.5
806.641	7256.5
806.896	7398.5
807.151	7619.5
807.406	7704.5
807.661	7792.5
807.915	7916.5
808.17	8073.5
808.425	8102.5
808.679	8129.5
808.934	8407.5
809.188	8367.5
809.443	8459.5
809.697	8626.5
809.951	8613.5
810.206	8700.5
810.46	8826.5
810.714	8885.5
810.968	9050.5
811.223	9048.5
811.477	9147.5
811.731	9271.5
811.985	9180.5
812.239	9191.5
812.493	9275.5
812.747	9365.5
813	9349.5
813.254	9453.5
813.508	9548.5
813.762	9526.5
814.015	9596.5
814.269	9695.5
814.522	9701.5
814.776	9850.5
815.03	9953.5
815.283	10116.5
815.536	10248.5
815.79	10504.5
816.043	10660.5
816.296	10723.5
816.55	10909.5
816.803	11032.5
817.056	11244.5
817.309	11293.5
817.562	11372.5
817.815	11671.5
818.068	11574.5
818.321	11737.5
818.574	11837.5
818.827	12094.5
819.079	12181.5
819.332	12532.5
819.585	12615.5
819.838	12772.5
820.09	12751.5
820.343	12898.5
820.595	12820.5
820.848	13052.5
821.1	13133.5
821.353	13150.5
821.605	13050.5
821.857	13165.5
822.11	12992.5
822.362	12929.5
822.614	12991.5
822.866	13038.5
823.118	13001.5
823.37	13177.5
823.622	13158.5
823.874	13198.5
824.126	13296.5
824.378	13300.5
824.63	13346.5
824.882	13356.5
825.134	13249.5
825.385	13305.5
825.637	13147.5
825.888	13252.5
826.14	13238.5
826.392	13113.5
826.643	13103.5
826.895	13105.5
827.146	12985.5
827.397	12984.5
827.649	13077.5
827.9	12924.5
828.151	12975.5
828.402	12992.5
828.653	13111.5
828.905	13135.5
829.156	13167.5
829.407	13191.5
829.658	13242.5
829.909	13384.5
830.159	13381.5
830.41	13363.5
830.661	13274.5
830.912	13088.5
831.162	13081.5
831.413	13227.5
831.664	13155.5
831.914	13146.5
832.165	13081.5
832.415	13027.5
832.666	13150.5
832.916	13168.5
833.167	13119.5
833.417	13170.5
833.667	13048.5
833.917	12926.5
834.168	13070.5
834.418	13045.5
834.668	13035.5
834.918	12946.5
835.168	12916.5
835.418	12782.5
835.668	12824.5
835.918	12824.5
836.167	12849.5
836.417	12722.5
836.667	12835.5
836.917	12757.5
837.166	12735.5
837.416	12874.5
837.666	12780.5
837.915	12827.5
838.165	12748.5
838.414	12722.5
838.663	12729.5
838.913	12773.5
839.162	12815.5
839.411	12876.5
839.661	12745.5
839.91	12799.5
840.159	12720.5
840.408	12809.5
840.657	12848.5
840.906	12859.5
841.155	12874.5
841.404	12771.5
841.653	12914.5
841.902	12873.5
842.15	12944.5
842.399	12907.5
842.648	12932.5
842.897	12958.5
843.145	12817.5
843.394	12756.5
843.642	12737.5
843.891	12579.5
844.139	12483.5
844.388	12492.5
844.636	12386.5
844.884	12440.5
845.133	12370.5
845.381	12356.5
845.629	12457.5
845.877	12375.5
846.125	12412.5
846.373	12401.5
846.621	12299.5
846.869	12422.5
847.117	12368.5
847.365	12258.5
847.613	12105.5
847.861	12166.5
848.108	12230.5
848.356	12172.5
848.604	12089.5
848.851	12186.5
849.099	12266.5
849.346	12269.5
849.594	12373.5
849.841	12412.5
850.089	12460.5
850.336	12556.5
850.583	12640.5
850.831	12540.5
851.078	12502.5
851.325	12497.5
851.572	12495.5
851.819	12449.5
852.066	12079.5
852.313	11966.5
852.56	11748.5
852.807	11751.5
853.054	11776.5
853.301	11756.5
853.548	11845.5
853.794	11941.5
854.041	11951.5
854.288	12032.5
854.534	12176.5
854.781	12158.5
855.028	12163.5
855.274	12190.5
855.52	12126.5
855.767	12036.5
856.013	12296.5
856.26	12484.5
856.506	12056.5
856.752	11979.5
856.998	11998.5
857.244	11963.5
857.49	12115.5
857.736	12146.5
857.982	12148.5
858.228	12153.5
858.474	11920.5
858.72	11883.5
858.966	11783.5
859.212	11610.5
859.458	11401.5
859.703	11356.5
859.949	11279.5
860.195	11325.5
860.44	11221.5
860.686	11222.5
860.931	11245.5
861.177	11102.5
861.422	11071.5
861.667	10925.5
861.913	10932.5
862.158	10925.5
862.403	10958.5
862.648	11030.5
862.893	11095.5
863.138	11011.5
863.384	10979.5
863.629	11027.5
863.873	11030.5
864.118	10969.5
864.363	10896.5
864.608	10989.5
864.853	10983.5
865.098	10773.5
865.342	10814.5
865.587	10758.5
865.832	10735.5
866.076	10708.5
866.321	10712.5
866.565	10775.5
866.81	10608.5
867.054	10724.5
867.298	10631.5
867.543	10587.5
867.787	10639.5
868.031	10559.5
868.275	10697.5
868.519	10562.5
868.764	10554.5
869.008	10622.5
869.252	10668.5
869.496	10692.5
869.739	10632.5
869.983	10694.5
870.227	10738.5
870.471	10742.5
870.715	10843.5
870.958	10897.5
871.202	10924.5
871.446	10951.5
871.689	10894.5
871.933	10963.5
872.176	10929.5
872.42	10886.5
872.663	10940.5
872.906	10972.5
873.15	10989.5
873.393	11028.5
873.636	11052.5
873.879	10912.5
874.122	10835.5
874.366	10539.5
874.609	10503.5
874.852	10364.5
875.095	10301.5
875.337	10181.5
875.58	10178.5
875.823	10122.5
876.066	10119.5
876.309	10136.5
876.551	10008.5
876.794	9921.5
877.037	9949.5
877.279	9858.5
877.522	9895.5
877.764	9918.5
878.007	9878.5
878.249	9842.5
878.491	9817.5
878.734	9769.5
878.976	9811.5
879.218	9689.5
879.46	9652.5
879.702	9601.5
879.945	9492.5
880.187	9403.5
880.429	9379.5
880.671	9309.5
880.912	9332.5
881.154	9324.5
881.396	9251.5
881.638	9271.5
881.88	9363.5
882.121	9296.5
882.363	9339.5
882.605	9324.5
882.846	9288.5
883.088	9394.5
883.329	9355.5
883.571	9543.5
883.812	9751.5
884.053	10096.5
884.295	10455.5
884.536	10788.5
884.777	10677.5
885.018	10551.5
885.259	10494.5
885.5	10254.5
885.742	10470.5
885.982	10243.5
886.223	10083.5
886.464	10027.5
886.705	9794.5
886.946	9734.5
887.187	9439.5
887.428	9272.5
887.668	9032.5
887.909	8929.5
888.15	8744.5
888.39	8719.5
888.631	8685.5
888.871	8518.5
889.111	8469.5
889.352	8378.5
889.592	8279.5
889.833	8266.5
890.073	8189.5
890.313	8138.5
890.553	8028.5
890.793	8015.5
891.033	8024.5
891.273	7956.5
891.513	7921.5
891.753	7942.5
891.993	7941.5
892.233	7965.5
892.473	8030.5
892.713	8018.5
892.952	8001.5
893.192	7984.5
893.432	8022.5
893.671	8042.5
893.911	7968.5
894.15	7998.5
894.39	7804.5
894.629	7808.5
894.869	7909.5
895.108	7767.5
895.347	7737.5
895.587	7744.5
895.826	7696.5
896.065	7638.5
896.304	7779.5
896.543	7750.5
896.782	7651.5
897.021	7695.5
897.26	7715.5
897.499	7758.5
897.738	7698.5
897.977	7660.5
898.216	7617.5
898.454	7530.5
898.693	7558.5
898.932	7567.5
899.17	7473.5
899.409	7525.5
899.647	7478.5
899.886	7488.5
900.124	7538.5
900.363	7580.5
900.601	7545.5
900.839	7708.5
901.078	7728.5
901.316	7818.5
901.554	7973.5
901.792	7972.5
902.03	8001.5
902.268	8106.5
902.506	8047.5
902.744	7928.5
902.982	7936.5
903.22	7708.5
903.458	7561.5
903.695	7419.5
903.933	7276.5
904.171	7107.5
904.409	6980.5
904.646	6938.5
904.884	6760.5
905.121	6709.5
905.359	6602.5
905.596	6544.5
905.833	6437.5
906.071	6354.5
906.308	6460.5
906.545	6368.5
906.783	6317.5
907.02	6388.5
907.257	6320.5
907.494	6351.5
907.731	6314.5
907.968	6327.5
908.205	6274.5
908.442	6193.5
908.679	6159.5
908.915	6118.5
909.152	6109.5
909.389	6020.5
909.626	6001.5
909.862	6003.5
910.099	5969.5
910.335	5929.5
910.572	5843.5
910.808	5863.5
911.045	5820.5
911.281	5847.5
911.518	5850.5
911.754	5781.5
911.99	5777.5
912.226	5725.5
912.463	5643.5
912.699	5603.5
912.935	5537.5
913.171	5534.5
913.407	5501.5
913.643	5471.5
913.879	5425.5
914.114	5371.5
914.35	5352.5
914.586	5309.5
914.822	5282.5
915.057	5346.5
915.293	5148.5
915.529	5147.5
915.764	5284.5
916	5250.5
916.235	5177.5
916.471	5203.5
916.706	5055.5
916.941	5138.5
917.177	5170.5
917.412	5163.5
917.647	5181.5
917.882	5073.5
918.117	5177.5
918.352	5130.5
918.588	5147.5
918.823	4988.5
919.057	5020.5
919.292	4884.5
919.527	4991.5
919.762	4873.5
919.997	4905.5
920.232	4819.5
920.466	4750.5
920.701	4665.5
920.935	4739.5
921.17	4658.5
921.405	4637.5
921.639	4663.5
921.873	4629.5
922.108	4614.5
922.342	4634.5
922.576	4578.5
922.811	4537.5
923.045	4581.5
923.279	4568.5
923.513	4466.5
923.747	4525.5
923.981	4477.5
924.215	4456.5
924.449	4413.5
924.683	4347.5
924.917	4372.5
925.151	4359.5
925.385	4435.5
925.618	4367.5
925.852	4401.5
926.086	4291.5
926.319	4305.5
926.553	4326.5
926.786	4307.5
927.02	4316.5
927.253	4386.5
927.486	4351.5
927.72	4285.5
927.953	4335.5
928.186	4283.5
928.42	4292.5
928.653	4266.5
928.886	4227.5
929.119	4266.5
929.352	4235.5
929.585	4248.5
929.818	4134.5
930.051	4192.5
930.284	4121.5
930.516	4025.5
930.749	4044.5
930.982	4073.5
931.215	4055.5
931.447	4000.5
931.68	3994.5
931.912	3993.5
932.145	3927.5
932.377	3939.5
932.61	4159.5
932.842	3917.5
933.074	4012.5
933.307	3964.5
933.539	4051.5
933.771	4015.5
934.003	3994.5
934.236	4044.5
934.468	4049.5
934.7	3979.5
934.932	4009.5
935.164	3939.5
935.395	3909.5
935.627	3933.5
935.859	3974.5
936.091	3870.5
936.323	3962.5
936.554	4027.5
936.786	3896.5
937.017	3888.5
937.249	3870.5
937.481	3808.5
937.712	3879.5
937.943	3823.5
938.175	3847.5
938.406	3817.5
938.637	3882.5
938.869	3768.5
939.1	3828.5
939.331	3794.5
939.562	3830.5
939.793	3809.5
940.024	3823.5
940.255	3825.5
940.486	3745.5
940.717	3756.5
940.948	3796.5
941.179	3693.5
941.409	3719.5
941.64	3702.5
941.871	3747.5
942.102	3686.5
942.332	3718.5
942.563	3725.5
942.793	3720.5
943.024	3650.5
943.254	3714.5
943.484	3739.5
943.715	3732.5
943.945	3720.5
944.175	3642.5
944.405	3640.5
944.636	3643.5
944.866	3698.5
945.096	3671.5
945.326	3598.5
945.556	3656.5
945.786	3649.5
946.016	3617.5
946.245	3574.5
946.475	3585.5
946.705	3577.5
946.935	3563.5
947.164	3562.5
947.394	3475.5
947.624	3512.5
947.853	3556.5
948.083	3499.5
948.312	3443.5
948.542	3403.5
948.771	3401.5
949	3394.5
949.23	3418.5
949.459	3422.5
949.688	3467.5
949.917	3431.5
950.146	3431.5
950.375	3522.5
950.604	3403.5
950.833	3486.5
951.062	3496.5
951.291	3444.5
951.52	3366.5
951.749	3402.5
951.978	3363.5
952.206	3346.5
952.435	3330.5
952.664	3441.5
952.892	3402.5
953.121	3319.5
953.349	3352.5
953.578	3345.5
953.806	3314.5
954.035	3285.5
954.263	3319.5
954.491	3239.5
954.719	3295.5
954.948	3223.5
955.176	3224.5
955.404	3129.5
955.632	3227.5
955.86	3224.5
956.088	3154.5
956.316	3198.5
956.544	3224.5
956.772	3171.5
956.999	3122.5
957.227	3213.5
957.455	3099.5
957.683	3109.5
957.91	3097.5
958.138	3047.5
958.365	3063.5
958.593	3045.5
958.82	2984.5
959.048	3027.5
959.275	2996.5
959.502	2991.5
959.73	2990.5
959.957	3017.5
960.184	3025.5
960.411	2958.5
960.638	3052.5
960.865	2963.5
961.092	2995.5
961.319	2897.5
961.546	2976.5
961.773	3044.5
962	2969.5
962.227	3011.5
962.454	2944.5
962.68	2960.5
962.907	2960.5
963.134	2907.5
963.36	2889.5
963.587	2948.5
963.813	2812.5
964.04	2890.5
964.266	2825.5
964.493	2902.5
964.719	2872.5
964.945	2839.5
965.171	2725.5
965.398	2835.5
965.624	2826.5
965.85	2724.5
966.076	2765.5
966.302	2775.5
966.528	2775.5
966.754	2783.5
966.98	2735.5
967.206	2703.5
967.431	2713.5
967.657	2788.5
967.883	2776.5
968.109	2741.5
968.334	2667.5
968.56	2657.5
968.785	2639.5
969.011	2646.5
969.236	2702.5
969.462	2643.5
969.687	2617.5
969.912	2652.5
970.138	2709.5
970.363	2647.5
970.588	2648.5
970.813	2593.5
971.038	2599.5
971.263	2617.5
971.488	2597.5
971.713	2617.5
971.938	2657.5
972.163	2501.5
972.388	2558.5
972.613	2524.5
972.838	2530.5
973.062	2508.5
973.287	2538.5
973.512	2493.5
973.736	2502.5
973.961	2503.5
974.185	2462.5
974.41	2511.5
974.634	2413.5
974.858	2413.5
975.083	2444.5
975.307	2471.5
975.531	2406.5
975.755	2337.5
975.98	2364.5
976.204	2291.5
976.428	2321.5
976.652	2308.5
976.876	2289.5
977.1	2321.5
977.324	2293.5
977.547	2325.5
977.771	2333.5
977.995	2287.5
978.219	2259.5
978.442	2371.5
978.666	2322.5
978.89	2294.5
979.113	2255.5
979.337	2290.5
979.56	2255.5
979.783	2336.5
980.007	2216.5
980.23	2254.5
980.453	2190.5
980.677	2248.5
980.9	2218.5
981.123	2129.5
981.346	2247.5
981.569	2242.5
981.792	2241.5
982.015	2207.5
982.238	2148.5
982.461	2180.5
982.684	2159.5
982.907	2112.5
983.129	2143.5
983.352	2153.5
983.575	2149.5
983.797	2150.5
984.02	2095.5
984.242	2079.5
984.465	2081.5
984.687	2092.5
984.91	2127.5
985.132	2119.5
985.354	2138.5
985.577	2086.5
985.799	2084.5
986.021	1972.5
986.243	2027.5
986.465	2034.5
986.687	2107.5
986.909	2125.5
987.131	2053.5
987.353	2016.5
987.575	2026.5
987.797	2001.5
988.019	1988.5
988.241	2012.5
988.462	1953.5
988.684	2009.5
988.906	2054.5
989.127	2033.5
989.349	1954.5
989.57	1976.5
989.792	2033.5
990.013	2053.5
990.234	2037.5
990.456	2056.5
990.677	2018.5
990.898	1986.5
991.119	1971.5
991.341	1993.5
991.562	1955.5
991.783	1969.5
992.004	1885.5
992.225	1858.5
992.446	1927.5
992.667	1858.5
992.887	1913.5
993.108	1826.5
993.329	1930.5
993.55	1888.5
993.77	1822.5
993.991	1841.5
994.212	1885.5
994.432	1824.5
994.653	1862.5
994.873	1887.5
995.093	1765.5
995.314	1825.5
995.534	1867.5
995.754	1895.5
995.975	1925.5
996.195	1801.5
996.415	1856.5
996.635	1852.5
996.855	1874.5
997.075	1846.5
997.295	1829.5
997.515	1822.5
997.735	1857.5
997.955	1837.5
998.174	1822.5
998.394	1813.5
998.614	1882.5
998.834	1793.5
999.053	1876.5
999.273	1838.5
999.492	1859.5
999.712	1828.5
999.931	1758.5
1000.151	1768.5
1000.37	1797.5
1000.589	1847.5
1000.809	1736.5
1001.028	1847.5
1001.247	1803.5
1001.466	1682.5
1001.685	1790.5
1001.904	1775.5
1002.123	1743.5
1002.342	1757.5
1002.561	1695.5
1002.78	1733.5
1002.999	1779.5
1003.218	1741.5
1003.436	1692.5
1003.655	1775.5
1003.874	1719.5
1004.092	1719.5
1004.311	1737.5
1004.53	1692.5
1004.748	1780.5
1004.966	1716.5
1005.185	1755.5
1005.403	1733.5
1005.622	1724.5
1005.84	1782.5
1006.058	1690.5
1006.276	1692.5
1006.494	2240.5
1006.712	1738.5
1006.931	1837.5
1007.149	1720.5
1007.367	1758.5
1007.584	1799.5
1007.802	1853.5
1008.02	1781.5
1008.238	1894.5
1008.456	1935.5
1008.673	1833.5
1008.891	1956.5
1009.109	1939.5
1009.326	2008.5
1009.544	2161.5
1009.761	2134.5
1009.979	2262.5
1010.196	2305.5
1010.413	2533.5
1010.631	2671.5
1010.848	2778.5
1011.065	2792.5
1011.282	2775.5
1011.5	2691.5
1011.717	2794.5
1011.934	2713.5
1012.151	2755.5
1012.368	2718.5
1012.585	2711.5
1012.801	2700.5
1013.018	2706.5
1013.235	2699.5
1013.452	2706.5
1013.669	2788.5
1013.885	2742.5
1014.102	2802.5
1014.318	2776.5
1014.535	2747.5
1014.751	2741.5
1014.968	2741.5
1015.184	2801.5
1015.401	2628.5
1015.617	2687.5
1015.833	2603.5
1016.049	2608.5
1016.266	2560.5
1016.482	2543.5
1016.698	2483.5
1016.914	2542.5
1017.13	2481.5
1017.346	2447.5
1017.562	2500.5
1017.778	2399.5
1017.993	2385.5
1018.209	2420.5
1018.425	2390.5
1018.641	2375.5
1018.856	2376.5
1019.072	2395.5
1019.288	2425.5
1019.503	2378.5
1019.719	2290.5
1019.934	2277.5
1020.149	2357.5
1020.365	2274.5
1020.58	2191.5
1020.795	2210.5
1021.011	2080.5
1021.226	2042.5
1021.441	2036.5
1021.656	1925.5
1021.871	1863.5
1022.086	1830.5
1022.301	1812.5
1022.516	1778.5
1022.731	1814.5
1022.946	1689.5
1023.16	1683.5
1023.375	1623.5
1023.59	1605.5
1023.804	1527.5
1024.019	1600.5
1024.234	1454.5
1024.448	1481.5
1024.663	1397.5
1024.877	1405.5
1025.092	1412.5
1025.306	1371.5
1025.52	1290.5
1025.734	1337.5
1025.949	1245.5
1026.163	1205.5
1026.377	1142.5
1026.591	1187.5
1026.805	1083.5
1027.019	1084.5
1027.233	1027.5
1027.447	994.5
1027.661	1080.5
1027.875	1014.5
1028.088	1028.5
1028.302	926.5
1028.516	918.5
1028.73	898.5
1028.943	890.5
1029.157	816.5
1029.37	765.5
1029.584	-2.5
1029.797	0.5
1030.011	-0.5
1030.224	-1.5
