Data from QEP037381__100__13-43-44-898.txt Node

Date: Wed Dec 21 13:43:44 EST 2022
User: dcclab
Spectrometer: QEP03738
Trigger mode: 4
Integration Time (sec): 1.000000E1
Scans to average: 1
Electric dark correction enabled: true
Nonlinearity correction enabled: false
Boxcar width: 0
XAxis mode: Wavelengths
Number of Pixels in Spectrum: 1044
>>>>>Begin Spectral Data<<<<<
784.041	12.5
784.3	4.5
784.558	-1.5
784.817	-5.5
785.075	84278.5
785.334	14600.5
785.592	6919.5
785.851	4808.5
786.109	3628.5
786.368	2823.5
786.626	2274.5
786.884	1920.5
787.143	1598.5
787.401	1350.5
787.659	1210.5
787.917	1055.5
788.175	967.5
788.433	846.5
788.691	779.5
788.949	724.5
789.207	694.5
789.465	604.5
789.723	601.5
789.98	559.5
790.238	576.5
790.496	557.5
790.753	533.5
791.011	580.5
791.268	495.5
791.526	489.5
791.783	528.5
792.041	500.5
792.298	430.5
792.556	486.5
792.813	457.5
793.07	436.5
793.327	435.5
793.584	513.5
793.841	436.5
794.099	465.5
794.356	513.5
794.613	419.5
794.869	467.5
795.126	422.5
795.383	400.5
795.64	416.5
795.897	378.5
796.153	437.5
796.41	422.5
796.667	409.5
796.923	428.5
797.18	424.5
797.436	442.5
797.693	401.5
797.949	461.5
798.206	487.5
798.462	383.5
798.718	470.5
798.974	456.5
799.231	486.5
799.487	469.5
799.743	467.5
799.999	492.5
800.255	494.5
800.511	491.5
800.767	521.5
801.023	522.5
801.279	544.5
801.534	568.5
801.79	621.5
802.046	658.5
802.302	789.5
802.557	877.5
802.813	1070.5
803.068	1360.5
803.324	1813.5
803.579	2469.5
803.835	3364.5
804.09	4617.5
804.345	6046.5
804.601	7517.5
804.856	9142.5
805.111	10549.5
805.366	11718.5
805.621	12516.5
805.876	13146.5
806.131	13547.5
806.386	13868.5
806.641	14173.5
806.896	14269.5
807.151	14622.5
807.406	14817.5
807.661	15130.5
807.915	15414.5
808.17	15672.5
808.425	15876.5
808.679	15964.5
808.934	16180.5
809.188	16346.5
809.443	16455.5
809.697	16730.5
809.951	16814.5
810.206	16969.5
810.46	17109.5
810.714	17255.5
810.968	17565.5
811.223	17643.5
811.477	17821.5
811.731	17988.5
811.985	18008.5
812.239	18060.5
812.493	18098.5
812.747	18270.5
813	18241.5
813.254	18483.5
813.508	18534.5
813.762	18637.5
814.015	18653.5
814.269	18964.5
814.522	19025.5
814.776	19296.5
815.03	19513.5
815.283	19868.5
815.536	20170.5
815.79	20543.5
816.043	20823.5
816.296	21103.5
816.55	21340.5
816.803	21703.5
817.056	22028.5
817.309	22144.5
817.562	22363.5
817.815	22616.5
818.068	22693.5
818.321	23133.5
818.574	23301.5
818.827	23550.5
819.079	23977.5
819.332	24479.5
819.585	24628.5
819.838	24977.5
820.09	25247.5
820.343	25381.5
820.595	25451.5
820.848	25555.5
821.1	25692.5
821.353	25874.5
821.605	25708.5
821.857	25682.5
822.11	25531.5
822.362	25526.5
822.614	25507.5
822.866	25635.5
823.118	25580.5
823.37	25685.5
823.622	25747.5
823.874	25839.5
824.126	26028.5
824.378	25984.5
824.63	26087.5
824.882	26184.5
825.134	26138.5
825.385	26090.5
825.637	25976.5
825.888	26011.5
826.14	25943.5
826.392	25794.5
826.643	25655.5
826.895	25733.5
827.146	25534.5
827.397	25453.5
827.649	25573.5
827.9	25538.5
828.151	25551.5
828.402	25654.5
828.653	25739.5
828.905	25868.5
829.156	25877.5
829.407	26003.5
829.658	26117.5
829.909	26117.5
830.159	26253.5
830.41	26021.5
830.661	25850.5
830.912	25757.5
831.162	25777.5
831.413	25529.5
831.664	25680.5
831.914	25627.5
832.165	25600.5
832.415	25475.5
832.666	25744.5
832.916	25658.5
833.167	25591.5
833.417	25618.5
833.667	25507.5
833.917	25465.5
834.168	25394.5
834.418	25316.5
834.668	25193.5
834.918	25070.5
835.168	25122.5
835.418	24950.5
835.668	24876.5
835.918	24997.5
836.167	24859.5
836.417	24735.5
836.667	24723.5
836.917	24804.5
837.166	24779.5
837.416	24848.5
837.666	24803.5
837.915	24773.5
838.165	24734.5
838.414	24626.5
838.663	24568.5
838.913	24608.5
839.162	24694.5
839.411	24750.5
839.661	24618.5
839.91	24551.5
840.159	24547.5
840.408	24483.5
840.657	24495.5
840.906	24553.5
841.155	24673.5
841.404	24616.5
841.653	24657.5
841.902	24737.5
842.15	24809.5
842.399	24813.5
842.648	24783.5
842.897	24722.5
843.145	24487.5
843.394	24336.5
843.642	24173.5
843.891	24087.5
844.139	24071.5
844.388	23880.5
844.636	23819.5
844.884	23957.5
845.133	23773.5
845.381	23701.5
845.629	23859.5
845.877	23799.5
846.125	23797.5
846.373	23768.5
846.621	23677.5
846.869	23610.5
847.117	23454.5
847.365	23397.5
847.613	23358.5
847.861	23283.5
848.108	23349.5
848.356	23301.5
848.604	23237.5
848.851	23268.5
849.099	23293.5
849.346	23445.5
849.594	23559.5
849.841	23521.5
850.089	23593.5
850.336	23787.5
850.583	23818.5
850.831	23722.5
851.078	23681.5
851.325	23477.5
851.572	23628.5
851.819	23342.5
852.066	22857.5
852.313	22513.5
852.56	22357.5
852.807	22330.5
853.054	22219.5
853.301	22243.5
853.548	22303.5
853.794	22418.5
854.041	22463.5
854.288	22628.5
854.534	22765.5
854.781	22786.5
855.028	22744.5
855.274	22698.5
855.52	22615.5
855.767	22420.5
856.013	22509.5
856.26	22824.5
856.506	22323.5
856.752	22366.5
856.998	22379.5
857.244	22466.5
857.49	22454.5
857.736	22519.5
857.982	22605.5
858.228	22678.5
858.474	22329.5
858.72	22229.5
858.966	21989.5
859.212	21861.5
859.458	21476.5
859.703	21410.5
859.949	21112.5
860.195	21040.5
860.44	20928.5
860.686	20869.5
860.931	20969.5
861.177	20873.5
861.422	20635.5
861.667	20558.5
861.913	20603.5
862.158	20538.5
862.403	20625.5
862.648	20720.5
862.893	20740.5
863.138	20807.5
863.384	20698.5
863.629	20614.5
863.873	20575.5
864.118	20692.5
864.363	20562.5
864.608	20502.5
864.853	20393.5
865.098	20323.5
865.342	20344.5
865.587	20139.5
865.832	20314.5
866.076	20131.5
866.321	20063.5
866.565	20061.5
866.81	19860.5
867.054	19960.5
867.298	19854.5
867.543	19717.5
867.787	19797.5
868.031	19747.5
868.275	19759.5
868.519	19676.5
868.764	19704.5
869.008	19736.5
869.252	19710.5
869.496	19590.5
869.739	19671.5
869.983	19690.5
870.227	19687.5
870.471	19739.5
870.715	19846.5
870.958	19785.5
871.202	19928.5
871.446	19877.5
871.689	19902.5
871.933	20002.5
872.176	19977.5
872.42	19897.5
872.663	19760.5
872.906	19737.5
873.15	19755.5
873.393	19697.5
873.636	19598.5
873.879	19334.5
874.122	19292.5
874.366	18959.5
874.609	18878.5
874.852	18675.5
875.095	18585.5
875.337	18493.5
875.58	18393.5
875.823	18360.5
876.066	18364.5
876.309	18258.5
876.551	18209.5
876.794	18211.5
877.037	18124.5
877.279	18018.5
877.522	17999.5
877.764	17994.5
878.007	17954.5
878.249	17901.5
878.491	17837.5
878.734	17886.5
878.976	17764.5
879.218	17635.5
879.46	17625.5
879.702	17551.5
879.945	17402.5
880.187	17235.5
880.429	17219.5
880.671	17094.5
880.912	16998.5
881.154	16993.5
881.396	16917.5
881.638	17062.5
881.88	16953.5
882.121	16880.5
882.363	16963.5
882.605	16892.5
882.846	16840.5
883.088	16867.5
883.329	16877.5
883.571	16952.5
883.812	17167.5
884.053	17453.5
884.295	17767.5
884.536	18067.5
884.777	17918.5
885.018	17761.5
885.259	17658.5
885.5	17618.5
885.742	17775.5
885.982	17545.5
886.223	17387.5
886.464	17204.5
886.705	17043.5
886.946	16941.5
887.187	16562.5
887.428	16424.5
887.668	16055.5
887.909	15913.5
888.15	15768.5
888.39	15636.5
888.631	15609.5
888.871	15472.5
889.111	15340.5
889.352	15212.5
889.592	15118.5
889.833	14939.5
890.073	14896.5
890.313	14819.5
890.553	14626.5
890.793	14620.5
891.033	14526.5
891.273	14445.5
891.513	14410.5
891.753	14380.5
891.993	14271.5
892.233	14448.5
892.473	14524.5
892.713	14455.5
892.952	14417.5
893.192	14477.5
893.432	14428.5
893.671	14453.5
893.911	14357.5
894.15	14279.5
894.39	14176.5
894.629	14043.5
894.869	14086.5
895.108	13912.5
895.347	13916.5
895.587	13946.5
895.826	13833.5
896.065	13885.5
896.304	13798.5
896.543	13778.5
896.782	13730.5
897.021	13824.5
897.26	13583.5
897.499	13662.5
897.738	13616.5
897.977	13527.5
898.216	13400.5
898.454	13319.5
898.693	13205.5
898.932	13251.5
899.17	13146.5
899.409	13189.5
899.647	13045.5
899.886	13167.5
900.124	13178.5
900.363	13136.5
900.601	13216.5
900.839	13188.5
901.078	13382.5
901.316	13393.5
901.554	13441.5
901.792	13537.5
902.03	13606.5
902.268	13505.5
902.506	13544.5
902.744	13378.5
902.982	13374.5
903.22	13111.5
903.458	12813.5
903.695	12701.5
903.933	12470.5
904.171	12274.5
904.409	12134.5
904.646	11997.5
904.884	11828.5
905.121	11670.5
905.359	11588.5
905.596	11445.5
905.833	11373.5
906.071	11309.5
906.308	11348.5
906.545	11231.5
906.783	11171.5
907.02	11167.5
907.257	11156.5
907.494	11142.5
907.731	11115.5
907.968	11036.5
908.205	10985.5
908.442	10837.5
908.679	10830.5
908.915	10721.5
909.152	10727.5
909.389	10543.5
909.626	10544.5
909.862	10473.5
910.099	10413.5
910.335	10433.5
910.572	10228.5
910.808	10303.5
911.045	10254.5
911.281	10249.5
911.518	10270.5
911.754	10143.5
911.99	10059.5
912.226	10024.5
912.463	9975.5
912.699	9812.5
912.935	9784.5
913.171	9693.5
913.407	9577.5
913.643	9575.5
913.879	9492.5
914.114	9418.5
914.35	9319.5
914.586	9196.5
914.822	9163.5
915.057	9202.5
915.293	8987.5
915.529	9044.5
915.764	9004.5
916	9038.5
916.235	8965.5
916.471	8983.5
916.706	8921.5
916.941	8930.5
917.177	8900.5
917.412	8994.5
917.647	8951.5
917.882	8823.5
918.117	8863.5
918.352	8826.5
918.588	8797.5
918.823	8713.5
919.057	8612.5
919.292	8511.5
919.527	8521.5
919.762	8386.5
919.997	8447.5
920.232	8222.5
920.466	8256.5
920.701	8064.5
920.935	8082.5
921.17	8000.5
921.405	7954.5
921.639	7957.5
921.873	7849.5
922.108	7926.5
922.342	7821.5
922.576	7744.5
922.811	7755.5
923.045	7791.5
923.279	7809.5
923.513	7658.5
923.747	7700.5
923.981	7612.5
924.215	7508.5
924.449	7514.5
924.683	7418.5
924.917	7399.5
925.151	7385.5
925.385	7410.5
925.618	7411.5
925.852	7347.5
926.086	7304.5
926.319	7322.5
926.553	7304.5
926.786	7302.5
927.02	7364.5
927.253	7326.5
927.486	7292.5
927.72	7194.5
927.953	7313.5
928.186	7212.5
928.42	7263.5
928.653	7194.5
928.886	7076.5
929.119	7052.5
929.352	7033.5
929.585	7049.5
929.818	6934.5
930.051	6907.5
930.284	6861.5
930.516	6704.5
930.749	6770.5
930.982	6821.5
931.215	6737.5
931.447	6658.5
931.68	6627.5
931.912	6655.5
932.145	6638.5
932.377	6621.5
932.61	6712.5
932.842	6572.5
933.074	6613.5
933.307	6553.5
933.539	6675.5
933.771	6574.5
934.003	6608.5
934.236	6744.5
934.468	6823.5
934.7	6791.5
934.932	6845.5
935.164	6751.5
935.395	6642.5
935.627	6566.5
935.859	6556.5
936.091	6401.5
936.323	6432.5
936.554	6427.5
936.786	6410.5
937.017	6280.5
937.249	6338.5
937.481	6293.5
937.712	6321.5
937.943	6289.5
938.175	6270.5
938.406	6279.5
938.637	6352.5
938.869	6242.5
939.1	6313.5
939.331	6306.5
939.562	6409.5
939.793	6514.5
940.024	6916.5
940.255	7650.5
940.486	8178.5
940.717	8148.5
940.948	7693.5
941.179	7184.5
941.409	6784.5
941.64	6361.5
941.871	6267.5
942.102	6126.5
942.332	6026.5
942.563	6081.5
942.793	6004.5
943.024	5900.5
943.254	5967.5
943.484	5984.5
943.715	5957.5
943.945	5929.5
944.175	5875.5
944.405	5861.5
944.636	5852.5
944.866	5904.5
945.096	5871.5
945.326	5759.5
945.556	5823.5
945.786	5858.5
946.016	5768.5
946.245	5654.5
946.475	5712.5
946.705	5653.5
946.935	5602.5
947.164	5606.5
947.394	5570.5
947.624	5578.5
947.853	5553.5
948.083	5495.5
948.312	5501.5
948.542	5437.5
948.771	5439.5
949	5395.5
949.23	5380.5
949.459	5368.5
949.688	5432.5
949.917	5367.5
950.146	5361.5
950.375	5450.5
950.604	5333.5
950.833	5430.5
951.062	5394.5
951.291	5344.5
951.52	5288.5
951.749	5291.5
951.978	5257.5
952.206	5292.5
952.435	5241.5
952.664	5300.5
952.892	5223.5
953.121	5239.5
953.349	5240.5
953.578	5187.5
953.806	5142.5
954.035	5032.5
954.263	5085.5
954.491	4989.5
954.719	5050.5
954.948	4963.5
955.176	4925.5
955.404	4903.5
955.632	4992.5
955.86	4959.5
956.088	4942.5
956.316	4878.5
956.544	4892.5
956.772	4804.5
956.999	4767.5
957.227	4835.5
957.455	4776.5
957.683	4755.5
957.91	4649.5
958.138	4716.5
958.365	4662.5
958.593	4610.5
958.82	4551.5
959.048	4631.5
959.275	4611.5
959.502	4549.5
959.73	4525.5
959.957	4609.5
960.184	4579.5
960.411	4508.5
960.638	4630.5
960.865	4501.5
961.092	4568.5
961.319	4472.5
961.546	4583.5
961.773	4546.5
962	4462.5
962.227	4557.5
962.454	4495.5
962.68	4449.5
962.907	4446.5
963.134	4397.5
963.36	4372.5
963.587	4384.5
963.813	4235.5
964.04	4342.5
964.266	4266.5
964.493	4306.5
964.719	4296.5
964.945	4282.5
965.171	4150.5
965.398	4167.5
965.624	4217.5
965.85	4105.5
966.076	4104.5
966.302	4141.5
966.528	4068.5
966.754	4098.5
966.98	4105.5
967.206	4068.5
967.431	3971.5
967.657	4055.5
967.883	4019.5
968.109	3931.5
968.334	3942.5
968.56	3913.5
968.785	3930.5
969.011	3880.5
969.236	3947.5
969.462	3850.5
969.687	3918.5
969.912	3936.5
970.138	3925.5
970.363	3830.5
970.588	3848.5
970.813	3772.5
971.038	3795.5
971.263	3787.5
971.488	3794.5
971.713	3885.5
971.938	3785.5
972.163	3671.5
972.388	3723.5
972.613	3695.5
972.838	3721.5
973.062	3703.5
973.287	3658.5
973.512	3587.5
973.736	3607.5
973.961	3583.5
974.185	3578.5
974.41	3584.5
974.634	3479.5
974.858	3465.5
975.083	3486.5
975.307	3477.5
975.531	3463.5
975.755	3372.5
975.98	3396.5
976.204	3324.5
976.428	3322.5
976.652	3285.5
976.876	3235.5
977.1	3328.5
977.324	3242.5
977.547	3290.5
977.771	3336.5
977.995	3291.5
978.219	3185.5
978.442	3336.5
978.666	3237.5
978.89	3181.5
979.113	3224.5
979.337	3205.5
979.56	3203.5
979.783	3227.5
980.007	3154.5
980.23	3136.5
980.453	3103.5
980.677	3137.5
980.9	3152.5
981.123	3035.5
981.346	3096.5
981.569	3078.5
981.792	3074.5
982.015	3066.5
982.238	3006.5
982.461	2994.5
982.684	2968.5
982.907	2946.5
983.129	2929.5
983.352	2928.5
983.575	2923.5
983.797	2920.5
984.02	2843.5
984.242	2863.5
984.465	2883.5
984.687	2908.5
984.91	2898.5
985.132	2863.5
985.354	2868.5
985.577	2823.5
985.799	2822.5
986.021	2741.5
986.243	2745.5
986.465	2770.5
986.687	2797.5
986.909	2834.5
987.131	2753.5
987.353	2696.5
987.575	2758.5
987.797	2727.5
988.019	2614.5
988.241	2722.5
988.462	2653.5
988.684	2727.5
988.906	2721.5
989.127	2740.5
989.349	2545.5
989.57	2657.5
989.792	2664.5
990.013	2683.5
990.234	2656.5
990.456	2669.5
990.677	2641.5
990.898	2596.5
991.119	2594.5
991.341	2602.5
991.562	2494.5
991.783	2565.5
992.004	2476.5
992.225	2468.5
992.446	2533.5
992.667	2412.5
992.887	2509.5
993.108	2410.5
993.329	2532.5
993.55	2453.5
993.77	2384.5
993.991	2370.5
994.212	2404.5
994.432	2387.5
994.653	2427.5
994.873	2409.5
995.093	2243.5
995.314	2300.5
995.534	2372.5
995.754	2390.5
995.975	2391.5
996.195	2283.5
996.415	2323.5
996.635	2295.5
996.855	2317.5
997.075	2285.5
997.295	2276.5
997.515	2265.5
997.735	2337.5
997.955	2294.5
998.174	2270.5
998.394	2238.5
998.614	2263.5
998.834	2251.5
999.053	2327.5
999.273	2259.5
999.492	2281.5
999.712	2257.5
999.931	2185.5
1000.151	2216.5
1000.37	2175.5
1000.589	2240.5
1000.809	2152.5
1001.028	2250.5
1001.247	2204.5
1001.466	2111.5
1001.685	2222.5
1001.904	2127.5
1002.123	2129.5
1002.342	2126.5
1002.561	2093.5
1002.78	2104.5
1002.999	2145.5
1003.218	2053.5
1003.436	2018.5
1003.655	2094.5
1003.874	2041.5
1004.092	2054.5
1004.311	2092.5
1004.53	2037.5
1004.748	2087.5
1004.966	2022.5
1005.185	2070.5
1005.403	2054.5
1005.622	2046.5
1005.84	2123.5
1006.058	1992.5
1006.276	2041.5
1006.494	2490.5
1006.712	2038.5
1006.931	2079.5
1007.149	1972.5
1007.367	1989.5
1007.584	2051.5
1007.802	2097.5
1008.02	2024.5
1008.238	2130.5
1008.456	2146.5
1008.673	1982.5
1008.891	2109.5
1009.109	2070.5
1009.326	2165.5
1009.544	2199.5
1009.761	2170.5
1009.979	2285.5
1010.196	2299.5
1010.413	2395.5
1010.631	2493.5
1010.848	2547.5
1011.065	2596.5
1011.282	2541.5
1011.5	2476.5
1011.717	2574.5
1011.934	2524.5
1012.151	2530.5
1012.368	2542.5
1012.585	2460.5
1012.801	2514.5
1013.018	2471.5
1013.235	2439.5
1013.452	2467.5
1013.669	2512.5
1013.885	2521.5
1014.102	2541.5
1014.318	2516.5
1014.535	2428.5
1014.751	2467.5
1014.968	2432.5
1015.184	2472.5
1015.401	2403.5
1015.617	2409.5
1015.833	2328.5
1016.049	2359.5
1016.266	2317.5
1016.482	2307.5
1016.698	2228.5
1016.914	2293.5
1017.13	2226.5
1017.346	2215.5
1017.562	2289.5
1017.778	2175.5
1017.993	2170.5
1018.209	2216.5
1018.425	2186.5
1018.641	2167.5
1018.856	2171.5
1019.072	2193.5
1019.288	2224.5
1019.503	2180.5
1019.719	2054.5
1019.934	2079.5
1020.149	2163.5
1020.365	2062.5
1020.58	2017.5
1020.795	2033.5
1021.011	1939.5
1021.226	1910.5
1021.441	1932.5
1021.656	1814.5
1021.871	1753.5
1022.086	1702.5
1022.301	1722.5
1022.516	1715.5
1022.731	1733.5
1022.946	1614.5
1023.16	1593.5
1023.375	1579.5
1023.59	1544.5
1023.804	1478.5
1024.019	1587.5
1024.234	1445.5
1024.448	1461.5
1024.663	1363.5
1024.877	1372.5
1025.092	1384.5
1025.306	1370.5
1025.52	1275.5
1025.734	1341.5
1025.949	1235.5
1026.163	1195.5
1026.377	1170.5
1026.591	1169.5
1026.805	1111.5
1027.019	1116.5
1027.233	1049.5
1027.447	991.5
1027.661	1087.5
1027.875	1031.5
1028.088	1026.5
1028.302	939.5
1028.516	908.5
1028.73	902.5
1028.943	890.5
1029.157	834.5
1029.37	791.5
1029.584	-0.5
1029.797	-4.5
1030.011	-1.5
1030.224	-3.5
