Data from QEP037381__163__15-50-39-886.txt Node

Date: Fri Dec 16 15:50:39 EST 2022
User: dcclab
Spectrometer: QEP03738
Trigger mode: 4
Integration Time (sec): 1.000000E1
Scans to average: 1
Electric dark correction enabled: true
Nonlinearity correction enabled: false
Boxcar width: 0
XAxis mode: Wavelengths
Number of Pixels in Spectrum: 1044
>>>>>Begin Spectral Data<<<<<
784.041	15.75
784.3	-2.25
784.558	-6.25
784.817	0.75
785.075	111722.75
785.334	19464.75
785.592	9173.75
785.851	6386.75
786.109	4792.75
786.368	3769.75
786.626	3056.75
786.884	2504.75
787.143	2081.75
787.401	1721.75
787.659	1540.75
787.917	1321.75
788.175	1203.75
788.433	1054.75
788.691	938.75
788.949	873.75
789.207	833.75
789.465	714.75
789.723	684.75
789.98	628.75
790.238	680.75
790.496	617.75
790.753	601.75
791.011	619.75
791.268	572.75
791.526	561.75
791.783	581.75
792.041	548.75
792.298	458.75
792.556	531.75
792.813	510.75
793.07	484.75
793.327	468.75
793.584	542.75
793.841	474.75
794.099	480.75
794.356	535.75
794.613	449.75
794.869	481.75
795.126	449.75
795.383	437.75
795.64	443.75
795.897	401.75
796.153	454.75
796.41	455.75
796.667	427.75
796.923	441.75
797.18	438.75
797.436	454.75
797.693	432.75
797.949	468.75
798.206	498.75
798.462	423.75
798.718	483.75
798.974	449.75
799.231	495.75
799.487	480.75
799.743	493.75
799.999	531.75
800.255	526.75
800.511	497.75
800.767	538.75
801.023	520.75
801.279	570.75
801.534	604.75
801.79	651.75
802.046	696.75
802.302	826.75
802.557	971.75
802.813	1180.75
803.068	1467.75
803.324	2001.75
803.579	2701.75
803.835	3732.75
804.09	5210.75
804.345	6733.75
804.601	8480.75
804.856	10304.75
805.111	11932.75
805.366	13060.75
805.621	14004.75
805.876	14574.75
806.131	14993.75
806.386	15338.75
806.641	15558.75
806.896	15865.75
807.151	16048.75
807.406	16316.75
807.661	16646.75
807.915	16857.75
808.17	17163.75
808.425	17180.75
808.679	17419.75
808.934	17597.75
809.188	17752.75
809.443	17897.75
809.697	18200.75
809.951	18148.75
810.206	18370.75
810.46	18519.75
810.714	18669.75
810.968	18808.75
811.223	18980.75
811.477	19153.75
811.731	19294.75
811.985	19360.75
812.239	19399.75
812.493	19570.75
812.747	19543.75
813	19626.75
813.254	19767.75
813.508	19729.75
813.762	19804.75
814.015	20039.75
814.269	20091.75
814.522	20241.75
814.776	20545.75
815.03	20671.75
815.283	20950.75
815.536	21269.75
815.79	21525.75
816.043	21912.75
816.296	22126.75
816.55	22339.75
816.803	22558.75
817.056	22902.75
817.309	23106.75
817.562	23192.75
817.815	23545.75
818.068	23592.75
818.321	23872.75
818.574	24136.75
818.827	24335.75
819.079	24563.75
819.332	25100.75
819.585	25286.75
819.838	25624.75
820.09	25736.75
820.343	25933.75
820.595	25988.75
820.848	26223.75
821.1	26145.75
821.353	26249.75
821.605	26308.75
821.857	26297.75
822.11	26165.75
822.362	26091.75
822.614	25956.75
822.866	26013.75
823.118	25956.75
823.37	26085.75
823.622	26139.75
823.874	26310.75
824.126	26343.75
824.378	26298.75
824.63	26478.75
824.882	26431.75
825.134	26378.75
825.385	26320.75
825.637	26296.75
825.888	26262.75
826.14	26052.75
826.392	26012.75
826.643	25885.75
826.895	25786.75
827.146	25713.75
827.397	25647.75
827.649	25610.75
827.9	25598.75
828.151	25509.75
828.402	25697.75
828.653	25711.75
828.905	25833.75
829.156	25875.75
829.407	25777.75
829.658	25878.75
829.909	25885.75
830.159	25874.75
830.41	25737.75
830.661	25528.75
830.912	25362.75
831.162	25300.75
831.413	25223.75
831.664	25270.75
831.914	25354.75
832.165	25155.75
832.415	25093.75
832.666	25181.75
832.916	25157.75
833.167	25147.75
833.417	25073.75
833.667	25039.75
833.917	24927.75
834.168	24892.75
834.418	24845.75
834.668	24728.75
834.918	24597.75
835.168	24445.75
835.418	24350.75
835.668	24323.75
835.918	24188.75
836.167	24076.75
836.417	24069.75
836.667	24079.75
836.917	24132.75
837.166	23959.75
837.416	24089.75
837.666	24097.75
837.915	23982.75
838.165	23936.75
838.414	23826.75
838.663	23786.75
838.913	23673.75
839.162	23705.75
839.411	23765.75
839.661	23631.75
839.91	23521.75
840.159	23549.75
840.408	23398.75
840.657	23499.75
840.906	23437.75
841.155	23473.75
841.404	23382.75
841.653	23419.75
841.902	23415.75
842.15	23416.75
842.399	23542.75
842.648	23425.75
842.897	23344.75
843.145	23315.75
843.394	23116.75
843.642	22938.75
843.891	22743.75
844.139	22638.75
844.388	22525.75
844.636	22384.75
844.884	22394.75
845.133	22342.75
845.381	22290.75
845.629	22480.75
845.877	22300.75
846.125	22381.75
846.373	22197.75
846.621	22153.75
846.869	21979.75
847.117	21915.75
847.365	21924.75
847.613	21768.75
847.861	21534.75
848.108	21635.75
848.356	21630.75
848.604	21479.75
848.851	21423.75
849.099	21532.75
849.346	21487.75
849.594	21689.75
849.841	21675.75
850.089	21639.75
850.336	21664.75
850.583	21622.75
850.831	21409.75
851.078	21346.75
851.325	21397.75
851.572	21491.75
851.819	21381.75
852.066	20881.75
852.313	20497.75
852.56	20504.75
852.807	20335.75
853.054	20375.75
853.301	20318.75
853.548	20294.75
853.794	20416.75
854.041	20389.75
854.288	20572.75
854.534	20712.75
854.781	20620.75
855.028	20549.75
855.274	20638.75
855.52	20494.75
855.767	20324.75
856.013	20397.75
856.26	20701.75
856.506	20138.75
856.752	20076.75
856.998	20128.75
857.244	20155.75
857.49	20274.75
857.736	20309.75
857.982	20392.75
858.228	20267.75
858.474	20054.75
858.72	19898.75
858.966	19797.75
859.212	19549.75
859.458	19270.75
859.703	19047.75
859.949	19025.75
860.195	18829.75
860.44	18785.75
860.686	18614.75
860.931	18705.75
861.177	18574.75
861.422	18521.75
861.667	18448.75
861.913	18335.75
862.158	18418.75
862.403	18454.75
862.648	18425.75
862.893	18455.75
863.138	18342.75
863.384	18380.75
863.629	18250.75
863.873	18263.75
864.118	18191.75
864.363	18201.75
864.608	18140.75
864.853	18032.75
865.098	17892.75
865.342	17898.75
865.587	17758.75
865.832	17756.75
866.076	17689.75
866.321	17642.75
866.565	17667.75
866.81	17418.75
867.054	17462.75
867.298	17336.75
867.543	17425.75
867.787	17357.75
868.031	17269.75
868.275	17284.75
868.519	17183.75
868.764	17236.75
869.008	17073.75
869.252	17168.75
869.496	17074.75
869.739	17013.75
869.983	16991.75
870.227	16998.75
870.471	17012.75
870.715	17121.75
870.958	17145.75
871.202	17072.75
871.446	17122.75
871.689	17148.75
871.933	17137.75
872.176	17050.75
872.42	17055.75
872.663	16968.75
872.906	17018.75
873.15	16921.75
873.393	16905.75
873.636	16846.75
873.879	16779.75
874.122	16543.75
874.366	16282.75
874.609	16174.75
874.852	16064.75
875.095	16016.75
875.337	15801.75
875.58	15814.75
875.823	15786.75
876.066	15651.75
876.309	15646.75
876.551	15464.75
876.794	15440.75
877.037	15457.75
877.279	15310.75
877.522	15334.75
877.764	15352.75
878.007	15228.75
878.249	15302.75
878.491	15158.75
878.734	15232.75
878.976	15205.75
879.218	15006.75
879.46	14991.75
879.702	14868.75
879.945	14851.75
880.187	14629.75
880.429	14542.75
880.671	14472.75
880.912	14428.75
881.154	14323.75
881.396	14270.75
881.638	14349.75
881.88	14362.75
882.121	14285.75
882.363	14211.75
882.605	14239.75
882.846	14227.75
883.088	14280.75
883.329	14126.75
883.571	14193.75
883.812	14329.75
884.053	14610.75
884.295	14871.75
884.536	15045.75
884.777	14898.75
885.018	14806.75
885.259	14753.75
885.5	14596.75
885.742	14857.75
885.982	14538.75
886.223	14399.75
886.464	14247.75
886.705	14260.75
886.946	14021.75
887.187	13754.75
887.428	13655.75
887.668	13454.75
887.909	13262.75
888.15	13026.75
888.39	12997.75
888.631	12908.75
888.871	12877.75
889.111	12758.75
889.352	12546.75
889.592	12580.75
889.833	12420.75
890.073	12363.75
890.313	12372.75
890.553	12202.75
890.793	12090.75
891.033	12061.75
891.273	12097.75
891.513	11994.75
891.753	12005.75
891.993	11965.75
892.233	11979.75
892.473	12015.75
892.713	12009.75
892.952	11965.75
893.192	11997.75
893.432	11957.75
893.671	11904.75
893.911	11831.75
894.15	11883.75
894.39	11620.75
894.629	11579.75
894.869	11608.75
895.108	11448.75
895.347	11417.75
895.587	11499.75
895.826	11371.75
896.065	11376.75
896.304	11378.75
896.543	11284.75
896.782	11235.75
897.021	11267.75
897.26	11243.75
897.499	11261.75
897.738	11273.75
897.977	11094.75
898.216	10986.75
898.454	10977.75
898.693	10857.75
898.932	10897.75
899.17	10802.75
899.409	10719.75
899.647	10781.75
899.886	10689.75
900.124	10721.75
900.363	10668.75
900.601	10726.75
900.839	10765.75
901.078	10751.75
901.316	10830.75
901.554	10866.75
901.792	10888.75
902.03	10866.75
902.268	10938.75
902.506	10926.75
902.744	10717.75
902.982	10799.75
903.22	10528.75
903.458	10472.75
903.695	10308.75
903.933	10160.75
904.171	9992.75
904.409	9794.75
904.646	9727.75
904.884	9544.75
905.121	9526.75
905.359	9348.75
905.596	9247.75
905.833	9183.75
906.071	9193.75
906.308	9114.75
906.545	9091.75
906.783	9005.75
907.02	9065.75
907.257	9000.75
907.494	8974.75
907.731	8977.75
907.968	8917.75
908.205	8867.75
908.442	8770.75
908.679	8688.75
908.915	8669.75
909.152	8657.75
909.389	8488.75
909.626	8495.75
909.862	8380.75
910.099	8297.75
910.335	8391.75
910.572	8228.75
910.808	8274.75
911.045	8213.75
911.281	8176.75
911.518	8166.75
911.754	8142.75
911.99	8079.75
912.226	8065.75
912.463	7893.75
912.699	7913.75
912.935	7786.75
913.171	7757.75
913.407	7667.75
913.643	7710.75
913.879	7654.75
914.114	7552.75
914.35	7443.75
914.586	7382.75
914.822	7326.75
915.057	7346.75
915.293	7217.75
915.529	7102.75
915.764	7172.75
916	7154.75
916.235	7168.75
916.471	7164.75
916.706	7078.75
916.941	7075.75
917.177	7046.75
917.412	7091.75
917.647	7070.75
917.882	6978.75
918.117	7089.75
918.352	6978.75
918.588	6964.75
918.823	6820.75
919.057	6846.75
919.292	6660.75
919.527	6766.75
919.762	6639.75
919.997	6651.75
920.232	6500.75
920.466	6549.75
920.701	6341.75
920.935	6384.75
921.17	6384.75
921.405	6271.75
921.639	6277.75
921.873	6219.75
922.108	6282.75
922.342	6215.75
922.576	6113.75
922.811	6093.75
923.045	6164.75
923.279	6088.75
923.513	5950.75
923.747	6037.75
923.981	5964.75
924.215	5940.75
924.449	5910.75
924.683	5844.75
924.917	5812.75
925.151	5841.75
925.385	5869.75
925.618	5744.75
925.852	5773.75
926.086	5696.75
926.319	5723.75
926.553	5723.75
926.786	5691.75
927.02	5672.75
927.253	5693.75
927.486	5707.75
927.72	5623.75
927.953	5769.75
928.186	5602.75
928.42	5632.75
928.653	5595.75
928.886	5500.75
929.119	5542.75
929.352	5536.75
929.585	5505.75
929.818	5387.75
930.051	5394.75
930.284	5410.75
930.516	5273.75
930.749	5193.75
930.982	5253.75
931.215	5233.75
931.447	5153.75
931.68	5175.75
931.912	5209.75
932.145	5097.75
932.377	5142.75
932.61	5288.75
932.842	5103.75
933.074	5156.75
933.307	5050.75
933.539	5199.75
933.771	5157.75
934.003	5117.75
934.236	5169.75
934.468	5178.75
934.7	5054.75
934.932	5078.75
935.164	5026.75
935.395	5018.75
935.627	5009.75
935.859	5016.75
936.091	4895.75
936.323	4992.75
936.554	4964.75
936.786	4950.75
937.017	4892.75
937.249	4957.75
937.481	4846.75
937.712	4852.75
937.943	4914.75
938.175	4855.75
938.406	4805.75
938.637	4896.75
938.869	4768.75
939.1	4793.75
939.331	4755.75
939.562	4763.75
939.793	4787.75
940.024	4806.75
940.255	4690.75
940.486	4676.75
940.717	4626.75
940.948	4583.75
941.179	4595.75
941.409	4650.75
941.64	4578.75
941.871	4621.75
942.102	4572.75
942.332	4594.75
942.563	4624.75
942.793	4566.75
943.024	4522.75
943.254	4560.75
943.484	4574.75
943.715	4613.75
943.945	4578.75
944.175	4485.75
944.405	4464.75
944.636	4447.75
944.866	4492.75
945.096	4513.75
945.326	4493.75
945.556	4452.75
945.786	4456.75
946.016	4459.75
946.245	4315.75
946.475	4305.75
946.705	4319.75
946.935	4261.75
947.164	4293.75
947.394	4244.75
947.624	4259.75
947.853	4243.75
948.083	4218.75
948.312	4140.75
948.542	4131.75
948.771	4078.75
949	4085.75
949.23	4107.75
949.459	4088.75
949.688	4157.75
949.917	4110.75
950.146	4077.75
950.375	4163.75
950.604	4025.75
950.833	4076.75
951.062	4112.75
951.291	3996.75
951.52	4028.75
951.749	4021.75
951.978	3921.75
952.206	3953.75
952.435	3952.75
952.664	3967.75
952.892	3984.75
953.121	3965.75
953.349	3976.75
953.578	3928.75
953.806	3892.75
954.035	3824.75
954.263	3841.75
954.491	3819.75
954.719	3835.75
954.948	3770.75
955.176	3782.75
955.404	3691.75
955.632	3790.75
955.86	3744.75
956.088	3694.75
956.316	3764.75
956.544	3759.75
956.772	3636.75
956.999	3623.75
957.227	3701.75
957.455	3558.75
957.683	3585.75
957.91	3547.75
958.138	3517.75
958.365	3517.75
958.593	3485.75
958.82	3447.75
959.048	3500.75
959.275	3496.75
959.502	3465.75
959.73	3422.75
959.957	3477.75
960.184	3478.75
960.411	3457.75
960.638	3507.75
960.865	3423.75
961.092	3457.75
961.319	3334.75
961.546	3425.75
961.773	3405.75
962	3392.75
962.227	3418.75
962.454	3383.75
962.68	3346.75
962.907	3398.75
963.134	3312.75
963.36	3349.75
963.587	3320.75
963.813	3264.75
964.04	3313.75
964.266	3187.75
964.493	3266.75
964.719	3238.75
964.945	3213.75
965.171	3079.75
965.398	3157.75
965.624	3218.75
965.85	3107.75
966.076	3115.75
966.302	3153.75
966.528	3139.75
966.754	3097.75
966.98	3119.75
967.206	3058.75
967.431	3002.75
967.657	3077.75
967.883	3045.75
968.109	3000.75
968.334	2945.75
968.56	3019.75
968.785	3005.75
969.011	2931.75
969.236	2978.75
969.462	2962.75
969.687	2940.75
969.912	2976.75
970.138	2995.75
970.363	2892.75
970.588	2899.75
970.813	2879.75
971.038	2846.75
971.263	2877.75
971.488	2874.75
971.713	2903.75
971.938	2855.75
972.163	2802.75
972.388	2823.75
972.613	2804.75
972.838	2794.75
973.062	2776.75
973.287	2768.75
973.512	2717.75
973.736	2725.75
973.961	2736.75
974.185	2696.75
974.41	2678.75
974.634	2597.75
974.858	2610.75
975.083	2648.75
975.307	2681.75
975.531	2607.75
975.755	2548.75
975.98	2563.75
976.204	2510.75
976.428	2495.75
976.652	2505.75
976.876	2449.75
977.1	2517.75
977.324	2449.75
977.547	2524.75
977.771	2514.75
977.995	2479.75
978.219	2420.75
978.442	2544.75
978.666	2491.75
978.89	2459.75
979.113	2445.75
979.337	2437.75
979.56	2387.75
979.783	2472.75
980.007	2353.75
980.23	2401.75
980.453	2349.75
980.677	2388.75
980.9	2378.75
981.123	2285.75
981.346	2390.75
981.569	2340.75
981.792	2374.75
982.015	2323.75
982.238	2287.75
982.461	2282.75
982.684	2269.75
982.907	2248.75
983.129	2209.75
983.352	2281.75
983.575	2213.75
983.797	2253.75
984.02	2180.75
984.242	2174.75
984.465	2194.75
984.687	2193.75
984.91	2255.75
985.132	2219.75
985.354	2201.75
985.577	2166.75
985.799	2177.75
986.021	2035.75
986.243	2080.75
986.465	2090.75
986.687	2158.75
986.909	2187.75
987.131	2129.75
987.353	2085.75
987.575	2118.75
987.797	2068.75
988.019	2023.75
988.241	2112.75
988.462	2032.75
988.684	2078.75
988.906	2117.75
989.127	2088.75
989.349	1989.75
989.57	2046.75
989.792	2058.75
990.013	2064.75
990.234	2075.75
990.456	2102.75
990.677	2060.75
990.898	2005.75
991.119	2023.75
991.341	2049.75
991.562	1954.75
991.783	2025.75
992.004	1897.75
992.225	1908.75
992.446	1938.75
992.667	1891.75
992.887	1946.75
993.108	1818.75
993.329	1991.75
993.55	1907.75
993.77	1843.75
993.991	1844.75
994.212	1898.75
994.432	1865.75
994.653	1877.75
994.873	1864.75
995.093	1748.75
995.314	1771.75
995.534	1864.75
995.754	1873.75
995.975	1871.75
996.195	1742.75
996.415	1823.75
996.635	1798.75
996.855	1812.75
997.075	1804.75
997.295	1806.75
997.515	1766.75
997.735	1816.75
997.955	1789.75
998.174	1797.75
998.394	1748.75
998.614	1821.75
998.834	1770.75
999.053	1842.75
999.273	1763.75
999.492	1854.75
999.712	1757.75
999.931	1716.75
1000.151	1765.75
1000.37	1729.75
1000.589	1798.75
1000.809	1703.75
1001.028	1844.75
1001.247	1746.75
1001.466	1660.75
1001.685	1784.75
1001.904	1710.75
1002.123	1706.75
1002.342	1688.75
1002.561	1651.75
1002.78	1675.75
1002.999	1754.75
1003.218	1686.75
1003.436	1628.75
1003.655	1705.75
1003.874	1604.75
1004.092	1646.75
1004.311	1687.75
1004.53	1641.75
1004.748	1713.75
1004.966	1648.75
1005.185	1677.75
1005.403	1654.75
1005.622	1617.75
1005.84	1709.75
1006.058	1602.75
1006.276	1656.75
1006.494	2127.75
1006.712	1644.75
1006.931	1707.75
1007.149	1641.75
1007.367	1599.75
1007.584	1656.75
1007.802	1698.75
1008.02	1646.75
1008.238	1741.75
1008.456	1699.75
1008.673	1617.75
1008.891	1740.75
1009.109	1676.75
1009.326	1739.75
1009.544	1823.75
1009.761	1737.75
1009.979	1857.75
1010.196	1864.75
1010.413	1979.75
1010.631	2027.75
1010.848	2061.75
1011.065	2093.75
1011.282	2013.75
1011.5	1956.75
1011.717	2100.75
1011.934	2009.75
1012.151	2006.75
1012.368	2031.75
1012.585	1945.75
1012.801	2011.75
1013.018	2015.75
1013.235	1953.75
1013.452	1965.75
1013.669	1968.75
1013.885	1967.75
1014.102	1985.75
1014.318	1988.75
1014.535	1931.75
1014.751	1975.75
1014.968	1966.75
1015.184	1962.75
1015.401	1927.75
1015.617	1938.75
1015.833	1857.75
1016.049	1866.75
1016.266	1807.75
1016.482	1843.75
1016.698	1764.75
1016.914	1791.75
1017.13	1745.75
1017.346	1721.75
1017.562	1787.75
1017.778	1713.75
1017.993	1684.75
1018.209	1749.75
1018.425	1730.75
1018.641	1688.75
1018.856	1673.75
1019.072	1700.75
1019.288	1724.75
1019.503	1702.75
1019.719	1611.75
1019.934	1638.75
1020.149	1708.75
1020.365	1635.75
1020.58	1569.75
1020.795	1614.75
1021.011	1540.75
1021.226	1509.75
1021.441	1540.75
1021.656	1449.75
1021.871	1391.75
1022.086	1369.75
1022.301	1335.75
1022.516	1338.75
1022.731	1397.75
1022.946	1289.75
1023.16	1311.75
1023.375	1284.75
1023.59	1216.75
1023.804	1214.75
1024.019	1282.75
1024.234	1173.75
1024.448	1185.75
1024.663	1117.75
1024.877	1118.75
1025.092	1135.75
1025.306	1129.75
1025.52	1033.75
1025.734	1112.75
1025.949	1044.75
1026.163	982.75
1026.377	936.75
1026.591	971.75
1026.805	919.75
1027.019	915.75
1027.233	868.75
1027.447	817.75
1027.661	938.75
1027.875	874.75
1028.088	858.75
1028.302	780.75
1028.516	773.75
1028.73	769.75
1028.943	774.75
1029.157	697.75
1029.37	664.75
1029.584	-3.25
1029.797	-1.25
1030.011	-0.25
1030.224	-3.25
