Data from QEP037381__142__15-47-09-883.txt Node

Date: Fri Dec 16 15:47:09 EST 2022
User: dcclab
Spectrometer: QEP03738
Trigger mode: 4
Integration Time (sec): 1.000000E1
Scans to average: 1
Electric dark correction enabled: true
Nonlinearity correction enabled: false
Boxcar width: 0
XAxis mode: Wavelengths
Number of Pixels in Spectrum: 1044
>>>>>Begin Spectral Data<<<<<
784.041	10.88
784.3	-1.12
784.558	-5.12
784.817	-0.12
785.075	114012.88
785.334	19586.88
785.592	9079.88
785.851	6249.88
786.109	4707.88
786.368	3656.88
786.626	2934.88
786.884	2426.88
787.143	2097.88
787.401	1714.88
787.659	1527.88
787.917	1324.88
788.175	1193.88
788.433	1066.88
788.691	932.88
788.949	875.88
789.207	812.88
789.465	737.88
789.723	683.88
789.98	634.88
790.238	678.88
790.496	609.88
790.753	609.88
791.011	640.88
791.268	589.88
791.526	557.88
791.783	593.88
792.041	548.88
792.298	479.88
792.556	540.88
792.813	525.88
793.07	473.88
793.327	477.88
793.584	563.88
793.841	489.88
794.099	490.88
794.356	552.88
794.613	464.88
794.869	496.88
795.126	460.88
795.383	433.88
795.64	464.88
795.897	410.88
796.153	471.88
796.41	466.88
796.667	438.88
796.923	442.88
797.18	469.88
797.436	474.88
797.693	447.88
797.949	499.88
798.206	513.88
798.462	447.88
798.718	509.88
798.974	477.88
799.231	507.88
799.487	519.88
799.743	511.88
799.999	554.88
800.255	542.88
800.511	538.88
800.767	601.88
801.023	588.88
801.279	627.88
801.534	655.88
801.79	725.88
802.046	759.88
802.302	943.88
802.557	1089.88
802.813	1361.88
803.068	1709.88
803.324	2426.88
803.579	3276.88
803.835	4530.88
804.09	6260.88
804.345	8226.88
804.601	10446.88
804.856	12656.88
805.111	14672.88
805.366	16035.88
805.621	17233.88
805.876	17917.88
806.131	18595.88
806.386	18901.88
806.641	19044.88
806.896	19520.88
807.151	19756.88
807.406	20039.88
807.661	20499.88
807.915	20822.88
808.17	21156.88
808.425	21473.88
808.679	21437.88
808.934	21766.88
809.188	21878.88
809.443	22174.88
809.697	22364.88
809.951	22559.88
810.206	22674.88
810.46	23048.88
810.714	23002.88
810.968	23278.88
811.223	23363.88
811.477	23651.88
811.731	23721.88
811.985	23921.88
812.239	24055.88
812.493	24204.88
812.747	24262.88
813	24361.88
813.254	24457.88
813.508	24507.88
813.762	24599.88
814.015	24874.88
814.269	24902.88
814.522	25047.88
814.776	25316.88
815.03	25618.88
815.283	26013.88
815.536	26288.88
815.79	26759.88
816.043	27102.88
816.296	27553.88
816.55	27813.88
816.803	28040.88
817.056	28395.88
817.309	28611.88
817.562	28887.88
817.815	29218.88
818.068	29335.88
818.321	29594.88
818.574	30023.88
818.827	30307.88
819.079	30711.88
819.332	31186.88
819.585	31623.88
819.838	31992.88
820.09	32143.88
820.343	32360.88
820.595	32525.88
820.848	32745.88
821.1	32870.88
821.353	32841.88
821.605	32734.88
821.857	32859.88
822.11	32635.88
822.362	32574.88
822.614	32593.88
822.866	32440.88
823.118	32400.88
823.37	32700.88
823.622	32722.88
823.874	32761.88
824.126	32898.88
824.378	32808.88
824.63	32913.88
824.882	33080.88
825.134	32917.88
825.385	32825.88
825.637	32745.88
825.888	32810.88
826.14	32754.88
826.392	32453.88
826.643	32282.88
826.895	32249.88
827.146	32161.88
827.397	32031.88
827.649	32073.88
827.9	32020.88
828.151	31985.88
828.402	32209.88
828.653	32342.88
828.905	32216.88
829.156	32338.88
829.407	32193.88
829.658	32233.88
829.909	32287.88
830.159	32320.88
830.41	32161.88
830.661	31884.88
830.912	31626.88
831.162	31602.88
831.413	31441.88
831.664	31504.88
831.914	31392.88
832.165	31480.88
832.415	31311.88
832.666	31372.88
832.916	31486.88
833.167	31304.88
833.417	31258.88
833.667	31137.88
833.917	31186.88
834.168	31164.88
834.418	30950.88
834.668	30880.88
834.918	30556.88
835.168	30561.88
835.418	30497.88
835.668	30288.88
835.918	30139.88
836.167	30035.88
836.417	30096.88
836.667	30113.88
836.917	29904.88
837.166	30014.88
837.416	29904.88
837.666	29891.88
837.915	29889.88
838.165	29840.88
838.414	29524.88
838.663	29587.88
838.913	29590.88
839.162	29429.88
839.411	29562.88
839.661	29265.88
839.91	29208.88
840.159	29069.88
840.408	29142.88
840.657	29127.88
840.906	29246.88
841.155	29128.88
841.404	29079.88
841.653	29111.88
841.902	29200.88
842.15	29173.88
842.399	29101.88
842.648	29084.88
842.897	28905.88
843.145	28709.88
843.394	28549.88
843.642	28439.88
843.891	28280.88
844.139	28203.88
844.388	27823.88
844.636	27779.88
844.884	27819.88
845.133	27804.88
845.381	27738.88
845.629	27776.88
845.877	27635.88
846.125	27611.88
846.373	27608.88
846.621	27420.88
846.869	27336.88
847.117	27361.88
847.365	27070.88
847.613	26901.88
847.861	26854.88
848.108	26844.88
848.356	26837.88
848.604	26644.88
848.851	26684.88
849.099	26704.88
849.346	26749.88
849.594	26799.88
849.841	26951.88
850.089	26855.88
850.336	26858.88
850.583	26842.88
850.831	26595.88
851.078	26556.88
851.325	26536.88
851.572	26559.88
851.819	26374.88
852.066	25791.88
852.313	25590.88
852.56	25303.88
852.807	25191.88
853.054	25140.88
853.301	25081.88
853.548	25142.88
853.794	25115.88
854.041	25256.88
854.288	25335.88
854.534	25597.88
854.781	25536.88
855.028	25295.88
855.274	25269.88
855.52	25317.88
855.767	25065.88
856.013	25048.88
856.26	25343.88
856.506	24813.88
856.752	24835.88
856.998	24850.88
857.244	24909.88
857.49	24915.88
857.736	24963.88
857.982	25066.88
858.228	24852.88
858.474	24751.88
858.72	24560.88
858.966	24262.88
859.212	24081.88
859.458	23890.88
859.703	23747.88
859.949	23376.88
860.195	23225.88
860.44	23009.88
860.686	23051.88
860.931	22934.88
861.177	22843.88
861.422	22687.88
861.667	22665.88
861.913	22674.88
862.158	22625.88
862.403	22677.88
862.648	22740.88
862.893	22822.88
863.138	22726.88
863.384	22664.88
863.629	22636.88
863.873	22759.88
864.118	22541.88
864.363	22423.88
864.608	22300.88
864.853	22325.88
865.098	22217.88
865.342	21914.88
865.587	21940.88
865.832	21910.88
866.076	21775.88
866.321	21732.88
866.565	21671.88
866.81	21602.88
867.054	21427.88
867.298	21391.88
867.543	21311.88
867.787	21368.88
868.031	21205.88
868.275	21217.88
868.519	21248.88
868.764	21155.88
869.008	21133.88
869.252	21122.88
869.496	20941.88
869.739	20899.88
869.983	20916.88
870.227	20893.88
870.471	20862.88
870.715	20912.88
870.958	20986.88
871.202	20984.88
871.446	20971.88
871.689	20957.88
871.933	21026.88
872.176	20921.88
872.42	20865.88
872.663	20829.88
872.906	20714.88
873.15	20660.88
873.393	20594.88
873.636	20521.88
873.879	20325.88
874.122	20158.88
874.366	19785.88
874.609	19692.88
874.852	19573.88
875.095	19475.88
875.337	19376.88
875.58	19268.88
875.823	19333.88
876.066	19261.88
876.309	19137.88
876.551	19070.88
876.794	18857.88
877.037	18949.88
877.279	18754.88
877.522	18761.88
877.764	18788.88
878.007	18734.88
878.249	18729.88
878.491	18555.88
878.734	18744.88
878.976	18594.88
879.218	18505.88
879.46	18467.88
879.702	18302.88
879.945	18151.88
880.187	17982.88
880.429	17873.88
880.671	17758.88
880.912	17642.88
881.154	17753.88
881.396	17476.88
881.638	17578.88
881.88	17548.88
882.121	17458.88
882.363	17436.88
882.605	17436.88
882.846	17385.88
883.088	17354.88
883.329	17273.88
883.571	17331.88
883.812	17361.88
884.053	17558.88
884.295	17773.88
884.536	18012.88
884.777	17860.88
885.018	17838.88
885.259	17746.88
885.5	17577.88
885.742	17869.88
885.982	17568.88
886.223	17392.88
886.464	17296.88
886.705	17183.88
886.946	16954.88
887.187	16764.88
887.428	16625.88
887.668	16345.88
887.909	16270.88
888.15	15957.88
888.39	15902.88
888.631	15775.88
888.871	15686.88
889.111	15571.88
889.352	15472.88
889.592	15357.88
889.833	15243.88
890.073	15196.88
890.313	15103.88
890.553	14868.88
890.793	14852.88
891.033	14830.88
891.273	14666.88
891.513	14653.88
891.753	14729.88
891.993	14662.88
892.233	14633.88
892.473	14801.88
892.713	14648.88
892.952	14659.88
893.192	14665.88
893.432	14659.88
893.671	14643.88
893.911	14610.88
894.15	14394.88
894.39	14254.88
894.629	14252.88
894.869	14213.88
895.108	14096.88
895.347	13975.88
895.587	13940.88
895.826	13888.88
896.065	13842.88
896.304	13923.88
896.543	13820.88
896.782	13750.88
897.021	13766.88
897.26	13706.88
897.499	13638.88
897.738	13650.88
897.977	13501.88
898.216	13507.88
898.454	13328.88
898.693	13244.88
898.932	13307.88
899.17	13063.88
899.409	13061.88
899.647	13120.88
899.886	13008.88
900.124	13112.88
900.363	13117.88
900.601	13030.88
900.839	13056.88
901.078	13001.88
901.316	13084.88
901.554	13118.88
901.792	13170.88
902.03	13146.88
902.268	13126.88
902.506	13137.88
902.744	13004.88
902.982	12931.88
903.22	12698.88
903.458	12487.88
903.695	12440.88
903.933	12285.88
904.171	12016.88
904.409	11901.88
904.646	11796.88
904.884	11632.88
905.121	11538.88
905.359	11374.88
905.596	11224.88
905.833	11174.88
906.071	11103.88
906.308	11142.88
906.545	11004.88
906.783	10889.88
907.02	10984.88
907.257	10980.88
907.494	10915.88
907.731	10888.88
907.968	10851.88
908.205	10732.88
908.442	10717.88
908.679	10690.88
908.915	10539.88
909.152	10506.88
909.389	10307.88
909.626	10258.88
909.862	10194.88
910.099	10222.88
910.335	10162.88
910.572	10017.88
910.808	10012.88
911.045	10018.88
911.281	9975.88
911.518	10054.88
911.754	9874.88
911.99	9866.88
912.226	9736.88
912.463	9687.88
912.699	9630.88
912.935	9542.88
913.171	9426.88
913.407	9411.88
913.643	9334.88
913.879	9224.88
914.114	9087.88
914.35	9029.88
914.586	8956.88
914.822	8857.88
915.057	8968.88
915.293	8650.88
915.529	8652.88
915.764	8758.88
916	8763.88
916.235	8685.88
916.471	8641.88
916.706	8597.88
916.941	8550.88
917.177	8625.88
917.412	8616.88
917.647	8585.88
917.882	8518.88
918.117	8561.88
918.352	8557.88
918.588	8455.88
918.823	8446.88
919.057	8289.88
919.292	8145.88
919.527	8203.88
919.762	8052.88
919.997	7999.88
920.232	7932.88
920.466	7904.88
920.701	7703.88
920.935	7760.88
921.17	7673.88
921.405	7544.88
921.639	7674.88
921.873	7613.88
922.108	7557.88
922.342	7552.88
922.576	7468.88
922.811	7379.88
923.045	7458.88
923.279	7385.88
923.513	7300.88
923.747	7291.88
923.981	7261.88
924.215	7214.88
924.449	7172.88
924.683	7049.88
924.917	7048.88
925.151	6979.88
925.385	7070.88
925.618	6949.88
925.852	6982.88
926.086	6894.88
926.319	6955.88
926.553	6898.88
926.786	6883.88
927.02	6939.88
927.253	6969.88
927.486	6872.88
927.72	6809.88
927.953	6854.88
928.186	6782.88
928.42	6835.88
928.653	6685.88
928.886	6736.88
929.119	6706.88
929.352	6649.88
929.585	6571.88
929.818	6571.88
930.051	6511.88
930.284	6478.88
930.516	6273.88
930.749	6313.88
930.982	6298.88
931.215	6343.88
931.447	6262.88
931.68	6226.88
931.912	6144.88
932.145	6186.88
932.377	6180.88
932.61	6344.88
932.842	6138.88
933.074	6223.88
933.307	6170.88
933.539	6205.88
933.771	6192.88
934.003	6138.88
934.236	6187.88
934.468	6234.88
934.7	6151.88
934.932	6116.88
935.164	6033.88
935.395	6057.88
935.627	6048.88
935.859	6029.88
936.091	5961.88
936.323	6010.88
936.554	6006.88
936.786	5876.88
937.017	5818.88
937.249	5855.88
937.481	5777.88
937.712	5881.88
937.943	5816.88
938.175	5733.88
938.406	5757.88
938.637	5815.88
938.869	5713.88
939.1	5775.88
939.331	5701.88
939.562	5678.88
939.793	5710.88
940.024	5703.88
940.255	5681.88
940.486	5604.88
940.717	5571.88
940.948	5543.88
941.179	5479.88
941.409	5467.88
941.64	5466.88
941.871	5520.88
942.102	5488.88
942.332	5450.88
942.563	5482.88
942.793	5456.88
943.024	5449.88
943.254	5453.88
943.484	5515.88
943.715	5484.88
943.945	5445.88
944.175	5342.88
944.405	5392.88
944.636	5368.88
944.866	5409.88
945.096	5381.88
945.326	5292.88
945.556	5351.88
945.786	5361.88
946.016	5272.88
946.245	5183.88
946.475	5145.88
946.705	5148.88
946.935	5115.88
947.164	5061.88
947.394	5056.88
947.624	5080.88
947.853	5138.88
948.083	5059.88
948.312	4989.88
948.542	4883.88
948.771	4897.88
949	4915.88
949.23	4933.88
949.459	4926.88
949.688	4994.88
949.917	4887.88
950.146	4887.88
950.375	4892.88
950.604	4835.88
950.833	4947.88
951.062	4915.88
951.291	4794.88
951.52	4834.88
951.749	4817.88
951.978	4723.88
952.206	4742.88
952.435	4733.88
952.664	4740.88
952.892	4727.88
953.121	4721.88
953.349	4731.88
953.578	4650.88
953.806	4607.88
954.035	4575.88
954.263	4610.88
954.491	4492.88
954.719	4586.88
954.948	4533.88
955.176	4487.88
955.404	4442.88
955.632	4460.88
955.86	4434.88
956.088	4414.88
956.316	4476.88
956.544	4409.88
956.772	4342.88
956.999	4302.88
957.227	4309.88
957.455	4260.88
957.683	4293.88
957.91	4236.88
958.138	4187.88
958.365	4190.88
958.593	4179.88
958.82	4103.88
959.048	4176.88
959.275	4105.88
959.502	4110.88
959.73	4064.88
959.957	4066.88
960.184	4066.88
960.411	4064.88
960.638	4126.88
960.865	4021.88
961.092	4107.88
961.319	3944.88
961.546	4075.88
961.773	4089.88
962	4010.88
962.227	4038.88
962.454	3982.88
962.68	3982.88
962.907	4013.88
963.134	3913.88
963.36	3937.88
963.587	3899.88
963.813	3828.88
964.04	3928.88
964.266	3781.88
964.493	3891.88
964.719	3852.88
964.945	3813.88
965.171	3714.88
965.398	3756.88
965.624	3747.88
965.85	3648.88
966.076	3657.88
966.302	3677.88
966.528	3638.88
966.754	3620.88
966.98	3640.88
967.206	3594.88
967.431	3520.88
967.657	3641.88
967.883	3624.88
968.109	3613.88
968.334	3536.88
968.56	3500.88
968.785	3542.88
969.011	3471.88
969.236	3554.88
969.462	3477.88
969.687	3495.88
969.912	3509.88
970.138	3540.88
970.363	3408.88
970.588	3431.88
970.813	3418.88
971.038	3356.88
971.263	3402.88
971.488	3377.88
971.713	3398.88
971.938	3402.88
972.163	3279.88
972.388	3260.88
972.613	3293.88
972.838	3248.88
973.062	3238.88
973.287	3242.88
973.512	3169.88
973.736	3217.88
973.961	3195.88
974.185	3171.88
974.41	3178.88
974.634	3092.88
974.858	3124.88
975.083	3100.88
975.307	3126.88
975.531	3043.88
975.755	2992.88
975.98	3011.88
976.204	2961.88
976.428	2902.88
976.652	2933.88
976.876	2901.88
977.1	2942.88
977.324	2893.88
977.547	2982.88
977.771	2947.88
977.995	2890.88
978.219	2846.88
978.442	2939.88
978.666	2916.88
978.89	2879.88
979.113	2860.88
979.337	2833.88
979.56	2820.88
979.783	2869.88
980.007	2786.88
980.23	2822.88
980.453	2737.88
980.677	2807.88
980.9	2747.88
981.123	2663.88
981.346	2753.88
981.569	2747.88
981.792	2770.88
982.015	2677.88
982.238	2669.88
982.461	2700.88
982.684	2653.88
982.907	2592.88
983.129	2599.88
983.352	2622.88
983.575	2567.88
983.797	2593.88
984.02	2571.88
984.242	2555.88
984.465	2563.88
984.687	2569.88
984.91	2572.88
985.132	2529.88
985.354	2567.88
985.577	2491.88
985.799	2492.88
986.021	2413.88
986.243	2465.88
986.465	2456.88
986.687	2506.88
986.909	2514.88
987.131	2452.88
987.353	2381.88
987.575	2446.88
987.797	2390.88
988.019	2345.88
988.241	2377.88
988.462	2363.88
988.684	2439.88
988.906	2428.88
989.127	2401.88
989.349	2310.88
989.57	2346.88
989.792	2394.88
990.013	2383.88
990.234	2350.88
990.456	2409.88
990.677	2334.88
990.898	2314.88
991.119	2286.88
991.341	2320.88
991.562	2265.88
991.783	2294.88
992.004	2230.88
992.225	2169.88
992.446	2236.88
992.667	2153.88
992.887	2232.88
993.108	2134.88
993.329	2215.88
993.55	2204.88
993.77	2143.88
993.991	2110.88
994.212	2159.88
994.432	2111.88
994.653	2135.88
994.873	2133.88
995.093	2023.88
995.314	2034.88
995.534	2094.88
995.754	2097.88
995.975	2133.88
996.195	2007.88
996.415	2083.88
996.635	2068.88
996.855	2064.88
997.075	2030.88
997.295	2052.88
997.515	1994.88
997.735	2049.88
997.955	2023.88
998.174	2054.88
998.394	1963.88
998.614	2041.88
998.834	1969.88
999.053	2058.88
999.273	1991.88
999.492	2028.88
999.712	2002.88
999.931	1947.88
1000.151	2011.88
1000.37	1949.88
1000.589	2010.88
1000.809	1940.88
1001.028	2047.88
1001.247	1954.88
1001.466	1864.88
1001.685	2002.88
1001.904	1952.88
1002.123	1926.88
1002.342	1913.88
1002.561	1833.88
1002.78	1901.88
1002.999	1950.88
1003.218	1882.88
1003.436	1888.88
1003.655	1893.88
1003.874	1851.88
1004.092	1869.88
1004.311	1871.88
1004.53	1843.88
1004.748	1903.88
1004.966	1860.88
1005.185	1884.88
1005.403	1844.88
1005.622	1823.88
1005.84	1924.88
1006.058	1810.88
1006.276	1823.88
1006.494	2328.88
1006.712	1821.88
1006.931	1871.88
1007.149	1765.88
1007.367	1803.88
1007.584	1873.88
1007.802	1867.88
1008.02	1780.88
1008.238	1913.88
1008.456	1874.88
1008.673	1767.88
1008.891	1869.88
1009.109	1813.88
1009.326	1875.88
1009.544	1970.88
1009.761	1867.88
1009.979	1996.88
1010.196	1960.88
1010.413	2101.88
1010.631	2140.88
1010.848	2188.88
1011.065	2198.88
1011.282	2154.88
1011.5	2076.88
1011.717	2170.88
1011.934	2142.88
1012.151	2151.88
1012.368	2157.88
1012.585	2068.88
1012.801	2102.88
1013.018	2075.88
1013.235	2074.88
1013.452	2076.88
1013.669	2101.88
1013.885	2090.88
1014.102	2100.88
1014.318	2100.88
1014.535	2037.88
1014.751	2074.88
1014.968	2063.88
1015.184	2099.88
1015.401	1978.88
1015.617	2011.88
1015.833	1944.88
1016.049	1961.88
1016.266	1919.88
1016.482	1935.88
1016.698	1847.88
1016.914	1890.88
1017.13	1863.88
1017.346	1852.88
1017.562	1863.88
1017.778	1816.88
1017.993	1766.88
1018.209	1864.88
1018.425	1824.88
1018.641	1776.88
1018.856	1763.88
1019.072	1782.88
1019.288	1844.88
1019.503	1768.88
1019.719	1702.88
1019.934	1705.88
1020.149	1803.88
1020.365	1692.88
1020.58	1675.88
1020.795	1701.88
1021.011	1631.88
1021.226	1602.88
1021.441	1607.88
1021.656	1542.88
1021.871	1477.88
1022.086	1467.88
1022.301	1433.88
1022.516	1417.88
1022.731	1474.88
1022.946	1393.88
1023.16	1390.88
1023.375	1351.88
1023.59	1340.88
1023.804	1271.88
1024.019	1384.88
1024.234	1220.88
1024.448	1253.88
1024.663	1182.88
1024.877	1209.88
1025.092	1198.88
1025.306	1236.88
1025.52	1108.88
1025.734	1194.88
1025.949	1102.88
1026.163	1084.88
1026.377	1014.88
1026.591	1039.88
1026.805	979.88
1027.019	981.88
1027.233	933.88
1027.447	875.88
1027.661	988.88
1027.875	900.88
1028.088	915.88
1028.302	844.88
1028.516	861.88
1028.73	836.88
1028.943	808.88
1029.157	769.88
1029.37	730.88
1029.584	0.88
1029.797	-5.12
1030.011	0.88
1030.224	-1.12
