Data from QEP037381__183__15-53-59-888.txt Node

Date: Fri Dec 16 15:53:59 EST 2022
User: dcclab
Spectrometer: QEP03738
Trigger mode: 4
Integration Time (sec): 1.000000E1
Scans to average: 1
Electric dark correction enabled: true
Nonlinearity correction enabled: false
Boxcar width: 0
XAxis mode: Wavelengths
Number of Pixels in Spectrum: 1044
>>>>>Begin Spectral Data<<<<<
784.041	14.25
784.3	-1.75
784.558	-1.75
784.817	-3.75
785.075	113304.25
785.334	20003.25
785.592	9461.25
785.851	6523.25
786.109	4900.25
786.368	3787.25
786.626	3057.25
786.884	2548.25
787.143	2122.25
787.401	1761.25
787.659	1556.25
787.917	1351.25
788.175	1234.25
788.433	1064.25
788.691	953.25
788.949	868.25
789.207	841.25
789.465	735.25
789.723	700.25
789.98	640.25
790.238	671.25
790.496	642.25
790.753	588.25
791.011	647.25
791.268	586.25
791.526	588.25
791.783	577.25
792.041	549.25
792.298	475.25
792.556	543.25
792.813	529.25
793.07	497.25
793.327	487.25
793.584	563.25
793.841	484.25
794.099	509.25
794.356	565.25
794.613	461.25
794.869	486.25
795.126	459.25
795.383	430.25
795.64	445.25
795.897	410.25
796.153	468.25
796.41	467.25
796.667	436.25
796.923	449.25
797.18	446.25
797.436	464.25
797.693	438.25
797.949	489.25
798.206	521.25
798.462	439.25
798.718	498.25
798.974	469.25
799.231	518.25
799.487	500.25
799.743	510.25
799.999	552.25
800.255	526.25
800.511	518.25
800.767	582.25
801.023	567.25
801.279	611.25
801.534	659.25
801.79	714.25
802.046	733.25
802.302	887.25
802.557	1018.25
802.813	1275.25
803.068	1611.25
803.324	2221.25
803.579	3016.25
803.835	4191.25
804.09	5793.25
804.345	7670.25
804.601	9835.25
804.856	11967.25
805.111	13891.25
805.366	15352.25
805.621	16550.25
805.876	17203.25
806.131	17746.25
806.386	18087.25
806.641	18460.25
806.896	18742.25
807.151	19140.25
807.406	19286.25
807.661	19647.25
807.915	20024.25
808.17	20344.25
808.425	20477.25
808.679	20653.25
808.934	20932.25
809.188	21065.25
809.443	21271.25
809.697	21522.25
809.951	21647.25
810.206	21921.25
810.46	21894.25
810.714	22271.25
810.968	22368.25
811.223	22543.25
811.477	22848.25
811.731	22995.25
811.985	23063.25
812.239	23109.25
812.493	23279.25
812.747	23323.25
813	23369.25
813.254	23437.25
813.508	23491.25
813.762	23625.25
814.015	23731.25
814.269	23816.25
814.522	24136.25
814.776	24340.25
815.03	24742.25
815.283	25078.25
815.536	25406.25
815.79	25737.25
816.043	26151.25
816.296	26498.25
816.55	26749.25
816.803	27046.25
817.056	27465.25
817.309	27620.25
817.562	27800.25
817.815	28126.25
818.068	28286.25
818.321	28651.25
818.574	28898.25
818.827	29240.25
819.079	29615.25
819.332	30055.25
819.585	30407.25
819.838	30686.25
820.09	30947.25
820.343	31204.25
820.595	31243.25
820.848	31557.25
821.1	31670.25
821.353	31520.25
821.605	31488.25
821.857	31601.25
822.11	31321.25
822.362	31368.25
822.614	31222.25
822.866	31293.25
823.118	31187.25
823.37	31417.25
823.622	31472.25
823.874	31378.25
824.126	31654.25
824.378	31558.25
824.63	31610.25
824.882	31797.25
825.134	31615.25
825.385	31800.25
825.637	31588.25
825.888	31532.25
826.14	31440.25
826.392	31269.25
826.643	31090.25
826.895	31081.25
827.146	30912.25
827.397	30726.25
827.649	30767.25
827.9	30797.25
828.151	30776.25
828.402	30802.25
828.653	30951.25
828.905	31047.25
829.156	31232.25
829.407	31011.25
829.658	31069.25
829.909	30985.25
830.159	30910.25
830.41	30889.25
830.661	30593.25
830.912	30487.25
831.162	30352.25
831.413	30241.25
831.664	30309.25
831.914	30258.25
832.165	30113.25
832.415	30132.25
832.666	30036.25
832.916	30211.25
833.167	30101.25
833.417	29989.25
833.667	29906.25
833.917	29946.25
834.168	29742.25
834.418	29729.25
834.668	29567.25
834.918	29426.25
835.168	29347.25
835.418	29203.25
835.668	29146.25
835.918	29112.25
836.167	28948.25
836.417	28865.25
836.667	28885.25
836.917	28784.25
837.166	28714.25
837.416	28877.25
837.666	28650.25
837.915	28570.25
838.165	28535.25
838.414	28508.25
838.663	28339.25
838.913	28554.25
839.162	28341.25
839.411	28361.25
839.661	28069.25
839.91	28107.25
840.159	28060.25
840.408	28032.25
840.657	28097.25
840.906	28001.25
841.155	28054.25
841.404	27851.25
841.653	27943.25
841.902	27848.25
842.15	28016.25
842.399	28033.25
842.648	27975.25
842.897	27794.25
843.145	27563.25
843.394	27407.25
843.642	27320.25
843.891	27306.25
844.139	27123.25
844.388	26926.25
844.636	26653.25
844.884	26730.25
845.133	26757.25
845.381	26624.25
845.629	26741.25
845.877	26674.25
846.125	26451.25
846.373	26480.25
846.621	26283.25
846.869	26265.25
847.117	26075.25
847.365	25926.25
847.613	25897.25
847.861	25813.25
848.108	25802.25
848.356	25771.25
848.604	25567.25
848.851	25617.25
849.099	25571.25
849.346	25673.25
849.594	25829.25
849.841	25836.25
850.089	25913.25
850.336	25840.25
850.583	25742.25
850.831	25726.25
851.078	25544.25
851.325	25371.25
851.572	25540.25
851.819	25243.25
852.066	24952.25
852.313	24528.25
852.56	24338.25
852.807	24339.25
853.054	24187.25
853.301	24108.25
853.548	24211.25
853.794	24231.25
854.041	24227.25
854.288	24361.25
854.534	24602.25
854.781	24652.25
855.028	24469.25
855.274	24449.25
855.52	24277.25
855.767	24221.25
856.013	24208.25
856.26	24449.25
856.506	23873.25
856.752	23985.25
856.998	23978.25
857.244	23898.25
857.49	23995.25
857.736	24143.25
857.982	24046.25
858.228	23978.25
858.474	23753.25
858.72	23569.25
858.966	23453.25
859.212	23246.25
859.458	22982.25
859.703	22823.25
859.949	22433.25
860.195	22375.25
860.44	22238.25
860.686	22088.25
860.931	22095.25
861.177	21951.25
861.422	21825.25
861.667	21749.25
861.913	21734.25
862.158	21852.25
862.403	21835.25
862.648	21870.25
862.893	22045.25
863.138	21877.25
863.384	21795.25
863.629	21781.25
863.873	21785.25
864.118	21722.25
864.363	21519.25
864.608	21472.25
864.853	21436.25
865.098	21318.25
865.342	21233.25
865.587	21086.25
865.832	21087.25
866.076	21010.25
866.321	20857.25
866.565	20938.25
866.81	20786.25
867.054	20735.25
867.298	20619.25
867.543	20591.25
867.787	20626.25
868.031	20537.25
868.275	20462.25
868.519	20417.25
868.764	20373.25
869.008	20202.25
869.252	20198.25
869.496	20098.25
869.739	20039.25
869.983	20103.25
870.227	20044.25
870.471	20068.25
870.715	20224.25
870.958	20146.25
871.202	20139.25
871.446	20181.25
871.689	20168.25
871.933	20119.25
872.176	20146.25
872.42	20121.25
872.663	20037.25
872.906	20131.25
873.15	19863.25
873.393	19937.25
873.636	19772.25
873.879	19646.25
874.122	19491.25
874.366	19209.25
874.609	19057.25
874.852	18863.25
875.095	18753.25
875.337	18658.25
875.58	18553.25
875.823	18580.25
876.066	18494.25
876.309	18468.25
876.551	18283.25
876.794	18148.25
877.037	18147.25
877.279	18120.25
877.522	18074.25
877.764	18180.25
878.007	18044.25
878.249	18053.25
878.491	17982.25
878.734	17983.25
878.976	17946.25
879.218	17779.25
879.46	17742.25
879.702	17596.25
879.945	17486.25
880.187	17299.25
880.429	17320.25
880.671	17062.25
880.912	17072.25
881.154	16930.25
881.396	16872.25
881.638	16841.25
881.88	16906.25
882.121	16868.25
882.363	16795.25
882.605	16845.25
882.846	16786.25
883.088	16796.25
883.329	16731.25
883.571	16672.25
883.812	16815.25
884.053	17012.25
884.295	17254.25
884.536	17441.25
884.777	17287.25
885.018	17181.25
885.259	17068.25
885.5	16964.25
885.742	17255.25
885.982	16944.25
886.223	16793.25
886.464	16592.25
886.705	16395.25
886.946	16375.25
887.187	16110.25
887.428	16057.25
887.668	15762.25
887.909	15637.25
888.15	15438.25
888.39	15323.25
888.631	15273.25
888.871	15193.25
889.111	14999.25
889.352	14958.25
889.592	14851.25
889.833	14753.25
890.073	14600.25
890.313	14628.25
890.553	14453.25
890.793	14320.25
891.033	14292.25
891.273	14207.25
891.513	14122.25
891.753	14143.25
891.993	14042.25
892.233	14083.25
892.473	14137.25
892.713	14166.25
892.952	14080.25
893.192	14126.25
893.432	14064.25
893.671	14049.25
893.911	13922.25
894.15	13924.25
894.39	13796.25
894.629	13781.25
894.869	13714.25
895.108	13535.25
895.347	13461.25
895.587	13458.25
895.826	13424.25
896.065	13287.25
896.304	13386.25
896.543	13327.25
896.782	13292.25
897.021	13343.25
897.26	13187.25
897.499	13219.25
897.738	13096.25
897.977	13002.25
898.216	12901.25
898.454	12834.25
898.693	12746.25
898.932	12744.25
899.17	12696.25
899.409	12554.25
899.647	12597.25
899.886	12532.25
900.124	12576.25
900.363	12458.25
900.601	12490.25
900.839	12497.25
901.078	12481.25
901.316	12578.25
901.554	12605.25
901.792	12659.25
902.03	12600.25
902.268	12532.25
902.506	12614.25
902.744	12522.25
902.982	12542.25
903.22	12265.25
903.458	12145.25
903.695	11985.25
903.933	11849.25
904.171	11644.25
904.409	11450.25
904.646	11359.25
904.884	11178.25
905.121	11166.25
905.359	10973.25
905.596	10847.25
905.833	10743.25
906.071	10746.25
906.308	10729.25
906.545	10647.25
906.783	10644.25
907.02	10610.25
907.257	10569.25
907.494	10523.25
907.731	10560.25
907.968	10496.25
908.205	10404.25
908.442	10323.25
908.679	10280.25
908.915	10162.25
909.152	10123.25
909.389	9961.25
909.626	9904.25
909.862	9842.25
910.099	9840.25
910.335	9795.25
910.572	9728.25
910.808	9754.25
911.045	9666.25
911.281	9698.25
911.518	9728.25
911.754	9513.25
911.99	9488.25
912.226	9426.25
912.463	9349.25
912.699	9275.25
912.935	9246.25
913.171	9195.25
913.407	9081.25
913.643	9033.25
913.879	8906.25
914.114	8828.25
914.35	8768.25
914.586	8689.25
914.822	8586.25
915.057	8646.25
915.293	8441.25
915.529	8485.25
915.764	8489.25
916	8449.25
916.235	8401.25
916.471	8397.25
916.706	8281.25
916.941	8272.25
917.177	8303.25
917.412	8334.25
917.647	8295.25
917.882	8264.25
918.117	8250.25
918.352	8214.25
918.588	8220.25
918.823	8041.25
919.057	8019.25
919.292	7861.25
919.527	7988.25
919.762	7790.25
919.997	7773.25
920.232	7624.25
920.466	7572.25
920.701	7525.25
920.935	7497.25
921.17	7477.25
921.405	7354.25
921.639	7319.25
921.873	7301.25
922.108	7326.25
922.342	7279.25
922.576	7219.25
922.811	7222.25
923.045	7247.25
923.279	7201.25
923.513	7029.25
923.747	7132.25
923.981	7104.25
924.215	6961.25
924.449	6933.25
924.683	6809.25
924.917	6857.25
925.151	6831.25
925.385	6826.25
925.618	6845.25
925.852	6732.25
926.086	6664.25
926.319	6725.25
926.553	6714.25
926.786	6720.25
927.02	6672.25
927.253	6729.25
927.486	6725.25
927.72	6613.25
927.953	6659.25
928.186	6543.25
928.42	6565.25
928.653	6560.25
928.886	6499.25
929.119	6507.25
929.352	6443.25
929.585	6409.25
929.818	6368.25
930.051	6315.25
930.284	6286.25
930.516	6185.25
930.749	6167.25
930.982	6174.25
931.215	6077.25
931.447	6057.25
931.68	6061.25
931.912	5974.25
932.145	5965.25
932.377	6038.25
932.61	6181.25
932.842	5943.25
933.074	5995.25
933.307	6058.25
933.539	6034.25
933.771	5973.25
934.003	5964.25
934.236	6040.25
934.468	6065.25
934.7	5888.25
934.932	5939.25
935.164	5895.25
935.395	5876.25
935.627	5838.25
935.859	5852.25
936.091	5778.25
936.323	5825.25
936.554	5849.25
936.786	5711.25
937.017	5700.25
937.249	5715.25
937.481	5656.25
937.712	5741.25
937.943	5639.25
938.175	5636.25
938.406	5663.25
938.637	5652.25
938.869	5532.25
939.1	5579.25
939.331	5541.25
939.562	5519.25
939.793	5520.25
940.024	5564.25
940.255	5567.25
940.486	5443.25
940.717	5417.25
940.948	5367.25
941.179	5378.25
941.409	5394.25
941.64	5410.25
941.871	5334.25
942.102	5364.25
942.332	5324.25
942.563	5343.25
942.793	5309.25
943.024	5254.25
943.254	5284.25
943.484	5352.25
943.715	5341.25
943.945	5302.25
944.175	5195.25
944.405	5200.25
944.636	5235.25
944.866	5235.25
945.096	5276.25
945.326	5153.25
945.556	5238.25
945.786	5184.25
946.016	5150.25
946.245	5122.25
946.475	5055.25
946.705	5056.25
946.935	5031.25
947.164	4987.25
947.394	4893.25
947.624	4964.25
947.853	4962.25
948.083	4889.25
948.312	4835.25
948.542	4820.25
948.771	4769.25
949	4812.25
949.23	4797.25
949.459	4840.25
949.688	4859.25
949.917	4764.25
950.146	4805.25
950.375	4784.25
950.604	4727.25
950.833	4798.25
951.062	4799.25
951.291	4718.25
951.52	4716.25
951.749	4681.25
951.978	4605.25
952.206	4638.25
952.435	4618.25
952.664	4653.25
952.892	4603.25
953.121	4594.25
953.349	4626.25
953.578	4592.25
953.806	4515.25
954.035	4472.25
954.263	4511.25
954.491	4467.25
954.719	4471.25
954.948	4403.25
955.176	4434.25
955.404	4354.25
955.632	4385.25
955.86	4355.25
956.088	4330.25
956.316	4299.25
956.544	4322.25
956.772	4228.25
956.999	4232.25
957.227	4297.25
957.455	4127.25
957.683	4215.25
957.91	4118.25
958.138	4110.25
958.365	4076.25
958.593	4076.25
958.82	4016.25
959.048	4052.25
959.275	4016.25
959.502	3991.25
959.73	3965.25
959.957	4008.25
960.184	4037.25
960.411	3961.25
960.638	3989.25
960.865	3969.25
961.092	3993.25
961.319	3936.25
961.546	3991.25
961.773	3960.25
962	3945.25
962.227	3978.25
962.454	3907.25
962.68	3924.25
962.907	3917.25
963.134	3823.25
963.36	3878.25
963.587	3824.25
963.813	3791.25
964.04	3786.25
964.266	3702.25
964.493	3807.25
964.719	3749.25
964.945	3724.25
965.171	3640.25
965.398	3648.25
965.624	3709.25
965.85	3546.25
966.076	3592.25
966.302	3647.25
966.528	3569.25
966.754	3568.25
966.98	3586.25
967.206	3559.25
967.431	3509.25
967.657	3573.25
967.883	3536.25
968.109	3528.25
968.334	3469.25
968.56	3400.25
968.785	3478.25
969.011	3418.25
969.236	3480.25
969.462	3394.25
969.687	3453.25
969.912	3444.25
970.138	3461.25
970.363	3335.25
970.588	3403.25
970.813	3370.25
971.038	3339.25
971.263	3304.25
971.488	3328.25
971.713	3320.25
971.938	3299.25
972.163	3224.25
972.388	3220.25
972.613	3194.25
972.838	3202.25
973.062	3197.25
973.287	3205.25
973.512	3140.25
973.736	3194.25
973.961	3148.25
974.185	3138.25
974.41	3109.25
974.634	3050.25
974.858	3012.25
975.083	3091.25
975.307	3067.25
975.531	2998.25
975.755	2931.25
975.98	2993.25
976.204	2880.25
976.428	2916.25
976.652	2880.25
976.876	2865.25
977.1	2908.25
977.324	2824.25
977.547	2888.25
977.771	2886.25
977.995	2871.25
978.219	2821.25
978.442	2893.25
978.666	2812.25
978.89	2834.25
979.113	2815.25
979.337	2792.25
979.56	2783.25
979.783	2859.25
980.007	2701.25
980.23	2754.25
980.453	2748.25
980.677	2790.25
980.9	2717.25
981.123	2597.25
981.346	2724.25
981.569	2717.25
981.792	2675.25
982.015	2696.25
982.238	2590.25
982.461	2612.25
982.684	2616.25
982.907	2554.25
983.129	2557.25
983.352	2584.25
983.575	2577.25
983.797	2527.25
984.02	2514.25
984.242	2510.25
984.465	2524.25
984.687	2519.25
984.91	2539.25
985.132	2494.25
985.354	2536.25
985.577	2468.25
985.799	2486.25
986.021	2375.25
986.243	2409.25
986.465	2410.25
986.687	2472.25
986.909	2477.25
987.131	2451.25
987.353	2394.25
987.575	2397.25
987.797	2339.25
988.019	2300.25
988.241	2373.25
988.462	2322.25
988.684	2403.25
988.906	2379.25
989.127	2401.25
989.349	2320.25
989.57	2325.25
989.792	2374.25
990.013	2360.25
990.234	2376.25
990.456	2375.25
990.677	2361.25
990.898	2276.25
991.119	2262.25
991.341	2313.25
991.562	2245.25
991.783	2240.25
992.004	2178.25
992.225	2187.25
992.446	2231.25
992.667	2142.25
992.887	2207.25
993.108	2060.25
993.329	2240.25
993.55	2168.25
993.77	2089.25
993.991	2086.25
994.212	2134.25
994.432	2117.25
994.653	2120.25
994.873	2093.25
995.093	2004.25
995.314	2013.25
995.534	2092.25
995.754	2079.25
995.975	2096.25
996.195	2014.25
996.415	2059.25
996.635	2041.25
996.855	2041.25
997.075	2024.25
997.295	2008.25
997.515	2014.25
997.735	2056.25
997.955	2011.25
998.174	1976.25
998.394	1965.25
998.614	2012.25
998.834	1967.25
999.053	2011.25
999.273	2007.25
999.492	2040.25
999.712	1981.25
999.931	1950.25
1000.151	1937.25
1000.37	1961.25
1000.589	1983.25
1000.809	1933.25
1001.028	1991.25
1001.247	1943.25
1001.466	1869.25
1001.685	1975.25
1001.904	1902.25
1002.123	1894.25
1002.342	1882.25
1002.561	1814.25
1002.78	1865.25
1002.999	1900.25
1003.218	1883.25
1003.436	1831.25
1003.655	1879.25
1003.874	1793.25
1004.092	1820.25
1004.311	1848.25
1004.53	1824.25
1004.748	1887.25
1004.966	1796.25
1005.185	1851.25
1005.403	1858.25
1005.622	1806.25
1005.84	1881.25
1006.058	1803.25
1006.276	1805.25
1006.494	2285.25
1006.712	1794.25
1006.931	1886.25
1007.149	1760.25
1007.367	1779.25
1007.584	1843.25
1007.802	1835.25
1008.02	1774.25
1008.238	1896.25
1008.456	1871.25
1008.673	1750.25
1008.891	1874.25
1009.109	1822.25
1009.326	1869.25
1009.544	1967.25
1009.761	1863.25
1009.979	1957.25
1010.196	1999.25
1010.413	2096.25
1010.631	2151.25
1010.848	2160.25
1011.065	2189.25
1011.282	2153.25
1011.5	2048.25
1011.717	2189.25
1011.934	2104.25
1012.151	2139.25
1012.368	2110.25
1012.585	2053.25
1012.801	2131.25
1013.018	2099.25
1013.235	2019.25
1013.452	2062.25
1013.669	2079.25
1013.885	2035.25
1014.102	2094.25
1014.318	2060.25
1014.535	2014.25
1014.751	2061.25
1014.968	2059.25
1015.184	2052.25
1015.401	1969.25
1015.617	1984.25
1015.833	1924.25
1016.049	1938.25
1016.266	1915.25
1016.482	1913.25
1016.698	1821.25
1016.914	1889.25
1017.13	1815.25
1017.346	1802.25
1017.562	1835.25
1017.778	1784.25
1017.993	1781.25
1018.209	1804.25
1018.425	1810.25
1018.641	1769.25
1018.856	1730.25
1019.072	1758.25
1019.288	1808.25
1019.503	1745.25
1019.719	1678.25
1019.934	1687.25
1020.149	1756.25
1020.365	1692.25
1020.58	1613.25
1020.795	1686.25
1021.011	1586.25
1021.226	1584.25
1021.441	1594.25
1021.656	1504.25
1021.871	1447.25
1022.086	1445.25
1022.301	1425.25
1022.516	1417.25
1022.731	1461.25
1022.946	1397.25
1023.16	1329.25
1023.375	1329.25
1023.59	1285.25
1023.804	1272.25
1024.019	1339.25
1024.234	1199.25
1024.448	1238.25
1024.663	1160.25
1024.877	1189.25
1025.092	1205.25
1025.306	1166.25
1025.52	1079.25
1025.734	1205.25
1025.949	1121.25
1026.163	1040.25
1026.377	989.25
1026.591	1025.25
1026.805	966.25
1027.019	954.25
1027.233	934.25
1027.447	867.25
1027.661	965.25
1027.875	892.25
1028.088	914.25
1028.302	822.25
1028.516	783.25
1028.73	801.25
1028.943	795.25
1029.157	735.25
1029.37	712.25
1029.584	-1.75
1029.797	-1.75
1030.011	0.25
1030.224	-3.75
