Data from QEP037381__206__15-57-49-890.txt Node

Date: Fri Dec 16 15:57:49 EST 2022
User: dcclab
Spectrometer: QEP03738
Trigger mode: 4
Integration Time (sec): 1.000000E1
Scans to average: 1
Electric dark correction enabled: true
Nonlinearity correction enabled: false
Boxcar width: 0
XAxis mode: Wavelengths
Number of Pixels in Spectrum: 1044
>>>>>Begin Spectral Data<<<<<
784.041	7.75
784.3	2.75
784.558	-3.25
784.817	-4.25
785.075	109932.75
785.334	19244.75
785.592	9122.75
785.851	6268.75
786.109	4685.75
786.368	3620.75
786.626	2925.75
786.884	2373.75
787.143	2033.75
787.401	1678.75
787.659	1495.75
787.917	1289.75
788.175	1172.75
788.433	1019.75
788.691	932.75
788.949	846.75
789.207	813.75
789.465	717.75
789.723	670.75
789.98	622.75
790.238	674.75
790.496	610.75
790.753	574.75
791.011	640.75
791.268	583.75
791.526	540.75
791.783	547.75
792.041	539.75
792.298	448.75
792.556	522.75
792.813	503.75
793.07	469.75
793.327	465.75
793.584	549.75
793.841	458.75
794.099	487.75
794.356	532.75
794.613	449.75
794.869	489.75
795.126	442.75
795.383	427.75
795.64	443.75
795.897	401.75
796.153	464.75
796.41	443.75
796.667	426.75
796.923	431.75
797.18	442.75
797.436	480.75
797.693	434.75
797.949	480.75
798.206	507.75
798.462	415.75
798.718	465.75
798.974	453.75
799.231	500.75
799.487	482.75
799.743	502.75
799.999	519.75
800.255	513.75
800.511	503.75
800.767	551.75
801.023	538.75
801.279	574.75
801.534	633.75
801.79	655.75
802.046	686.75
802.302	826.75
802.557	940.75
802.813	1178.75
803.068	1467.75
803.324	2010.75
803.579	2735.75
803.835	3810.75
804.09	5148.75
804.345	6698.75
804.601	8493.75
804.856	10227.75
805.111	11806.75
805.366	13051.75
805.621	13859.75
805.876	14567.75
806.131	14931.75
806.386	15179.75
806.641	15397.75
806.896	15665.75
807.151	16053.75
807.406	16256.75
807.661	16462.75
807.915	16862.75
808.17	17066.75
808.425	17125.75
808.679	17323.75
808.934	17614.75
809.188	17649.75
809.443	17896.75
809.697	18058.75
809.951	18163.75
810.206	18274.75
810.46	18432.75
810.714	18592.75
810.968	18847.75
811.223	18906.75
811.477	19125.75
811.731	19207.75
811.985	19306.75
812.239	19358.75
812.493	19432.75
812.747	19579.75
813	19589.75
813.254	19710.75
813.508	19748.75
813.762	19772.75
814.015	19883.75
814.269	19979.75
814.522	20170.75
814.776	20421.75
815.03	20606.75
815.283	20903.75
815.536	21342.75
815.79	21585.75
816.043	21813.75
816.296	22221.75
816.55	22339.75
816.803	22620.75
817.056	22775.75
817.309	23076.75
817.562	23275.75
817.815	23452.75
818.068	23599.75
818.321	23696.75
818.574	24045.75
818.827	24373.75
819.079	24600.75
819.332	25162.75
819.585	25341.75
819.838	25627.75
820.09	25763.75
820.343	25913.75
820.595	26012.75
820.848	26244.75
821.1	26366.75
821.353	26359.75
821.605	26357.75
821.857	26325.75
822.11	26025.75
822.362	26002.75
822.614	26022.75
822.866	26053.75
823.118	25929.75
823.37	26184.75
823.622	26310.75
823.874	26224.75
824.126	26301.75
824.378	26280.75
824.63	26397.75
824.882	26581.75
825.134	26527.75
825.385	26385.75
825.637	26317.75
825.888	26262.75
826.14	26097.75
826.392	26008.75
826.643	25963.75
826.895	25810.75
827.146	25727.75
827.397	25577.75
827.649	25646.75
827.9	25533.75
828.151	25592.75
828.402	25710.75
828.653	25726.75
828.905	25834.75
829.156	25820.75
829.407	25733.75
829.658	25789.75
829.909	25859.75
830.159	25876.75
830.41	25720.75
830.661	25577.75
830.912	25491.75
831.162	25289.75
831.413	25180.75
831.664	25242.75
831.914	25153.75
832.165	25143.75
832.415	25080.75
832.666	25118.75
832.916	25164.75
833.167	25159.75
833.417	25044.75
833.667	24906.75
833.917	24887.75
834.168	24914.75
834.418	24742.75
834.668	24648.75
834.918	24618.75
835.168	24525.75
835.418	24302.75
835.668	24319.75
835.918	24160.75
836.167	24152.75
836.417	23980.75
836.667	24101.75
836.917	24022.75
837.166	23948.75
837.416	23949.75
837.666	24016.75
837.915	23963.75
838.165	23763.75
838.414	23713.75
838.663	23675.75
838.913	23634.75
839.162	23660.75
839.411	23564.75
839.661	23580.75
839.91	23491.75
840.159	23340.75
840.408	23361.75
840.657	23388.75
840.906	23479.75
841.155	23380.75
841.404	23295.75
841.653	23292.75
841.902	23306.75
842.15	23406.75
842.399	23439.75
842.648	23390.75
842.897	23233.75
843.145	23121.75
843.394	22916.75
843.642	22822.75
843.891	22710.75
844.139	22584.75
844.388	22418.75
844.636	22384.75
844.884	22276.75
845.133	22265.75
845.381	22224.75
845.629	22342.75
845.877	22248.75
846.125	22169.75
846.373	22169.75
846.621	22073.75
846.869	21938.75
847.117	21884.75
847.365	21745.75
847.613	21534.75
847.861	21535.75
848.108	21385.75
848.356	21434.75
848.604	21351.75
848.851	21392.75
849.099	21471.75
849.346	21422.75
849.594	21630.75
849.841	21613.75
850.089	21609.75
850.336	21617.75
850.583	21608.75
850.831	21424.75
851.078	21457.75
851.325	21342.75
851.572	21324.75
851.819	21155.75
852.066	20769.75
852.313	20476.75
852.56	20366.75
852.807	20313.75
853.054	20278.75
853.301	20138.75
853.548	20276.75
853.794	20376.75
854.041	20427.75
854.288	20441.75
854.534	20698.75
854.781	20461.75
855.028	20569.75
855.274	20502.75
855.52	20325.75
855.767	20219.75
856.013	20281.75
856.26	20577.75
856.506	20068.75
856.752	20036.75
856.998	20076.75
857.244	20013.75
857.49	20093.75
857.736	20284.75
857.982	20067.75
858.228	20032.75
858.474	19930.75
858.72	19763.75
858.966	19723.75
859.212	19329.75
859.458	19228.75
859.703	19066.75
859.949	18797.75
860.195	18664.75
860.44	18588.75
860.686	18526.75
860.931	18465.75
861.177	18431.75
861.422	18409.75
861.667	18223.75
861.913	18170.75
862.158	18277.75
862.403	18190.75
862.648	18392.75
862.893	18329.75
863.138	18322.75
863.384	18177.75
863.629	18184.75
863.873	18235.75
864.118	18115.75
864.363	18067.75
864.608	17945.75
864.853	18008.75
865.098	17846.75
865.342	17771.75
865.587	17660.75
865.832	17662.75
866.076	17656.75
866.321	17584.75
866.565	17426.75
866.81	17421.75
867.054	17387.75
867.298	17346.75
867.543	17147.75
867.787	17252.75
868.031	17164.75
868.275	17121.75
868.519	17123.75
868.764	17061.75
869.008	17005.75
869.252	16963.75
869.496	16958.75
869.739	16884.75
869.983	16972.75
870.227	16873.75
870.471	16930.75
870.715	16950.75
870.958	16944.75
871.202	17035.75
871.446	17028.75
871.689	16916.75
871.933	17080.75
872.176	17002.75
872.42	16828.75
872.663	16892.75
872.906	16907.75
873.15	16832.75
873.393	16732.75
873.636	16744.75
873.879	16660.75
874.122	16490.75
874.366	16162.75
874.609	16055.75
874.852	15941.75
875.095	15930.75
875.337	15828.75
875.58	15644.75
875.823	15634.75
876.066	15590.75
876.309	15566.75
876.551	15425.75
876.794	15277.75
877.037	15284.75
877.279	15235.75
877.522	15227.75
877.764	15334.75
878.007	15189.75
878.249	15163.75
878.491	15177.75
878.734	15169.75
878.976	15047.75
879.218	14901.75
879.46	14917.75
879.702	14806.75
879.945	14641.75
880.187	14549.75
880.429	14447.75
880.671	14344.75
880.912	14217.75
881.154	14203.75
881.396	14188.75
881.638	14196.75
881.88	14176.75
882.121	14129.75
882.363	14199.75
882.605	14147.75
882.846	14154.75
883.088	14066.75
883.329	14019.75
883.571	14088.75
883.812	14249.75
884.053	14385.75
884.295	14733.75
884.536	14883.75
884.777	14867.75
885.018	14659.75
885.259	14609.75
885.5	14429.75
885.742	14690.75
885.982	14439.75
886.223	14347.75
886.464	14143.75
886.705	14037.75
886.946	13876.75
887.187	13600.75
887.428	13579.75
887.668	13325.75
887.909	13141.75
888.15	12994.75
888.39	12879.75
888.631	12868.75
888.871	12756.75
889.111	12642.75
889.352	12586.75
889.592	12388.75
889.833	12401.75
890.073	12272.75
890.313	12211.75
890.553	12029.75
890.793	12006.75
891.033	11966.75
891.273	11856.75
891.513	11859.75
891.753	11875.75
891.993	11805.75
892.233	11864.75
892.473	11978.75
892.713	11932.75
892.952	11777.75
893.192	11926.75
893.432	11777.75
893.671	11780.75
893.911	11725.75
894.15	11702.75
894.39	11516.75
894.629	11536.75
894.869	11504.75
895.108	11362.75
895.347	11366.75
895.587	11343.75
895.826	11293.75
896.065	11235.75
896.304	11262.75
896.543	11231.75
896.782	11197.75
897.021	11210.75
897.26	11214.75
897.499	11149.75
897.738	11077.75
897.977	11097.75
898.216	10915.75
898.454	10810.75
898.693	10791.75
898.932	10774.75
899.17	10748.75
899.409	10698.75
899.647	10673.75
899.886	10602.75
900.124	10651.75
900.363	10627.75
900.601	10621.75
900.839	10664.75
901.078	10695.75
901.316	10779.75
901.554	10712.75
901.792	10830.75
902.03	10761.75
902.268	10786.75
902.506	10870.75
902.744	10676.75
902.982	10622.75
903.22	10405.75
903.458	10276.75
903.695	10231.75
903.933	9978.75
904.171	9856.75
904.409	9703.75
904.646	9604.75
904.884	9456.75
905.121	9394.75
905.359	9296.75
905.596	9223.75
905.833	9073.75
906.071	9060.75
906.308	9025.75
906.545	8992.75
906.783	8986.75
907.02	8909.75
907.257	8873.75
907.494	8886.75
907.731	8873.75
907.968	8870.75
908.205	8733.75
908.442	8707.75
908.679	8628.75
908.915	8587.75
909.152	8536.75
909.389	8333.75
909.626	8301.75
909.862	8326.75
910.099	8318.75
910.335	8308.75
910.572	8148.75
910.808	8213.75
911.045	8146.75
911.281	8092.75
911.518	8108.75
911.754	7993.75
911.99	8003.75
912.226	7885.75
912.463	7877.75
912.699	7792.75
912.935	7774.75
913.171	7646.75
913.407	7603.75
913.643	7641.75
913.879	7537.75
914.114	7431.75
914.35	7377.75
914.586	7305.75
914.822	7260.75
915.057	7272.75
915.293	7036.75
915.529	7054.75
915.764	7090.75
916	7109.75
916.235	7069.75
916.471	7083.75
916.706	6958.75
916.941	7019.75
917.177	6974.75
917.412	7003.75
917.647	6965.75
917.882	6955.75
918.117	6946.75
918.352	6909.75
918.588	6909.75
918.823	6780.75
919.057	6784.75
919.292	6612.75
919.527	6704.75
919.762	6511.75
919.997	6509.75
920.232	6406.75
920.466	6377.75
920.701	6317.75
920.935	6307.75
921.17	6238.75
921.405	6181.75
921.639	6197.75
921.873	6192.75
922.108	6226.75
922.342	6173.75
922.576	6056.75
922.811	6043.75
923.045	6080.75
923.279	6103.75
923.513	5900.75
923.747	6009.75
923.981	5971.75
924.215	5873.75
924.449	5873.75
924.683	5748.75
924.917	5723.75
925.151	5654.75
925.385	5758.75
925.618	5727.75
925.852	5692.75
926.086	5595.75
926.319	5654.75
926.553	5653.75
926.786	5664.75
927.02	5698.75
927.253	5685.75
927.486	5668.75
927.72	5544.75
927.953	5655.75
928.186	5489.75
928.42	5600.75
928.653	5487.75
928.886	5478.75
929.119	5498.75
929.352	5490.75
929.585	5394.75
929.818	5375.75
930.051	5292.75
930.284	5316.75
930.516	5194.75
930.749	5160.75
930.982	5187.75
931.215	5209.75
931.447	5090.75
931.68	5142.75
931.912	5064.75
932.145	5076.75
932.377	5082.75
932.61	5208.75
932.842	5033.75
933.074	5064.75
933.307	5058.75
933.539	5142.75
933.771	5097.75
934.003	5010.75
934.236	5096.75
934.468	5115.75
934.7	5026.75
934.932	4953.75
935.164	4978.75
935.395	4923.75
935.627	4996.75
935.859	4966.75
936.091	4882.75
936.323	4943.75
936.554	4907.75
936.786	4844.75
937.017	4785.75
937.249	4797.75
937.481	4744.75
937.712	4811.75
937.943	4808.75
938.175	4780.75
938.406	4780.75
938.637	4825.75
938.869	4688.75
939.1	4793.75
939.331	4687.75
939.562	4713.75
939.793	4735.75
940.024	4660.75
940.255	4706.75
940.486	4644.75
940.717	4556.75
940.948	4613.75
941.179	4540.75
941.409	4584.75
941.64	4591.75
941.871	4513.75
942.102	4483.75
942.332	4505.75
942.563	4523.75
942.793	4520.75
943.024	4430.75
943.254	4488.75
943.484	4568.75
943.715	4528.75
943.945	4471.75
944.175	4436.75
944.405	4401.75
944.636	4409.75
944.866	4494.75
945.096	4441.75
945.326	4364.75
945.556	4419.75
945.786	4433.75
946.016	4357.75
946.245	4313.75
946.475	4252.75
946.705	4247.75
946.935	4236.75
947.164	4242.75
947.394	4185.75
947.624	4203.75
947.853	4217.75
948.083	4157.75
948.312	4099.75
948.542	4040.75
948.771	4033.75
949	4029.75
949.23	4055.75
949.459	4064.75
949.688	4146.75
949.917	4035.75
950.146	4035.75
950.375	4097.75
950.604	3975.75
950.833	4085.75
951.062	4046.75
951.291	4046.75
951.52	3965.75
951.749	4002.75
951.978	3926.75
952.206	3932.75
952.435	3944.75
952.664	3906.75
952.892	3890.75
953.121	3894.75
953.349	3937.75
953.578	3855.75
953.806	3861.75
954.035	3783.75
954.263	3797.75
954.491	3719.75
954.719	3777.75
954.948	3708.75
955.176	3681.75
955.404	3640.75
955.632	3682.75
955.86	3676.75
956.088	3667.75
956.316	3695.75
956.544	3693.75
956.772	3608.75
956.999	3582.75
957.227	3678.75
957.455	3557.75
957.683	3545.75
957.91	3509.75
958.138	3476.75
958.365	3483.75
958.593	3432.75
958.82	3384.75
959.048	3477.75
959.275	3364.75
959.502	3408.75
959.73	3349.75
959.957	3429.75
960.184	3444.75
960.411	3316.75
960.638	3453.75
960.865	3370.75
961.092	3402.75
961.319	3280.75
961.546	3429.75
961.773	3369.75
962	3331.75
962.227	3380.75
962.454	3365.75
962.68	3295.75
962.907	3367.75
963.134	3268.75
963.36	3286.75
963.587	3276.75
963.813	3214.75
964.04	3207.75
964.266	3128.75
964.493	3225.75
964.719	3181.75
964.945	3170.75
965.171	3038.75
965.398	3124.75
965.624	3113.75
965.85	3050.75
966.076	3062.75
966.302	3079.75
966.528	3004.75
966.754	3057.75
966.98	2997.75
967.206	3044.75
967.431	2948.75
967.657	3017.75
967.883	3025.75
968.109	2993.75
968.334	2929.75
968.56	2941.75
968.785	2933.75
969.011	2919.75
969.236	2927.75
969.462	2882.75
969.687	2895.75
969.912	2983.75
970.138	2957.75
970.363	2859.75
970.588	2887.75
970.813	2891.75
971.038	2822.75
971.263	2851.75
971.488	2845.75
971.713	2897.75
971.938	2851.75
972.163	2758.75
972.388	2744.75
972.613	2756.75
972.838	2762.75
973.062	2768.75
973.287	2740.75
973.512	2640.75
973.736	2712.75
973.961	2678.75
974.185	2685.75
974.41	2681.75
974.634	2605.75
974.858	2610.75
975.083	2630.75
975.307	2622.75
975.531	2558.75
975.755	2499.75
975.98	2519.75
976.204	2471.75
976.428	2442.75
976.652	2467.75
976.876	2457.75
977.1	2456.75
977.324	2428.75
977.547	2460.75
977.771	2493.75
977.995	2452.75
978.219	2419.75
978.442	2488.75
978.666	2422.75
978.89	2431.75
979.113	2371.75
979.337	2357.75
979.56	2364.75
979.783	2447.75
980.007	2348.75
980.23	2369.75
980.453	2298.75
980.677	2364.75
980.9	2363.75
981.123	2250.75
981.346	2332.75
981.569	2306.75
981.792	2328.75
982.015	2293.75
982.238	2248.75
982.461	2253.75
982.684	2223.75
982.907	2213.75
983.129	2190.75
983.352	2243.75
983.575	2224.75
983.797	2196.75
984.02	2163.75
984.242	2173.75
984.465	2167.75
984.687	2205.75
984.91	2234.75
985.132	2186.75
985.354	2193.75
985.577	2147.75
985.799	2132.75
986.021	2075.75
986.243	2085.75
986.465	2096.75
986.687	2160.75
986.909	2207.75
987.131	2066.75
987.353	2068.75
987.575	2121.75
987.797	2038.75
988.019	1990.75
988.241	2059.75
988.462	2001.75
988.684	2082.75
988.906	2089.75
989.127	2090.75
989.349	1963.75
989.57	1990.75
989.792	2039.75
990.013	2057.75
990.234	2034.75
990.456	2084.75
990.677	2068.75
990.898	1984.75
991.119	1990.75
991.341	2002.75
991.562	1962.75
991.783	1969.75
992.004	1886.75
992.225	1887.75
992.446	1923.75
992.667	1855.75
992.887	1929.75
993.108	1826.75
993.329	1943.75
993.55	1881.75
993.77	1816.75
993.991	1806.75
994.212	1871.75
994.432	1823.75
994.653	1863.75
994.873	1818.75
995.093	1743.75
995.314	1764.75
995.534	1848.75
995.754	1852.75
995.975	1841.75
996.195	1738.75
996.415	1789.75
996.635	1796.75
996.855	1829.75
997.075	1785.75
997.295	1792.75
997.515	1749.75
997.735	1817.75
997.955	1780.75
998.174	1754.75
998.394	1690.75
998.614	1790.75
998.834	1723.75
999.053	1812.75
999.273	1758.75
999.492	1802.75
999.712	1751.75
999.931	1715.75
1000.151	1764.75
1000.37	1714.75
1000.589	1797.75
1000.809	1682.75
1001.028	1775.75
1001.247	1729.75
1001.466	1637.75
1001.685	1745.75
1001.904	1711.75
1002.123	1676.75
1002.342	1692.75
1002.561	1628.75
1002.78	1681.75
1002.999	1713.75
1003.218	1684.75
1003.436	1634.75
1003.655	1678.75
1003.874	1601.75
1004.092	1618.75
1004.311	1667.75
1004.53	1610.75
1004.748	1711.75
1004.966	1632.75
1005.185	1692.75
1005.403	1662.75
1005.622	1645.75
1005.84	1736.75
1006.058	1606.75
1006.276	1619.75
1006.494	2141.75
1006.712	1615.75
1006.931	1690.75
1007.149	1626.75
1007.367	1591.75
1007.584	1641.75
1007.802	1685.75
1008.02	1609.75
1008.238	1720.75
1008.456	1730.75
1008.673	1576.75
1008.891	1730.75
1009.109	1643.75
1009.326	1694.75
1009.544	1818.75
1009.761	1748.75
1009.979	1826.75
1010.196	1836.75
1010.413	1930.75
1010.631	2003.75
1010.848	2045.75
1011.065	2071.75
1011.282	1986.75
1011.5	1960.75
1011.717	2067.75
1011.934	1998.75
1012.151	1998.75
1012.368	2024.75
1012.585	1916.75
1012.801	2022.75
1013.018	1948.75
1013.235	1929.75
1013.452	1968.75
1013.669	1990.75
1013.885	1952.75
1014.102	1996.75
1014.318	1967.75
1014.535	1929.75
1014.751	1938.75
1014.968	1958.75
1015.184	1983.75
1015.401	1877.75
1015.617	1916.75
1015.833	1837.75
1016.049	1834.75
1016.266	1803.75
1016.482	1824.75
1016.698	1726.75
1016.914	1812.75
1017.13	1715.75
1017.346	1732.75
1017.562	1764.75
1017.778	1693.75
1017.993	1661.75
1018.209	1730.75
1018.425	1716.75
1018.641	1707.75
1018.856	1653.75
1019.072	1675.75
1019.288	1704.75
1019.503	1665.75
1019.719	1595.75
1019.934	1630.75
1020.149	1671.75
1020.365	1629.75
1020.58	1573.75
1020.795	1593.75
1021.011	1522.75
1021.226	1520.75
1021.441	1514.75
1021.656	1411.75
1021.871	1368.75
1022.086	1370.75
1022.301	1341.75
1022.516	1343.75
1022.731	1372.75
1022.946	1274.75
1023.16	1272.75
1023.375	1257.75
1023.59	1222.75
1023.804	1192.75
1024.019	1282.75
1024.234	1137.75
1024.448	1165.75
1024.663	1117.75
1024.877	1108.75
1025.092	1125.75
1025.306	1120.75
1025.52	1024.75
1025.734	1094.75
1025.949	1028.75
1026.163	977.75
1026.377	938.75
1026.591	977.75
1026.805	904.75
1027.019	905.75
1027.233	856.75
1027.447	809.75
1027.661	921.75
1027.875	868.75
1028.088	840.75
1028.302	777.75
1028.516	747.75
1028.73	760.75
1028.943	772.75
1029.157	713.75
1029.37	661.75
1029.584	-1.25
1029.797	-0.25
1030.011	-1.25
1030.224	-0.25
