Data from QEP037381__121__15-43-39-879.txt Node

Date: Fri Dec 16 15:43:39 EST 2022
User: dcclab
Spectrometer: QEP03738
Trigger mode: 4
Integration Time (sec): 1.000000E1
Scans to average: 1
Electric dark correction enabled: true
Nonlinearity correction enabled: false
Boxcar width: 0
XAxis mode: Wavelengths
Number of Pixels in Spectrum: 1044
>>>>>Begin Spectral Data<<<<<
784.041	15.25
784.3	1.25
784.558	-1.75
784.817	-3.75
785.075	100208.25
785.334	17633.25
785.592	8383.25
785.851	5818.25
786.109	4393.25
786.368	3412.25
786.626	2776.25
786.884	2313.25
787.143	1917.25
787.401	1604.25
787.659	1462.25
787.917	1256.25
788.175	1164.25
788.433	1015.25
788.691	906.25
788.949	854.25
789.207	812.25
789.465	700.25
789.723	689.25
789.98	618.25
790.238	664.25
790.496	629.25
790.753	587.25
791.011	633.25
791.268	571.25
791.526	552.25
791.783	585.25
792.041	541.25
792.298	469.25
792.556	548.25
792.813	507.25
793.07	493.25
793.327	470.25
793.584	537.25
793.841	486.25
794.099	488.25
794.356	556.25
794.613	469.25
794.869	491.25
795.126	458.25
795.383	437.25
795.64	463.25
795.897	429.25
796.153	472.25
796.41	472.25
796.667	444.25
796.923	459.25
797.18	455.25
797.436	479.25
797.693	454.25
797.949	506.25
798.206	536.25
798.462	463.25
798.718	516.25
798.974	487.25
799.231	535.25
799.487	538.25
799.743	526.25
799.999	578.25
800.255	570.25
800.511	554.25
800.767	626.25
801.023	620.25
801.279	633.25
801.534	708.25
801.79	778.25
802.046	826.25
802.302	1000.25
802.557	1180.25
802.813	1466.25
803.068	1888.25
803.324	2636.25
803.579	3655.25
803.835	5159.25
804.09	7070.25
804.345	9334.25
804.601	11868.25
804.856	14318.25
805.111	16549.25
805.366	18329.25
805.621	19703.25
805.876	20527.25
806.131	21082.25
806.386	21465.25
806.641	21809.25
806.896	22198.25
807.151	22696.25
807.406	22943.25
807.661	23384.25
807.915	23704.25
808.17	24075.25
808.425	24344.25
808.679	24475.25
808.934	24809.25
809.188	25047.25
809.443	25376.25
809.697	25608.25
809.951	25759.25
810.206	26045.25
810.46	26177.25
810.714	26488.25
810.968	26849.25
811.223	26951.25
811.477	27098.25
811.731	27327.25
811.985	27573.25
812.239	27627.25
812.493	27790.25
812.747	27926.25
813	28007.25
813.254	28056.25
813.508	28153.25
813.762	28286.25
814.015	28266.25
814.269	28794.25
814.522	28787.25
814.776	29190.25
815.03	29607.25
815.283	30043.25
815.536	30538.25
815.79	30865.25
816.043	31313.25
816.296	31768.25
816.55	32043.25
816.803	32502.25
817.056	32979.25
817.309	33116.25
817.562	33429.25
817.815	33587.25
818.068	33891.25
818.321	34196.25
818.574	34604.25
818.827	35088.25
819.079	35603.25
819.332	36097.25
819.585	36469.25
819.838	36946.25
820.09	37210.25
820.343	37565.25
820.595	37559.25
820.848	37822.25
821.1	38072.25
821.353	38070.25
821.605	37839.25
821.857	37918.25
822.11	37737.25
822.362	37686.25
822.614	37526.25
822.866	37653.25
823.118	37581.25
823.37	37846.25
823.622	37849.25
823.874	37796.25
824.126	38048.25
824.378	38039.25
824.63	38181.25
824.882	38302.25
825.134	38302.25
825.385	38206.25
825.637	38086.25
825.888	37986.25
826.14	37927.25
826.392	37752.25
826.643	37630.25
826.895	37487.25
827.146	37400.25
827.397	37152.25
827.649	37237.25
827.9	37091.25
828.151	37052.25
828.402	37351.25
828.653	37566.25
828.905	37496.25
829.156	37585.25
829.407	37409.25
829.658	37528.25
829.909	37606.25
830.159	37531.25
830.41	37233.25
830.661	37197.25
830.912	36835.25
831.162	36628.25
831.413	36690.25
831.664	36604.25
831.914	36535.25
832.165	36479.25
832.415	36528.25
832.666	36666.25
832.916	36590.25
833.167	36559.25
833.417	36340.25
833.667	36323.25
833.917	36234.25
834.168	36098.25
834.418	36040.25
834.668	35860.25
834.918	35566.25
835.168	35572.25
835.418	35190.25
835.668	35325.25
835.918	35299.25
836.167	35221.25
836.417	35007.25
836.667	35010.25
836.917	34957.25
837.166	34975.25
837.416	34922.25
837.666	34835.25
837.915	34759.25
838.165	34662.25
838.414	34543.25
838.663	34464.25
838.913	34551.25
839.162	34415.25
839.411	34215.25
839.661	34119.25
839.91	34018.25
840.159	34081.25
840.408	33938.25
840.657	33905.25
840.906	33943.25
841.155	33948.25
841.404	33798.25
841.653	33915.25
841.902	33846.25
842.15	34032.25
842.399	34004.25
842.648	33869.25
842.897	33764.25
843.145	33547.25
843.394	33317.25
843.642	33157.25
843.891	33143.25
844.139	32994.25
844.388	32556.25
844.636	32408.25
844.884	32422.25
845.133	32443.25
845.381	32279.25
845.629	32454.25
845.877	32336.25
846.125	32334.25
846.373	32079.25
846.621	32128.25
846.869	31865.25
847.117	31634.25
847.365	31635.25
847.613	31372.25
847.861	31449.25
848.108	31296.25
848.356	31138.25
848.604	31215.25
848.851	31110.25
849.099	31176.25
849.346	31234.25
849.594	31296.25
849.841	31521.25
850.089	31436.25
850.336	31436.25
850.583	31452.25
850.831	31256.25
851.078	30980.25
851.325	30870.25
851.572	30999.25
851.819	30788.25
852.066	30147.25
852.313	29837.25
852.56	29726.25
852.807	29410.25
853.054	29368.25
853.301	29225.25
853.548	29164.25
853.794	29397.25
854.041	29687.25
854.288	29567.25
854.534	29902.25
854.781	29823.25
855.028	29674.25
855.274	29615.25
855.52	29516.25
855.767	29332.25
856.013	29240.25
856.26	29579.25
856.506	29088.25
856.752	28984.25
856.998	29083.25
857.244	29027.25
857.49	29101.25
857.736	29175.25
857.982	29115.25
858.228	29190.25
858.474	28907.25
858.72	28683.25
858.966	28390.25
859.212	28198.25
859.458	27857.25
859.703	27603.25
859.949	27449.25
860.195	27136.25
860.44	26914.25
860.686	26791.25
860.931	26799.25
861.177	26623.25
861.422	26609.25
861.667	26500.25
861.913	26583.25
862.158	26583.25
862.403	26576.25
862.648	26623.25
862.893	26689.25
863.138	26595.25
863.384	26520.25
863.629	26550.25
863.873	26500.25
864.118	26509.25
864.363	26250.25
864.608	26217.25
864.853	26000.25
865.098	25901.25
865.342	25762.25
865.587	25688.25
865.832	25683.25
866.076	25572.25
866.321	25363.25
866.565	25491.25
866.81	25239.25
867.054	25269.25
867.298	25118.25
867.543	25052.25
867.787	25092.25
868.031	24858.25
868.275	24879.25
868.519	24774.25
868.764	24846.25
869.008	24685.25
869.252	24664.25
869.496	24533.25
869.739	24460.25
869.983	24457.25
870.227	24380.25
870.471	24413.25
870.715	24530.25
870.958	24505.25
871.202	24533.25
871.446	24495.25
871.689	24476.25
871.933	24619.25
872.176	24572.25
872.42	24544.25
872.663	24305.25
872.906	24342.25
873.15	24143.25
873.393	24039.25
873.636	24097.25
873.879	23872.25
874.122	23626.25
874.366	23136.25
874.609	23083.25
874.852	22843.25
875.095	22855.25
875.337	22768.25
875.58	22491.25
875.823	22450.25
876.066	22400.25
876.309	22443.25
876.551	22253.25
876.794	22130.25
877.037	22186.25
877.279	22005.25
877.522	22062.25
877.764	22125.25
878.007	22004.25
878.249	21913.25
878.491	21954.25
878.734	22043.25
878.976	21822.25
879.218	21585.25
879.46	21575.25
879.702	21543.25
879.945	21303.25
880.187	21085.25
880.429	20903.25
880.671	20785.25
880.912	20913.25
881.154	20737.25
881.396	20557.25
881.638	20667.25
881.88	20693.25
882.121	20508.25
882.363	20504.25
882.605	20470.25
882.846	20321.25
883.088	20381.25
883.329	20314.25
883.571	20354.25
883.812	20359.25
884.053	20660.25
884.295	20894.25
884.536	21071.25
884.777	20814.25
885.018	20741.25
885.259	20685.25
885.5	20535.25
885.742	20829.25
885.982	20503.25
886.223	20343.25
886.464	20240.25
886.705	20106.25
886.946	19900.25
887.187	19674.25
887.428	19515.25
887.668	19202.25
887.909	18957.25
888.15	18838.25
888.39	18761.25
888.631	18618.25
888.871	18516.25
889.111	18383.25
889.352	18223.25
889.592	18071.25
889.833	17916.25
890.073	17830.25
890.313	17730.25
890.553	17649.25
890.793	17419.25
891.033	17379.25
891.273	17366.25
891.513	17195.25
891.753	17314.25
891.993	17183.25
892.233	17181.25
892.473	17349.25
892.713	17219.25
892.952	17239.25
893.192	17291.25
893.432	17186.25
893.671	17163.25
893.911	17045.25
894.15	16980.25
894.39	16847.25
894.629	16824.25
894.869	16678.25
895.108	16611.25
895.347	16500.25
895.587	16467.25
895.826	16349.25
896.065	16341.25
896.304	16369.25
896.543	16306.25
896.782	16116.25
897.021	16147.25
897.26	16058.25
897.499	16195.25
897.738	16019.25
897.977	15915.25
898.216	15795.25
898.454	15618.25
898.693	15546.25
898.932	15557.25
899.17	15436.25
899.409	15323.25
899.647	15350.25
899.886	15265.25
900.124	15343.25
900.363	15275.25
900.601	15295.25
900.839	15350.25
901.078	15260.25
901.316	15341.25
901.554	15398.25
901.792	15429.25
902.03	15418.25
902.268	15254.25
902.506	15387.25
902.744	15248.25
902.982	15226.25
903.22	14963.25
903.458	14741.25
903.695	14600.25
903.933	14473.25
904.171	14171.25
904.409	14047.25
904.646	13904.25
904.884	13701.25
905.121	13584.25
905.359	13431.25
905.596	13263.25
905.833	13132.25
906.071	13153.25
906.308	13016.25
906.545	13120.25
906.783	12967.25
907.02	12938.25
907.257	12844.25
907.494	12945.25
907.731	12870.25
907.968	12735.25
908.205	12686.25
908.442	12719.25
908.679	12483.25
908.915	12459.25
909.152	12323.25
909.389	12219.25
909.626	12162.25
909.862	12106.25
910.099	12069.25
910.335	11945.25
910.572	11828.25
910.808	11923.25
911.045	11815.25
911.281	11713.25
911.518	11659.25
911.754	11625.25
911.99	11633.25
912.226	11476.25
912.463	11389.25
912.699	11359.25
912.935	11196.25
913.171	11169.25
913.407	11038.25
913.643	10982.25
913.879	10887.25
914.114	10757.25
914.35	10707.25
914.586	10583.25
914.822	10469.25
915.057	10465.25
915.293	10280.25
915.529	10254.25
915.764	10317.25
916	10278.25
916.235	10196.25
916.471	10163.25
916.706	10150.25
916.941	10107.25
917.177	10101.25
917.412	10096.25
917.647	10153.25
917.882	10012.25
918.117	10091.25
918.352	10011.25
918.588	9989.25
918.823	9891.25
919.057	9832.25
919.292	9633.25
919.527	9671.25
919.762	9512.25
919.997	9448.25
920.232	9335.25
920.466	9288.25
920.701	9124.25
920.935	9118.25
921.17	9024.25
921.405	9024.25
921.639	9020.25
921.873	8855.25
922.108	8881.25
922.342	8901.25
922.576	8788.25
922.811	8837.25
923.045	8753.25
923.279	8740.25
923.513	8650.25
923.747	8610.25
923.981	8560.25
924.215	8442.25
924.449	8409.25
924.683	8364.25
924.917	8299.25
925.151	8200.25
925.385	8321.25
925.618	8238.25
925.852	8252.25
926.086	8086.25
926.319	8152.25
926.553	8144.25
926.786	8151.25
927.02	8091.25
927.253	8183.25
927.486	8094.25
927.72	8059.25
927.953	8034.25
928.186	7992.25
928.42	8033.25
928.653	7950.25
928.886	7859.25
929.119	7905.25
929.352	7820.25
929.585	7783.25
929.818	7725.25
930.051	7683.25
930.284	7635.25
930.516	7538.25
930.749	7476.25
930.982	7498.25
931.215	7444.25
931.447	7350.25
931.68	7319.25
931.912	7289.25
932.145	7304.25
932.377	7344.25
932.61	7464.25
932.842	7207.25
933.074	7303.25
933.307	7224.25
933.539	7273.25
933.771	7295.25
934.003	7226.25
934.236	7283.25
934.468	7284.25
934.7	7195.25
934.932	7204.25
935.164	7118.25
935.395	7090.25
935.627	7142.25
935.859	7070.25
936.091	6992.25
936.323	7022.25
936.554	7035.25
936.786	6971.25
937.017	6915.25
937.249	6927.25
937.481	6858.25
937.712	6880.25
937.943	6775.25
938.175	6774.25
938.406	6795.25
938.637	6864.25
938.869	6816.25
939.1	6825.25
939.331	6752.25
939.562	6747.25
939.793	6703.25
940.024	6713.25
940.255	6655.25
940.486	6577.25
940.717	6581.25
940.948	6551.25
941.179	6502.25
941.409	6444.25
941.64	6466.25
941.871	6433.25
942.102	6398.25
942.332	6421.25
942.563	6450.25
942.793	6458.25
943.024	6395.25
943.254	6408.25
943.484	6447.25
943.715	6434.25
943.945	6385.25
944.175	6284.25
944.405	6310.25
944.636	6237.25
944.866	6366.25
945.096	6406.25
945.326	6306.25
945.556	6329.25
945.786	6309.25
946.016	6229.25
946.245	6128.25
946.475	6124.25
946.705	6078.25
946.935	5997.25
947.164	6032.25
947.394	5999.25
947.624	5929.25
947.853	5974.25
948.083	5879.25
948.312	5814.25
948.542	5751.25
948.771	5766.25
949	5718.25
949.23	5735.25
949.459	5735.25
949.688	5845.25
949.917	5715.25
950.146	5734.25
950.375	5777.25
950.604	5670.25
950.833	5737.25
951.062	5708.25
951.291	5662.25
951.52	5641.25
951.749	5668.25
951.978	5569.25
952.206	5555.25
952.435	5501.25
952.664	5542.25
952.892	5538.25
953.121	5540.25
953.349	5565.25
953.578	5492.25
953.806	5396.25
954.035	5373.25
954.263	5407.25
954.491	5315.25
954.719	5380.25
954.948	5271.25
955.176	5288.25
955.404	5178.25
955.632	5298.25
955.86	5227.25
956.088	5171.25
956.316	5107.25
956.544	5176.25
956.772	5095.25
956.999	5046.25
957.227	5060.25
957.455	4962.25
957.683	4974.25
957.91	4967.25
958.138	4910.25
958.365	4879.25
958.593	4876.25
958.82	4838.25
959.048	4897.25
959.275	4855.25
959.502	4836.25
959.73	4785.25
959.957	4814.25
960.184	4831.25
960.411	4708.25
960.638	4783.25
960.865	4750.25
961.092	4806.25
961.319	4697.25
961.546	4749.25
961.773	4715.25
962	4714.25
962.227	4715.25
962.454	4689.25
962.68	4665.25
962.907	4667.25
963.134	4548.25
963.36	4560.25
963.587	4545.25
963.813	4515.25
964.04	4515.25
964.266	4407.25
964.493	4471.25
964.719	4456.25
964.945	4490.25
965.171	4324.25
965.398	4339.25
965.624	4373.25
965.85	4327.25
966.076	4278.25
966.302	4255.25
966.528	4251.25
966.754	4262.25
966.98	4243.25
967.206	4201.25
967.431	4099.25
967.657	4229.25
967.883	4183.25
968.109	4158.25
968.334	4108.25
968.56	4077.25
968.785	4100.25
969.011	4080.25
969.236	4096.25
969.462	4006.25
969.687	4036.25
969.912	4054.25
970.138	4051.25
970.363	3971.25
970.588	3967.25
970.813	3950.25
971.038	3904.25
971.263	3946.25
971.488	3921.25
971.713	3963.25
971.938	3951.25
972.163	3810.25
972.388	3835.25
972.613	3833.25
972.838	3804.25
973.062	3811.25
973.287	3792.25
973.512	3722.25
973.736	3684.25
973.961	3704.25
974.185	3664.25
974.41	3708.25
974.634	3598.25
974.858	3596.25
975.083	3568.25
975.307	3607.25
975.531	3554.25
975.755	3493.25
975.98	3508.25
976.204	3416.25
976.428	3387.25
976.652	3426.25
976.876	3390.25
977.1	3419.25
977.324	3368.25
977.547	3425.25
977.771	3410.25
977.995	3383.25
978.219	3318.25
978.442	3375.25
978.666	3361.25
978.89	3305.25
979.113	3323.25
979.337	3262.25
979.56	3238.25
979.783	3334.25
980.007	3224.25
980.23	3231.25
980.453	3213.25
980.677	3261.25
980.9	3155.25
981.123	3118.25
981.346	3226.25
981.569	3144.25
981.792	3174.25
982.015	3132.25
982.238	3066.25
982.461	3061.25
982.684	3032.25
982.907	3004.25
983.129	2997.25
983.352	3038.25
983.575	3004.25
983.797	3002.25
984.02	2957.25
984.242	2949.25
984.465	2946.25
984.687	2960.25
984.91	2971.25
985.132	2912.25
985.354	2906.25
985.577	2897.25
985.799	2846.25
986.021	2759.25
986.243	2803.25
986.465	2824.25
986.687	2892.25
986.909	2879.25
987.131	2836.25
987.353	2792.25
987.575	2798.25
987.797	2764.25
988.019	2723.25
988.241	2747.25
988.462	2718.25
988.684	2741.25
988.906	2790.25
989.127	2777.25
989.349	2668.25
989.57	2722.25
989.792	2731.25
990.013	2767.25
990.234	2720.25
990.456	2720.25
990.677	2699.25
990.898	2626.25
991.119	2624.25
991.341	2694.25
991.562	2586.25
991.783	2632.25
992.004	2534.25
992.225	2530.25
992.446	2554.25
992.667	2468.25
992.887	2558.25
993.108	2448.25
993.329	2565.25
993.55	2466.25
993.77	2424.25
993.991	2387.25
994.212	2433.25
994.432	2457.25
994.653	2417.25
994.873	2391.25
995.093	2288.25
995.314	2358.25
995.534	2410.25
995.754	2381.25
995.975	2430.25
996.195	2334.25
996.415	2388.25
996.635	2310.25
996.855	2315.25
997.075	2286.25
997.295	2308.25
997.515	2256.25
997.735	2328.25
997.955	2287.25
998.174	2271.25
998.394	2250.25
998.614	2286.25
998.834	2282.25
999.053	2313.25
999.273	2245.25
999.492	2335.25
999.712	2252.25
999.931	2231.25
1000.151	2225.25
1000.37	2200.25
1000.589	2264.25
1000.809	2175.25
1001.028	2261.25
1001.247	2211.25
1001.466	2110.25
1001.685	2211.25
1001.904	2172.25
1002.123	2148.25
1002.342	2143.25
1002.561	2098.25
1002.78	2119.25
1002.999	2131.25
1003.218	2091.25
1003.436	2082.25
1003.655	2105.25
1003.874	2063.25
1004.092	2070.25
1004.311	2110.25
1004.53	2079.25
1004.748	2120.25
1004.966	2041.25
1005.185	2070.25
1005.403	2084.25
1005.622	2062.25
1005.84	2121.25
1006.058	2001.25
1006.276	2043.25
1006.494	2516.25
1006.712	2040.25
1006.931	2091.25
1007.149	2024.25
1007.367	1996.25
1007.584	2051.25
1007.802	2046.25
1008.02	2032.25
1008.238	2124.25
1008.456	2093.25
1008.673	1947.25
1008.891	2084.25
1009.109	2059.25
1009.326	2104.25
1009.544	2161.25
1009.761	2100.25
1009.979	2193.25
1010.196	2169.25
1010.413	2285.25
1010.631	2358.25
1010.848	2408.25
1011.065	2389.25
1011.282	2316.25
1011.5	2252.25
1011.717	2377.25
1011.934	2326.25
1012.151	2375.25
1012.368	2317.25
1012.585	2273.25
1012.801	2307.25
1013.018	2276.25
1013.235	2265.25
1013.452	2287.25
1013.669	2271.25
1013.885	2244.25
1014.102	2303.25
1014.318	2272.25
1014.535	2237.25
1014.751	2234.25
1014.968	2249.25
1015.184	2264.25
1015.401	2147.25
1015.617	2189.25
1015.833	2142.25
1016.049	2123.25
1016.266	2095.25
1016.482	2082.25
1016.698	2004.25
1016.914	2049.25
1017.13	2001.25
1017.346	2012.25
1017.562	2025.25
1017.778	1981.25
1017.993	1947.25
1018.209	1994.25
1018.425	1983.25
1018.641	1942.25
1018.856	1872.25
1019.072	1910.25
1019.288	1969.25
1019.503	1916.25
1019.719	1820.25
1019.934	1860.25
1020.149	1919.25
1020.365	1858.25
1020.58	1799.25
1020.795	1801.25
1021.011	1767.25
1021.226	1743.25
1021.441	1720.25
1021.656	1670.25
1021.871	1580.25
1022.086	1588.25
1022.301	1586.25
1022.516	1567.25
1022.731	1612.25
1022.946	1492.25
1023.16	1469.25
1023.375	1459.25
1023.59	1414.25
1023.804	1397.25
1024.019	1494.25
1024.234	1356.25
1024.448	1377.25
1024.663	1277.25
1024.877	1306.25
1025.092	1329.25
1025.306	1326.25
1025.52	1214.25
1025.734	1293.25
1025.949	1189.25
1026.163	1156.25
1026.377	1104.25
1026.591	1144.25
1026.805	1062.25
1027.019	1060.25
1027.233	1019.25
1027.447	960.25
1027.661	1084.25
1027.875	1005.25
1028.088	1007.25
1028.302	922.25
1028.516	904.25
1028.73	890.25
1028.943	883.25
1029.157	821.25
1029.37	779.25
1029.584	-1.75
1029.797	-2.75
1030.011	-1.75
1030.224	-4.75
