Data from QEP037381__187__15-54-39-889.txt Node

Date: Fri Dec 16 15:54:39 EST 2022
User: dcclab
Spectrometer: QEP03738
Trigger mode: 4
Integration Time (sec): 1.000000E1
Scans to average: 1
Electric dark correction enabled: true
Nonlinearity correction enabled: false
Boxcar width: 0
XAxis mode: Wavelengths
Number of Pixels in Spectrum: 1044
>>>>>Begin Spectral Data<<<<<
784.041	12.38
784.3	1.38
784.558	-1.62
784.817	-3.62
785.075	110052.38
785.334	19154.38
785.592	9006.38
785.851	6271.38
786.109	4728.38
786.368	3698.38
786.626	2944.38
786.884	2444.38
787.143	2036.38
787.401	1720.38
787.659	1512.38
787.917	1308.38
788.175	1194.38
788.433	1042.38
788.691	917.38
788.949	865.38
789.207	825.38
789.465	719.38
789.723	701.38
789.98	630.38
790.238	681.38
790.496	638.38
790.753	597.38
791.011	658.38
791.268	584.38
791.526	569.38
791.783	565.38
792.041	551.38
792.298	478.38
792.556	545.38
792.813	523.38
793.07	492.38
793.327	486.38
793.584	571.38
793.841	476.38
794.099	498.38
794.356	535.38
794.613	453.38
794.869	498.38
795.126	446.38
795.383	449.38
795.64	452.38
795.897	412.38
796.153	475.38
796.41	450.38
796.667	448.38
796.923	448.38
797.18	468.38
797.436	471.38
797.693	446.38
797.949	494.38
798.206	527.38
798.462	446.38
798.718	511.38
798.974	488.38
799.231	528.38
799.487	528.38
799.743	516.38
799.999	549.38
800.255	568.38
800.511	547.38
800.767	589.38
801.023	584.38
801.279	617.38
801.534	690.38
801.79	728.38
802.046	785.38
802.302	946.38
802.557	1091.38
802.813	1404.38
803.068	1801.38
803.324	2459.38
803.579	3414.38
803.835	4798.38
804.09	6632.38
804.345	8710.38
804.601	10983.38
804.856	13360.38
805.111	15520.38
805.366	17152.38
805.621	18262.38
805.876	19138.38
806.131	19721.38
806.386	20145.38
806.641	20501.38
806.896	20790.38
807.151	21227.38
807.406	21454.38
807.661	21820.38
807.915	22227.38
808.17	22639.38
808.425	22825.38
808.679	23023.38
808.934	23393.38
809.188	23535.38
809.443	23740.38
809.697	24035.38
809.951	24222.38
810.206	24449.38
810.46	24593.38
810.714	24866.38
810.968	25035.38
811.223	25204.38
811.477	25415.38
811.731	25657.38
811.985	25850.38
812.239	25920.38
812.493	26048.38
812.747	26131.38
813	26176.38
813.254	26336.38
813.508	26483.38
813.762	26539.38
814.015	26663.38
814.269	26735.38
814.522	27071.38
814.776	27319.38
815.03	27817.38
815.283	28096.38
815.536	28544.38
815.79	28920.38
816.043	29403.38
816.296	29833.38
816.55	30158.38
816.803	30459.38
817.056	30862.38
817.309	31151.38
817.562	31398.38
817.815	31733.38
818.068	31941.38
818.321	32272.38
818.574	32627.38
818.827	33065.38
819.079	33389.38
819.332	33934.38
819.585	34449.38
819.838	34862.38
820.09	34885.38
820.343	35224.38
820.595	35283.38
820.848	35684.38
821.1	35917.38
821.353	35719.38
821.605	35835.38
821.857	35818.38
822.11	35612.38
822.362	35480.38
822.614	35365.38
822.866	35461.38
823.118	35349.38
823.37	35450.38
823.622	35528.38
823.874	35691.38
824.126	35885.38
824.378	35889.38
824.63	36036.38
824.882	35970.38
825.134	35962.38
825.385	35947.38
825.637	35823.38
825.888	35709.38
826.14	35695.38
826.392	35544.38
826.643	35421.38
826.895	35247.38
827.146	35140.38
827.397	34964.38
827.649	34962.38
827.9	34838.38
828.151	34998.38
828.402	35021.38
828.653	35150.38
828.905	35299.38
829.156	35428.38
829.407	35229.38
829.658	35207.38
829.909	35196.38
830.159	35273.38
830.41	35026.38
830.661	34891.38
830.912	34549.38
831.162	34465.38
831.413	34420.38
831.664	34387.38
831.914	34368.38
832.165	34173.38
832.415	34338.38
832.666	34262.38
832.916	34279.38
833.167	34261.38
833.417	34238.38
833.667	34120.38
833.917	34021.38
834.168	33958.38
834.418	33740.38
834.668	33742.38
834.918	33572.38
835.168	33464.38
835.418	33089.38
835.668	33207.38
835.918	32964.38
836.167	32916.38
836.417	32821.38
836.667	32831.38
836.917	32772.38
837.166	32749.38
837.416	32637.38
837.666	32684.38
837.915	32621.38
838.165	32544.38
838.414	32385.38
838.663	32434.38
838.913	32342.38
839.162	32267.38
839.411	32416.38
839.661	31953.38
839.91	32032.38
840.159	31902.38
840.408	31919.38
840.657	31982.38
840.906	31874.38
841.155	32006.38
841.404	31836.38
841.653	31776.38
841.902	31812.38
842.15	31925.38
842.399	31911.38
842.648	31778.38
842.897	31678.38
843.145	31494.38
843.394	31289.38
843.642	31018.38
843.891	31023.38
844.139	30877.38
844.388	30594.38
844.636	30463.38
844.884	30481.38
845.133	30435.38
845.381	30336.38
845.629	30405.38
845.877	30376.38
846.125	30200.38
846.373	30122.38
846.621	30007.38
846.869	29982.38
847.117	29725.38
847.365	29686.38
847.613	29418.38
847.861	29411.38
848.108	29341.38
848.356	29279.38
848.604	29214.38
848.851	29140.38
849.099	29125.38
849.346	29376.38
849.594	29393.38
849.841	29408.38
850.089	29551.38
850.336	29490.38
850.583	29412.38
850.831	29239.38
851.078	29180.38
851.325	29114.38
851.572	29043.38
851.819	28823.38
852.066	28357.38
852.313	28030.38
852.56	27793.38
852.807	27712.38
853.054	27494.38
853.301	27525.38
853.548	27517.38
853.794	27618.38
854.041	27637.38
854.288	27800.38
854.534	28179.38
854.781	28040.38
855.028	27780.38
855.274	27839.38
855.52	27634.38
855.767	27477.38
856.013	27546.38
856.26	27756.38
856.506	27244.38
856.752	27181.38
856.998	27193.38
857.244	27296.38
857.49	27333.38
857.736	27326.38
857.982	27282.38
858.228	27270.38
858.474	27076.38
858.72	26929.38
858.966	26593.38
859.212	26364.38
859.458	26098.38
859.703	25925.38
859.949	25669.38
860.195	25606.38
860.44	25323.38
860.686	25238.38
860.931	25087.38
861.177	24982.38
861.422	24883.38
861.667	24875.38
861.913	24928.38
862.158	24866.38
862.403	24904.38
862.648	24989.38
862.893	24872.38
863.138	24866.38
863.384	24810.38
863.629	24916.38
863.873	24731.38
864.118	24689.38
864.363	24570.38
864.608	24521.38
864.853	24402.38
865.098	24225.38
865.342	24117.38
865.587	24059.38
865.832	24008.38
866.076	23847.38
866.321	23824.38
866.565	23837.38
866.81	23608.38
867.054	23553.38
867.298	23525.38
867.543	23417.38
867.787	23466.38
868.031	23325.38
868.275	23295.38
868.519	23248.38
868.764	23220.38
869.008	23133.38
869.252	23015.38
869.496	23008.38
869.739	22973.38
869.983	22857.38
870.227	22912.38
870.471	22863.38
870.715	22915.38
870.958	22974.38
871.202	22938.38
871.446	23047.38
871.689	22964.38
871.933	22994.38
872.176	23036.38
872.42	22959.38
872.663	22849.38
872.906	22709.38
873.15	22635.38
873.393	22482.38
873.636	22557.38
873.879	22295.38
874.122	22032.38
874.366	21840.38
874.609	21634.38
874.852	21540.38
875.095	21402.38
875.337	21235.38
875.58	21094.38
875.823	21168.38
876.066	21185.38
876.309	21151.38
876.551	20812.38
876.794	20746.38
877.037	20713.38
877.279	20616.38
877.522	20647.38
877.764	20589.38
878.007	20540.38
878.249	20627.38
878.491	20438.38
878.734	20346.38
878.976	20369.38
879.218	20242.38
879.46	20174.38
879.702	20104.38
879.945	19878.38
880.187	19750.38
880.429	19603.38
880.671	19494.38
880.912	19460.38
881.154	19376.38
881.396	19181.38
881.638	19261.38
881.88	19244.38
882.121	19027.38
882.363	19140.38
882.605	19172.38
882.846	19028.38
883.088	19019.38
883.329	18941.38
883.571	18944.38
883.812	19092.38
884.053	19324.38
884.295	19616.38
884.536	19800.38
884.777	19559.38
885.018	19451.38
885.259	19343.38
885.5	19291.38
885.742	19506.38
885.982	19165.38
886.223	19074.38
886.464	18874.38
886.705	18702.38
886.946	18604.38
887.187	18347.38
887.428	18151.38
887.668	17868.38
887.909	17706.38
888.15	17550.38
888.39	17430.38
888.631	17388.38
888.871	17205.38
889.111	17148.38
889.352	17040.38
889.592	16860.38
889.833	16668.38
890.073	16611.38
890.313	16524.38
890.553	16346.38
890.793	16303.38
891.033	16192.38
891.273	16157.38
891.513	16069.38
891.753	16117.38
891.993	16006.38
892.233	15986.38
892.473	16110.38
892.713	16067.38
892.952	15992.38
893.192	16007.38
893.432	16030.38
893.671	15943.38
893.911	15923.38
894.15	15835.38
894.39	15603.38
894.629	15510.38
894.869	15511.38
895.108	15448.38
895.347	15315.38
895.587	15296.38
895.826	15208.38
896.065	15077.38
896.304	15182.38
896.543	15200.38
896.782	15106.38
897.021	15057.38
897.26	15000.38
897.499	14977.38
897.738	14978.38
897.977	14857.38
898.216	14674.38
898.454	14484.38
898.693	14417.38
898.932	14450.38
899.17	14358.38
899.409	14318.38
899.647	14297.38
899.886	14175.38
900.124	14184.38
900.363	14184.38
900.601	14183.38
900.839	14124.38
901.078	14259.38
901.316	14291.38
901.554	14296.38
901.792	14384.38
902.03	14312.38
902.268	14216.38
902.506	14272.38
902.744	14112.38
902.982	14145.38
903.22	13844.38
903.458	13724.38
903.695	13589.38
903.933	13433.38
904.171	13135.38
904.409	13058.38
904.646	12884.38
904.884	12693.38
905.121	12598.38
905.359	12443.38
905.596	12363.38
905.833	12233.38
906.071	12143.38
906.308	12174.38
906.545	12135.38
906.783	12011.38
907.02	12010.38
907.257	11923.38
907.494	12009.38
907.731	11977.38
907.968	11860.38
908.205	11738.38
908.442	11681.38
908.679	11598.38
908.915	11548.38
909.152	11474.38
909.389	11345.38
909.626	11241.38
909.862	11119.38
910.099	11165.38
910.335	11123.38
910.572	10950.38
910.808	10989.38
911.045	10911.38
911.281	10953.38
911.518	10856.38
911.754	10866.38
911.99	10736.38
912.226	10669.38
912.463	10559.38
912.699	10481.38
912.935	10418.38
913.171	10356.38
913.407	10319.38
913.643	10221.38
913.879	10093.38
914.114	9979.38
914.35	9942.38
914.586	9823.38
914.822	9708.38
915.057	9695.38
915.293	9505.38
915.529	9453.38
915.764	9498.38
916	9513.38
916.235	9437.38
916.471	9497.38
916.706	9352.38
916.941	9421.38
917.177	9416.38
917.412	9392.38
917.647	9396.38
917.882	9276.38
918.117	9389.38
918.352	9304.38
918.588	9292.38
918.823	9156.38
919.057	9092.38
919.292	8835.38
919.527	8940.38
919.762	8802.38
919.997	8782.38
920.232	8652.38
920.466	8608.38
920.701	8398.38
920.935	8483.38
921.17	8412.38
921.405	8317.38
921.639	8287.38
921.873	8309.38
922.108	8260.38
922.342	8201.38
922.576	8233.38
922.811	8076.38
923.045	8041.38
923.279	8078.38
923.513	7990.38
923.747	8029.38
923.981	7964.38
924.215	7859.38
924.449	7780.38
924.683	7780.38
924.917	7655.38
925.151	7640.38
925.385	7685.38
925.618	7614.38
925.852	7587.38
926.086	7492.38
926.319	7572.38
926.553	7528.38
926.786	7544.38
927.02	7451.38
927.253	7549.38
927.486	7547.38
927.72	7481.38
927.953	7465.38
928.186	7433.38
928.42	7378.38
928.653	7317.38
928.886	7332.38
929.119	7352.38
929.352	7275.38
929.585	7249.38
929.818	7200.38
930.051	7093.38
930.284	7075.38
930.516	6898.38
930.749	6912.38
930.982	6928.38
931.215	6866.38
931.447	6800.38
931.68	6818.38
931.912	6728.38
932.145	6770.38
932.377	6737.38
932.61	6843.38
932.842	6694.38
933.074	6733.38
933.307	6720.38
933.539	6776.38
933.771	6715.38
934.003	6630.38
934.236	6712.38
934.468	6787.38
934.7	6625.38
934.932	6643.38
935.164	6656.38
935.395	6558.38
935.627	6566.38
935.859	6574.38
936.091	6449.38
936.323	6519.38
936.554	6506.38
936.786	6421.38
937.017	6355.38
937.249	6372.38
937.481	6334.38
937.712	6401.38
937.943	6342.38
938.175	6296.38
938.406	6328.38
938.637	6269.38
938.869	6260.38
939.1	6268.38
939.331	6231.38
939.562	6232.38
939.793	6179.38
940.024	6199.38
940.255	6168.38
940.486	6079.38
940.717	6022.38
940.948	6068.38
941.179	6000.38
941.409	5980.38
941.64	5968.38
941.871	5995.38
942.102	5981.38
942.332	5958.38
942.563	5986.38
942.793	5918.38
943.024	5895.38
943.254	5927.38
943.484	5973.38
943.715	5976.38
943.945	5951.38
944.175	5816.38
944.405	5839.38
944.636	5838.38
944.866	5879.38
945.096	5903.38
945.326	5752.38
945.556	5822.38
945.786	5837.38
946.016	5758.38
946.245	5654.38
946.475	5630.38
946.705	5646.38
946.935	5617.38
947.164	5586.38
947.394	5494.38
947.624	5516.38
947.853	5551.38
948.083	5393.38
948.312	5464.38
948.542	5366.38
948.771	5376.38
949	5346.38
949.23	5353.38
949.459	5333.38
949.688	5372.38
949.917	5366.38
950.146	5287.38
950.375	5351.38
950.604	5267.38
950.833	5295.38
951.062	5342.38
951.291	5217.38
951.52	5227.38
951.749	5218.38
951.978	5170.38
952.206	5155.38
952.435	5139.38
952.664	5164.38
952.892	5121.38
953.121	5148.38
953.349	5142.38
953.578	5058.38
953.806	5063.38
954.035	5013.38
954.263	5018.38
954.491	4929.38
954.719	4958.38
954.948	4902.38
955.176	4862.38
955.404	4759.38
955.632	4864.38
955.86	4817.38
956.088	4799.38
956.316	4775.38
956.544	4831.38
956.772	4717.38
956.999	4661.38
957.227	4792.38
957.455	4601.38
957.683	4662.38
957.91	4607.38
958.138	4547.38
958.365	4534.38
958.593	4574.38
958.82	4482.38
959.048	4524.38
959.275	4484.38
959.502	4477.38
959.73	4405.38
959.957	4482.38
960.184	4474.38
960.411	4386.38
960.638	4443.38
960.865	4410.38
961.092	4385.38
961.319	4301.38
961.546	4411.38
961.773	4403.38
962	4341.38
962.227	4419.38
962.454	4360.38
962.68	4325.38
962.907	4330.38
963.134	4263.38
963.36	4241.38
963.587	4289.38
963.813	4183.38
964.04	4210.38
964.266	4172.38
964.493	4178.38
964.719	4161.38
964.945	4153.38
965.171	3985.38
965.398	4069.38
965.624	4085.38
965.85	3970.38
966.076	3993.38
966.302	3981.38
966.528	3953.38
966.754	3958.38
966.98	3936.38
967.206	3913.38
967.431	3826.38
967.657	3946.38
967.883	3894.38
968.109	3904.38
968.334	3802.38
968.56	3836.38
968.785	3802.38
969.011	3767.38
969.236	3793.38
969.462	3729.38
969.687	3760.38
969.912	3778.38
970.138	3766.38
970.363	3684.38
970.588	3692.38
970.813	3710.38
971.038	3654.38
971.263	3659.38
971.488	3655.38
971.713	3695.38
971.938	3652.38
972.163	3512.38
972.388	3562.38
972.613	3521.38
972.838	3509.38
973.062	3552.38
973.287	3478.38
973.512	3404.38
973.736	3527.38
973.961	3434.38
974.185	3421.38
974.41	3462.38
974.634	3333.38
974.858	3341.38
975.083	3384.38
975.307	3336.38
975.531	3315.38
975.755	3267.38
975.98	3241.38
976.204	3205.38
976.428	3197.38
976.652	3203.38
976.876	3136.38
977.1	3172.38
977.324	3142.38
977.547	3181.38
977.771	3168.38
977.995	3110.38
978.219	3056.38
978.442	3151.38
978.666	3107.38
978.89	3027.38
979.113	3077.38
979.337	3071.38
979.56	3033.38
979.783	3142.38
980.007	2992.38
980.23	3032.38
980.453	2956.38
980.677	3007.38
980.9	2983.38
981.123	2913.38
981.346	2978.38
981.569	2948.38
981.792	2914.38
982.015	2883.38
982.238	2880.38
982.461	2880.38
982.684	2833.38
982.907	2787.38
983.129	2792.38
983.352	2867.38
983.575	2800.38
983.797	2783.38
984.02	2753.38
984.242	2743.38
984.465	2748.38
984.687	2742.38
984.91	2729.38
985.132	2748.38
985.354	2738.38
985.577	2719.38
985.799	2697.38
986.021	2623.38
986.243	2631.38
986.465	2611.38
986.687	2660.38
986.909	2700.38
987.131	2645.38
987.353	2589.38
987.575	2627.38
987.797	2562.38
988.019	2514.38
988.241	2579.38
988.462	2531.38
988.684	2574.38
988.906	2600.38
989.127	2600.38
989.349	2488.38
989.57	2544.38
989.792	2535.38
990.013	2554.38
990.234	2512.38
990.456	2573.38
990.677	2526.38
990.898	2503.38
991.119	2475.38
991.341	2502.38
991.562	2412.38
991.783	2468.38
992.004	2360.38
992.225	2346.38
992.446	2418.38
992.667	2320.38
992.887	2416.38
993.108	2296.38
993.329	2413.38
993.55	2345.38
993.77	2279.38
993.991	2248.38
994.212	2308.38
994.432	2258.38
994.653	2301.38
994.873	2272.38
995.093	2158.38
995.314	2205.38
995.534	2256.38
995.754	2264.38
995.975	2293.38
996.195	2154.38
996.415	2214.38
996.635	2206.38
996.855	2217.38
997.075	2141.38
997.295	2176.38
997.515	2165.38
997.735	2178.38
997.955	2179.38
998.174	2150.38
998.394	2109.38
998.614	2152.38
998.834	2124.38
999.053	2184.38
999.273	2142.38
999.492	2189.38
999.712	2107.38
999.931	2088.38
1000.151	2145.38
1000.37	2072.38
1000.589	2126.38
1000.809	2039.38
1001.028	2168.38
1001.247	2101.38
1001.466	1973.38
1001.685	2128.38
1001.904	2036.38
1002.123	2007.38
1002.342	2012.38
1002.561	1978.38
1002.78	1995.38
1002.999	2049.38
1003.218	1977.38
1003.436	1950.38
1003.655	2037.38
1003.874	1926.38
1004.092	1969.38
1004.311	2014.38
1004.53	1970.38
1004.748	2002.38
1004.966	1939.38
1005.185	1980.38
1005.403	1966.38
1005.622	1917.38
1005.84	1994.38
1006.058	1898.38
1006.276	1933.38
1006.494	2454.38
1006.712	1957.38
1006.931	1981.38
1007.149	1874.38
1007.367	1907.38
1007.584	1957.38
1007.802	1946.38
1008.02	1889.38
1008.238	1973.38
1008.456	1996.38
1008.673	1864.38
1008.891	1974.38
1009.109	1907.38
1009.326	1999.38
1009.544	2073.38
1009.761	1987.38
1009.979	2106.38
1010.196	2081.38
1010.413	2212.38
1010.631	2267.38
1010.848	2302.38
1011.065	2263.38
1011.282	2291.38
1011.5	2193.38
1011.717	2293.38
1011.934	2221.38
1012.151	2280.38
1012.368	2228.38
1012.585	2179.38
1012.801	2214.38
1013.018	2179.38
1013.235	2151.38
1013.452	2192.38
1013.669	2171.38
1013.885	2169.38
1014.102	2225.38
1014.318	2187.38
1014.535	2159.38
1014.751	2178.38
1014.968	2152.38
1015.184	2182.38
1015.401	2059.38
1015.617	2093.38
1015.833	2045.38
1016.049	2058.38
1016.266	2011.38
1016.482	1985.38
1016.698	1916.38
1016.914	1981.38
1017.13	1921.38
1017.346	1914.38
1017.562	1971.38
1017.778	1884.38
1017.993	1856.38
1018.209	1896.38
1018.425	1882.38
1018.641	1857.38
1018.856	1843.38
1019.072	1839.38
1019.288	1902.38
1019.503	1859.38
1019.719	1759.38
1019.934	1798.38
1020.149	1864.38
1020.365	1790.38
1020.58	1713.38
1020.795	1781.38
1021.011	1718.38
1021.226	1664.38
1021.441	1683.38
1021.656	1599.38
1021.871	1521.38
1022.086	1509.38
1022.301	1482.38
1022.516	1500.38
1022.731	1506.38
1022.946	1438.38
1023.16	1412.38
1023.375	1387.38
1023.59	1358.38
1023.804	1312.38
1024.019	1426.38
1024.234	1320.38
1024.448	1323.38
1024.663	1252.38
1024.877	1245.38
1025.092	1268.38
1025.306	1269.38
1025.52	1169.38
1025.734	1230.38
1025.949	1151.38
1026.163	1101.38
1026.377	1057.38
1026.591	1095.38
1026.805	1019.38
1027.019	1032.38
1027.233	982.38
1027.447	921.38
1027.661	1041.38
1027.875	975.38
1028.088	964.38
1028.302	885.38
1028.516	887.38
1028.73	888.38
1028.943	847.38
1029.157	782.38
1029.37	749.38
1029.584	-1.62
1029.797	-1.62
1030.011	-4.62
1030.224	-0.62
