Data from QEP037381__196__15-56-09-890.txt Node

Date: Fri Dec 16 15:56:09 EST 2022
User: dcclab
Spectrometer: QEP03738
Trigger mode: 4
Integration Time (sec): 1.000000E1
Scans to average: 1
Electric dark correction enabled: true
Nonlinearity correction enabled: false
Boxcar width: 0
XAxis mode: Wavelengths
Number of Pixels in Spectrum: 1044
>>>>>Begin Spectral Data<<<<<
784.041	13.88
784.3	1.88
784.558	-3.12
784.817	-5.12
785.075	114182.88
785.334	20028.88
785.592	9487.88
785.851	6579.88
786.109	4897.88
786.368	3823.88
786.626	3074.88
786.884	2564.88
787.143	2124.88
787.401	1737.88
787.659	1606.88
787.917	1361.88
788.175	1227.88
788.433	1098.88
788.691	950.88
788.949	881.88
789.207	846.88
789.465	747.88
789.723	712.88
789.98	653.88
790.238	684.88
790.496	619.88
790.753	607.88
791.011	647.88
791.268	593.88
791.526	572.88
791.783	574.88
792.041	561.88
792.298	481.88
792.556	529.88
792.813	523.88
793.07	492.88
793.327	467.88
793.584	554.88
793.841	497.88
794.099	507.88
794.356	559.88
794.613	453.88
794.869	498.88
795.126	440.88
795.383	426.88
795.64	452.88
795.897	404.88
796.153	463.88
796.41	463.88
796.667	446.88
796.923	435.88
797.18	438.88
797.436	464.88
797.693	436.88
797.949	480.88
798.206	511.88
798.462	433.88
798.718	497.88
798.974	463.88
799.231	493.88
799.487	496.88
799.743	502.88
799.999	527.88
800.255	516.88
800.511	513.88
800.767	573.88
801.023	562.88
801.279	589.88
801.534	625.88
801.79	687.88
802.046	720.88
802.302	877.88
802.557	991.88
802.813	1252.88
803.068	1546.88
803.324	2125.88
803.579	2949.88
803.835	4041.88
804.09	5567.88
804.345	7356.88
804.601	9343.88
804.856	11302.88
805.111	13006.88
805.366	14312.88
805.621	15381.88
805.876	16093.88
806.131	16479.88
806.386	16872.88
806.641	16933.88
806.896	17331.88
807.151	17650.88
807.406	17831.88
807.661	18140.88
807.915	18575.88
808.17	18773.88
808.425	18915.88
808.679	19104.88
808.934	19288.88
809.188	19471.88
809.443	19668.88
809.697	19863.88
809.951	20030.88
810.206	20147.88
810.46	20401.88
810.714	20545.88
810.968	20724.88
811.223	20846.88
811.477	21030.88
811.731	21226.88
811.985	21478.88
812.239	21410.88
812.493	21483.88
812.747	21562.88
813	21610.88
813.254	21773.88
813.508	21801.88
813.762	21971.88
814.015	21923.88
814.269	22168.88
814.522	22311.88
814.776	22525.88
815.03	22873.88
815.283	23082.88
815.536	23500.88
815.79	23863.88
816.043	24143.88
816.296	24390.88
816.55	24655.88
816.803	24898.88
817.056	25367.88
817.309	25458.88
817.562	25729.88
817.815	25973.88
818.068	26069.88
818.321	26498.88
818.574	26684.88
818.827	27024.88
819.079	27174.88
819.332	27745.88
819.585	28196.88
819.838	28512.88
820.09	28641.88
820.343	28811.88
820.595	28882.88
820.848	29133.88
821.1	29169.88
821.353	29103.88
821.605	29052.88
821.857	29083.88
822.11	29018.88
822.362	28971.88
822.614	28845.88
822.866	28935.88
823.118	28874.88
823.37	28942.88
823.622	29099.88
823.874	29136.88
824.126	29206.88
824.378	29225.88
824.63	29327.88
824.882	29256.88
825.134	29225.88
825.385	29321.88
825.637	29279.88
825.888	29024.88
826.14	29035.88
826.392	28918.88
826.643	28825.88
826.895	28687.88
827.146	28550.88
827.397	28473.88
827.649	28481.88
827.9	28477.88
828.151	28457.88
828.402	28568.88
828.653	28589.88
828.905	28747.88
829.156	28730.88
829.407	28700.88
829.658	28588.88
829.909	28749.88
830.159	28717.88
830.41	28488.88
830.661	28247.88
830.912	28123.88
831.162	28063.88
831.413	27994.88
831.664	28026.88
831.914	27980.88
832.165	28031.88
832.415	27904.88
832.666	27860.88
832.916	28030.88
833.167	27913.88
833.417	27853.88
833.667	27619.88
833.917	27596.88
834.168	27579.88
834.418	27626.88
834.668	27457.88
834.918	27226.88
835.168	27235.88
835.418	27014.88
835.668	26936.88
835.918	26949.88
836.167	26725.88
836.417	26829.88
836.667	26825.88
836.917	26555.88
837.166	26664.88
837.416	26678.88
837.666	26680.88
837.915	26524.88
838.165	26456.88
838.414	26347.88
838.663	26231.88
838.913	26349.88
839.162	26164.88
839.411	26233.88
839.661	26191.88
839.91	25949.88
840.159	25859.88
840.408	25923.88
840.657	25900.88
840.906	25890.88
841.155	25921.88
841.404	25889.88
841.653	25855.88
841.902	25904.88
842.15	25890.88
842.399	25978.88
842.648	25820.88
842.897	25727.88
843.145	25506.88
843.394	25365.88
843.642	25255.88
843.891	25199.88
844.139	25074.88
844.388	24869.88
844.636	24670.88
844.884	24739.88
845.133	24817.88
845.381	24643.88
845.629	24745.88
845.877	24590.88
846.125	24651.88
846.373	24397.88
846.621	24296.88
846.869	24316.88
847.117	24152.88
847.365	24110.88
847.613	23863.88
847.861	23951.88
848.108	23883.88
848.356	23869.88
848.604	23714.88
848.851	23761.88
849.099	23751.88
849.346	23873.88
849.594	23950.88
849.841	23938.88
850.089	24009.88
850.336	24001.88
850.583	23984.88
850.831	23696.88
851.078	23719.88
851.325	23664.88
851.572	23527.88
851.819	23370.88
852.066	23025.88
852.313	22664.88
852.56	22538.88
852.807	22525.88
853.054	22432.88
853.301	22396.88
853.548	22380.88
853.794	22533.88
854.041	22602.88
854.288	22625.88
854.534	22829.88
854.781	22699.88
855.028	22645.88
855.274	22596.88
855.52	22562.88
855.767	22324.88
856.013	22437.88
856.26	22708.88
856.506	22222.88
856.752	22212.88
856.998	22160.88
857.244	22179.88
857.49	22431.88
857.736	22355.88
857.982	22251.88
858.228	22237.88
858.474	21999.88
858.72	21814.88
858.966	21748.88
859.212	21561.88
859.458	21291.88
859.703	21198.88
859.949	20894.88
860.195	20711.88
860.44	20682.88
860.686	20589.88
860.931	20594.88
861.177	20375.88
861.422	20222.88
861.667	20238.88
861.913	20265.88
862.158	20203.88
862.403	20271.88
862.648	20465.88
862.893	20487.88
863.138	20240.88
863.384	20247.88
863.629	20286.88
863.873	20180.88
864.118	20146.88
864.363	20008.88
864.608	19913.88
864.853	19975.88
865.098	19808.88
865.342	19668.88
865.587	19587.88
865.832	19577.88
866.076	19559.88
866.321	19361.88
866.565	19374.88
866.81	19250.88
867.054	19209.88
867.298	19239.88
867.543	19047.88
867.787	19138.88
868.031	18999.88
868.275	18963.88
868.519	18940.88
868.764	18867.88
869.008	18829.88
869.252	18798.88
869.496	18660.88
869.739	18560.88
869.983	18626.88
870.227	18632.88
870.471	18635.88
870.715	18764.88
870.958	18724.88
871.202	18726.88
871.446	18749.88
871.689	18768.88
871.933	18793.88
872.176	18765.88
872.42	18715.88
872.663	18606.88
872.906	18603.88
873.15	18518.88
873.393	18492.88
873.636	18412.88
873.879	18292.88
874.122	18038.88
874.366	17803.88
874.609	17591.88
874.852	17552.88
875.095	17495.88
875.337	17331.88
875.58	17252.88
875.823	17221.88
876.066	17223.88
876.309	17148.88
876.551	17008.88
876.794	16901.88
877.037	16921.88
877.279	16830.88
877.522	16803.88
877.764	16847.88
878.007	16849.88
878.249	16806.88
878.491	16699.88
878.734	16773.88
878.976	16608.88
879.218	16568.88
879.46	16391.88
879.702	16414.88
879.945	16259.88
880.187	16085.88
880.429	16023.88
880.671	15895.88
880.912	15826.88
881.154	15775.88
881.396	15667.88
881.638	15718.88
881.88	15700.88
882.121	15618.88
882.363	15635.88
882.605	15719.88
882.846	15717.88
883.088	15556.88
883.329	15447.88
883.571	15598.88
883.812	15676.88
884.053	15914.88
884.295	16183.88
884.536	16288.88
884.777	16135.88
885.018	16050.88
885.259	15991.88
885.5	15810.88
885.742	16088.88
885.982	15859.88
886.223	15609.88
886.464	15529.88
886.705	15442.88
886.946	15331.88
887.187	15061.88
887.428	14856.88
887.668	14737.88
887.909	14531.88
888.15	14403.88
888.39	14284.88
888.631	14273.88
888.871	14140.88
889.111	14052.88
889.352	13969.88
889.592	13802.88
889.833	13681.88
890.073	13651.88
890.313	13562.88
890.553	13353.88
890.793	13342.88
891.033	13317.88
891.273	13229.88
891.513	13233.88
891.753	13188.88
891.993	13166.88
892.233	13182.88
892.473	13281.88
892.713	13193.88
892.952	13180.88
893.192	13163.88
893.432	13113.88
893.671	13076.88
893.911	13059.88
894.15	13051.88
894.39	12853.88
894.629	12785.88
894.869	12717.88
895.108	12638.88
895.347	12611.88
895.587	12615.88
895.826	12474.88
896.065	12452.88
896.304	12417.88
896.543	12439.88
896.782	12390.88
897.021	12359.88
897.26	12272.88
897.499	12271.88
897.738	12269.88
897.977	12131.88
898.216	11965.88
898.454	12007.88
898.693	11826.88
898.932	11899.88
899.17	11798.88
899.409	11717.88
899.647	11756.88
899.886	11670.88
900.124	11688.88
900.363	11630.88
900.601	11771.88
900.839	11577.88
901.078	11656.88
901.316	11754.88
901.554	11735.88
901.792	11855.88
902.03	11742.88
902.268	11781.88
902.506	11836.88
902.744	11630.88
902.982	11707.88
903.22	11426.88
903.458	11344.88
903.695	11182.88
903.933	11032.88
904.171	10885.88
904.409	10647.88
904.646	10583.88
904.884	10470.88
905.121	10480.88
905.359	10256.88
905.596	10181.88
905.833	10083.88
906.071	9977.88
906.308	9979.88
906.545	9983.88
906.783	9909.88
907.02	9897.88
907.257	9779.88
907.494	9810.88
907.731	9842.88
907.968	9728.88
908.205	9715.88
908.442	9654.88
908.679	9576.88
908.915	9494.88
909.152	9449.88
909.389	9313.88
909.626	9297.88
909.862	9195.88
910.099	9186.88
910.335	9148.88
910.572	9061.88
910.808	9114.88
911.045	9003.88
911.281	8998.88
911.518	8970.88
911.754	8814.88
911.99	8833.88
912.226	8810.88
912.463	8623.88
912.699	8661.88
912.935	8636.88
913.171	8545.88
913.407	8403.88
913.643	8371.88
913.879	8325.88
914.114	8247.88
914.35	8157.88
914.586	8098.88
914.822	8035.88
915.057	8074.88
915.293	7823.88
915.529	7822.88
915.764	7931.88
916	7861.88
916.235	7831.88
916.471	7895.88
916.706	7750.88
916.941	7716.88
917.177	7734.88
917.412	7839.88
917.647	7732.88
917.882	7656.88
918.117	7694.88
918.352	7672.88
918.588	7641.88
918.823	7538.88
919.057	7498.88
919.292	7319.88
919.527	7397.88
919.762	7215.88
919.997	7273.88
920.232	7150.88
920.466	7134.88
920.701	6964.88
920.935	6963.88
921.17	6866.88
921.405	6901.88
921.639	6947.88
921.873	6883.88
922.108	6840.88
922.342	6806.88
922.576	6690.88
922.811	6695.88
923.045	6707.88
923.279	6638.88
923.513	6576.88
923.747	6585.88
923.981	6572.88
924.215	6473.88
924.449	6475.88
924.683	6396.88
924.917	6348.88
925.151	6420.88
925.385	6382.88
925.618	6315.88
925.852	6261.88
926.086	6219.88
926.319	6240.88
926.553	6241.88
926.786	6250.88
927.02	6279.88
927.253	6272.88
927.486	6226.88
927.72	6168.88
927.953	6209.88
928.186	6118.88
928.42	6187.88
928.653	6063.88
928.886	6058.88
929.119	6075.88
929.352	6045.88
929.585	5981.88
929.818	5931.88
930.051	5842.88
930.284	5857.88
930.516	5776.88
930.749	5748.88
930.982	5778.88
931.215	5722.88
931.447	5617.88
931.68	5655.88
931.912	5662.88
932.145	5649.88
932.377	5649.88
932.61	5748.88
932.842	5536.88
933.074	5558.88
933.307	5567.88
933.539	5644.88
933.771	5657.88
934.003	5537.88
934.236	5589.88
934.468	5599.88
934.7	5550.88
934.932	5567.88
935.164	5492.88
935.395	5459.88
935.627	5452.88
935.859	5499.88
936.091	5387.88
936.323	5439.88
936.554	5394.88
936.786	5324.88
937.017	5306.88
937.249	5318.88
937.481	5273.88
937.712	5323.88
937.943	5278.88
938.175	5226.88
938.406	5232.88
938.637	5329.88
938.869	5181.88
939.1	5253.88
939.331	5158.88
939.562	5203.88
939.793	5144.88
940.024	5181.88
940.255	5153.88
940.486	5086.88
940.717	5064.88
940.948	5015.88
941.179	5020.88
941.409	5012.88
941.64	4939.88
941.871	5020.88
942.102	4963.88
942.332	4952.88
942.563	4994.88
942.793	4971.88
943.024	4913.88
943.254	4989.88
943.484	5059.88
943.715	4973.88
943.945	4938.88
944.175	4866.88
944.405	4848.88
944.636	4909.88
944.866	4928.88
945.096	4885.88
945.326	4807.88
945.556	4888.88
945.786	4857.88
946.016	4795.88
946.245	4700.88
946.475	4705.88
946.705	4682.88
946.935	4651.88
947.164	4648.88
947.394	4557.88
947.624	4582.88
947.853	4686.88
948.083	4578.88
948.312	4584.88
948.542	4470.88
948.771	4411.88
949	4489.88
949.23	4442.88
949.459	4464.88
949.688	4529.88
949.917	4459.88
950.146	4487.88
950.375	4559.88
950.604	4446.88
950.833	4474.88
951.062	4441.88
951.291	4373.88
951.52	4335.88
951.749	4396.88
951.978	4325.88
952.206	4321.88
952.435	4302.88
952.664	4313.88
952.892	4335.88
953.121	4270.88
953.349	4276.88
953.578	4246.88
953.806	4256.88
954.035	4179.88
954.263	4209.88
954.491	4136.88
954.719	4189.88
954.948	4125.88
955.176	4053.88
955.404	4027.88
955.632	4048.88
955.86	4087.88
956.088	4005.88
956.316	4043.88
956.544	4076.88
956.772	3943.88
956.999	3932.88
957.227	3993.88
957.455	3895.88
957.683	3891.88
957.91	3850.88
958.138	3854.88
958.365	3799.88
958.593	3789.88
958.82	3757.88
959.048	3822.88
959.275	3743.88
959.502	3718.88
959.73	3692.88
959.957	3729.88
960.184	3739.88
960.411	3725.88
960.638	3770.88
960.865	3686.88
961.092	3711.88
961.319	3621.88
961.546	3719.88
961.773	3752.88
962	3667.88
962.227	3706.88
962.454	3679.88
962.68	3639.88
962.907	3628.88
963.134	3573.88
963.36	3566.88
963.587	3617.88
963.813	3499.88
964.04	3523.88
964.266	3457.88
964.493	3525.88
964.719	3544.88
964.945	3469.88
965.171	3351.88
965.398	3454.88
965.624	3445.88
965.85	3360.88
966.076	3336.88
966.302	3366.88
966.528	3350.88
966.754	3337.88
966.98	3334.88
967.206	3302.88
967.431	3206.88
967.657	3307.88
967.883	3321.88
968.109	3317.88
968.334	3235.88
968.56	3190.88
968.785	3216.88
969.011	3166.88
969.236	3256.88
969.462	3170.88
969.687	3199.88
969.912	3180.88
970.138	3234.88
970.363	3144.88
970.588	3164.88
970.813	3099.88
971.038	3077.88
971.263	3118.88
971.488	3089.88
971.713	3103.88
971.938	3107.88
972.163	2980.88
972.388	3021.88
972.613	3002.88
972.838	2984.88
973.062	2976.88
973.287	2993.88
973.512	2916.88
973.736	2959.88
973.961	2914.88
974.185	2893.88
974.41	2922.88
974.634	2818.88
974.858	2833.88
975.083	2878.88
975.307	2884.88
975.531	2826.88
975.755	2714.88
975.98	2744.88
976.204	2666.88
976.428	2714.88
976.652	2685.88
976.876	2674.88
977.1	2674.88
977.324	2662.88
977.547	2699.88
977.771	2693.88
977.995	2665.88
978.219	2600.88
978.442	2728.88
978.666	2627.88
978.89	2630.88
979.113	2668.88
979.337	2625.88
979.56	2573.88
979.783	2668.88
980.007	2552.88
980.23	2579.88
980.453	2540.88
980.677	2553.88
980.9	2543.88
981.123	2472.88
981.346	2522.88
981.569	2550.88
981.792	2518.88
982.015	2481.88
982.238	2463.88
982.461	2466.88
982.684	2399.88
982.907	2402.88
983.129	2391.88
983.352	2437.88
983.575	2406.88
983.797	2406.88
984.02	2353.88
984.242	2344.88
984.465	2349.88
984.687	2403.88
984.91	2394.88
985.132	2335.88
985.354	2372.88
985.577	2349.88
985.799	2302.88
986.021	2221.88
986.243	2259.88
986.465	2290.88
986.687	2291.88
986.909	2330.88
987.131	2253.88
987.353	2233.88
987.575	2273.88
987.797	2200.88
988.019	2164.88
988.241	2210.88
988.462	2150.88
988.684	2232.88
988.906	2229.88
989.127	2309.88
989.349	2125.88
989.57	2165.88
989.792	2207.88
990.013	2216.88
990.234	2237.88
990.456	2230.88
990.677	2224.88
990.898	2134.88
991.119	2181.88
991.341	2148.88
991.562	2087.88
991.783	2153.88
992.004	2049.88
992.225	2030.88
992.446	2113.88
992.667	2022.88
992.887	2072.88
993.108	1967.88
993.329	2106.88
993.55	2045.88
993.77	1930.88
993.991	1979.88
994.212	1992.88
994.432	1964.88
994.653	1994.88
994.873	1975.88
995.093	1864.88
995.314	1914.88
995.534	1959.88
995.754	1994.88
995.975	2005.88
996.195	1880.88
996.415	1910.88
996.635	1887.88
996.855	1947.88
997.075	1925.88
997.295	1882.88
997.515	1870.88
997.735	1939.88
997.955	1896.88
998.174	1888.88
998.394	1868.88
998.614	1901.88
998.834	1864.88
999.053	1910.88
999.273	1902.88
999.492	1926.88
999.712	1875.88
999.931	1833.88
1000.151	1874.88
1000.37	1855.88
1000.589	1907.88
1000.809	1794.88
1001.028	1923.88
1001.247	1857.88
1001.466	1730.88
1001.685	1865.88
1001.904	1792.88
1002.123	1805.88
1002.342	1799.88
1002.561	1769.88
1002.78	1762.88
1002.999	1841.88
1003.218	1762.88
1003.436	1735.88
1003.655	1786.88
1003.874	1722.88
1004.092	1778.88
1004.311	1776.88
1004.53	1730.88
1004.748	1808.88
1004.966	1704.88
1005.185	1772.88
1005.403	1780.88
1005.622	1738.88
1005.84	1814.88
1006.058	1712.88
1006.276	1754.88
1006.494	2207.88
1006.712	1728.88
1006.931	1795.88
1007.149	1686.88
1007.367	1726.88
1007.584	1739.88
1007.802	1762.88
1008.02	1732.88
1008.238	1830.88
1008.456	1798.88
1008.673	1669.88
1008.891	1766.88
1009.109	1743.88
1009.326	1788.88
1009.544	1913.88
1009.761	1774.88
1009.979	1899.88
1010.196	1887.88
1010.413	2016.88
1010.631	2095.88
1010.848	2089.88
1011.065	2090.88
1011.282	2046.88
1011.5	1989.88
1011.717	2103.88
1011.934	2046.88
1012.151	2030.88
1012.368	2036.88
1012.585	1957.88
1012.801	2009.88
1013.018	2011.88
1013.235	1961.88
1013.452	1983.88
1013.669	1994.88
1013.885	1973.88
1014.102	2026.88
1014.318	1995.88
1014.535	1959.88
1014.751	1958.88
1014.968	1988.88
1015.184	1991.88
1015.401	1881.88
1015.617	1926.88
1015.833	1878.88
1016.049	1845.88
1016.266	1862.88
1016.482	1832.88
1016.698	1765.88
1016.914	1821.88
1017.13	1754.88
1017.346	1736.88
1017.562	1767.88
1017.778	1722.88
1017.993	1700.88
1018.209	1733.88
1018.425	1738.88
1018.641	1677.88
1018.856	1649.88
1019.072	1690.88
1019.288	1756.88
1019.503	1689.88
1019.719	1603.88
1019.934	1592.88
1020.149	1717.88
1020.365	1603.88
1020.58	1586.88
1020.795	1612.88
1021.011	1532.88
1021.226	1514.88
1021.441	1528.88
1021.656	1444.88
1021.871	1366.88
1022.086	1374.88
1022.301	1358.88
1022.516	1344.88
1022.731	1413.88
1022.946	1314.88
1023.16	1292.88
1023.375	1285.88
1023.59	1250.88
1023.804	1194.88
1024.019	1309.88
1024.234	1164.88
1024.448	1200.88
1024.663	1107.88
1024.877	1128.88
1025.092	1170.88
1025.306	1150.88
1025.52	1026.88
1025.734	1107.88
1025.949	1049.88
1026.163	1007.88
1026.377	951.88
1026.591	1007.88
1026.805	938.88
1027.019	916.88
1027.233	870.88
1027.447	851.88
1027.661	923.88
1027.875	877.88
1028.088	859.88
1028.302	795.88
1028.516	798.88
1028.73	783.88
1028.943	763.88
1029.157	727.88
1029.37	674.88
1029.584	-1.12
1029.797	-2.12
1030.011	-5.12
1030.224	0.88
