Data from QEP037381__208__15-58-09-892.txt Node

Date: Fri Dec 16 15:58:09 EST 2022
User: dcclab
Spectrometer: QEP03738
Trigger mode: 4
Integration Time (sec): 1.000000E1
Scans to average: 1
Electric dark correction enabled: true
Nonlinearity correction enabled: false
Boxcar width: 0
XAxis mode: Wavelengths
Number of Pixels in Spectrum: 1044
>>>>>Begin Spectral Data<<<<<
784.041	15.62
784.3	-0.38
784.558	-3.38
784.817	-4.38
785.075	110627.62
785.334	19051.62
785.592	8951.62
785.851	6158.62
786.109	4657.62
786.368	3634.62
786.626	2926.62
786.884	2392.62
787.143	2012.62
787.401	1681.62
787.659	1490.62
787.917	1287.62
788.175	1174.62
788.433	1021.62
788.691	930.62
788.949	852.62
789.207	802.62
789.465	719.62
789.723	686.62
789.98	635.62
790.238	661.62
790.496	624.62
790.753	584.62
791.011	632.62
791.268	556.62
791.526	545.62
791.783	564.62
792.041	556.62
792.298	451.62
792.556	516.62
792.813	509.62
793.07	486.62
793.327	456.62
793.584	545.62
793.841	442.62
794.099	483.62
794.356	525.62
794.613	451.62
794.869	498.62
795.126	454.62
795.383	437.62
795.64	432.62
795.897	401.62
796.153	466.62
796.41	450.62
796.667	430.62
796.923	430.62
797.18	440.62
797.436	465.62
797.693	434.62
797.949	484.62
798.206	523.62
798.462	418.62
798.718	490.62
798.974	457.62
799.231	510.62
799.487	503.62
799.743	500.62
799.999	533.62
800.255	531.62
800.511	514.62
800.767	560.62
801.023	542.62
801.279	580.62
801.534	627.62
801.79	667.62
802.046	702.62
802.302	853.62
802.557	968.62
802.813	1206.62
803.068	1497.62
803.324	2062.62
803.579	2797.62
803.835	3854.62
804.09	5298.62
804.345	6912.62
804.601	8764.62
804.856	10688.62
805.111	12312.62
805.366	13659.62
805.621	14545.62
805.876	15197.62
806.131	15699.62
806.386	15939.62
806.641	16279.62
806.896	16388.62
807.151	16806.62
807.406	17032.62
807.661	17261.62
807.915	17648.62
808.17	17901.62
808.425	18109.62
808.679	18166.62
808.934	18558.62
809.188	18593.62
809.443	18800.62
809.697	18998.62
809.951	19054.62
810.206	19211.62
810.46	19419.62
810.714	19715.62
810.968	19761.62
811.223	19930.62
811.477	20163.62
811.731	20379.62
811.985	20310.62
812.239	20360.62
812.493	20548.62
812.747	20499.62
813	20593.62
813.254	20771.62
813.508	20857.62
813.762	20966.62
814.015	20939.62
814.269	21213.62
814.522	21305.62
814.776	21549.62
815.03	21863.62
815.283	22044.62
815.536	22429.62
815.79	22826.62
816.043	23131.62
816.296	23388.62
816.55	23745.62
816.803	23939.62
817.056	24299.62
817.309	24432.62
817.562	24645.62
817.815	24876.62
818.068	25031.62
818.321	25327.62
818.574	25550.62
818.827	25839.62
819.079	26112.62
819.332	26536.62
819.585	26890.62
819.838	27237.62
820.09	27376.62
820.343	27588.62
820.595	27714.62
820.848	27944.62
821.1	27980.62
821.353	27918.62
821.605	28004.62
821.857	27932.62
822.11	27861.62
822.362	27738.62
822.614	27484.62
822.866	27676.62
823.118	27729.62
823.37	27742.62
823.622	27793.62
823.874	27853.62
824.126	27916.62
824.378	28032.62
824.63	28023.62
824.882	28110.62
825.134	28168.62
825.385	28002.62
825.637	28050.62
825.888	27882.62
826.14	27770.62
826.392	27745.62
826.643	27574.62
826.895	27433.62
827.146	27333.62
827.397	27183.62
827.649	27327.62
827.9	27244.62
828.151	27299.62
828.402	27366.62
828.653	27435.62
828.905	27535.62
829.156	27521.62
829.407	27545.62
829.658	27512.62
829.909	27481.62
830.159	27514.62
830.41	27392.62
830.661	27126.62
830.912	27009.62
831.162	26982.62
831.413	26862.62
831.664	26787.62
831.914	26747.62
832.165	26775.62
832.415	26842.62
832.666	26701.62
832.916	26730.62
833.167	26735.62
833.417	26773.62
833.667	26467.62
833.917	26534.62
834.168	26409.62
834.418	26474.62
834.668	26275.62
834.918	26045.62
835.168	25888.62
835.418	25829.62
835.668	25705.62
835.918	25741.62
836.167	25595.62
836.417	25433.62
836.667	25598.62
836.917	25500.62
837.166	25643.62
837.416	25496.62
837.666	25556.62
837.915	25406.62
838.165	25333.62
838.414	25311.62
838.663	25233.62
838.913	25275.62
839.162	25182.62
839.411	25049.62
839.661	24927.62
839.91	24977.62
840.159	24874.62
840.408	24758.62
840.657	24906.62
840.906	24899.62
841.155	24966.62
841.404	24817.62
841.653	24711.62
841.902	24844.62
842.15	25031.62
842.399	24878.62
842.648	24874.62
842.897	24754.62
843.145	24559.62
843.394	24388.62
843.642	24305.62
843.891	24129.62
844.139	24108.62
844.388	23902.62
844.636	23772.62
844.884	23777.62
845.133	23693.62
845.381	23628.62
845.629	23782.62
845.877	23674.62
846.125	23624.62
846.373	23443.62
846.621	23586.62
846.869	23404.62
847.117	23347.62
847.365	23147.62
847.613	23006.62
847.861	22939.62
848.108	22951.62
848.356	22894.62
848.604	22768.62
848.851	22710.62
849.099	22892.62
849.346	22799.62
849.594	22997.62
849.841	22924.62
850.089	22965.62
850.336	22952.62
850.583	22905.62
850.831	22855.62
851.078	22783.62
851.325	22740.62
851.572	22733.62
851.819	22543.62
852.066	22223.62
852.313	21852.62
852.56	21711.62
852.807	21551.62
853.054	21505.62
853.301	21510.62
853.548	21457.62
853.794	21584.62
854.041	21683.62
854.288	21660.62
854.534	21946.62
854.781	21847.62
855.028	21810.62
855.274	21783.62
855.52	21671.62
855.767	21544.62
856.013	21595.62
856.26	21865.62
856.506	21255.62
856.752	21310.62
856.998	21242.62
857.244	21283.62
857.49	21357.62
857.736	21413.62
857.982	21417.62
858.228	21417.62
858.474	21237.62
858.72	21083.62
858.966	20889.62
859.212	20667.62
859.458	20478.62
859.703	20195.62
859.949	20035.62
860.195	19976.62
860.44	19765.62
860.686	19820.62
860.931	19762.62
861.177	19558.62
861.422	19522.62
861.667	19398.62
861.913	19358.62
862.158	19460.62
862.403	19485.62
862.648	19514.62
862.893	19526.62
863.138	19422.62
863.384	19394.62
863.629	19404.62
863.873	19258.62
864.118	19253.62
864.363	19267.62
864.608	19137.62
864.853	19026.62
865.098	18955.62
865.342	18892.62
865.587	18767.62
865.832	18814.62
866.076	18693.62
866.321	18704.62
866.565	18608.62
866.81	18527.62
867.054	18448.62
867.298	18395.62
867.543	18257.62
867.787	18332.62
868.031	18291.62
868.275	18274.62
868.519	18168.62
868.764	18216.62
869.008	18072.62
869.252	18139.62
869.496	18010.62
869.739	18027.62
869.983	17875.62
870.227	17978.62
870.471	17935.62
870.715	17965.62
870.958	18015.62
871.202	18091.62
871.446	18025.62
871.689	17975.62
871.933	18075.62
872.176	18027.62
872.42	17932.62
872.663	17967.62
872.906	17935.62
873.15	17810.62
873.393	17806.62
873.636	17864.62
873.879	17553.62
874.122	17478.62
874.366	17208.62
874.609	17086.62
874.852	16861.62
875.095	16796.62
875.337	16715.62
875.58	16579.62
875.823	16614.62
876.066	16524.62
876.309	16580.62
876.551	16339.62
876.794	16325.62
877.037	16257.62
877.279	16147.62
877.522	16163.62
877.764	16220.62
878.007	16136.62
878.249	16044.62
878.491	16030.62
878.734	16141.62
878.976	16002.62
879.218	15895.62
879.46	15796.62
879.702	15684.62
879.945	15495.62
880.187	15410.62
880.429	15333.62
880.671	15239.62
880.912	15280.62
881.154	15153.62
881.396	15006.62
881.638	15191.62
881.88	15142.62
882.121	15044.62
882.363	15043.62
882.605	15009.62
882.846	14950.62
883.088	14953.62
883.329	14917.62
883.571	15025.62
883.812	15131.62
884.053	15325.62
884.295	15566.62
884.536	15731.62
884.777	15649.62
885.018	15606.62
885.259	15538.62
885.5	15289.62
885.742	15439.62
885.982	15266.62
886.223	15101.62
886.464	15061.62
886.705	14858.62
886.946	14765.62
887.187	14498.62
887.428	14416.62
887.668	14059.62
887.909	13924.62
888.15	13811.62
888.39	13768.62
888.631	13670.62
888.871	13448.62
889.111	13470.62
889.352	13317.62
889.592	13226.62
889.833	13119.62
890.073	13019.62
890.313	13023.62
890.553	12895.62
890.793	12808.62
891.033	12678.62
891.273	12684.62
891.513	12595.62
891.753	12606.62
891.993	12514.62
892.233	12573.62
892.473	12630.62
892.713	12626.62
892.952	12615.62
893.192	12701.62
893.432	12557.62
893.671	12592.62
893.911	12491.62
894.15	12402.62
894.39	12318.62
894.629	12232.62
894.869	12234.62
895.108	12173.62
895.347	12030.62
895.587	12060.62
895.826	12054.62
896.065	11962.62
896.304	11922.62
896.543	11989.62
896.782	11896.62
897.021	11856.62
897.26	11901.62
897.499	11834.62
897.738	11796.62
897.977	11749.62
898.216	11641.62
898.454	11490.62
898.693	11497.62
898.932	11455.62
899.17	11409.62
899.409	11342.62
899.647	11388.62
899.886	11327.62
900.124	11329.62
900.363	11166.62
900.601	11337.62
900.839	11348.62
901.078	11380.62
901.316	11328.62
901.554	11400.62
901.792	11520.62
902.03	11436.62
902.268	11469.62
902.506	11462.62
902.744	11352.62
902.982	11298.62
903.22	11088.62
903.458	11014.62
903.695	10822.62
903.933	10724.62
904.171	10527.62
904.409	10381.62
904.646	10242.62
904.884	10045.62
905.121	9951.62
905.359	9875.62
905.596	9765.62
905.833	9644.62
906.071	9639.62
906.308	9559.62
906.545	9589.62
906.783	9522.62
907.02	9526.62
907.257	9420.62
907.494	9454.62
907.731	9413.62
907.968	9406.62
908.205	9301.62
908.442	9259.62
908.679	9227.62
908.915	9088.62
909.152	9077.62
909.389	8978.62
909.626	8879.62
909.862	8849.62
910.099	8836.62
910.335	8744.62
910.572	8688.62
910.808	8715.62
911.045	8613.62
911.281	8607.62
911.518	8624.62
911.754	8515.62
911.99	8508.62
912.226	8456.62
912.463	8317.62
912.699	8300.62
912.935	8300.62
913.171	8184.62
913.407	8070.62
913.643	8097.62
913.879	7976.62
914.114	7894.62
914.35	7835.62
914.586	7818.62
914.822	7693.62
915.057	7694.62
915.293	7572.62
915.529	7556.62
915.764	7654.62
916	7545.62
916.235	7571.62
916.471	7530.62
916.706	7440.62
916.941	7399.62
917.177	7380.62
917.412	7413.62
917.647	7375.62
917.882	7360.62
918.117	7398.62
918.352	7376.62
918.588	7381.62
918.823	7219.62
919.057	7198.62
919.292	7030.62
919.527	7021.62
919.762	6977.62
919.997	6959.62
920.232	6825.62
920.466	6840.62
920.701	6666.62
920.935	6685.62
921.17	6625.62
921.405	6576.62
921.639	6632.62
921.873	6527.62
922.108	6599.62
922.342	6549.62
922.576	6481.62
922.811	6449.62
923.045	6478.62
923.279	6432.62
923.513	6308.62
923.747	6397.62
923.981	6293.62
924.215	6252.62
924.449	6205.62
924.683	6172.62
924.917	6099.62
925.151	6121.62
925.385	6127.62
925.618	6116.62
925.852	6064.62
926.086	5945.62
926.319	6026.62
926.553	6007.62
926.786	6044.62
927.02	5986.62
927.253	5990.62
927.486	6056.62
927.72	5921.62
927.953	5959.62
928.186	5907.62
928.42	5937.62
928.653	5910.62
928.886	5812.62
929.119	5785.62
929.352	5833.62
929.585	5730.62
929.818	5688.62
930.051	5678.62
930.284	5623.62
930.516	5560.62
930.749	5508.62
930.982	5475.62
931.215	5452.62
931.447	5419.62
931.68	5436.62
931.912	5422.62
932.145	5389.62
932.377	5403.62
932.61	5494.62
932.842	5322.62
933.074	5423.62
933.307	5327.62
933.539	5397.62
933.771	5418.62
934.003	5320.62
934.236	5383.62
934.468	5450.62
934.7	5328.62
934.932	5339.62
935.164	5296.62
935.395	5229.62
935.627	5265.62
935.859	5249.62
936.091	5239.62
936.323	5228.62
936.554	5168.62
936.786	5152.62
937.017	5097.62
937.249	5162.62
937.481	5065.62
937.712	5120.62
937.943	5091.62
938.175	5060.62
938.406	5041.62
938.637	5055.62
938.869	5037.62
939.1	5084.62
939.331	4997.62
939.562	5005.62
939.793	4988.62
940.024	4988.62
940.255	5011.62
940.486	4910.62
940.717	4864.62
940.948	4896.62
941.179	4790.62
941.409	4794.62
941.64	4818.62
941.871	4807.62
942.102	4775.62
942.332	4799.62
942.563	4819.62
942.793	4777.62
943.024	4715.62
943.254	4785.62
943.484	4819.62
943.715	4751.62
943.945	4788.62
944.175	4687.62
944.405	4655.62
944.636	4725.62
944.866	4772.62
945.096	4780.62
945.326	4597.62
945.556	4670.62
945.786	4683.62
946.016	4613.62
946.245	4543.62
946.475	4487.62
946.705	4524.62
946.935	4530.62
947.164	4502.62
947.394	4428.62
947.624	4416.62
947.853	4427.62
948.083	4403.62
948.312	4395.62
948.542	4316.62
948.771	4295.62
949	4294.62
949.23	4241.62
949.459	4288.62
949.688	4375.62
949.917	4299.62
950.146	4307.62
950.375	4314.62
950.604	4236.62
950.833	4327.62
951.062	4327.62
951.291	4216.62
951.52	4178.62
951.749	4187.62
951.978	4201.62
952.206	4193.62
952.435	4147.62
952.664	4166.62
952.892	4176.62
953.121	4150.62
953.349	4164.62
953.578	4124.62
953.806	4094.62
954.035	4010.62
954.263	4016.62
954.491	3996.62
954.719	4048.62
954.948	3994.62
955.176	3930.62
955.404	3865.62
955.632	3924.62
955.86	3913.62
956.088	3889.62
956.316	3874.62
956.544	3880.62
956.772	3801.62
956.999	3794.62
957.227	3834.62
957.455	3731.62
957.683	3749.62
957.91	3773.62
958.138	3689.62
958.365	3684.62
958.593	3697.62
958.82	3591.62
959.048	3667.62
959.275	3579.62
959.502	3654.62
959.73	3584.62
959.957	3628.62
960.184	3647.62
960.411	3544.62
960.638	3628.62
960.865	3587.62
961.092	3605.62
961.319	3501.62
961.546	3587.62
961.773	3566.62
962	3499.62
962.227	3623.62
962.454	3512.62
962.68	3497.62
962.907	3483.62
963.134	3434.62
963.36	3474.62
963.587	3460.62
963.813	3391.62
964.04	3403.62
964.266	3383.62
964.493	3413.62
964.719	3384.62
964.945	3390.62
965.171	3233.62
965.398	3302.62
965.624	3311.62
965.85	3251.62
966.076	3226.62
966.302	3263.62
966.528	3217.62
966.754	3258.62
966.98	3185.62
967.206	3189.62
967.431	3127.62
967.657	3222.62
967.883	3225.62
968.109	3150.62
968.334	3128.62
968.56	3121.62
968.785	3145.62
969.011	3086.62
969.236	3118.62
969.462	3039.62
969.687	3083.62
969.912	3081.62
970.138	3120.62
970.363	3075.62
970.588	3100.62
970.813	3026.62
971.038	2949.62
971.263	3061.62
971.488	3035.62
971.713	2991.62
971.938	2996.62
972.163	2907.62
972.388	2911.62
972.613	2895.62
972.838	2888.62
973.062	2885.62
973.287	2909.62
973.512	2816.62
973.736	2860.62
973.961	2784.62
974.185	2812.62
974.41	2829.62
974.634	2727.62
974.858	2726.62
975.083	2805.62
975.307	2801.62
975.531	2711.62
975.755	2657.62
975.98	2657.62
976.204	2601.62
976.428	2631.62
976.652	2603.62
976.876	2561.62
977.1	2587.62
977.324	2562.62
977.547	2631.62
977.771	2585.62
977.995	2576.62
978.219	2531.62
978.442	2658.62
978.666	2559.62
978.89	2525.62
979.113	2536.62
979.337	2494.62
979.56	2498.62
979.783	2598.62
980.007	2476.62
980.23	2506.62
980.453	2462.62
980.677	2515.62
980.9	2454.62
981.123	2377.62
981.346	2493.62
981.569	2440.62
981.792	2455.62
982.015	2418.62
982.238	2391.62
982.461	2400.62
982.684	2320.62
982.907	2307.62
983.129	2323.62
983.352	2342.62
983.575	2373.62
983.797	2311.62
984.02	2266.62
984.242	2308.62
984.465	2269.62
984.687	2329.62
984.91	2324.62
985.132	2284.62
985.354	2297.62
985.577	2243.62
985.799	2251.62
986.021	2169.62
986.243	2181.62
986.465	2168.62
986.687	2228.62
986.909	2261.62
987.131	2180.62
987.353	2156.62
987.575	2199.62
987.797	2178.62
988.019	2070.62
988.241	2140.62
988.462	2079.62
988.684	2191.62
988.906	2201.62
989.127	2198.62
989.349	2079.62
989.57	2102.62
989.792	2149.62
990.013	2141.62
990.234	2140.62
990.456	2184.62
990.677	2119.62
990.898	2081.62
991.119	2086.62
991.341	2100.62
991.562	2014.62
991.783	2053.62
992.004	1999.62
992.225	1970.62
992.446	2042.62
992.667	1944.62
992.887	2026.62
993.108	1913.62
993.329	2052.62
993.55	1956.62
993.77	1892.62
993.991	1910.62
994.212	1952.62
994.432	1927.62
994.653	1913.62
994.873	1898.62
995.093	1803.62
995.314	1842.62
995.534	1940.62
995.754	1924.62
995.975	1923.62
996.195	1832.62
996.415	1907.62
996.635	1891.62
996.855	1875.62
997.075	1857.62
997.295	1828.62
997.515	1823.62
997.735	1872.62
997.955	1852.62
998.174	1835.62
998.394	1817.62
998.614	1876.62
998.834	1831.62
999.053	1873.62
999.273	1830.62
999.492	1908.62
999.712	1798.62
999.931	1749.62
1000.151	1804.62
1000.37	1810.62
1000.589	1866.62
1000.809	1758.62
1001.028	1891.62
1001.247	1805.62
1001.466	1709.62
1001.685	1802.62
1001.904	1776.62
1002.123	1759.62
1002.342	1741.62
1002.561	1712.62
1002.78	1731.62
1002.999	1767.62
1003.218	1703.62
1003.436	1691.62
1003.655	1766.62
1003.874	1675.62
1004.092	1675.62
1004.311	1742.62
1004.53	1684.62
1004.748	1774.62
1004.966	1668.62
1005.185	1737.62
1005.403	1724.62
1005.622	1696.62
1005.84	1753.62
1006.058	1667.62
1006.276	1697.62
1006.494	2175.62
1006.712	1680.62
1006.931	1751.62
1007.149	1661.62
1007.367	1662.62
1007.584	1699.62
1007.802	1733.62
1008.02	1670.62
1008.238	1778.62
1008.456	1781.62
1008.673	1649.62
1008.891	1767.62
1009.109	1727.62
1009.326	1767.62
1009.544	1847.62
1009.761	1770.62
1009.979	1879.62
1010.196	1900.62
1010.413	1989.62
1010.631	2039.62
1010.848	2079.62
1011.065	2103.62
1011.282	2049.62
1011.5	1991.62
1011.717	2099.62
1011.934	2020.62
1012.151	2047.62
1012.368	2023.62
1012.585	1952.62
1012.801	2024.62
1013.018	1990.62
1013.235	1980.62
1013.452	1969.62
1013.669	2004.62
1013.885	1982.62
1014.102	2032.62
1014.318	2011.62
1014.535	1942.62
1014.751	1997.62
1014.968	1952.62
1015.184	1981.62
1015.401	1904.62
1015.617	1939.62
1015.833	1883.62
1016.049	1879.62
1016.266	1845.62
1016.482	1834.62
1016.698	1772.62
1016.914	1800.62
1017.13	1774.62
1017.346	1767.62
1017.562	1829.62
1017.778	1744.62
1017.993	1713.62
1018.209	1769.62
1018.425	1769.62
1018.641	1727.62
1018.856	1674.62
1019.072	1723.62
1019.288	1755.62
1019.503	1704.62
1019.719	1627.62
1019.934	1648.62
1020.149	1691.62
1020.365	1642.62
1020.58	1599.62
1020.795	1661.62
1021.011	1546.62
1021.226	1523.62
1021.441	1570.62
1021.656	1458.62
1021.871	1404.62
1022.086	1399.62
1022.301	1373.62
1022.516	1364.62
1022.731	1436.62
1022.946	1321.62
1023.16	1328.62
1023.375	1253.62
1023.59	1273.62
1023.804	1211.62
1024.019	1322.62
1024.234	1171.62
1024.448	1211.62
1024.663	1098.62
1024.877	1157.62
1025.092	1141.62
1025.306	1151.62
1025.52	1051.62
1025.734	1150.62
1025.949	1066.62
1026.163	1004.62
1026.377	947.62
1026.591	999.62
1026.805	923.62
1027.019	912.62
1027.233	890.62
1027.447	844.62
1027.661	940.62
1027.875	876.62
1028.088	879.62
1028.302	785.62
1028.516	780.62
1028.73	780.62
1028.943	767.62
1029.157	716.62
1029.37	690.62
1029.584	-5.38
1029.797	1.62
1030.011	1.62
1030.224	-5.38
