Data from QEP037381__207__15-57-59-892.txt Node

Date: Fri Dec 16 15:57:59 EST 2022
User: dcclab
Spectrometer: QEP03738
Trigger mode: 4
Integration Time (sec): 1.000000E1
Scans to average: 1
Electric dark correction enabled: true
Nonlinearity correction enabled: false
Boxcar width: 0
XAxis mode: Wavelengths
Number of Pixels in Spectrum: 1044
>>>>>Begin Spectral Data<<<<<
784.041	11.88
784.3	1.88
784.558	-5.12
784.817	-0.12
785.075	108916.88
785.334	19146.88
785.592	9018.88
785.851	6290.88
786.109	4719.88
786.368	3667.88
786.626	2968.88
786.884	2483.88
787.143	2041.88
787.401	1684.88
787.659	1514.88
787.917	1311.88
788.175	1185.88
788.433	1045.88
788.691	929.88
788.949	857.88
789.207	827.88
789.465	700.88
789.723	692.88
789.98	622.88
790.238	669.88
790.496	630.88
790.753	595.88
791.011	654.88
791.268	571.88
791.526	569.88
791.783	552.88
792.041	541.88
792.298	474.88
792.556	534.88
792.813	507.88
793.07	474.88
793.327	490.88
793.584	557.88
793.841	471.88
794.099	481.88
794.356	554.88
794.613	445.88
794.869	503.88
795.126	446.88
795.383	424.88
795.64	459.88
795.897	416.88
796.153	461.88
796.41	443.88
796.667	431.88
796.923	454.88
797.18	455.88
797.436	483.88
797.693	425.88
797.949	486.88
798.206	542.88
798.462	440.88
798.718	494.88
798.974	476.88
799.231	512.88
799.487	507.88
799.743	529.88
799.999	546.88
800.255	554.88
800.511	535.88
800.767	577.88
801.023	596.88
801.279	617.88
801.534	658.88
801.79	717.88
802.046	762.88
802.302	932.88
802.557	1086.88
802.813	1354.88
803.068	1695.88
803.324	2378.88
803.579	3245.88
803.835	4534.88
804.09	6215.88
804.345	8190.88
804.601	10275.88
804.856	12429.88
805.111	14329.88
805.366	15771.88
805.621	16883.88
805.876	17781.88
806.131	18237.88
806.386	18551.88
806.641	18929.88
806.896	19156.88
807.151	19575.88
807.406	19768.88
807.661	20239.88
807.915	20594.88
808.17	20938.88
808.425	21268.88
808.679	21308.88
808.934	21550.88
809.188	21845.88
809.443	22023.88
809.697	22161.88
809.951	22435.88
810.206	22526.88
810.46	22791.88
810.714	22924.88
810.968	23229.88
811.223	23444.88
811.477	23526.88
811.731	23881.88
811.985	23839.88
812.239	23973.88
812.493	24084.88
812.747	24270.88
813	24256.88
813.254	24316.88
813.508	24478.88
813.762	24584.88
814.015	24752.88
814.269	24976.88
814.522	25195.88
814.776	25384.88
815.03	25750.88
815.283	26075.88
815.536	26500.88
815.79	26847.88
816.043	27230.88
816.296	27638.88
816.55	27929.88
816.803	28227.88
817.056	28689.88
817.309	29052.88
817.562	29144.88
817.815	29359.88
818.068	29688.88
818.321	29895.88
818.574	30231.88
818.827	30725.88
819.079	30971.88
819.332	31672.88
819.585	31769.88
819.838	32279.88
820.09	32522.88
820.343	32743.88
820.595	32748.88
820.848	33198.88
821.1	33154.88
821.353	33348.88
821.605	33219.88
821.857	33279.88
822.11	32974.88
822.362	33096.88
822.614	32934.88
822.866	33023.88
823.118	32956.88
823.37	33068.88
823.622	33042.88
823.874	33226.88
824.126	33308.88
824.378	33263.88
824.63	33385.88
824.882	33679.88
825.134	33464.88
825.385	33416.88
825.637	33417.88
825.888	33180.88
826.14	33317.88
826.392	33079.88
826.643	32972.88
826.895	32875.88
827.146	32749.88
827.397	32755.88
827.649	32553.88
827.9	32574.88
828.151	32491.88
828.402	32717.88
828.653	32770.88
828.905	32862.88
829.156	32953.88
829.407	32824.88
829.658	32953.88
829.909	32894.88
830.159	32882.88
830.41	32667.88
830.661	32392.88
830.912	32150.88
831.162	32206.88
831.413	32142.88
831.664	32172.88
831.914	32111.88
832.165	32020.88
832.415	31959.88
832.666	32043.88
832.916	32073.88
833.167	32037.88
833.417	32002.88
833.667	31930.88
833.917	31775.88
834.168	31673.88
834.418	31658.88
834.668	31438.88
834.918	31149.88
835.168	31153.88
835.418	30974.88
835.668	30951.88
835.918	30945.88
836.167	30747.88
836.417	30750.88
836.667	30718.88
836.917	30764.88
837.166	30569.88
837.416	30712.88
837.666	30646.88
837.915	30582.88
838.165	30595.88
838.414	30271.88
838.663	30245.88
838.913	30282.88
839.162	30070.88
839.411	30266.88
839.661	30042.88
839.91	29933.88
840.159	29864.88
840.408	29896.88
840.657	29809.88
840.906	29874.88
841.155	29905.88
841.404	29890.88
841.653	29856.88
841.902	29844.88
842.15	29882.88
842.399	29836.88
842.648	29729.88
842.897	29712.88
843.145	29537.88
843.394	29282.88
843.642	29274.88
843.891	29117.88
844.139	28898.88
844.388	28736.88
844.636	28637.88
844.884	28663.88
845.133	28525.88
845.381	28356.88
845.629	28552.88
845.877	28392.88
846.125	28431.88
846.373	28464.88
846.621	28184.88
846.869	28157.88
847.117	27872.88
847.365	27850.88
847.613	27781.88
847.861	27648.88
848.108	27556.88
848.356	27538.88
848.604	27494.88
848.851	27479.88
849.099	27494.88
849.346	27530.88
849.594	27517.88
849.841	27785.88
850.089	27709.88
850.336	27776.88
850.583	27733.88
850.831	27590.88
851.078	27385.88
851.325	27330.88
851.572	27489.88
851.819	27174.88
852.066	26688.88
852.313	26334.88
852.56	26084.88
852.807	26073.88
853.054	26004.88
853.301	25891.88
853.548	25924.88
853.794	26010.88
854.041	26062.88
854.288	26280.88
854.534	26418.88
854.781	26480.88
855.028	26347.88
855.274	26282.88
855.52	26089.88
855.767	25911.88
856.013	26010.88
856.26	26200.88
856.506	25732.88
856.752	25643.88
856.998	25625.88
857.244	25712.88
857.49	25850.88
857.736	25776.88
857.982	25865.88
858.228	25751.88
858.474	25522.88
858.72	25447.88
858.966	25146.88
859.212	24880.88
859.458	24655.88
859.703	24453.88
859.949	24237.88
860.195	23995.88
860.44	23988.88
860.686	23774.88
860.931	23941.88
861.177	23615.88
861.422	23649.88
861.667	23643.88
861.913	23564.88
862.158	23584.88
862.403	23632.88
862.648	23551.88
862.893	23760.88
863.138	23614.88
863.384	23575.88
863.629	23564.88
863.873	23570.88
864.118	23394.88
864.363	23228.88
864.608	23257.88
864.853	23108.88
865.098	23037.88
865.342	22884.88
865.587	22808.88
865.832	22794.88
866.076	22772.88
866.321	22623.88
866.565	22615.88
866.81	22465.88
867.054	22445.88
867.298	22409.88
867.543	22271.88
867.787	22223.88
868.031	22269.88
868.275	22113.88
868.519	22064.88
868.764	21964.88
869.008	21961.88
869.252	21927.88
869.496	21831.88
869.739	21819.88
869.983	21730.88
870.227	21804.88
870.471	21794.88
870.715	21799.88
870.958	21891.88
871.202	21803.88
871.446	21887.88
871.689	21786.88
871.933	21872.88
872.176	21803.88
872.42	21763.88
872.663	21760.88
872.906	21632.88
873.15	21624.88
873.393	21454.88
873.636	21383.88
873.879	21217.88
874.122	21004.88
874.366	20670.88
874.609	20551.88
874.852	20390.88
875.095	20369.88
875.337	20317.88
875.58	20078.88
875.823	20155.88
876.066	19982.88
876.309	19925.88
876.551	19853.88
876.794	19639.88
877.037	19676.88
877.279	19621.88
877.522	19713.88
877.764	19668.88
878.007	19669.88
878.249	19526.88
878.491	19600.88
878.734	19569.88
878.976	19546.88
879.218	19316.88
879.46	19289.88
879.702	19050.88
879.945	19015.88
880.187	18780.88
880.429	18753.88
880.671	18644.88
880.912	18606.88
881.154	18568.88
881.396	18445.88
881.638	18411.88
881.88	18431.88
882.121	18381.88
882.363	18435.88
882.605	18344.88
882.846	18220.88
883.088	18158.88
883.329	18133.88
883.571	18186.88
883.812	18271.88
884.053	18305.88
884.295	18705.88
884.536	18840.88
884.777	18642.88
885.018	18658.88
885.259	18478.88
885.5	18366.88
885.742	18538.88
885.982	18372.88
886.223	18183.88
886.464	18127.88
886.705	17999.88
886.946	17820.88
887.187	17586.88
887.428	17443.88
887.668	17264.88
887.909	16992.88
888.15	16812.88
888.39	16784.88
888.631	16746.88
888.871	16495.88
889.111	16416.88
889.352	16468.88
889.592	16186.88
889.833	16087.88
890.073	15982.88
890.313	15971.88
890.553	15772.88
890.793	15716.88
891.033	15701.88
891.273	15506.88
891.513	15511.88
891.753	15501.88
891.993	15486.88
892.233	15470.88
892.473	15570.88
892.713	15475.88
892.952	15363.88
893.192	15429.88
893.432	15453.88
893.671	15471.88
893.911	15333.88
894.15	15246.88
894.39	15065.88
894.629	14995.88
894.869	14920.88
895.108	14842.88
895.347	14778.88
895.587	14845.88
895.826	14720.88
896.065	14705.88
896.304	14713.88
896.543	14682.88
896.782	14494.88
897.021	14532.88
897.26	14523.88
897.499	14510.88
897.738	14450.88
897.977	14371.88
898.216	14201.88
898.454	14073.88
898.693	13949.88
898.932	13935.88
899.17	13833.88
899.409	13833.88
899.647	13842.88
899.886	13725.88
900.124	13787.88
900.363	13784.88
900.601	13804.88
900.839	13771.88
901.078	13763.88
901.316	13757.88
901.554	13856.88
901.792	13886.88
902.03	13797.88
902.268	13803.88
902.506	13793.88
902.744	13729.88
902.982	13645.88
903.22	13390.88
903.458	13295.88
903.695	13196.88
903.933	13000.88
904.171	12769.88
904.409	12639.88
904.646	12507.88
904.884	12301.88
905.121	12265.88
905.359	12084.88
905.596	12027.88
905.833	11843.88
906.071	11839.88
906.308	11827.88
906.545	11722.88
906.783	11709.88
907.02	11626.88
907.257	11610.88
907.494	11574.88
907.731	11637.88
907.968	11534.88
908.205	11425.88
908.442	11392.88
908.679	11341.88
908.915	11196.88
909.152	11141.88
909.389	10912.88
909.626	10880.88
909.862	10877.88
910.099	10861.88
910.335	10870.88
910.572	10680.88
910.808	10711.88
911.045	10698.88
911.281	10596.88
911.518	10538.88
911.754	10434.88
911.99	10462.88
912.226	10344.88
912.463	10256.88
912.699	10270.88
912.935	10141.88
913.171	10046.88
913.407	9983.88
913.643	9860.88
913.879	9829.88
914.114	9801.88
914.35	9592.88
914.586	9557.88
914.822	9471.88
915.057	9539.88
915.293	9311.88
915.529	9267.88
915.764	9337.88
916	9304.88
916.235	9212.88
916.471	9237.88
916.706	9122.88
916.941	9143.88
917.177	9126.88
917.412	9148.88
917.647	9170.88
917.882	9062.88
918.117	9128.88
918.352	9068.88
918.588	9113.88
918.823	8924.88
919.057	8864.88
919.292	8698.88
919.527	8730.88
919.762	8570.88
919.997	8592.88
920.232	8440.88
920.466	8420.88
920.701	8211.88
920.935	8250.88
921.17	8172.88
921.405	8153.88
921.639	8122.88
921.873	8067.88
922.108	8055.88
922.342	8044.88
922.576	7972.88
922.811	7909.88
923.045	7906.88
923.279	7907.88
923.513	7788.88
923.747	7846.88
923.981	7781.88
924.215	7658.88
924.449	7585.88
924.683	7557.88
924.917	7530.88
925.151	7474.88
925.385	7539.88
925.618	7448.88
925.852	7500.88
926.086	7356.88
926.319	7420.88
926.553	7429.88
926.786	7373.88
927.02	7335.88
927.253	7364.88
927.486	7286.88
927.72	7294.88
927.953	7323.88
928.186	7232.88
928.42	7274.88
928.653	7218.88
928.886	7173.88
929.119	7153.88
929.352	7112.88
929.585	7025.88
929.818	7018.88
930.051	6991.88
930.284	6903.88
930.516	6851.88
930.749	6764.88
930.982	6772.88
931.215	6781.88
931.447	6669.88
931.68	6625.88
931.912	6636.88
932.145	6651.88
932.377	6646.88
932.61	6702.88
932.842	6470.88
933.074	6644.88
933.307	6599.88
933.539	6681.88
933.771	6641.88
934.003	6590.88
934.236	6578.88
934.468	6584.88
934.7	6532.88
934.932	6496.88
935.164	6478.88
935.395	6450.88
935.627	6455.88
935.859	6400.88
936.091	6397.88
936.323	6374.88
936.554	6409.88
936.786	6249.88
937.017	6278.88
937.249	6287.88
937.481	6186.88
937.712	6276.88
937.943	6228.88
938.175	6219.88
938.406	6216.88
938.637	6177.88
938.869	6100.88
939.1	6187.88
939.331	6100.88
939.562	6174.88
939.793	6102.88
940.024	6124.88
940.255	6064.88
940.486	5993.88
940.717	6014.88
940.948	5936.88
941.179	5852.88
941.409	5924.88
941.64	5841.88
941.871	5868.88
942.102	5849.88
942.332	5892.88
942.563	5897.88
942.793	5852.88
943.024	5790.88
943.254	5877.88
943.484	5907.88
943.715	5869.88
943.945	5811.88
944.175	5766.88
944.405	5713.88
944.636	5740.88
944.866	5738.88
945.096	5818.88
945.326	5682.88
945.556	5778.88
945.786	5795.88
946.016	5646.88
946.245	5575.88
946.475	5560.88
946.705	5527.88
946.935	5501.88
947.164	5515.88
947.394	5420.88
947.624	5419.88
947.853	5495.88
948.083	5374.88
948.312	5395.88
948.542	5282.88
948.771	5303.88
949	5262.88
949.23	5272.88
949.459	5248.88
949.688	5293.88
949.917	5228.88
950.146	5206.88
950.375	5228.88
950.604	5257.88
950.833	5240.88
951.062	5261.88
951.291	5195.88
951.52	5139.88
951.749	5123.88
951.978	5140.88
952.206	5071.88
952.435	5081.88
952.664	5093.88
952.892	5051.88
953.121	5052.88
953.349	5018.88
953.578	5060.88
953.806	4973.88
954.035	4897.88
954.263	4914.88
954.491	4847.88
954.719	4856.88
954.948	4812.88
955.176	4843.88
955.404	4730.88
955.632	4817.88
955.86	4835.88
956.088	4727.88
956.316	4765.88
956.544	4739.88
956.772	4659.88
956.999	4595.88
957.227	4662.88
957.455	4604.88
957.683	4538.88
957.91	4489.88
958.138	4496.88
958.365	4484.88
958.593	4478.88
958.82	4427.88
959.048	4448.88
959.275	4436.88
959.502	4402.88
959.73	4346.88
959.957	4415.88
960.184	4457.88
960.411	4383.88
960.638	4392.88
960.865	4316.88
961.092	4381.88
961.319	4300.88
961.546	4337.88
961.773	4366.88
962	4316.88
962.227	4317.88
962.454	4266.88
962.68	4243.88
962.907	4234.88
963.134	4208.88
963.36	4230.88
963.587	4152.88
963.813	4125.88
964.04	4189.88
964.266	4052.88
964.493	4155.88
964.719	4094.88
964.945	4077.88
965.171	3950.88
965.398	4034.88
965.624	4037.88
965.85	3913.88
966.076	3917.88
966.302	3935.88
966.528	3863.88
966.754	3935.88
966.98	3897.88
967.206	3894.88
967.431	3829.88
967.657	3898.88
967.883	3855.88
968.109	3840.88
968.334	3773.88
968.56	3763.88
968.785	3734.88
969.011	3704.88
969.236	3746.88
969.462	3680.88
969.687	3712.88
969.912	3741.88
970.138	3754.88
970.363	3640.88
970.588	3652.88
970.813	3615.88
971.038	3614.88
971.263	3614.88
971.488	3630.88
971.713	3641.88
971.938	3625.88
972.163	3535.88
972.388	3516.88
972.613	3565.88
972.838	3496.88
973.062	3482.88
973.287	3463.88
973.512	3405.88
973.736	3473.88
973.961	3452.88
974.185	3362.88
974.41	3397.88
974.634	3301.88
974.858	3312.88
975.083	3350.88
975.307	3331.88
975.531	3238.88
975.755	3188.88
975.98	3248.88
976.204	3161.88
976.428	3116.88
976.652	3127.88
976.876	3126.88
977.1	3152.88
977.324	3096.88
977.547	3130.88
977.771	3139.88
977.995	3148.88
978.219	3036.88
978.442	3155.88
978.666	3099.88
978.89	3064.88
979.113	3081.88
979.337	3035.88
979.56	3027.88
979.783	3108.88
980.007	3003.88
980.23	3019.88
980.453	2924.88
980.677	3018.88
980.9	2950.88
981.123	2881.88
981.346	2965.88
981.569	2931.88
981.792	2942.88
982.015	2919.88
982.238	2851.88
982.461	2828.88
982.684	2854.88
982.907	2792.88
983.129	2797.88
983.352	2799.88
983.575	2818.88
983.797	2808.88
984.02	2741.88
984.242	2727.88
984.465	2720.88
984.687	2714.88
984.91	2765.88
985.132	2716.88
985.354	2714.88
985.577	2677.88
985.799	2675.88
986.021	2577.88
986.243	2604.88
986.465	2607.88
986.687	2663.88
986.909	2709.88
987.131	2602.88
987.353	2582.88
987.575	2603.88
987.797	2524.88
988.019	2512.88
988.241	2545.88
988.462	2512.88
988.684	2556.88
988.906	2538.88
989.127	2595.88
989.349	2492.88
989.57	2506.88
989.792	2522.88
990.013	2569.88
990.234	2566.88
990.456	2549.88
990.677	2532.88
990.898	2460.88
991.119	2481.88
991.341	2494.88
991.562	2430.88
991.783	2403.88
992.004	2357.88
992.225	2353.88
992.446	2390.88
992.667	2327.88
992.887	2387.88
993.108	2227.88
993.329	2394.88
993.55	2328.88
993.77	2229.88
993.991	2253.88
994.212	2261.88
994.432	2262.88
994.653	2270.88
994.873	2249.88
995.093	2128.88
995.314	2171.88
995.534	2268.88
995.754	2252.88
995.975	2253.88
996.195	2151.88
996.415	2201.88
996.635	2174.88
996.855	2225.88
997.075	2173.88
997.295	2156.88
997.515	2159.88
997.735	2182.88
997.955	2157.88
998.174	2135.88
998.394	2130.88
998.614	2144.88
998.834	2090.88
999.053	2189.88
999.273	2125.88
999.492	2165.88
999.712	2099.88
999.931	2077.88
1000.151	2085.88
1000.37	2089.88
1000.589	2133.88
1000.809	2077.88
1001.028	2160.88
1001.247	2068.88
1001.466	1975.88
1001.685	2121.88
1001.904	2006.88
1002.123	2028.88
1002.342	2014.88
1002.561	1943.88
1002.78	1989.88
1002.999	2016.88
1003.218	1980.88
1003.436	1924.88
1003.655	2000.88
1003.874	1916.88
1004.092	1946.88
1004.311	1985.88
1004.53	1929.88
1004.748	2004.88
1004.966	1914.88
1005.185	1968.88
1005.403	1977.88
1005.622	1938.88
1005.84	1982.88
1006.058	1879.88
1006.276	1907.88
1006.494	2359.88
1006.712	1916.88
1006.931	1980.88
1007.149	1884.88
1007.367	1872.88
1007.584	1921.88
1007.802	1942.88
1008.02	1910.88
1008.238	1969.88
1008.456	1941.88
1008.673	1881.88
1008.891	1961.88
1009.109	1895.88
1009.326	1974.88
1009.544	2035.88
1009.761	1957.88
1009.979	2035.88
1010.196	2060.88
1010.413	2166.88
1010.631	2201.88
1010.848	2225.88
1011.065	2247.88
1011.282	2187.88
1011.5	2118.88
1011.717	2230.88
1011.934	2133.88
1012.151	2184.88
1012.368	2161.88
1012.585	2129.88
1012.801	2119.88
1013.018	2149.88
1013.235	2081.88
1013.452	2124.88
1013.669	2141.88
1013.885	2101.88
1014.102	2144.88
1014.318	2095.88
1014.535	2069.88
1014.751	2083.88
1014.968	2088.88
1015.184	2100.88
1015.401	1998.88
1015.617	2043.88
1015.833	1983.88
1016.049	1988.88
1016.266	1944.88
1016.482	1954.88
1016.698	1880.88
1016.914	1903.88
1017.13	1864.88
1017.346	1870.88
1017.562	1910.88
1017.778	1881.88
1017.993	1847.88
1018.209	1857.88
1018.425	1845.88
1018.641	1828.88
1018.856	1792.88
1019.072	1796.88
1019.288	1871.88
1019.503	1821.88
1019.719	1721.88
1019.934	1741.88
1020.149	1803.88
1020.365	1729.88
1020.58	1668.88
1020.795	1725.88
1021.011	1655.88
1021.226	1627.88
1021.441	1662.88
1021.656	1561.88
1021.871	1500.88
1022.086	1509.88
1022.301	1499.88
1022.516	1475.88
1022.731	1499.88
1022.946	1426.88
1023.16	1423.88
1023.375	1373.88
1023.59	1358.88
1023.804	1313.88
1024.019	1368.88
1024.234	1269.88
1024.448	1304.88
1024.663	1232.88
1024.877	1226.88
1025.092	1256.88
1025.306	1230.88
1025.52	1151.88
1025.734	1207.88
1025.949	1125.88
1026.163	1094.88
1026.377	1029.88
1026.591	1105.88
1026.805	1010.88
1027.019	997.88
1027.233	966.88
1027.447	916.88
1027.661	1007.88
1027.875	930.88
1028.088	947.88
1028.302	877.88
1028.516	854.88
1028.73	842.88
1028.943	824.88
1029.157	767.88
1029.37	758.88
1029.584	-1.12
1029.797	-4.12
1030.011	-2.12
1030.224	-1.12
