Data from QEP037381__155__15-49-19-885.txt Node

Date: Fri Dec 16 15:49:19 EST 2022
User: dcclab
Spectrometer: QEP03738
Trigger mode: 4
Integration Time (sec): 1.000000E1
Scans to average: 1
Electric dark correction enabled: true
Nonlinearity correction enabled: false
Boxcar width: 0
XAxis mode: Wavelengths
Number of Pixels in Spectrum: 1044
>>>>>Begin Spectral Data<<<<<
784.041	10.62
784.3	2.62
784.558	0.62
784.817	-3.38
785.075	110399.62
785.334	19666.62
785.592	9309.62
785.851	6480.62
786.109	4916.62
786.368	3865.62
786.626	3049.62
786.884	2543.62
787.143	2135.62
787.401	1752.62
787.659	1577.62
787.917	1344.62
788.175	1226.62
788.433	1074.62
788.691	971.62
788.949	908.62
789.207	863.62
789.465	750.62
789.723	736.62
789.98	672.62
790.238	688.62
790.496	647.62
790.753	618.62
791.011	660.62
791.268	606.62
791.526	571.62
791.783	599.62
792.041	577.62
792.298	487.62
792.556	544.62
792.813	540.62
793.07	514.62
793.327	511.62
793.584	573.62
793.841	512.62
794.099	526.62
794.356	597.62
794.613	485.62
794.869	524.62
795.126	490.62
795.383	461.62
795.64	484.62
795.897	439.62
796.153	496.62
796.41	491.62
796.667	472.62
796.923	479.62
797.18	492.62
797.436	499.62
797.693	479.62
797.949	540.62
798.206	565.62
798.462	482.62
798.718	525.62
798.974	517.62
799.231	561.62
799.487	565.62
799.743	581.62
799.999	610.62
800.255	605.62
800.511	617.62
800.767	667.62
801.023	664.62
801.279	722.62
801.534	774.62
801.79	852.62
802.046	917.62
802.302	1144.62
802.557	1341.62
802.813	1706.62
803.068	2183.62
803.324	3104.62
803.579	4326.62
803.835	6118.62
804.09	8469.62
804.345	11281.62
804.601	14316.62
804.856	17461.62
805.111	20192.62
805.366	22385.62
805.621	23995.62
805.876	25174.62
806.131	25778.62
806.386	26418.62
806.641	26800.62
806.896	27290.62
807.151	27846.62
807.406	28258.62
807.661	28741.62
807.915	29304.62
808.17	29801.62
808.425	30149.62
808.679	30373.62
808.934	30686.62
809.188	31087.62
809.443	31402.62
809.697	31701.62
809.951	32048.62
810.206	32200.62
810.46	32673.62
810.714	32837.62
810.968	33210.62
811.223	33380.62
811.477	33721.62
811.731	33889.62
811.985	34132.62
812.239	34282.62
812.493	34494.62
812.747	34662.62
813	34720.62
813.254	34926.62
813.508	34936.62
813.762	35186.62
814.015	35499.62
814.269	35710.62
814.522	35926.62
814.776	36408.62
815.03	36880.62
815.283	37447.62
815.536	38092.62
815.79	38562.62
816.043	39138.62
816.296	39593.62
816.55	40068.62
816.803	40581.62
817.056	41124.62
817.309	41504.62
817.562	41774.62
817.815	42331.62
818.068	42610.62
818.321	43053.62
818.574	43507.62
818.827	44086.62
819.079	44624.62
819.332	45182.62
819.585	45915.62
819.838	46375.62
820.09	46689.62
820.343	47073.62
820.595	47240.62
820.848	47770.62
821.1	47887.62
821.353	47981.62
821.605	47882.62
821.857	48097.62
822.11	47574.62
822.362	47612.62
822.614	47455.62
822.866	47488.62
823.118	47502.62
823.37	47660.62
823.622	47738.62
823.874	47748.62
824.126	47868.62
824.378	48073.62
824.63	48184.62
824.882	48326.62
825.134	48305.62
825.385	48284.62
825.637	48188.62
825.888	48086.62
826.14	48091.62
826.392	47716.62
826.643	47506.62
826.895	47475.62
827.146	47333.62
827.397	47122.62
827.649	47001.62
827.9	47172.62
828.151	47210.62
828.402	47291.62
828.653	47389.62
828.905	47640.62
829.156	47595.62
829.407	47452.62
829.658	47458.62
829.909	47444.62
830.159	47318.62
830.41	47083.62
830.661	46903.62
830.912	46548.62
831.162	46477.62
831.413	46396.62
831.664	46344.62
831.914	46184.62
832.165	46150.62
832.415	46287.62
832.666	46171.62
832.916	46272.62
833.167	45987.62
833.417	46092.62
833.667	46014.62
833.917	45839.62
834.168	45758.62
834.418	45745.62
834.668	45486.62
834.918	45206.62
835.168	44972.62
835.418	44831.62
835.668	44711.62
835.918	44602.62
836.167	44549.62
836.417	44383.62
836.667	44318.62
836.917	44290.62
837.166	44294.62
837.416	44276.62
837.666	44207.62
837.915	44108.62
838.165	43992.62
838.414	43869.62
838.663	43714.62
838.913	43903.62
839.162	43735.62
839.411	43651.62
839.661	43434.62
839.91	43255.62
840.159	43045.62
840.408	42998.62
840.657	42837.62
840.906	42974.62
841.155	43029.62
841.404	42919.62
841.653	42977.62
841.902	42866.62
842.15	43094.62
842.399	43175.62
842.648	42810.62
842.897	42878.62
843.145	42610.62
843.394	42400.62
843.642	41977.62
843.891	41930.62
844.139	41714.62
844.388	41263.62
844.636	41349.62
844.884	41379.62
845.133	41278.62
845.381	40990.62
845.629	41033.62
845.877	41149.62
846.125	41060.62
846.373	40897.62
846.621	40817.62
846.869	40600.62
847.117	40291.62
847.365	40188.62
847.613	39929.62
847.861	39801.62
848.108	39747.62
848.356	39626.62
848.604	39483.62
848.851	39487.62
849.099	39603.62
849.346	39484.62
849.594	39796.62
849.841	39937.62
850.089	39971.62
850.336	39959.62
850.583	39888.62
850.831	39647.62
851.078	39404.62
851.325	39472.62
851.572	39260.62
851.819	38801.62
852.066	38378.62
852.313	37997.62
852.56	37625.62
852.807	37475.62
853.054	37313.62
853.301	37187.62
853.548	37387.62
853.794	37520.62
854.041	37442.62
854.288	37619.62
854.534	37947.62
854.781	37792.62
855.028	37786.62
855.274	37619.62
855.52	37263.62
855.767	37137.62
856.013	37104.62
856.26	37312.62
856.506	36620.62
856.752	36716.62
856.998	36801.62
857.244	36883.62
857.49	36953.62
857.736	36856.62
857.982	37034.62
858.228	36896.62
858.474	36746.62
858.72	36428.62
858.966	36188.62
859.212	35827.62
859.458	35356.62
859.703	35166.62
859.949	34848.62
860.195	34525.62
860.44	34386.62
860.686	34053.62
860.931	34182.62
861.177	33794.62
861.422	33866.62
861.667	33652.62
861.913	33795.62
862.158	33864.62
862.403	33935.62
862.648	33969.62
862.893	33980.62
863.138	33943.62
863.384	33887.62
863.629	33774.62
863.873	33839.62
864.118	33638.62
864.363	33453.62
864.608	33368.62
864.853	33279.62
865.098	33053.62
865.342	32871.62
865.587	32828.62
865.832	32625.62
866.076	32506.62
866.321	32539.62
866.565	32435.62
866.81	32298.62
867.054	32166.62
867.298	32021.62
867.543	31954.62
867.787	31967.62
868.031	31760.62
868.275	31653.62
868.519	31622.62
868.764	31532.62
869.008	31527.62
869.252	31309.62
869.496	31206.62
869.739	31054.62
869.983	31018.62
870.227	30953.62
870.471	30861.62
870.715	30960.62
870.958	30992.62
871.202	31041.62
871.446	31168.62
871.689	31067.62
871.933	31114.62
872.176	31049.62
872.42	30921.62
872.663	30836.62
872.906	30863.62
873.15	30645.62
873.393	30370.62
873.636	30272.62
873.879	30012.62
874.122	29692.62
874.366	29431.62
874.609	29274.62
874.852	29041.62
875.095	28923.62
875.337	28858.62
875.58	28640.62
875.823	28694.62
876.066	28526.62
876.309	28396.62
876.551	28289.62
876.794	28184.62
877.037	28090.62
877.279	27979.62
877.522	27979.62
877.764	28035.62
878.007	27846.62
878.249	27879.62
878.491	27720.62
878.734	27781.62
878.976	27772.62
879.218	27623.62
879.46	27376.62
879.702	27364.62
879.945	27116.62
880.187	26831.62
880.429	26764.62
880.671	26488.62
880.912	26488.62
881.154	26391.62
881.396	26162.62
881.638	26188.62
881.88	26294.62
882.121	26282.62
882.363	26043.62
882.605	25992.62
882.846	25929.62
883.088	25812.62
883.329	25726.62
883.571	25708.62
883.812	25745.62
884.053	25787.62
884.295	26126.62
884.536	26228.62
884.777	26124.62
885.018	25917.62
885.259	25871.62
885.5	25717.62
885.742	25926.62
885.982	25760.62
886.223	25657.62
886.464	25546.62
886.705	25315.62
886.946	25195.62
887.187	24883.62
887.428	24770.62
887.668	24429.62
887.909	24148.62
888.15	24005.62
888.39	23826.62
888.631	23768.62
888.871	23442.62
889.111	23398.62
889.352	23211.62
889.592	23015.62
889.833	22789.62
890.073	22640.62
890.313	22621.62
890.553	22435.62
890.793	22258.62
891.033	22241.62
891.273	22107.62
891.513	22039.62
891.753	21970.62
891.993	21942.62
892.233	21860.62
892.473	21975.62
892.713	21968.62
892.952	21897.62
893.192	22054.62
893.432	21829.62
893.671	21841.62
893.911	21688.62
894.15	21591.62
894.39	21486.62
894.629	21387.62
894.869	21164.62
895.108	21051.62
895.347	20889.62
895.587	20920.62
895.826	20797.62
896.065	20671.62
896.304	20664.62
896.543	20682.62
896.782	20560.62
897.021	20575.62
897.26	20354.62
897.499	20369.62
897.738	20386.62
897.977	20109.62
898.216	19982.62
898.454	19905.62
898.693	19681.62
898.932	19625.62
899.17	19461.62
899.409	19498.62
899.647	19400.62
899.886	19240.62
900.124	19382.62
900.363	19308.62
900.601	19307.62
900.839	19391.62
901.078	19135.62
901.316	19356.62
901.554	19435.62
901.792	19348.62
902.03	19230.62
902.268	19277.62
902.506	19258.62
902.744	19128.62
902.982	19032.62
903.22	18866.62
903.458	18632.62
903.695	18447.62
903.933	18191.62
904.171	17898.62
904.409	17779.62
904.646	17598.62
904.884	17342.62
905.121	17189.62
905.359	16921.62
905.596	16748.62
905.833	16573.62
906.071	16518.62
906.308	16643.62
906.545	16495.62
906.783	16382.62
907.02	16333.62
907.257	16299.62
907.494	16342.62
907.731	16189.62
907.968	16236.62
908.205	16127.62
908.442	16055.62
908.679	15848.62
908.915	15731.62
909.152	15695.62
909.389	15477.62
909.626	15338.62
909.862	15267.62
910.099	15187.62
910.335	15194.62
910.572	15043.62
910.808	15055.62
911.045	14948.62
911.281	14909.62
911.518	14887.62
911.754	14718.62
911.99	14632.62
912.226	14620.62
912.463	14461.62
912.699	14374.62
912.935	14180.62
913.171	14097.62
913.407	14032.62
913.643	13923.62
913.879	13824.62
914.114	13722.62
914.35	13517.62
914.586	13425.62
914.822	13318.62
915.057	13345.62
915.293	13049.62
915.529	12895.62
915.764	13039.62
916	12928.62
916.235	12919.62
916.471	12995.62
916.706	12696.62
916.941	12834.62
917.177	12806.62
917.412	12870.62
917.647	12869.62
917.882	12672.62
918.117	12738.62
918.352	12645.62
918.588	12635.62
918.823	12488.62
919.057	12393.62
919.292	12163.62
919.527	12151.62
919.762	11948.62
919.997	11948.62
920.232	11750.62
920.466	11660.62
920.701	11427.62
920.935	11452.62
921.17	11378.62
921.405	11260.62
921.639	11347.62
921.873	11215.62
922.108	11175.62
922.342	11162.62
922.576	11123.62
922.811	10988.62
923.045	10995.62
923.279	10980.62
923.513	10797.62
923.747	10896.62
923.981	10760.62
924.215	10706.62
924.449	10615.62
924.683	10499.62
924.917	10496.62
925.151	10401.62
925.385	10431.62
925.618	10413.62
925.852	10308.62
926.086	10295.62
926.319	10230.62
926.553	10264.62
926.786	10249.62
927.02	10212.62
927.253	10183.62
927.486	10211.62
927.72	10083.62
927.953	10192.62
928.186	10051.62
928.42	10074.62
928.653	10023.62
928.886	9948.62
929.119	9911.62
929.352	9914.62
929.585	9747.62
929.818	9705.62
930.051	9695.62
930.284	9614.62
930.516	9414.62
930.749	9404.62
930.982	9423.62
931.215	9334.62
931.447	9209.62
931.68	9221.62
931.912	9205.62
932.145	9157.62
932.377	9148.62
932.61	9215.62
932.842	9103.62
933.074	9124.62
933.307	9076.62
933.539	9183.62
933.771	9103.62
934.003	9045.62
934.236	9104.62
934.468	9074.62
934.7	9022.62
934.932	8997.62
935.164	8981.62
935.395	8976.62
935.627	8893.62
935.859	8880.62
936.091	8783.62
936.323	8859.62
936.554	8855.62
936.786	8705.62
937.017	8630.62
937.249	8689.62
937.481	8536.62
937.712	8610.62
937.943	8505.62
938.175	8571.62
938.406	8516.62
938.637	8535.62
938.869	8499.62
939.1	8471.62
939.331	8496.62
939.562	8426.62
939.793	8370.62
940.024	8456.62
940.255	8312.62
940.486	8250.62
940.717	8237.62
940.948	8139.62
941.179	8107.62
941.409	8089.62
941.64	8111.62
941.871	8108.62
942.102	8054.62
942.332	8107.62
942.563	8123.62
942.793	8112.62
943.024	8029.62
943.254	8047.62
943.484	8143.62
943.715	8076.62
943.945	8011.62
944.175	8005.62
944.405	7936.62
944.636	7943.62
944.866	7929.62
945.096	7877.62
945.326	7866.62
945.556	7882.62
945.786	7836.62
946.016	7760.62
946.245	7749.62
946.475	7629.62
946.705	7624.62
946.935	7552.62
947.164	7560.62
947.394	7385.62
947.624	7428.62
947.853	7474.62
948.083	7413.62
948.312	7322.62
948.542	7297.62
948.771	7212.62
949	7242.62
949.23	7249.62
949.459	7263.62
949.688	7285.62
949.917	7215.62
950.146	7224.62
950.375	7271.62
950.604	7145.62
950.833	7163.62
951.062	7192.62
951.291	7116.62
951.52	7023.62
951.749	7066.62
951.978	6985.62
952.206	7034.62
952.435	6971.62
952.664	6948.62
952.892	6966.62
953.121	6947.62
953.349	6882.62
953.578	6861.62
953.806	6801.62
954.035	6772.62
954.263	6691.62
954.491	6680.62
954.719	6715.62
954.948	6639.62
955.176	6586.62
955.404	6530.62
955.632	6484.62
955.86	6508.62
956.088	6490.62
956.316	6508.62
956.544	6478.62
956.772	6404.62
956.999	6326.62
957.227	6412.62
957.455	6249.62
957.683	6255.62
957.91	6171.62
958.138	6124.62
958.365	6125.62
958.593	6088.62
958.82	6031.62
959.048	6091.62
959.275	6017.62
959.502	6018.62
959.73	5956.62
959.957	6018.62
960.184	6009.62
960.411	5938.62
960.638	6017.62
960.865	5925.62
961.092	5959.62
961.319	5853.62
961.546	5925.62
961.773	5935.62
962	5877.62
962.227	5910.62
962.454	5878.62
962.68	5840.62
962.907	5848.62
963.134	5726.62
963.36	5691.62
963.587	5641.62
963.813	5600.62
964.04	5601.62
964.266	5530.62
964.493	5618.62
964.719	5519.62
964.945	5513.62
965.171	5407.62
965.398	5419.62
965.624	5403.62
965.85	5306.62
966.076	5319.62
966.302	5362.62
966.528	5227.62
966.754	5307.62
966.98	5257.62
967.206	5220.62
967.431	5109.62
967.657	5232.62
967.883	5195.62
968.109	5149.62
968.334	5093.62
968.56	5058.62
968.785	5063.62
969.011	5042.62
969.236	5070.62
969.462	5032.62
969.687	5028.62
969.912	5075.62
970.138	5041.62
970.363	4950.62
970.588	4924.62
970.813	4957.62
971.038	4900.62
971.263	4916.62
971.488	4864.62
971.713	4922.62
971.938	4851.62
972.163	4778.62
972.388	4787.62
972.613	4719.62
972.838	4701.62
973.062	4713.62
973.287	4690.62
973.512	4602.62
973.736	4619.62
973.961	4630.62
974.185	4590.62
974.41	4548.62
974.634	4411.62
974.858	4434.62
975.083	4471.62
975.307	4476.62
975.531	4299.62
975.755	4325.62
975.98	4340.62
976.204	4242.62
976.428	4246.62
976.652	4200.62
976.876	4183.62
977.1	4188.62
977.324	4168.62
977.547	4212.62
977.771	4247.62
977.995	4151.62
978.219	4066.62
978.442	4215.62
978.666	4131.62
978.89	4114.62
979.113	4089.62
979.337	4123.62
979.56	4004.62
979.783	4097.62
980.007	4017.62
980.23	4024.62
980.453	3993.62
980.677	3982.62
980.9	3928.62
981.123	3850.62
981.346	3942.62
981.569	3899.62
981.792	3863.62
982.015	3827.62
982.238	3806.62
982.461	3798.62
982.684	3750.62
982.907	3684.62
983.129	3719.62
983.352	3721.62
983.575	3725.62
983.797	3718.62
984.02	3640.62
984.242	3640.62
984.465	3621.62
984.687	3596.62
984.91	3637.62
985.132	3586.62
985.354	3611.62
985.577	3546.62
985.799	3518.62
986.021	3457.62
986.243	3513.62
986.465	3441.62
986.687	3455.62
986.909	3489.62
987.131	3409.62
987.353	3416.62
987.575	3424.62
987.797	3418.62
988.019	3299.62
988.241	3359.62
988.462	3284.62
988.684	3379.62
988.906	3391.62
989.127	3401.62
989.349	3236.62
989.57	3293.62
989.792	3313.62
990.013	3299.62
990.234	3352.62
990.456	3325.62
990.677	3282.62
990.898	3226.62
991.119	3242.62
991.341	3215.62
991.562	3162.62
991.783	3217.62
992.004	3090.62
992.225	3052.62
992.446	3111.62
992.667	3043.62
992.887	3064.62
993.108	2998.62
993.329	3105.62
993.55	3039.62
993.77	2894.62
993.991	2931.62
994.212	2968.62
994.432	2924.62
994.653	2947.62
994.873	2897.62
995.093	2801.62
995.314	2811.62
995.534	2917.62
995.754	2879.62
995.975	2907.62
996.195	2771.62
996.415	2826.62
996.635	2795.62
996.855	2801.62
997.075	2807.62
997.295	2754.62
997.515	2752.62
997.735	2798.62
997.955	2777.62
998.174	2752.62
998.394	2707.62
998.614	2764.62
998.834	2707.62
999.053	2725.62
999.273	2706.62
999.492	2733.62
999.712	2675.62
999.931	2626.62
1000.151	2658.62
1000.37	2650.62
1000.589	2670.62
1000.809	2591.62
1001.028	2680.62
1001.247	2605.62
1001.466	2540.62
1001.685	2653.62
1001.904	2574.62
1002.123	2549.62
1002.342	2548.62
1002.561	2463.62
1002.78	2499.62
1002.999	2552.62
1003.218	2519.62
1003.436	2423.62
1003.655	2485.62
1003.874	2423.62
1004.092	2431.62
1004.311	2451.62
1004.53	2433.62
1004.748	2523.62
1004.966	2401.62
1005.185	2475.62
1005.403	2441.62
1005.622	2395.62
1005.84	2458.62
1006.058	2338.62
1006.276	2399.62
1006.494	2862.62
1006.712	2340.62
1006.931	2458.62
1007.149	2313.62
1007.367	2318.62
1007.584	2356.62
1007.802	2396.62
1008.02	2327.62
1008.238	2429.62
1008.456	2430.62
1008.673	2279.62
1008.891	2404.62
1009.109	2356.62
1009.326	2370.62
1009.544	2454.62
1009.761	2378.62
1009.979	2462.62
1010.196	2430.62
1010.413	2586.62
1010.631	2629.62
1010.848	2667.62
1011.065	2695.62
1011.282	2666.62
1011.5	2572.62
1011.717	2664.62
1011.934	2593.62
1012.151	2627.62
1012.368	2573.62
1012.585	2535.62
1012.801	2591.62
1013.018	2543.62
1013.235	2503.62
1013.452	2529.62
1013.669	2565.62
1013.885	2507.62
1014.102	2548.62
1014.318	2533.62
1014.535	2475.62
1014.751	2502.62
1014.968	2473.62
1015.184	2503.62
1015.401	2383.62
1015.617	2441.62
1015.833	2349.62
1016.049	2378.62
1016.266	2334.62
1016.482	2330.62
1016.698	2237.62
1016.914	2315.62
1017.13	2244.62
1017.346	2221.62
1017.562	2285.62
1017.778	2211.62
1017.993	2171.62
1018.209	2253.62
1018.425	2186.62
1018.641	2148.62
1018.856	2120.62
1019.072	2154.62
1019.288	2207.62
1019.503	2168.62
1019.719	2081.62
1019.934	2069.62
1020.149	2120.62
1020.365	2090.62
1020.58	2010.62
1020.795	2074.62
1021.011	1985.62
1021.226	1925.62
1021.441	1941.62
1021.656	1846.62
1021.871	1795.62
1022.086	1776.62
1022.301	1782.62
1022.516	1758.62
1022.731	1813.62
1022.946	1697.62
1023.16	1671.62
1023.375	1661.62
1023.59	1638.62
1023.804	1590.62
1024.019	1684.62
1024.234	1521.62
1024.448	1555.62
1024.663	1487.62
1024.877	1495.62
1025.092	1504.62
1025.306	1450.62
1025.52	1376.62
1025.734	1447.62
1025.949	1359.62
1026.163	1326.62
1026.377	1257.62
1026.591	1273.62
1026.805	1207.62
1027.019	1210.62
1027.233	1169.62
1027.447	1114.62
1027.661	1199.62
1027.875	1149.62
1028.088	1110.62
1028.302	1035.62
1028.516	1005.62
1028.73	1017.62
1028.943	1004.62
1029.157	934.62
1029.37	878.62
1029.584	-6.38
1029.797	-1.38
1030.011	-1.38
1030.224	-1.38
