Data from QEP037381__218__15-59-49-893.txt Node

Date: Fri Dec 16 15:59:49 EST 2022
User: dcclab
Spectrometer: QEP03738
Trigger mode: 4
Integration Time (sec): 1.000000E1
Scans to average: 1
Electric dark correction enabled: true
Nonlinearity correction enabled: false
Boxcar width: 0
XAxis mode: Wavelengths
Number of Pixels in Spectrum: 1044
>>>>>Begin Spectral Data<<<<<
784.041	12.38
784.3	0.38
784.558	-3.62
784.817	-3.62
785.075	114452.38
785.334	19796.38
785.592	9280.38
785.851	6433.38
786.109	4847.38
786.368	3776.38
786.626	2976.38
786.884	2452.38
787.143	2077.38
787.401	1722.38
787.659	1523.38
787.917	1290.38
788.175	1190.38
788.433	1041.38
788.691	936.38
788.949	866.38
789.207	812.38
789.465	704.38
789.723	688.38
789.98	636.38
790.238	679.38
790.496	638.38
790.753	595.38
791.011	632.38
791.268	580.38
791.526	559.38
791.783	572.38
792.041	551.38
792.298	480.38
792.556	529.38
792.813	500.38
793.07	479.38
793.327	460.38
793.584	546.38
793.841	481.38
794.099	486.38
794.356	534.38
794.613	430.38
794.869	478.38
795.126	439.38
795.383	422.38
795.64	433.38
795.897	400.38
796.153	453.38
796.41	440.38
796.667	433.38
796.923	448.38
797.18	438.38
797.436	459.38
797.693	433.38
797.949	486.38
798.206	494.38
798.462	427.38
798.718	480.38
798.974	464.38
799.231	495.38
799.487	491.38
799.743	496.38
799.999	533.38
800.255	529.38
800.511	525.38
800.767	560.38
801.023	547.38
801.279	586.38
801.534	619.38
801.79	684.38
802.046	703.38
802.302	848.38
802.557	960.38
802.813	1170.38
803.068	1475.38
803.324	2066.38
803.579	2804.38
803.835	3881.38
804.09	5293.38
804.345	6955.38
804.601	8724.38
804.856	10588.38
805.111	12320.38
805.366	13706.38
805.621	14633.38
805.876	15301.38
806.131	15775.38
806.386	15962.38
806.641	16290.38
806.896	16526.38
807.151	16895.38
807.406	17080.38
807.661	17439.38
807.915	17778.38
808.17	18007.38
808.425	18196.38
808.679	18298.38
808.934	18537.38
809.188	18588.38
809.443	18893.38
809.697	19044.38
809.951	19236.38
810.206	19263.38
810.46	19532.38
810.714	19773.38
810.968	19837.38
811.223	19924.38
811.477	20099.38
811.731	20340.38
811.985	20379.38
812.239	20464.38
812.493	20517.38
812.747	20698.38
813	20682.38
813.254	20844.38
813.508	20955.38
813.762	20946.38
814.015	21028.38
814.269	21258.38
814.522	21353.38
814.776	21606.38
815.03	21851.38
815.283	22155.38
815.536	22489.38
815.79	22834.38
816.043	23057.38
816.296	23479.38
816.55	23711.38
816.803	23949.38
817.056	24193.38
817.309	24426.38
817.562	24638.38
817.815	24846.38
818.068	25068.38
818.321	25222.38
818.574	25516.38
818.827	25889.38
819.079	26174.38
819.332	26578.38
819.585	26983.38
819.838	27149.38
820.09	27432.38
820.343	27584.38
820.595	27638.38
820.848	27882.38
821.1	27966.38
821.353	27896.38
821.605	27963.38
821.857	27934.38
822.11	27795.38
822.362	27796.38
822.614	27620.38
822.866	27654.38
823.118	27616.38
823.37	27800.38
823.622	27824.38
823.874	27923.38
824.126	27959.38
824.378	27899.38
824.63	28167.38
824.882	28096.38
825.134	28109.38
825.385	28107.38
825.637	28019.38
825.888	27916.38
826.14	27782.38
826.392	27726.38
826.643	27493.38
826.895	27454.38
827.146	27437.38
827.397	27274.38
827.649	27324.38
827.9	27127.38
828.151	27271.38
828.402	27306.38
828.653	27496.38
828.905	27448.38
829.156	27473.38
829.407	27316.38
829.658	27448.38
829.909	27608.38
830.159	27465.38
830.41	27259.38
830.661	27257.38
830.912	26935.38
831.162	26918.38
831.413	26739.38
831.664	26831.38
831.914	26861.38
832.165	26651.38
832.415	26788.38
832.666	26775.38
832.916	26858.38
833.167	26703.38
833.417	26727.38
833.667	26531.38
833.917	26582.38
834.168	26541.38
834.418	26394.38
834.668	26293.38
834.918	26109.38
835.168	26045.38
835.418	25883.38
835.668	25849.38
835.918	25797.38
836.167	25749.38
836.417	25600.38
836.667	25733.38
836.917	25492.38
837.166	25580.38
837.416	25634.38
837.666	25548.38
837.915	25502.38
838.165	25311.38
838.414	25316.38
838.663	25220.38
838.913	25143.38
839.162	25147.38
839.411	25280.38
839.661	24925.38
839.91	24972.38
840.159	24927.38
840.408	24966.38
840.657	24933.38
840.906	24908.38
841.155	24874.38
841.404	24833.38
841.653	24836.38
841.902	24859.38
842.15	24798.38
842.399	24882.38
842.648	24744.38
842.897	24748.38
843.145	24456.38
843.394	24455.38
843.642	24329.38
843.891	24243.38
844.139	24091.38
844.388	23762.38
844.636	23864.38
844.884	23838.38
845.133	23663.38
845.381	23645.38
845.629	23697.38
845.877	23561.38
846.125	23677.38
846.373	23581.38
846.621	23480.38
846.869	23526.38
847.117	23291.38
847.365	23070.38
847.613	23110.38
847.861	23012.38
848.108	23003.38
848.356	22851.38
848.604	22823.38
848.851	22751.38
849.099	22801.38
849.346	22921.38
849.594	23009.38
849.841	22965.38
850.089	22968.38
850.336	23052.38
850.583	22943.38
850.831	22879.38
851.078	22718.38
851.325	22759.38
851.572	22749.38
851.819	22568.38
852.066	22162.38
852.313	21796.38
852.56	21702.38
852.807	21555.38
853.054	21638.38
853.301	21498.38
853.548	21534.38
853.794	21628.38
854.041	21595.38
854.288	21737.38
854.534	21925.38
854.781	21946.38
855.028	21726.38
855.274	21854.38
855.52	21673.38
855.767	21486.38
856.013	21454.38
856.26	21764.38
856.506	21327.38
856.752	21275.38
856.998	21278.38
857.244	21265.38
857.49	21491.38
857.736	21482.38
857.982	21472.38
858.228	21431.38
858.474	21196.38
858.72	20956.38
858.966	20865.38
859.212	20710.38
859.458	20445.38
859.703	20260.38
859.949	20047.38
860.195	19975.38
860.44	19899.38
860.686	19789.38
860.931	19747.38
861.177	19607.38
861.422	19574.38
861.667	19411.38
861.913	19458.38
862.158	19470.38
862.403	19494.38
862.648	19567.38
862.893	19538.38
863.138	19442.38
863.384	19359.38
863.629	19466.38
863.873	19364.38
864.118	19384.38
864.363	19266.38
864.608	19245.38
864.853	19047.38
865.098	18982.38
865.342	18883.38
865.587	18791.38
865.832	18876.38
866.076	18757.38
866.321	18577.38
866.565	18614.38
866.81	18576.38
867.054	18461.38
867.298	18401.38
867.543	18341.38
867.787	18395.38
868.031	18302.38
868.275	18297.38
868.519	18214.38
868.764	18223.38
869.008	18115.38
869.252	17985.38
869.496	18004.38
869.739	17970.38
869.983	18043.38
870.227	17991.38
870.471	17852.38
870.715	18126.38
870.958	18032.38
871.202	17985.38
871.446	18082.38
871.689	18060.38
871.933	18078.38
872.176	18053.38
872.42	17965.38
872.663	17846.38
872.906	17968.38
873.15	17792.38
873.393	17733.38
873.636	17803.38
873.879	17541.38
874.122	17374.38
874.366	17068.38
874.609	17090.38
874.852	16853.38
875.095	16814.38
875.337	16745.38
875.58	16654.38
875.823	16677.38
876.066	16640.38
876.309	16521.38
876.551	16381.38
876.794	16286.38
877.037	16290.38
877.279	16135.38
877.522	16284.38
877.764	16223.38
878.007	16064.38
878.249	16108.38
878.491	16120.38
878.734	16046.38
878.976	16068.38
879.218	15884.38
879.46	15883.38
879.702	15758.38
879.945	15613.38
880.187	15460.38
880.429	15462.38
880.671	15306.38
880.912	15215.38
881.154	15220.38
881.396	15109.38
881.638	15016.38
881.88	15109.38
882.121	15087.38
882.363	15002.38
882.605	15182.38
882.846	14961.38
883.088	14967.38
883.329	14971.38
883.571	14956.38
883.812	15101.38
884.053	15186.38
884.295	15503.38
884.536	15736.38
884.777	15557.38
885.018	15517.38
885.259	15340.38
885.5	15273.38
885.742	15415.38
885.982	15252.38
886.223	15096.38
886.464	14950.38
886.705	14812.38
886.946	14723.38
887.187	14421.38
887.428	14420.38
887.668	14099.38
887.909	13933.38
888.15	13771.38
888.39	13767.38
888.631	13718.38
888.871	13464.38
889.111	13475.38
889.352	13380.38
889.592	13199.38
889.833	13240.38
890.073	13089.38
890.313	13056.38
890.553	12863.38
890.793	12800.38
891.033	12785.38
891.273	12711.38
891.513	12707.38
891.753	12737.38
891.993	12621.38
892.233	12599.38
892.473	12709.38
892.713	12679.38
892.952	12561.38
893.192	12686.38
893.432	12608.38
893.671	12601.38
893.911	12455.38
894.15	12435.38
894.39	12361.38
894.629	12289.38
894.869	12263.38
895.108	12207.38
895.347	12105.38
895.587	11980.38
895.826	11992.38
896.065	11968.38
896.304	12055.38
896.543	12063.38
896.782	11899.38
897.021	11945.38
897.26	11860.38
897.499	11918.38
897.738	11853.38
897.977	11742.38
898.216	11608.38
898.454	11540.38
898.693	11422.38
898.932	11461.38
899.17	11396.38
899.409	11345.38
899.647	11366.38
899.886	11268.38
900.124	11290.38
900.363	11282.38
900.601	11334.38
900.839	11372.38
901.078	11348.38
901.316	11447.38
901.554	11428.38
901.792	11496.38
902.03	11440.38
902.268	11402.38
902.506	11433.38
902.744	11374.38
902.982	11235.38
903.22	11100.38
903.458	10912.38
903.695	10812.38
903.933	10667.38
904.171	10433.38
904.409	10333.38
904.646	10197.38
904.884	10125.38
905.121	10016.38
905.359	9857.38
905.596	9780.38
905.833	9675.38
906.071	9684.38
906.308	9617.38
906.545	9555.38
906.783	9510.38
907.02	9527.38
907.257	9456.38
907.494	9486.38
907.731	9419.38
907.968	9431.38
908.205	9318.38
908.442	9217.38
908.679	9214.38
908.915	9171.38
909.152	9058.38
909.389	8876.38
909.626	9055.38
909.862	8845.38
910.099	8826.38
910.335	8808.38
910.572	8678.38
910.808	8762.38
911.045	8716.38
911.281	8623.38
911.518	8685.38
911.754	8540.38
911.99	8536.38
912.226	8483.38
912.463	8365.38
912.699	8317.38
912.935	8295.38
913.171	8165.38
913.407	8099.38
913.643	8089.38
913.879	8071.38
914.114	7897.38
914.35	7819.38
914.586	7767.38
914.822	7740.38
915.057	7763.38
915.293	7580.38
915.529	7521.38
915.764	7643.38
916	7588.38
916.235	7479.38
916.471	7587.38
916.706	7392.38
916.941	7521.38
917.177	7458.38
917.412	7437.38
917.647	7459.38
917.882	7384.38
918.117	7448.38
918.352	7410.38
918.588	7427.38
918.823	7318.38
919.057	7179.38
919.292	7099.38
919.527	7122.38
919.762	6980.38
919.997	6998.38
920.232	6800.38
920.466	6884.38
920.701	6692.38
920.935	6666.38
921.17	6611.38
921.405	6641.38
921.639	6681.38
921.873	6599.38
922.108	6571.38
922.342	6559.38
922.576	6449.38
922.811	6475.38
923.045	6484.38
923.279	6479.38
923.513	6374.38
923.747	6383.38
923.981	6344.38
924.215	6242.38
924.449	6216.38
924.683	6143.38
924.917	6123.38
925.151	6114.38
925.385	6185.38
925.618	6086.38
925.852	6103.38
926.086	6035.38
926.319	6037.38
926.553	6035.38
926.786	6054.38
927.02	6038.38
927.253	6035.38
927.486	5966.38
927.72	5949.38
927.953	5968.38
928.186	5947.38
928.42	5966.38
928.653	5845.38
928.886	5805.38
929.119	5875.38
929.352	5818.38
929.585	5770.38
929.818	5736.38
930.051	5706.38
930.284	5698.38
930.516	5548.38
930.749	5544.38
930.982	5574.38
931.215	5500.38
931.447	5413.38
931.68	5491.38
931.912	5468.38
932.145	5370.38
932.377	5381.38
932.61	5546.38
932.842	5368.38
933.074	5439.38
933.307	5340.38
933.539	5405.38
933.771	5405.38
934.003	5360.38
934.236	5401.38
934.468	5420.38
934.7	5360.38
934.932	5358.38
935.164	5311.38
935.395	5294.38
935.627	5285.38
935.859	5290.38
936.091	5237.38
936.323	5283.38
936.554	5259.38
936.786	5163.38
937.017	5104.38
937.249	5153.38
937.481	5058.38
937.712	5138.38
937.943	5021.38
938.175	5049.38
938.406	5101.38
938.637	5073.38
938.869	5051.38
939.1	5050.38
939.331	5050.38
939.562	5019.38
939.793	5038.38
940.024	5036.38
940.255	4953.38
940.486	4880.38
940.717	4893.38
940.948	4892.38
941.179	4788.38
941.409	4870.38
941.64	4807.38
941.871	4794.38
942.102	4800.38
942.332	4798.38
942.563	4837.38
942.793	4835.38
943.024	4776.38
943.254	4800.38
943.484	4832.38
943.715	4809.38
943.945	4848.38
944.175	4731.38
944.405	4700.38
944.636	4677.38
944.866	4751.38
945.096	4734.38
945.326	4657.38
945.556	4691.38
945.786	4743.38
946.016	4615.38
946.245	4541.38
946.475	4521.38
946.705	4565.38
946.935	4523.38
947.164	4497.38
947.394	4454.38
947.624	4430.38
947.853	4496.38
948.083	4423.38
948.312	4400.38
948.542	4308.38
948.771	4289.38
949	4354.38
949.23	4285.38
949.459	4369.38
949.688	4371.38
949.917	4311.38
950.146	4336.38
950.375	4344.38
950.604	4248.38
950.833	4294.38
951.062	4337.38
951.291	4241.38
951.52	4210.38
951.749	4200.38
951.978	4196.38
952.206	4176.38
952.435	4191.38
952.664	4221.38
952.892	4192.38
953.121	4165.38
953.349	4168.38
953.578	4136.38
953.806	4104.38
954.035	4006.38
954.263	4020.38
954.491	4000.38
954.719	4028.38
954.948	3970.38
955.176	3979.38
955.404	3935.38
955.632	3932.38
955.86	3936.38
956.088	3948.38
956.316	3911.38
956.544	3976.38
956.772	3849.38
956.999	3777.38
957.227	3895.38
957.455	3786.38
957.683	3777.38
957.91	3718.38
958.138	3702.38
958.365	3719.38
958.593	3688.38
958.82	3613.38
959.048	3697.38
959.275	3690.38
959.502	3615.38
959.73	3568.38
959.957	3577.38
960.184	3664.38
960.411	3593.38
960.638	3634.38
960.865	3596.38
961.092	3640.38
961.319	3492.38
961.546	3646.38
961.773	3587.38
962	3534.38
962.227	3578.38
962.454	3554.38
962.68	3504.38
962.907	3536.38
963.134	3462.38
963.36	3477.38
963.587	3501.38
963.813	3421.38
964.04	3457.38
964.266	3371.38
964.493	3421.38
964.719	3395.38
964.945	3382.38
965.171	3280.38
965.398	3345.38
965.624	3367.38
965.85	3242.38
966.076	3260.38
966.302	3270.38
966.528	3254.38
966.754	3233.38
966.98	3260.38
967.206	3224.38
967.431	3130.38
967.657	3217.38
967.883	3211.38
968.109	3158.38
968.334	3080.38
968.56	3097.38
968.785	3133.38
969.011	3095.38
969.236	3151.38
969.462	3089.38
969.687	3081.38
969.912	3130.38
970.138	3140.38
970.363	3039.38
970.588	3060.38
970.813	3039.38
971.038	3019.38
971.263	3023.38
971.488	3006.38
971.713	3030.38
971.938	3033.38
972.163	2941.38
972.388	2936.38
972.613	2940.38
972.838	2934.38
973.062	2873.38
973.287	2896.38
973.512	2792.38
973.736	2893.38
973.961	2831.38
974.185	2817.38
974.41	2842.38
974.634	2758.38
974.858	2756.38
975.083	2775.38
975.307	2799.38
975.531	2736.38
975.755	2646.38
975.98	2674.38
976.204	2630.38
976.428	2623.38
976.652	2610.38
976.876	2625.38
977.1	2615.38
977.324	2574.38
977.547	2607.38
977.771	2628.38
977.995	2583.38
978.219	2524.38
978.442	2618.38
978.666	2551.38
978.89	2587.38
979.113	2565.38
979.337	2547.38
979.56	2534.38
979.783	2578.38
980.007	2478.38
980.23	2497.38
980.453	2471.38
980.677	2515.38
980.9	2483.38
981.123	2376.38
981.346	2488.38
981.569	2434.38
981.792	2473.38
982.015	2449.38
982.238	2369.38
982.461	2398.38
982.684	2337.38
982.907	2347.38
983.129	2349.38
983.352	2364.38
983.575	2333.38
983.797	2324.38
984.02	2297.38
984.242	2274.38
984.465	2267.38
984.687	2349.38
984.91	2333.38
985.132	2294.38
985.354	2277.38
985.577	2268.38
985.799	2263.38
986.021	2189.38
986.243	2188.38
986.465	2216.38
986.687	2254.38
986.909	2274.38
987.131	2213.38
987.353	2183.38
987.575	2213.38
987.797	2171.38
988.019	2111.38
988.241	2175.38
988.462	2093.38
988.684	2197.38
988.906	2211.38
989.127	2240.38
989.349	2115.38
989.57	2126.38
989.792	2155.38
990.013	2176.38
990.234	2168.38
990.456	2200.38
990.677	2153.38
990.898	2093.38
991.119	2109.38
991.341	2099.38
991.562	2024.38
991.783	2083.38
992.004	2032.38
992.225	1989.38
992.446	2039.38
992.667	1932.38
992.887	1993.38
993.108	1920.38
993.329	2061.38
993.55	1974.38
993.77	1888.38
993.991	1918.38
994.212	1971.38
994.432	1934.38
994.653	1961.38
994.873	1907.38
995.093	1811.38
995.314	1877.38
995.534	1957.38
995.754	1899.38
995.975	1974.38
996.195	1852.38
996.415	1920.38
996.635	1891.38
996.855	1894.38
997.075	1846.38
997.295	1861.38
997.515	1837.38
997.735	1900.38
997.955	1852.38
998.174	1836.38
998.394	1844.38
998.614	1847.38
998.834	1824.38
999.053	1881.38
999.273	1802.38
999.492	1889.38
999.712	1814.38
999.931	1769.38
1000.151	1817.38
1000.37	1790.38
1000.589	1849.38
1000.809	1761.38
1001.028	1883.38
1001.247	1801.38
1001.466	1704.38
1001.685	1852.38
1001.904	1779.38
1002.123	1766.38
1002.342	1753.38
1002.561	1722.38
1002.78	1732.38
1002.999	1804.38
1003.218	1738.38
1003.436	1699.38
1003.655	1751.38
1003.874	1674.38
1004.092	1710.38
1004.311	1737.38
1004.53	1723.38
1004.748	1769.38
1004.966	1693.38
1005.185	1768.38
1005.403	1727.38
1005.622	1685.38
1005.84	1758.38
1006.058	1685.38
1006.276	1702.38
1006.494	2213.38
1006.712	1676.38
1006.931	1765.38
1007.149	1642.38
1007.367	1659.38
1007.584	1728.38
1007.802	1709.38
1008.02	1664.38
1008.238	1789.38
1008.456	1767.38
1008.673	1631.38
1008.891	1759.38
1009.109	1721.38
1009.326	1764.38
1009.544	1877.38
1009.761	1739.38
1009.979	1846.38
1010.196	1852.38
1010.413	1981.38
1010.631	2013.38
1010.848	2069.38
1011.065	2087.38
1011.282	2032.38
1011.5	1973.38
1011.717	2080.38
1011.934	2020.38
1012.151	2027.38
1012.368	2004.38
1012.585	1941.38
1012.801	2014.38
1013.018	1962.38
1013.235	1926.38
1013.452	1949.38
1013.669	1984.38
1013.885	1940.38
1014.102	1989.38
1014.318	1975.38
1014.535	1932.38
1014.751	1949.38
1014.968	1952.38
1015.184	1966.38
1015.401	1874.38
1015.617	1906.38
1015.833	1847.38
1016.049	1852.38
1016.266	1810.38
1016.482	1831.38
1016.698	1746.38
1016.914	1800.38
1017.13	1762.38
1017.346	1735.38
1017.562	1785.38
1017.778	1720.38
1017.993	1675.38
1018.209	1748.38
1018.425	1718.38
1018.641	1679.38
1018.856	1668.38
1019.072	1694.38
1019.288	1720.38
1019.503	1702.38
1019.719	1601.38
1019.934	1619.38
1020.149	1705.38
1020.365	1641.38
1020.58	1569.38
1020.795	1601.38
1021.011	1554.38
1021.226	1506.38
1021.441	1526.38
1021.656	1457.38
1021.871	1388.38
1022.086	1394.38
1022.301	1366.38
1022.516	1359.38
1022.731	1379.38
1022.946	1322.38
1023.16	1302.38
1023.375	1254.38
1023.59	1227.38
1023.804	1196.38
1024.019	1323.38
1024.234	1161.38
1024.448	1193.38
1024.663	1135.38
1024.877	1127.38
1025.092	1155.38
1025.306	1157.38
1025.52	1027.38
1025.734	1130.38
1025.949	1058.38
1026.163	1028.38
1026.377	964.38
1026.591	1012.38
1026.805	915.38
1027.019	952.38
1027.233	882.38
1027.447	853.38
1027.661	933.38
1027.875	879.38
1028.088	874.38
1028.302	802.38
1028.516	780.38
1028.73	789.38
1028.943	764.38
1029.157	727.38
1029.37	669.38
1029.584	0.38
1029.797	-0.62
1030.011	-2.62
1030.224	-2.62
