Data from QEP037381__226__16-01-09-894.txt Node

Date: Fri Dec 16 16:01:09 EST 2022
User: dcclab
Spectrometer: QEP03738
Trigger mode: 4
Integration Time (sec): 1.000000E1
Scans to average: 1
Electric dark correction enabled: true
Nonlinearity correction enabled: false
Boxcar width: 0
XAxis mode: Wavelengths
Number of Pixels in Spectrum: 1044
>>>>>Begin Spectral Data<<<<<
784.041	14.75
784.3	-0.25
784.558	-6.25
784.817	-2.25
785.075	116468.75
785.334	20409.75
785.592	9570.75
785.851	6598.75
786.109	4960.75
786.368	3876.75
786.626	3122.75
786.884	2578.75
787.143	2206.75
787.401	1779.75
787.659	1591.75
787.917	1342.75
788.175	1236.75
788.433	1086.75
788.691	972.75
788.949	893.75
789.207	848.75
789.465	729.75
789.723	676.75
789.98	641.75
790.238	659.75
790.496	625.75
790.753	589.75
791.011	664.75
791.268	565.75
791.526	553.75
791.783	562.75
792.041	553.75
792.298	467.75
792.556	522.75
792.813	508.75
793.07	490.75
793.327	468.75
793.584	551.75
793.841	461.75
794.099	467.75
794.356	549.75
794.613	446.75
794.869	487.75
795.126	449.75
795.383	435.75
795.64	451.75
795.897	389.75
796.153	447.75
796.41	437.75
796.667	429.75
796.923	436.75
797.18	430.75
797.436	464.75
797.693	420.75
797.949	476.75
798.206	499.75
798.462	431.75
798.718	480.75
798.974	451.75
799.231	497.75
799.487	479.75
799.743	489.75
799.999	523.75
800.255	513.75
800.511	522.75
800.767	545.75
801.023	540.75
801.279	564.75
801.534	615.75
801.79	660.75
802.046	693.75
802.302	829.75
802.557	939.75
802.813	1193.75
803.068	1451.75
803.324	2027.75
803.579	2687.75
803.835	3779.75
804.09	5206.75
804.345	6732.75
804.601	8483.75
804.856	10270.75
805.111	11919.75
805.366	13061.75
805.621	13983.75
805.876	14712.75
806.131	15084.75
806.386	15359.75
806.641	15622.75
806.896	15901.75
807.151	16210.75
807.406	16448.75
807.661	16679.75
807.915	17026.75
808.17	17290.75
808.425	17434.75
808.679	17538.75
808.934	17761.75
809.188	17798.75
809.443	17997.75
809.697	18282.75
809.951	18335.75
810.206	18508.75
810.46	18737.75
810.714	18883.75
810.968	19031.75
811.223	19202.75
811.477	19284.75
811.731	19499.75
811.985	19509.75
812.239	19663.75
812.493	19780.75
812.747	19755.75
813	19833.75
813.254	19837.75
813.508	20000.75
813.762	20083.75
814.015	20144.75
814.269	20274.75
814.522	20424.75
814.776	20681.75
815.03	20874.75
815.283	21188.75
815.536	21523.75
815.79	21832.75
816.043	22095.75
816.296	22349.75
816.55	22591.75
816.803	22868.75
817.056	23222.75
817.309	23469.75
817.562	23537.75
817.815	23774.75
818.068	24019.75
818.321	24129.75
818.574	24387.75
818.827	24774.75
819.079	25055.75
819.332	25397.75
819.585	25700.75
819.838	25988.75
820.09	26165.75
820.343	26320.75
820.595	26302.75
820.848	26500.75
821.1	26829.75
821.353	26612.75
821.605	26574.75
821.857	26696.75
822.11	26545.75
822.362	26550.75
822.614	26412.75
822.866	26510.75
823.118	26398.75
823.37	26565.75
823.622	26599.75
823.874	26629.75
824.126	26797.75
824.378	26649.75
824.63	26860.75
824.882	26810.75
825.134	26996.75
825.385	26917.75
825.637	26759.75
825.888	26755.75
826.14	26715.75
826.392	26512.75
826.643	26263.75
826.895	26328.75
827.146	26130.75
827.397	26094.75
827.649	26130.75
827.9	26025.75
828.151	26086.75
828.402	26214.75
828.653	26191.75
828.905	26197.75
829.156	26408.75
829.407	26217.75
829.658	26265.75
829.909	26270.75
830.159	26305.75
830.41	26232.75
830.661	25992.75
830.912	25864.75
831.162	25766.75
831.413	25739.75
831.664	25759.75
831.914	25677.75
832.165	25602.75
832.415	25689.75
832.666	25538.75
832.916	25661.75
833.167	25585.75
833.417	25552.75
833.667	25430.75
833.917	25471.75
834.168	25375.75
834.418	25362.75
834.668	25150.75
834.918	25041.75
835.168	24871.75
835.418	24817.75
835.668	24742.75
835.918	24647.75
836.167	24476.75
836.417	24482.75
836.667	24607.75
836.917	24528.75
837.166	24526.75
837.416	24573.75
837.666	24474.75
837.915	24310.75
838.165	24447.75
838.414	24278.75
838.663	24266.75
838.913	24275.75
839.162	23983.75
839.411	24178.75
839.661	23992.75
839.91	23941.75
840.159	23854.75
840.408	23851.75
840.657	23834.75
840.906	23946.75
841.155	23916.75
841.404	23785.75
841.653	23805.75
841.902	23886.75
842.15	23804.75
842.399	23840.75
842.648	23861.75
842.897	23863.75
843.145	23621.75
843.394	23544.75
843.642	23325.75
843.891	23298.75
844.139	23108.75
844.388	22946.75
844.636	22816.75
844.884	22848.75
845.133	22838.75
845.381	22712.75
845.629	22856.75
845.877	22799.75
846.125	22670.75
846.373	22696.75
846.621	22428.75
846.869	22499.75
847.117	22320.75
847.365	22131.75
847.613	22210.75
847.861	21989.75
848.108	22097.75
848.356	22043.75
848.604	22035.75
848.851	22053.75
849.099	21967.75
849.346	21977.75
849.594	22087.75
849.841	22134.75
850.089	22118.75
850.336	22139.75
850.583	22035.75
850.831	22014.75
851.078	21889.75
851.325	21885.75
851.572	21943.75
851.819	21718.75
852.066	21273.75
852.313	20974.75
852.56	20879.75
852.807	20823.75
853.054	20676.75
853.301	20696.75
853.548	20703.75
853.794	20909.75
854.041	20983.75
854.288	21021.75
854.534	21210.75
854.781	21103.75
855.028	21046.75
855.274	21018.75
855.52	20865.75
855.767	20740.75
856.013	20713.75
856.26	21112.75
856.506	20644.75
856.752	20491.75
856.998	20632.75
857.244	20456.75
857.49	20683.75
857.736	20700.75
857.982	20697.75
858.228	20592.75
858.474	20397.75
858.72	20333.75
858.966	20091.75
859.212	20004.75
859.458	19748.75
859.703	19621.75
859.949	19355.75
860.195	19291.75
860.44	19108.75
860.686	18963.75
860.931	18996.75
861.177	18875.75
861.422	18903.75
861.667	18752.75
861.913	18741.75
862.158	18779.75
862.403	18879.75
862.648	18938.75
862.893	18796.75
863.138	18834.75
863.384	18773.75
863.629	18725.75
863.873	18786.75
864.118	18671.75
864.363	18605.75
864.608	18606.75
864.853	18485.75
865.098	18311.75
865.342	18252.75
865.587	18191.75
865.832	18239.75
866.076	18097.75
866.321	18044.75
866.565	17939.75
866.81	17729.75
867.054	17891.75
867.298	17728.75
867.543	17683.75
867.787	17679.75
868.031	17711.75
868.275	17636.75
868.519	17588.75
868.764	17555.75
869.008	17511.75
869.252	17485.75
869.496	17393.75
869.739	17396.75
869.983	17389.75
870.227	17359.75
870.471	17344.75
870.715	17351.75
870.958	17487.75
871.202	17470.75
871.446	17465.75
871.689	17394.75
871.933	17484.75
872.176	17446.75
872.42	17391.75
872.663	17471.75
872.906	17442.75
873.15	17233.75
873.393	17271.75
873.636	17221.75
873.879	17052.75
874.122	16823.75
874.366	16686.75
874.609	16538.75
874.852	16427.75
875.095	16308.75
875.337	16148.75
875.58	16102.75
875.823	16093.75
876.066	16040.75
876.309	15998.75
876.551	15840.75
876.794	15807.75
877.037	15793.75
877.279	15618.75
877.522	15667.75
877.764	15766.75
878.007	15713.75
878.249	15678.75
878.491	15648.75
878.734	15617.75
878.976	15619.75
879.218	15362.75
879.46	15358.75
879.702	15198.75
879.945	15073.75
880.187	14945.75
880.429	14848.75
880.671	14811.75
880.912	14826.75
881.154	14682.75
881.396	14609.75
881.638	14659.75
881.88	14793.75
882.121	14587.75
882.363	14629.75
882.605	14603.75
882.846	14605.75
883.088	14507.75
883.329	14508.75
883.571	14501.75
883.812	14623.75
884.053	14905.75
884.295	15161.75
884.536	15330.75
884.777	15147.75
885.018	15160.75
885.259	15105.75
885.5	14973.75
885.742	15055.75
885.982	14864.75
886.223	14767.75
886.464	14613.75
886.705	14479.75
886.946	14273.75
887.187	14103.75
887.428	13949.75
887.668	13755.75
887.909	13499.75
888.15	13445.75
888.39	13384.75
888.631	13299.75
888.871	13099.75
889.111	13043.75
889.352	12920.75
889.592	12812.75
889.833	12757.75
890.073	12713.75
890.313	12621.75
890.553	12482.75
890.793	12425.75
891.033	12388.75
891.273	12367.75
891.513	12326.75
891.753	12284.75
891.993	12214.75
892.233	12212.75
892.473	12408.75
892.713	12251.75
892.952	12213.75
893.192	12229.75
893.432	12224.75
893.671	12236.75
893.911	12257.75
894.15	12136.75
894.39	11937.75
894.629	11870.75
894.869	11906.75
895.108	11879.75
895.347	11814.75
895.587	11712.75
895.826	11621.75
896.065	11628.75
896.304	11715.75
896.543	11670.75
896.782	11534.75
897.021	11520.75
897.26	11502.75
897.499	11491.75
897.738	11470.75
897.977	11328.75
898.216	11297.75
898.454	11250.75
898.693	11087.75
898.932	11121.75
899.17	11023.75
899.409	10999.75
899.647	11006.75
899.886	10944.75
900.124	11029.75
900.363	10925.75
900.601	11005.75
900.839	11050.75
901.078	10982.75
901.316	11018.75
901.554	11007.75
901.792	11086.75
902.03	11047.75
902.268	11179.75
902.506	11089.75
902.744	11042.75
902.982	10989.75
903.22	10818.75
903.458	10698.75
903.695	10483.75
903.933	10404.75
904.171	10159.75
904.409	9988.75
904.646	9917.75
904.884	9759.75
905.121	9676.75
905.359	9641.75
905.596	9509.75
905.833	9427.75
906.071	9383.75
906.308	9334.75
906.545	9334.75
906.783	9276.75
907.02	9195.75
907.257	9193.75
907.494	9237.75
907.731	9211.75
907.968	9151.75
908.205	9054.75
908.442	9012.75
908.679	8940.75
908.915	8894.75
909.152	8850.75
909.389	8750.75
909.626	8743.75
909.862	8636.75
910.099	8646.75
910.335	8602.75
910.572	8495.75
910.808	8509.75
911.045	8484.75
911.281	8405.75
911.518	8362.75
911.754	8368.75
911.99	8356.75
912.226	8255.75
912.463	8183.75
912.699	8077.75
912.935	8085.75
913.171	8006.75
913.407	7866.75
913.643	7933.75
913.879	7821.75
914.114	7762.75
914.35	7612.75
914.586	7557.75
914.822	7529.75
915.057	7575.75
915.293	7382.75
915.529	7350.75
915.764	7389.75
916	7415.75
916.235	7292.75
916.471	7385.75
916.706	7248.75
916.941	7271.75
917.177	7245.75
917.412	7261.75
917.647	7307.75
917.882	7188.75
918.117	7253.75
918.352	7219.75
918.588	7196.75
918.823	7021.75
919.057	7017.75
919.292	6881.75
919.527	6949.75
919.762	6776.75
919.997	6824.75
920.232	6659.75
920.466	6706.75
920.701	6503.75
920.935	6550.75
921.17	6472.75
921.405	6413.75
921.639	6475.75
921.873	6385.75
922.108	6369.75
922.342	6391.75
922.576	6342.75
922.811	6265.75
923.045	6317.75
923.279	6335.75
923.513	6161.75
923.747	6237.75
923.981	6135.75
924.215	6137.75
924.449	6094.75
924.683	5992.75
924.917	6013.75
925.151	6002.75
925.385	6010.75
925.618	5909.75
925.852	5962.75
926.086	5865.75
926.319	5942.75
926.553	5863.75
926.786	5906.75
927.02	5858.75
927.253	5898.75
927.486	5898.75
927.72	5857.75
927.953	5814.75
928.186	5815.75
928.42	5782.75
928.653	5717.75
928.886	5668.75
929.119	5702.75
929.352	5684.75
929.585	5598.75
929.818	5582.75
930.051	5510.75
930.284	5535.75
930.516	5404.75
930.749	5398.75
930.982	5411.75
931.215	5435.75
931.447	5337.75
931.68	5308.75
931.912	5245.75
932.145	5308.75
932.377	5274.75
932.61	5400.75
932.842	5226.75
933.074	5274.75
933.307	5201.75
933.539	5325.75
933.771	5301.75
934.003	5202.75
934.236	5290.75
934.468	5289.75
934.7	5175.75
934.932	5258.75
935.164	5168.75
935.395	5133.75
935.627	5185.75
935.859	5150.75
936.091	5075.75
936.323	5102.75
936.554	5099.75
936.786	5096.75
937.017	4989.75
937.249	4991.75
937.481	4898.75
937.712	4971.75
937.943	4982.75
938.175	4915.75
938.406	4883.75
938.637	4969.75
938.869	4869.75
939.1	4941.75
939.331	4878.75
939.562	4898.75
939.793	4938.75
940.024	4854.75
940.255	4886.75
940.486	4796.75
940.717	4768.75
940.948	4748.75
941.179	4714.75
941.409	4699.75
941.64	4701.75
941.871	4698.75
942.102	4689.75
942.332	4667.75
942.563	4715.75
942.793	4687.75
943.024	4641.75
943.254	4629.75
943.484	4693.75
943.715	4705.75
943.945	4708.75
944.175	4590.75
944.405	4587.75
944.636	4602.75
944.866	4638.75
945.096	4619.75
945.326	4560.75
945.556	4587.75
945.786	4616.75
946.016	4546.75
946.245	4448.75
946.475	4457.75
946.705	4434.75
946.935	4421.75
947.164	4391.75
947.394	4291.75
947.624	4306.75
947.853	4325.75
948.083	4284.75
948.312	4318.75
948.542	4190.75
948.771	4209.75
949	4189.75
949.23	4195.75
949.459	4237.75
949.688	4287.75
949.917	4191.75
950.146	4207.75
950.375	4226.75
950.604	4119.75
950.833	4215.75
951.062	4193.75
951.291	4159.75
951.52	4094.75
951.749	4135.75
951.978	4109.75
952.206	4083.75
952.435	4041.75
952.664	4108.75
952.892	4078.75
953.121	4044.75
953.349	4034.75
953.578	4030.75
953.806	4011.75
954.035	3919.75
954.263	3998.75
954.491	3899.75
954.719	3981.75
954.948	3889.75
955.176	3849.75
955.404	3800.75
955.632	3854.75
955.86	3847.75
956.088	3817.75
956.316	3854.75
956.544	3830.75
956.772	3750.75
956.999	3717.75
957.227	3770.75
957.455	3692.75
957.683	3669.75
957.91	3632.75
958.138	3588.75
958.365	3615.75
958.593	3604.75
958.82	3503.75
959.048	3556.75
959.275	3585.75
959.502	3569.75
959.73	3505.75
959.957	3573.75
960.184	3546.75
960.411	3502.75
960.638	3600.75
960.865	3502.75
961.092	3586.75
961.319	3414.75
961.546	3531.75
961.773	3495.75
962	3473.75
962.227	3526.75
962.454	3465.75
962.68	3445.75
962.907	3451.75
963.134	3378.75
963.36	3422.75
963.587	3396.75
963.813	3301.75
964.04	3336.75
964.266	3286.75
964.493	3379.75
964.719	3323.75
964.945	3331.75
965.171	3225.75
965.398	3264.75
965.624	3266.75
965.85	3167.75
966.076	3192.75
966.302	3185.75
966.528	3138.75
966.754	3187.75
966.98	3138.75
967.206	3180.75
967.431	3054.75
967.657	3198.75
967.883	3136.75
968.109	3113.75
968.334	3049.75
968.56	3033.75
968.785	3075.75
969.011	2990.75
969.236	3053.75
969.462	3010.75
969.687	2972.75
969.912	3044.75
970.138	3101.75
970.363	2945.75
970.588	2993.75
970.813	2965.75
971.038	2932.75
971.263	2981.75
971.488	2927.75
971.713	2971.75
971.938	2999.75
972.163	2861.75
972.388	2867.75
972.613	2823.75
972.838	2881.75
973.062	2826.75
973.287	2825.75
973.512	2793.75
973.736	2790.75
973.961	2786.75
974.185	2764.75
974.41	2764.75
974.634	2694.75
974.858	2701.75
975.083	2719.75
975.307	2735.75
975.531	2681.75
975.755	2611.75
975.98	2639.75
976.204	2564.75
976.428	2586.75
976.652	2587.75
976.876	2536.75
977.1	2575.75
977.324	2549.75
977.547	2556.75
977.771	2569.75
977.995	2539.75
978.219	2477.75
978.442	2568.75
978.666	2513.75
978.89	2525.75
979.113	2487.75
979.337	2500.75
979.56	2482.75
979.783	2530.75
980.007	2416.75
980.23	2459.75
980.453	2419.75
980.677	2462.75
980.9	2429.75
981.123	2335.75
981.346	2421.75
981.569	2403.75
981.792	2412.75
982.015	2383.75
982.238	2352.75
982.461	2342.75
982.684	2321.75
982.907	2292.75
983.129	2274.75
983.352	2313.75
983.575	2305.75
983.797	2295.75
984.02	2216.75
984.242	2256.75
984.465	2257.75
984.687	2274.75
984.91	2268.75
985.132	2253.75
985.354	2255.75
985.577	2221.75
985.799	2206.75
986.021	2127.75
986.243	2168.75
986.465	2145.75
986.687	2244.75
986.909	2263.75
987.131	2174.75
987.353	2151.75
987.575	2188.75
987.797	2127.75
988.019	2069.75
988.241	2110.75
988.462	2092.75
988.684	2163.75
988.906	2176.75
989.127	2198.75
989.349	2061.75
989.57	2077.75
989.792	2109.75
990.013	2124.75
990.234	2123.75
990.456	2155.75
990.677	2126.75
990.898	2069.75
991.119	2037.75
991.341	2071.75
991.562	1963.75
991.783	2029.75
992.004	1999.75
992.225	1959.75
992.446	2002.75
992.667	1927.75
992.887	1986.75
993.108	1896.75
993.329	1992.75
993.55	1938.75
993.77	1877.75
993.991	1879.75
994.212	1948.75
994.432	1880.75
994.653	1938.75
994.873	1904.75
995.093	1816.75
995.314	1839.75
995.534	1908.75
995.754	1919.75
995.975	1944.75
996.195	1800.75
996.415	1867.75
996.635	1843.75
996.855	1851.75
997.075	1812.75
997.295	1825.75
997.515	1801.75
997.735	1846.75
997.955	1827.75
998.174	1797.75
998.394	1777.75
998.614	1819.75
998.834	1778.75
999.053	1866.75
999.273	1807.75
999.492	1889.75
999.712	1798.75
999.931	1740.75
1000.151	1784.75
1000.37	1773.75
1000.589	1829.75
1000.809	1715.75
1001.028	1866.75
1001.247	1782.75
1001.466	1658.75
1001.685	1818.75
1001.904	1750.75
1002.123	1759.75
1002.342	1753.75
1002.561	1703.75
1002.78	1701.75
1002.999	1751.75
1003.218	1715.75
1003.436	1671.75
1003.655	1759.75
1003.874	1651.75
1004.092	1700.75
1004.311	1734.75
1004.53	1669.75
1004.748	1764.75
1004.966	1657.75
1005.185	1724.75
1005.403	1696.75
1005.622	1683.75
1005.84	1765.75
1006.058	1660.75
1006.276	1664.75
1006.494	2167.75
1006.712	1682.75
1006.931	1753.75
1007.149	1625.75
1007.367	1675.75
1007.584	1697.75
1007.802	1685.75
1008.02	1668.75
1008.238	1784.75
1008.456	1766.75
1008.673	1619.75
1008.891	1745.75
1009.109	1710.75
1009.326	1762.75
1009.544	1865.75
1009.761	1738.75
1009.979	1847.75
1010.196	1884.75
1010.413	2000.75
1010.631	2045.75
1010.848	2114.75
1011.065	2102.75
1011.282	2041.75
1011.5	1993.75
1011.717	2070.75
1011.934	2044.75
1012.151	2024.75
1012.368	1998.75
1012.585	1968.75
1012.801	2016.75
1013.018	2018.75
1013.235	1930.75
1013.452	1975.75
1013.669	2008.75
1013.885	1965.75
1014.102	2039.75
1014.318	2004.75
1014.535	1950.75
1014.751	1985.75
1014.968	1997.75
1015.184	1977.75
1015.401	1899.75
1015.617	1928.75
1015.833	1872.75
1016.049	1878.75
1016.266	1811.75
1016.482	1871.75
1016.698	1742.75
1016.914	1798.75
1017.13	1775.75
1017.346	1740.75
1017.562	1799.75
1017.778	1728.75
1017.993	1714.75
1018.209	1769.75
1018.425	1691.75
1018.641	1683.75
1018.856	1675.75
1019.072	1709.75
1019.288	1747.75
1019.503	1678.75
1019.719	1615.75
1019.934	1639.75
1020.149	1686.75
1020.365	1628.75
1020.58	1556.75
1020.795	1617.75
1021.011	1545.75
1021.226	1533.75
1021.441	1546.75
1021.656	1404.75
1021.871	1369.75
1022.086	1383.75
1022.301	1355.75
1022.516	1360.75
1022.731	1392.75
1022.946	1295.75
1023.16	1299.75
1023.375	1253.75
1023.59	1242.75
1023.804	1208.75
1024.019	1275.75
1024.234	1136.75
1024.448	1170.75
1024.663	1100.75
1024.877	1122.75
1025.092	1118.75
1025.306	1127.75
1025.52	1004.75
1025.734	1120.75
1025.949	1028.75
1026.163	1003.75
1026.377	927.75
1026.591	992.75
1026.805	918.75
1027.019	915.75
1027.233	874.75
1027.447	839.75
1027.661	917.75
1027.875	870.75
1028.088	863.75
1028.302	806.75
1028.516	767.75
1028.73	764.75
1028.943	750.75
1029.157	711.75
1029.37	659.75
1029.584	-5.25
1029.797	1.75
1030.011	-0.25
1030.224	-2.25
