Data from QEP037381__178__15-53-09-887.txt Node

Date: Fri Dec 16 15:53:09 EST 2022
User: dcclab
Spectrometer: QEP03738
Trigger mode: 4
Integration Time (sec): 1.000000E1
Scans to average: 1
Electric dark correction enabled: true
Nonlinearity correction enabled: false
Boxcar width: 0
XAxis mode: Wavelengths
Number of Pixels in Spectrum: 1044
>>>>>Begin Spectral Data<<<<<
784.041	11.88
784.3	1.88
784.558	-3.12
784.817	-3.12
785.075	112528.88
785.334	19819.88
785.592	9390.88
785.851	6447.88
786.109	4926.88
786.368	3777.88
786.626	2992.88
786.884	2489.88
787.143	2065.88
787.401	1736.88
787.659	1541.88
787.917	1293.88
788.175	1221.88
788.433	1056.88
788.691	955.88
788.949	878.88
789.207	805.88
789.465	722.88
789.723	654.88
789.98	639.88
790.238	673.88
790.496	634.88
790.753	600.88
791.011	639.88
791.268	564.88
791.526	545.88
791.783	579.88
792.041	537.88
792.298	472.88
792.556	522.88
792.813	503.88
793.07	481.88
793.327	468.88
793.584	548.88
793.841	481.88
794.099	494.88
794.356	546.88
794.613	448.88
794.869	476.88
795.126	453.88
795.383	434.88
795.64	451.88
795.897	411.88
796.153	447.88
796.41	447.88
796.667	433.88
796.923	448.88
797.18	425.88
797.436	447.88
797.693	432.88
797.949	483.88
798.206	510.88
798.462	428.88
798.718	483.88
798.974	458.88
799.231	501.88
799.487	498.88
799.743	485.88
799.999	525.88
800.255	537.88
800.511	499.88
800.767	562.88
801.023	533.88
801.279	590.88
801.534	631.88
801.79	682.88
802.046	731.88
802.302	855.88
802.557	963.88
802.813	1220.88
803.068	1522.88
803.324	2063.88
803.579	2820.88
803.835	3900.88
804.09	5408.88
804.345	7092.88
804.601	8994.88
804.856	10896.88
805.111	12567.88
805.366	13873.88
805.621	14815.88
805.876	15479.88
806.131	15919.88
806.386	16180.88
806.641	16468.88
806.896	16762.88
807.151	17081.88
807.406	17291.88
807.661	17575.88
807.915	17930.88
808.17	18177.88
808.425	18282.88
808.679	18443.88
808.934	18637.88
809.188	18803.88
809.443	18915.88
809.697	19180.88
809.951	19290.88
810.206	19526.88
810.46	19667.88
810.714	19784.88
810.968	20037.88
811.223	20114.88
811.477	20309.88
811.731	20522.88
811.985	20523.88
812.239	20595.88
812.493	20688.88
812.747	20836.88
813	20879.88
813.254	20932.88
813.508	21046.88
813.762	21085.88
814.015	21129.88
814.269	21421.88
814.522	21431.88
814.776	21737.88
815.03	21978.88
815.283	22235.88
815.536	22641.88
815.79	22965.88
816.043	23325.88
816.296	23463.88
816.55	23787.88
816.803	24010.88
817.056	24338.88
817.309	24538.88
817.562	24760.88
817.815	24984.88
818.068	25172.88
818.321	25387.88
818.574	25667.88
818.827	25993.88
819.079	26259.88
819.332	26717.88
819.585	26953.88
819.838	27265.88
820.09	27413.88
820.343	27665.88
820.595	27638.88
820.848	28057.88
821.1	28090.88
821.353	28077.88
821.605	27990.88
821.857	28073.88
822.11	27844.88
822.362	27738.88
822.614	27739.88
822.866	27842.88
823.118	27680.88
823.37	27901.88
823.622	27897.88
823.874	27893.88
824.126	28056.88
824.378	28124.88
824.63	28087.88
824.882	28188.88
825.134	28156.88
825.385	28099.88
825.637	28020.88
825.888	27960.88
826.14	27886.88
826.392	27699.88
826.643	27492.88
826.895	27503.88
827.146	27344.88
827.397	27271.88
827.649	27345.88
827.9	27253.88
828.151	27232.88
828.402	27365.88
828.653	27468.88
828.905	27558.88
829.156	27627.88
829.407	27470.88
829.658	27505.88
829.909	27651.88
830.159	27673.88
830.41	27407.88
830.661	27237.88
830.912	27072.88
831.162	27022.88
831.413	26862.88
831.664	26822.88
831.914	26717.88
832.165	26684.88
832.415	26822.88
832.666	26753.88
832.916	26713.88
833.167	26736.88
833.417	26747.88
833.667	26457.88
833.917	26584.88
834.168	26463.88
834.418	26405.88
834.668	26280.88
834.918	26103.88
835.168	26021.88
835.418	25869.88
835.668	25858.88
835.918	25882.88
836.167	25742.88
836.417	25587.88
836.667	25639.88
836.917	25628.88
837.166	25580.88
837.416	25513.88
837.666	25570.88
837.915	25522.88
838.165	25442.88
838.414	25240.88
838.663	25222.88
838.913	25255.88
839.162	25177.88
839.411	25092.88
839.661	25030.88
839.91	24987.88
840.159	24895.88
840.408	24884.88
840.657	24877.88
840.906	24842.88
841.155	24899.88
841.404	24800.88
841.653	24840.88
841.902	24775.88
842.15	24996.88
842.399	24927.88
842.648	24790.88
842.897	24758.88
843.145	24472.88
843.394	24304.88
843.642	24345.88
843.891	24220.88
844.139	23968.88
844.388	23798.88
844.636	23850.88
844.884	23716.88
845.133	23698.88
845.381	23725.88
845.629	23744.88
845.877	23664.88
846.125	23566.88
846.373	23476.88
846.621	23484.88
846.869	23377.88
847.117	23303.88
847.365	23092.88
847.613	23059.88
847.861	22853.88
848.108	22892.88
848.356	22823.88
848.604	22617.88
848.851	22809.88
849.099	22807.88
849.346	22802.88
849.594	22909.88
849.841	22976.88
850.089	22908.88
850.336	23011.88
850.583	22974.88
850.831	22762.88
851.078	22742.88
851.325	22693.88
851.572	22720.88
851.819	22592.88
852.066	22152.88
852.313	21973.88
852.56	21622.88
852.807	21553.88
853.054	21584.88
853.301	21478.88
853.548	21481.88
853.794	21627.88
854.041	21713.88
854.288	21795.88
854.534	21957.88
854.781	21909.88
855.028	21708.88
855.274	21790.88
855.52	21601.88
855.767	21548.88
856.013	21586.88
856.26	21847.88
856.506	21342.88
856.752	21245.88
856.998	21265.88
857.244	21338.88
857.49	21425.88
857.736	21467.88
857.982	21475.88
858.228	21278.88
858.474	21091.88
858.72	21064.88
858.966	20846.88
859.212	20589.88
859.458	20396.88
859.703	20240.88
859.949	19998.88
860.195	19899.88
860.44	19731.88
860.686	19670.88
860.931	19680.88
861.177	19615.88
861.422	19498.88
861.667	19471.88
861.913	19418.88
862.158	19504.88
862.403	19414.88
862.648	19447.88
862.893	19565.88
863.138	19496.88
863.384	19375.88
863.629	19324.88
863.873	19324.88
864.118	19273.88
864.363	19182.88
864.608	19209.88
864.853	19118.88
865.098	18929.88
865.342	18861.88
865.587	18770.88
865.832	18586.88
866.076	18752.88
866.321	18705.88
866.565	18579.88
866.81	18505.88
867.054	18430.88
867.298	18376.88
867.543	18193.88
867.787	18258.88
868.031	18196.88
868.275	18113.88
868.519	18137.88
868.764	18161.88
869.008	18120.88
869.252	18000.88
869.496	17977.88
869.739	17964.88
869.983	17993.88
870.227	17841.88
870.471	17898.88
870.715	18005.88
870.958	17985.88
871.202	18070.88
871.446	18085.88
871.689	18131.88
871.933	18025.88
872.176	17970.88
872.42	17936.88
872.663	17861.88
872.906	17949.88
873.15	17774.88
873.393	17789.88
873.636	17801.88
873.879	17625.88
874.122	17382.88
874.366	17129.88
874.609	16990.88
874.852	16871.88
875.095	16759.88
875.337	16636.88
875.58	16576.88
875.823	16592.88
876.066	16514.88
876.309	16458.88
876.551	16215.88
876.794	16178.88
877.037	16248.88
877.279	16103.88
877.522	16221.88
877.764	16208.88
878.007	16040.88
878.249	16014.88
878.491	16009.88
878.734	16023.88
878.976	15998.88
879.218	15844.88
879.46	15753.88
879.702	15695.88
879.945	15521.88
880.187	15352.88
880.429	15281.88
880.671	15196.88
880.912	15138.88
881.154	15059.88
881.396	15057.88
881.638	15132.88
881.88	15036.88
882.121	14992.88
882.363	15050.88
882.605	14971.88
882.846	14960.88
883.088	14990.88
883.329	14938.88
883.571	14835.88
883.812	15054.88
884.053	15290.88
884.295	15559.88
884.536	15724.88
884.777	15610.88
885.018	15468.88
885.259	15402.88
885.5	15265.88
885.742	15492.88
885.982	15318.88
886.223	15068.88
886.464	15053.88
886.705	14793.88
886.946	14714.88
887.187	14416.88
887.428	14254.88
887.668	14136.88
887.909	13982.88
888.15	13831.88
888.39	13754.88
888.631	13633.88
888.871	13479.88
889.111	13387.88
889.352	13275.88
889.592	13153.88
889.833	13103.88
890.073	13028.88
890.313	12938.88
890.553	12812.88
890.793	12770.88
891.033	12691.88
891.273	12698.88
891.513	12613.88
891.753	12615.88
891.993	12507.88
892.233	12607.88
892.473	12636.88
892.713	12596.88
892.952	12547.88
893.192	12576.88
893.432	12469.88
893.671	12494.88
893.911	12448.88
894.15	12432.88
894.39	12261.88
894.629	12231.88
894.869	12214.88
895.108	12002.88
895.347	11931.88
895.587	12063.88
895.826	11936.88
896.065	11880.88
896.304	11933.88
896.543	11852.88
896.782	11805.88
897.021	11864.88
897.26	11767.88
897.499	11841.88
897.738	11790.88
897.977	11559.88
898.216	11514.88
898.454	11525.88
898.693	11377.88
898.932	11349.88
899.17	11315.88
899.409	11271.88
899.647	11193.88
899.886	11207.88
900.124	11253.88
900.363	11095.88
900.601	11191.88
900.839	11210.88
901.078	11255.88
901.316	11294.88
901.554	11321.88
901.792	11418.88
902.03	11371.88
902.268	11313.88
902.506	11378.88
902.744	11233.88
902.982	11248.88
903.22	11005.88
903.458	10853.88
903.695	10728.88
903.933	10627.88
904.171	10451.88
904.409	10213.88
904.646	10133.88
904.884	9975.88
905.121	9864.88
905.359	9808.88
905.596	9781.88
905.833	9607.88
906.071	9585.88
906.308	9524.88
906.545	9514.88
906.783	9388.88
907.02	9436.88
907.257	9446.88
907.494	9402.88
907.731	9333.88
907.968	9321.88
908.205	9238.88
908.442	9186.88
908.679	9233.88
908.915	9112.88
909.152	9078.88
909.389	8889.88
909.626	8894.88
909.862	8803.88
910.099	8702.88
910.335	8800.88
910.572	8636.88
910.808	8647.88
911.045	8585.88
911.281	8572.88
911.518	8597.88
911.754	8496.88
911.99	8431.88
912.226	8339.88
912.463	8315.88
912.699	8285.88
912.935	8181.88
913.171	8099.88
913.407	8063.88
913.643	8054.88
913.879	7958.88
914.114	7901.88
914.35	7781.88
914.586	7722.88
914.822	7604.88
915.057	7669.88
915.293	7532.88
915.529	7482.88
915.764	7554.88
916	7516.88
916.235	7475.88
916.471	7459.88
916.706	7383.88
916.941	7405.88
917.177	7336.88
917.412	7396.88
917.647	7372.88
917.882	7286.88
918.117	7341.88
918.352	7330.88
918.588	7271.88
918.823	7213.88
919.057	7164.88
919.292	7074.88
919.527	7047.88
919.762	6906.88
919.997	6880.88
920.232	6811.88
920.466	6814.88
920.701	6614.88
920.935	6724.88
921.17	6605.88
921.405	6565.88
921.639	6565.88
921.873	6451.88
922.108	6495.88
922.342	6493.88
922.576	6454.88
922.811	6397.88
923.045	6355.88
923.279	6444.88
923.513	6273.88
923.747	6277.88
923.981	6267.88
924.215	6161.88
924.449	6153.88
924.683	6060.88
924.917	6061.88
925.151	6096.88
925.385	6067.88
925.618	6050.88
925.852	5977.88
926.086	5946.88
926.319	6022.88
926.553	6023.88
926.786	6012.88
927.02	5969.88
927.253	5940.88
927.486	5935.88
927.72	5913.88
927.953	5963.88
928.186	5859.88
928.42	5896.88
928.653	5829.88
928.886	5805.88
929.119	5799.88
929.352	5716.88
929.585	5707.88
929.818	5639.88
930.051	5608.88
930.284	5611.88
930.516	5486.88
930.749	5461.88
930.982	5469.88
931.215	5426.88
931.447	5371.88
931.68	5364.88
931.912	5338.88
932.145	5352.88
932.377	5413.88
932.61	5445.88
932.842	5310.88
933.074	5348.88
933.307	5258.88
933.539	5364.88
933.771	5342.88
934.003	5297.88
934.236	5421.88
934.468	5346.88
934.7	5254.88
934.932	5275.88
935.164	5224.88
935.395	5219.88
935.627	5234.88
935.859	5202.88
936.091	5137.88
936.323	5170.88
936.554	5243.88
936.786	5131.88
937.017	5026.88
937.249	5124.88
937.481	4973.88
937.712	5111.88
937.943	4978.88
938.175	4950.88
938.406	5030.88
938.637	5041.88
938.869	4920.88
939.1	4996.88
939.331	4968.88
939.562	4982.88
939.793	4963.88
940.024	4896.88
940.255	4973.88
940.486	4863.88
940.717	4852.88
940.948	4781.88
941.179	4736.88
941.409	4784.88
941.64	4737.88
941.871	4813.88
942.102	4675.88
942.332	4720.88
942.563	4771.88
942.793	4786.88
943.024	4731.88
943.254	4747.88
943.484	4745.88
943.715	4737.88
943.945	4736.88
944.175	4673.88
944.405	4617.88
944.636	4669.88
944.866	4686.88
945.096	4715.88
945.326	4599.88
945.556	4601.88
945.786	4651.88
946.016	4590.88
946.245	4506.88
946.475	4513.88
946.705	4514.88
946.935	4451.88
947.164	4422.88
947.394	4365.88
947.624	4379.88
947.853	4456.88
948.083	4329.88
948.312	4358.88
948.542	4285.88
948.771	4245.88
949	4267.88
949.23	4236.88
949.459	4289.88
949.688	4340.88
949.917	4255.88
950.146	4262.88
950.375	4333.88
950.604	4221.88
950.833	4253.88
951.062	4220.88
951.291	4238.88
951.52	4205.88
951.749	4177.88
951.978	4124.88
952.206	4092.88
952.435	4082.88
952.664	4136.88
952.892	4150.88
953.121	4067.88
953.349	4121.88
953.578	4075.88
953.806	4019.88
954.035	3988.88
954.263	4003.88
954.491	3939.88
954.719	4000.88
954.948	3910.88
955.176	3953.88
955.404	3825.88
955.632	3936.88
955.86	3870.88
956.088	3855.88
956.316	3864.88
956.544	3833.88
956.772	3789.88
956.999	3740.88
957.227	3844.88
957.455	3700.88
957.683	3700.88
957.91	3670.88
958.138	3616.88
958.365	3687.88
958.593	3654.88
958.82	3556.88
959.048	3645.88
959.275	3602.88
959.502	3595.88
959.73	3539.88
959.957	3600.88
960.184	3587.88
960.411	3525.88
960.638	3607.88
960.865	3541.88
961.092	3555.88
961.319	3493.88
961.546	3566.88
961.773	3555.88
962	3475.88
962.227	3541.88
962.454	3508.88
962.68	3488.88
962.907	3460.88
963.134	3400.88
963.36	3394.88
963.587	3465.88
963.813	3384.88
964.04	3367.88
964.266	3295.88
964.493	3423.88
964.719	3340.88
964.945	3346.88
965.171	3227.88
965.398	3262.88
965.624	3283.88
965.85	3209.88
966.076	3183.88
966.302	3226.88
966.528	3179.88
966.754	3229.88
966.98	3212.88
967.206	3166.88
967.431	3090.88
967.657	3201.88
967.883	3123.88
968.109	3129.88
968.334	3070.88
968.56	3092.88
968.785	3117.88
969.011	3056.88
969.236	3119.88
969.462	3004.88
969.687	3050.88
969.912	3061.88
970.138	3073.88
970.363	3006.88
970.588	3051.88
970.813	2982.88
971.038	2958.88
971.263	2980.88
971.488	2977.88
971.713	3004.88
971.938	3003.88
972.163	2902.88
972.388	2875.88
972.613	2867.88
972.838	2907.88
973.062	2878.88
973.287	2827.88
973.512	2776.88
973.736	2804.88
973.961	2822.88
974.185	2770.88
974.41	2827.88
974.634	2701.88
974.858	2710.88
975.083	2761.88
975.307	2737.88
975.531	2672.88
975.755	2592.88
975.98	2626.88
976.204	2569.88
976.428	2599.88
976.652	2559.88
976.876	2560.88
977.1	2597.88
977.324	2561.88
977.547	2577.88
977.771	2580.88
977.995	2542.88
978.219	2493.88
978.442	2578.88
978.666	2527.88
978.89	2541.88
979.113	2538.88
979.337	2502.88
979.56	2461.88
979.783	2579.88
980.007	2416.88
980.23	2477.88
980.453	2441.88
980.677	2445.88
980.9	2429.88
981.123	2352.88
981.346	2444.88
981.569	2435.88
981.792	2450.88
982.015	2386.88
982.238	2334.88
982.461	2377.88
982.684	2330.88
982.907	2278.88
983.129	2288.88
983.352	2340.88
983.575	2322.88
983.797	2323.88
984.02	2234.88
984.242	2224.88
984.465	2260.88
984.687	2273.88
984.91	2298.88
985.132	2259.88
985.354	2308.88
985.577	2248.88
985.799	2231.88
986.021	2129.88
986.243	2133.88
986.465	2198.88
986.687	2195.88
986.909	2252.88
987.131	2205.88
987.353	2130.88
987.575	2132.88
987.797	2158.88
988.019	2088.88
988.241	2120.88
988.462	2066.88
988.684	2138.88
988.906	2134.88
989.127	2155.88
989.349	2063.88
989.57	2090.88
989.792	2116.88
990.013	2102.88
990.234	2112.88
990.456	2163.88
990.677	2086.88
990.898	2072.88
991.119	2041.88
991.341	2066.88
991.562	2021.88
991.783	2043.88
992.004	1977.88
992.225	1934.88
992.446	1998.88
992.667	1909.88
992.887	1999.88
993.108	1922.88
993.329	2008.88
993.55	1977.88
993.77	1903.88
993.991	1923.88
994.212	1955.88
994.432	1883.88
994.653	1950.88
994.873	1932.88
995.093	1786.88
995.314	1850.88
995.534	1932.88
995.754	1910.88
995.975	1947.88
996.195	1809.88
996.415	1872.88
996.635	1828.88
996.855	1850.88
997.075	1843.88
997.295	1820.88
997.515	1806.88
997.735	1870.88
997.955	1828.88
998.174	1806.88
998.394	1757.88
998.614	1869.88
998.834	1808.88
999.053	1850.88
999.273	1801.88
999.492	1860.88
999.712	1784.88
999.931	1756.88
1000.151	1794.88
1000.37	1781.88
1000.589	1812.88
1000.809	1753.88
1001.028	1842.88
1001.247	1787.88
1001.466	1692.88
1001.685	1834.88
1001.904	1761.88
1002.123	1769.88
1002.342	1747.88
1002.561	1693.88
1002.78	1726.88
1002.999	1776.88
1003.218	1742.88
1003.436	1683.88
1003.655	1747.88
1003.874	1682.88
1004.092	1677.88
1004.311	1712.88
1004.53	1676.88
1004.748	1736.88
1004.966	1683.88
1005.185	1720.88
1005.403	1713.88
1005.622	1677.88
1005.84	1749.88
1006.058	1657.88
1006.276	1676.88
1006.494	2196.88
1006.712	1672.88
1006.931	1752.88
1007.149	1648.88
1007.367	1671.88
1007.584	1681.88
1007.802	1730.88
1008.02	1637.88
1008.238	1737.88
1008.456	1777.88
1008.673	1628.88
1008.891	1741.88
1009.109	1699.88
1009.326	1744.88
1009.544	1842.88
1009.761	1752.88
1009.979	1874.88
1010.196	1868.88
1010.413	1980.88
1010.631	2060.88
1010.848	2099.88
1011.065	2108.88
1011.282	2062.88
1011.5	2001.88
1011.717	2057.88
1011.934	2017.88
1012.151	2084.88
1012.368	2016.88
1012.585	1992.88
1012.801	1994.88
1013.018	1995.88
1013.235	2003.88
1013.452	1971.88
1013.669	1975.88
1013.885	1980.88
1014.102	2019.88
1014.318	1955.88
1014.535	1940.88
1014.751	1963.88
1014.968	1968.88
1015.184	1991.88
1015.401	1891.88
1015.617	1917.88
1015.833	1850.88
1016.049	1875.88
1016.266	1839.88
1016.482	1827.88
1016.698	1783.88
1016.914	1809.88
1017.13	1760.88
1017.346	1729.88
1017.562	1798.88
1017.778	1730.88
1017.993	1696.88
1018.209	1741.88
1018.425	1735.88
1018.641	1671.88
1018.856	1672.88
1019.072	1699.88
1019.288	1719.88
1019.503	1707.88
1019.719	1605.88
1019.934	1602.88
1020.149	1715.88
1020.365	1619.88
1020.58	1565.88
1020.795	1605.88
1021.011	1521.88
1021.226	1495.88
1021.441	1524.88
1021.656	1447.88
1021.871	1381.88
1022.086	1375.88
1022.301	1372.88
1022.516	1336.88
1022.731	1407.88
1022.946	1310.88
1023.16	1295.88
1023.375	1282.88
1023.59	1233.88
1023.804	1212.88
1024.019	1271.88
1024.234	1151.88
1024.448	1164.88
1024.663	1116.88
1024.877	1127.88
1025.092	1119.88
1025.306	1149.88
1025.52	1046.88
1025.734	1125.88
1025.949	1047.88
1026.163	1006.88
1026.377	942.88
1026.591	990.88
1026.805	912.88
1027.019	923.88
1027.233	885.88
1027.447	821.88
1027.661	926.88
1027.875	847.88
1028.088	879.88
1028.302	797.88
1028.516	770.88
1028.73	782.88
1028.943	758.88
1029.157	711.88
1029.37	668.88
1029.584	-2.12
1029.797	-3.12
1030.011	-3.12
1030.224	0.88
