Data from QEP037381__220__16-00-09-893.txt Node

Date: Fri Dec 16 16:00:09 EST 2022
User: dcclab
Spectrometer: QEP03738
Trigger mode: 4
Integration Time (sec): 1.000000E1
Scans to average: 1
Electric dark correction enabled: true
Nonlinearity correction enabled: false
Boxcar width: 0
XAxis mode: Wavelengths
Number of Pixels in Spectrum: 1044
>>>>>Begin Spectral Data<<<<<
784.041	12
784.3	4
784.558	-2
784.817	-1
785.075	114955
785.334	19699
785.592	9179
785.851	6281
786.109	4798
786.368	3669
786.626	2965
786.884	2455
787.143	2040
787.401	1677
787.659	1537
787.917	1297
788.175	1200
788.433	1040
788.691	925
788.949	890
789.207	826
789.465	707
789.723	698
789.98	644
790.238	659
790.496	615
790.753	605
791.011	635
791.268	573
791.526	558
791.783	563
792.041	542
792.298	456
792.556	529
792.813	508
793.07	473
793.327	477
793.584	547
793.841	474
794.099	487
794.356	537
794.613	454
794.869	485
795.126	438
795.383	435
795.64	460
795.897	409
796.153	458
796.41	458
796.667	433
796.923	444
797.18	431
797.436	462
797.693	432
797.949	486
798.206	503
798.462	423
798.718	487
798.974	456
799.231	506
799.487	499
799.743	505
799.999	521
800.255	526
800.511	505
800.767	548
801.023	533
801.279	589
801.534	606
801.79	692
802.046	723
802.302	869
802.557	978
802.813	1222
803.068	1525
803.324	2146
803.579	2861
803.835	3997
804.09	5453
804.345	7227
804.601	9102
804.856	11070
805.111	12777
805.366	14056
805.621	15092
805.876	15846
806.131	16228
806.386	16530
806.641	16723
806.896	17093
807.151	17341
807.406	17659
807.661	17926
807.915	18378
808.17	18458
808.425	18694
808.679	18825
808.934	19121
809.188	19213
809.443	19468
809.697	19763
809.951	19801
810.206	19857
810.46	20168
810.714	20279
810.968	20543
811.223	20592
811.477	20727
811.731	20941
811.985	21051
812.239	21138
812.493	21187
812.747	21345
813	21399
813.254	21412
813.508	21645
813.762	21686
814.015	21727
814.269	21815
814.522	21993
814.776	22411
815.03	22624
815.283	22848
815.536	23281
815.79	23579
816.043	23847
816.296	24230
816.55	24335
816.803	24816
817.056	25057
817.309	25166
817.562	25484
817.815	25767
818.068	25841
818.321	26154
818.574	26392
818.827	26695
819.079	26881
819.332	27557
819.585	27770
819.838	28209
820.09	28363
820.343	28586
820.595	28666
820.848	28832
821.1	28927
821.353	28938
821.605	28804
821.857	28921
822.11	28726
822.362	28618
822.614	28592
822.866	28557
823.118	28598
823.37	28844
823.622	28783
823.874	28783
824.126	28937
824.378	29027
824.63	29211
824.882	29113
825.134	29054
825.385	29128
825.637	29089
825.888	28911
826.14	28939
826.392	28686
826.643	28468
826.895	28421
827.146	28285
827.397	28304
827.649	28328
827.9	28290
828.151	28410
828.402	28332
828.653	28426
828.905	28494
829.156	28551
829.407	28525
829.658	28441
829.909	28473
830.159	28520
830.41	28367
830.661	28221
830.912	28005
831.162	27807
831.413	27719
831.664	27958
831.914	27838
832.165	27676
832.415	27741
832.666	27728
832.916	27733
833.167	27619
833.417	27668
833.667	27508
833.917	27527
834.168	27466
834.418	27346
834.668	27247
834.918	27160
835.168	26988
835.418	26835
835.668	26648
835.918	26675
836.167	26674
836.417	26509
836.667	26489
836.917	26417
837.166	26295
837.416	26516
837.666	26394
837.915	26374
838.165	26340
838.414	26140
838.663	26117
838.913	26230
839.162	26134
839.411	26057
839.661	25839
839.91	25852
840.159	25744
840.408	25728
840.657	25757
840.906	25777
841.155	25728
841.404	25700
841.653	25610
841.902	25667
842.15	25820
842.399	25762
842.648	25694
842.897	25637
843.145	25437
843.394	25287
843.642	25182
843.891	25009
844.139	24886
844.388	24810
844.636	24551
844.884	24603
845.133	24514
845.381	24503
845.629	24591
845.877	24468
846.125	24381
846.373	24301
846.621	24265
846.869	24194
847.117	24040
847.365	24021
847.613	23816
847.861	23837
848.108	23694
848.356	23608
848.604	23574
848.851	23580
849.099	23669
849.346	23681
849.594	23677
849.841	23801
850.089	23761
850.336	23752
850.583	23717
850.831	23690
851.078	23520
851.325	23425
851.572	23500
851.819	23259
852.066	22970
852.313	22580
852.56	22417
852.807	22301
853.054	22176
853.301	22193
853.548	22323
853.794	22400
854.041	22440
854.288	22443
854.534	22748
854.781	22534
855.028	22562
855.274	22500
855.52	22284
855.767	22187
856.013	22240
856.26	22630
856.506	22027
856.752	21964
856.998	22059
857.244	22033
857.49	22091
857.736	22164
857.982	22131
858.228	22079
858.474	21882
858.72	21802
858.966	21605
859.212	21459
859.458	21169
859.703	20842
859.949	20683
860.195	20594
860.44	20465
860.686	20427
860.931	20463
861.177	20242
861.422	20195
861.667	20121
861.913	20083
862.158	20179
862.403	20144
862.648	20336
862.893	20286
863.138	20298
863.384	20170
863.629	20178
863.873	20131
864.118	19936
864.363	19867
864.608	19884
864.853	19825
865.098	19665
865.342	19529
865.587	19413
865.832	19503
866.076	19501
866.321	19319
866.565	19302
866.81	19158
867.054	19192
867.298	19137
867.543	18992
867.787	18983
868.031	18879
868.275	18947
868.519	18950
868.764	18818
869.008	18748
869.252	18749
869.496	18608
869.739	18606
869.983	18598
870.227	18525
870.471	18525
870.715	18580
870.958	18678
871.202	18627
871.446	18632
871.689	18586
871.933	18703
872.176	18691
872.42	18657
872.663	18564
872.906	18537
873.15	18431
873.393	18284
873.636	18298
873.879	18054
874.122	17946
874.366	17759
874.609	17600
874.852	17561
875.095	17443
875.337	17314
875.58	17177
875.823	17142
876.066	17135
876.309	17023
876.551	16948
876.794	16876
877.037	16927
877.279	16802
877.522	16777
877.764	16766
878.007	16677
878.249	16722
878.491	16614
878.734	16637
878.976	16620
879.218	16480
879.46	16402
879.702	16293
879.945	16143
880.187	16011
880.429	15937
880.671	15860
880.912	15767
881.154	15701
881.396	15579
881.638	15655
881.88	15576
882.121	15632
882.363	15641
882.605	15708
882.846	15565
883.088	15445
883.329	15489
883.571	15415
883.812	15543
884.053	15770
884.295	15998
884.536	16248
884.777	16005
885.018	15906
885.259	15801
885.5	15755
885.742	15881
885.982	15717
886.223	15528
886.464	15409
886.705	15311
886.946	15176
887.187	14917
887.428	14855
887.668	14732
887.909	14465
888.15	14359
888.39	14231
888.631	14182
888.871	14057
889.111	13899
889.352	13888
889.592	13705
889.833	13642
890.073	13524
890.313	13530
890.553	13346
890.793	13257
891.033	13251
891.273	13202
891.513	13175
891.753	13111
891.993	13093
892.233	13090
892.473	13200
892.713	13183
892.952	13093
893.192	13094
893.432	13053
893.671	13083
893.911	12999
894.15	13030
894.39	12804
894.629	12722
894.869	12676
895.108	12623
895.347	12540
895.587	12518
895.826	12484
896.065	12353
896.304	12426
896.543	12423
896.782	12360
897.021	12309
897.26	12214
897.499	12317
897.738	12276
897.977	12067
898.216	12061
898.454	11925
898.693	11892
898.932	11904
899.17	11788
899.409	11758
899.647	11706
899.886	11685
900.124	11758
900.363	11695
900.601	11718
900.839	11643
901.078	11670
901.316	11733
901.554	11844
901.792	11838
902.03	11737
902.268	11762
902.506	11802
902.744	11733
902.982	11627
903.22	11354
903.458	11316
903.695	11134
903.933	11107
904.171	10849
904.409	10685
904.646	10584
904.884	10428
905.121	10417
905.359	10261
905.596	10176
905.833	9969
906.071	9979
906.308	10005
906.545	9973
906.783	9930
907.02	9897
907.257	9851
907.494	9795
907.731	9813
907.968	9693
908.205	9686
908.442	9595
908.679	9536
908.915	9429
909.152	9395
909.389	9279
909.626	9259
909.862	9218
910.099	9198
910.335	9117
910.572	9046
910.808	9031
911.045	9042
911.281	8936
911.518	8989
911.754	8901
911.99	8835
912.226	8815
912.463	8686
912.699	8594
912.935	8555
913.171	8456
913.407	8441
913.643	8429
913.879	8314
914.114	8239
914.35	8179
914.586	8101
914.822	8006
915.057	8051
915.293	7848
915.529	7850
915.764	7875
916	7894
916.235	7755
916.471	7801
916.706	7730
916.941	7720
917.177	7722
917.412	7685
917.647	7790
917.882	7652
918.117	7682
918.352	7633
918.588	7653
918.823	7512
919.057	7479
919.292	7354
919.527	7373
919.762	7282
919.997	7221
920.232	7110
920.466	7072
920.701	6891
920.935	6952
921.17	6915
921.405	6879
921.639	6824
921.873	6840
922.108	6807
922.342	6708
922.576	6740
922.811	6718
923.045	6707
923.279	6713
923.513	6533
923.747	6647
923.981	6497
924.215	6465
924.449	6459
924.683	6399
924.917	6352
925.151	6312
925.385	6377
925.618	6316
925.852	6313
926.086	6232
926.319	6306
926.553	6263
926.786	6278
927.02	6239
927.253	6261
927.486	6230
927.72	6154
927.953	6188
928.186	6067
928.42	6154
928.653	6093
928.886	6067
929.119	6098
929.352	6063
929.585	6039
929.818	5900
930.051	5892
930.284	5850
930.516	5744
930.749	5757
930.982	5746
931.215	5718
931.447	5622
931.68	5584
931.912	5607
932.145	5592
932.377	5586
932.61	5744
932.842	5556
933.074	5645
933.307	5564
933.539	5634
933.771	5645
934.003	5504
934.236	5617
934.468	5615
934.7	5489
934.932	5543
935.164	5424
935.395	5448
935.627	5486
935.859	5458
936.091	5337
936.323	5405
936.554	5441
936.786	5365
937.017	5271
937.249	5300
937.481	5194
937.712	5323
937.943	5313
938.175	5296
938.406	5256
938.637	5248
938.869	5190
939.1	5217
939.331	5166
939.562	5196
939.793	5193
940.024	5171
940.255	5152
940.486	5071
940.717	5015
940.948	5088
941.179	5008
941.409	4962
941.64	4994
941.871	4985
942.102	4885
942.332	4946
942.563	4987
942.793	4963
943.024	4972
943.254	4948
943.484	5041
943.715	4968
943.945	4994
944.175	4816
944.405	4910
944.636	4869
944.866	4893
945.096	4874
945.326	4802
945.556	4849
945.786	4829
946.016	4791
946.245	4663
946.475	4684
946.705	4726
946.935	4698
947.164	4680
947.394	4583
947.624	4554
947.853	4597
948.083	4548
948.312	4529
948.542	4503
948.771	4456
949	4481
949.23	4467
949.459	4452
949.688	4500
949.917	4479
950.146	4498
950.375	4531
950.604	4399
950.833	4450
951.062	4447
951.291	4395
951.52	4294
951.749	4404
951.978	4315
952.206	4307
952.435	4303
952.664	4335
952.892	4331
953.121	4282
953.349	4305
953.578	4301
953.806	4246
954.035	4171
954.263	4156
954.491	4118
954.719	4154
954.948	4115
955.176	4061
955.404	3987
955.632	4053
955.86	4041
956.088	4044
956.316	4030
956.544	4031
956.772	3980
956.999	3895
957.227	4009
957.455	3873
957.683	3926
957.91	3853
958.138	3797
958.365	3847
958.593	3794
958.82	3692
959.048	3859
959.275	3744
959.502	3722
959.73	3740
959.957	3751
960.184	3775
960.411	3679
960.638	3789
960.865	3697
961.092	3768
961.319	3613
961.546	3733
961.773	3679
962	3639
962.227	3719
962.454	3678
962.68	3612
962.907	3641
963.134	3568
963.36	3606
963.587	3620
963.813	3539
964.04	3538
964.266	3458
964.493	3549
964.719	3454
964.945	3487
965.171	3370
965.398	3422
965.624	3436
965.85	3333
966.076	3353
966.302	3356
966.528	3330
966.754	3346
966.98	3338
967.206	3378
967.431	3243
967.657	3369
967.883	3297
968.109	3267
968.334	3210
968.56	3232
968.785	3238
969.011	3193
969.236	3220
969.462	3198
969.687	3152
969.912	3194
970.138	3212
970.363	3094
970.588	3158
970.813	3103
971.038	3108
971.263	3103
971.488	3090
971.713	3111
971.938	3133
972.163	3011
972.388	3043
972.613	3012
972.838	3014
973.062	2972
973.287	3007
973.512	2885
973.736	2959
973.961	2937
974.185	2918
974.41	2973
974.634	2836
974.858	2846
975.083	2874
975.307	2893
975.531	2833
975.755	2757
975.98	2793
976.204	2714
976.428	2677
976.652	2726
976.876	2663
977.1	2697
977.324	2644
977.547	2694
977.771	2700
977.995	2673
978.219	2618
978.442	2750
978.666	2664
978.89	2648
979.113	2658
979.337	2596
979.56	2600
979.783	2679
980.007	2535
980.23	2575
980.453	2542
980.677	2584
980.9	2540
981.123	2430
981.346	2579
981.569	2517
981.792	2532
982.015	2479
982.238	2469
982.461	2489
982.684	2439
982.907	2383
983.129	2404
983.352	2434
983.575	2387
983.797	2403
984.02	2344
984.242	2396
984.465	2345
984.687	2369
984.91	2380
985.132	2342
985.354	2362
985.577	2338
985.799	2301
986.021	2256
986.243	2243
986.465	2265
986.687	2323
986.909	2332
987.131	2275
987.353	2233
987.575	2303
987.797	2226
988.019	2175
988.241	2225
988.462	2194
988.684	2231
988.906	2256
989.127	2242
989.349	2157
989.57	2165
989.792	2194
990.013	2187
990.234	2225
990.456	2216
990.677	2168
990.898	2129
991.119	2151
991.341	2156
991.562	2111
991.783	2120
992.004	2038
992.225	2044
992.446	2131
992.667	1989
992.887	2072
993.108	1975
993.329	2084
993.55	2033
993.77	1958
993.991	1975
994.212	2007
994.432	1993
994.653	1998
994.873	1986
995.093	1854
995.314	1914
995.534	1966
995.754	1995
995.975	2000
996.195	1904
996.415	1950
996.635	1924
996.855	1930
997.075	1913
997.295	1885
997.515	1864
997.735	1934
997.955	1905
998.174	1894
998.394	1853
998.614	1913
998.834	1863
999.053	1921
999.273	1882
999.492	1928
999.712	1865
999.931	1835
1000.151	1892
1000.37	1842
1000.589	1895
1000.809	1778
1001.028	1919
1001.247	1834
1001.466	1714
1001.685	1870
1001.904	1801
1002.123	1783
1002.342	1806
1002.561	1730
1002.78	1753
1002.999	1833
1003.218	1770
1003.436	1741
1003.655	1786
1003.874	1722
1004.092	1754
1004.311	1771
1004.53	1741
1004.748	1849
1004.966	1724
1005.185	1776
1005.403	1765
1005.622	1762
1005.84	1771
1006.058	1706
1006.276	1748
1006.494	2207
1006.712	1730
1006.931	1749
1007.149	1708
1007.367	1698
1007.584	1737
1007.802	1733
1008.02	1701
1008.238	1785
1008.456	1785
1008.673	1663
1008.891	1774
1009.109	1753
1009.326	1791
1009.544	1855
1009.761	1777
1009.979	1885
1010.196	1868
1010.413	1948
1010.631	2061
1010.848	2077
1011.065	2095
1011.282	2045
1011.5	1939
1011.717	2060
1011.934	1983
1012.151	2021
1012.368	2020
1012.585	1942
1012.801	1995
1013.018	1986
1013.235	1945
1013.452	1964
1013.669	1971
1013.885	1930
1014.102	1990
1014.318	1961
1014.535	1941
1014.751	1966
1014.968	1978
1015.184	1985
1015.401	1870
1015.617	1909
1015.833	1849
1016.049	1854
1016.266	1793
1016.482	1831
1016.698	1762
1016.914	1795
1017.13	1708
1017.346	1733
1017.562	1786
1017.778	1706
1017.993	1680
1018.209	1748
1018.425	1720
1018.641	1693
1018.856	1665
1019.072	1690
1019.288	1724
1019.503	1688
1019.719	1609
1019.934	1598
1020.149	1672
1020.365	1646
1020.58	1573
1020.795	1611
1021.011	1559
1021.226	1526
1021.441	1535
1021.656	1434
1021.871	1398
1022.086	1406
1022.301	1352
1022.516	1355
1022.731	1406
1022.946	1338
1023.16	1297
1023.375	1257
1023.59	1247
1023.804	1197
1024.019	1311
1024.234	1189
1024.448	1200
1024.663	1127
1024.877	1143
1025.092	1155
1025.306	1164
1025.52	1044
1025.734	1125
1025.949	1045
1026.163	1024
1026.377	950
1026.591	999
1026.805	942
1027.019	926
1027.233	888
1027.447	828
1027.661	938
1027.875	865
1028.088	875
1028.302	817
1028.516	785
1028.73	786
1028.943	782
1029.157	725
1029.37	685
1029.584	-2
1029.797	-4
1030.011	-3
1030.224	-4
