Data from QEP037381__134__15-45-49-883.txt Node

Date: Fri Dec 16 15:45:49 EST 2022
User: dcclab
Spectrometer: QEP03738
Trigger mode: 4
Integration Time (sec): 1.000000E1
Scans to average: 1
Electric dark correction enabled: true
Nonlinearity correction enabled: false
Boxcar width: 0
XAxis mode: Wavelengths
Number of Pixels in Spectrum: 1044
>>>>>Begin Spectral Data<<<<<
784.041	10.62
784.3	1.62
784.558	-4.38
784.817	-1.38
785.075	111200.62
785.334	19453.62
785.592	9210.62
785.851	6383.62
786.109	4785.62
786.368	3724.62
786.626	2981.62
786.884	2465.62
787.143	2076.62
787.401	1712.62
787.659	1545.62
787.917	1297.62
788.175	1206.62
788.433	1064.62
788.691	946.62
788.949	885.62
789.207	864.62
789.465	729.62
789.723	723.62
789.98	650.62
790.238	699.62
790.496	638.62
790.753	604.62
791.011	651.62
791.268	596.62
791.526	589.62
791.783	599.62
792.041	561.62
792.298	499.62
792.556	532.62
792.813	523.62
793.07	497.62
793.327	488.62
793.584	572.62
793.841	491.62
794.099	531.62
794.356	574.62
794.613	457.62
794.869	512.62
795.126	470.62
795.383	451.62
795.64	455.62
795.897	435.62
796.153	482.62
796.41	460.62
796.667	466.62
796.923	475.62
797.18	481.62
797.436	508.62
797.693	456.62
797.949	513.62
798.206	548.62
798.462	474.62
798.718	530.62
798.974	496.62
799.231	545.62
799.487	539.62
799.743	557.62
799.999	597.62
800.255	587.62
800.511	574.62
800.767	637.62
801.023	641.62
801.279	682.62
801.534	743.62
801.79	820.62
802.046	872.62
802.302	1086.62
802.557	1281.62
802.813	1636.62
803.068	2095.62
803.324	2928.62
803.579	4114.62
803.835	5750.62
804.09	7944.62
804.345	10426.62
804.601	13260.62
804.856	15987.62
805.111	18373.62
805.366	20188.62
805.621	21608.62
805.876	22567.62
806.131	23105.62
806.386	23467.62
806.641	24006.62
806.896	24324.62
807.151	24731.62
807.406	25048.62
807.661	25354.62
807.915	26116.62
808.17	26392.62
808.425	26815.62
808.679	26970.62
808.934	27204.62
809.188	27423.62
809.443	27769.62
809.697	28006.62
809.951	28236.62
810.206	28507.62
810.46	28740.62
810.714	28952.62
810.968	29205.62
811.223	29410.62
811.477	29749.62
811.731	30075.62
811.985	30188.62
812.239	30220.62
812.493	30494.62
812.747	30517.62
813	30646.62
813.254	30777.62
813.508	30797.62
813.762	30944.62
814.015	30998.62
814.269	31314.62
814.522	31650.62
814.776	32016.62
815.03	32344.62
815.283	32830.62
815.536	33237.62
815.79	33721.62
816.043	34215.62
816.296	34723.62
816.55	34983.62
816.803	35450.62
817.056	35865.62
817.309	36113.62
817.562	36340.62
817.815	36853.62
818.068	37080.62
818.321	37502.62
818.574	37949.62
818.827	38293.62
819.079	38803.62
819.332	39530.62
819.585	39837.62
819.838	40421.62
820.09	40662.62
820.343	40953.62
820.595	41167.62
820.848	41438.62
821.1	41566.62
821.353	41481.62
821.605	41531.62
821.857	41578.62
822.11	41445.62
822.362	41222.62
822.614	41123.62
822.866	41220.62
823.118	41180.62
823.37	41189.62
823.622	41273.62
823.874	41416.62
824.126	41620.62
824.378	41682.62
824.63	41838.62
824.882	41900.62
825.134	41924.62
825.385	41744.62
825.637	41579.62
825.888	41569.62
826.14	41551.62
826.392	41300.62
826.643	41057.62
826.895	40997.62
827.146	40767.62
827.397	40798.62
827.649	40754.62
827.9	40725.62
828.151	40683.62
828.402	40764.62
828.653	40887.62
828.905	40993.62
829.156	41166.62
829.407	40990.62
829.658	40853.62
829.909	40963.62
830.159	40859.62
830.41	40497.62
830.661	40384.62
830.912	39934.62
831.162	40090.62
831.413	39901.62
831.664	39908.62
831.914	39878.62
832.165	39919.62
832.415	39817.62
832.666	39900.62
832.916	39863.62
833.167	39831.62
833.417	39823.62
833.667	39559.62
833.917	39453.62
834.168	39383.62
834.418	39215.62
834.668	39110.62
834.918	38737.62
835.168	38814.62
835.418	38548.62
835.668	38445.62
835.918	38306.62
836.167	38220.62
836.417	38071.62
836.667	38114.62
836.917	37967.62
837.166	37891.62
837.416	37817.62
837.666	37848.62
837.915	37837.62
838.165	37794.62
838.414	37646.62
838.663	37511.62
838.913	37547.62
839.162	37451.62
839.411	37117.62
839.661	37029.62
839.91	37004.62
840.159	36882.62
840.408	36776.62
840.657	36745.62
840.906	36851.62
841.155	36801.62
841.404	36668.62
841.653	36817.62
841.902	36707.62
842.15	36908.62
842.399	36731.62
842.648	36649.62
842.897	36566.62
843.145	36409.62
843.394	36086.62
843.642	36055.62
843.891	35740.62
844.139	35519.62
844.388	35380.62
844.636	35097.62
844.884	35213.62
845.133	35268.62
845.381	35029.62
845.629	35056.62
845.877	34944.62
846.125	34894.62
846.373	34879.62
846.621	34693.62
846.869	34519.62
847.117	34399.62
847.365	34165.62
847.613	33996.62
847.861	33951.62
848.108	33871.62
848.356	33710.62
848.604	33799.62
848.851	33705.62
849.099	33608.62
849.346	33790.62
849.594	33967.62
849.841	33937.62
850.089	34000.62
850.336	33922.62
850.583	33921.62
850.831	33610.62
851.078	33550.62
851.325	33325.62
851.572	33333.62
851.819	33169.62
852.066	32665.62
852.313	32248.62
852.56	32052.62
852.807	31755.62
853.054	31791.62
853.301	31706.62
853.548	31636.62
853.794	31758.62
854.041	31849.62
854.288	31951.62
854.534	32169.62
854.781	32214.62
855.028	31962.62
855.274	31941.62
855.52	31683.62
855.767	31603.62
856.013	31720.62
856.26	31920.62
856.506	31317.62
856.752	31216.62
856.998	31109.62
857.244	31219.62
857.49	31274.62
857.736	31379.62
857.982	31283.62
858.228	31195.62
858.474	31000.62
858.72	30865.62
858.966	30580.62
859.212	30239.62
859.458	29919.62
859.703	29648.62
859.949	29390.62
860.195	29173.62
860.44	29010.62
860.686	28811.62
860.931	28972.62
861.177	28639.62
861.422	28653.62
861.667	28546.62
861.913	28478.62
862.158	28520.62
862.403	28506.62
862.648	28759.62
862.893	28658.62
863.138	28640.62
863.384	28531.62
863.629	28432.62
863.873	28392.62
864.118	28291.62
864.363	28186.62
864.608	28071.62
864.853	27965.62
865.098	27765.62
865.342	27668.62
865.587	27414.62
865.832	27573.62
866.076	27328.62
866.321	27276.62
866.565	27236.62
866.81	27013.62
867.054	27039.62
867.298	27043.62
867.543	26865.62
867.787	26770.62
868.031	26730.62
868.275	26591.62
868.519	26570.62
868.764	26583.62
869.008	26454.62
869.252	26339.62
869.496	26248.62
869.739	26130.62
869.983	26167.62
870.227	26084.62
870.471	25987.62
870.715	26153.62
870.958	26228.62
871.202	26182.62
871.446	26194.62
871.689	26157.62
871.933	26147.62
872.176	26148.62
872.42	26103.62
872.663	25947.62
872.906	25834.62
873.15	25816.62
873.393	25547.62
873.636	25550.62
873.879	25343.62
874.122	25020.62
874.366	24695.62
874.609	24560.62
874.852	24344.62
875.095	24305.62
875.337	24173.62
875.58	23965.62
875.823	23980.62
876.066	23930.62
876.309	23879.62
876.551	23770.62
876.794	23429.62
877.037	23591.62
877.279	23451.62
877.522	23387.62
877.764	23477.62
878.007	23428.62
878.249	23252.62
878.491	23299.62
878.734	23230.62
878.976	23109.62
879.218	23128.62
879.46	23059.62
879.702	22761.62
879.945	22629.62
880.187	22345.62
880.429	22282.62
880.671	22127.62
880.912	22092.62
881.154	22034.62
881.396	21859.62
881.638	21809.62
881.88	21762.62
882.121	21790.62
882.363	21757.62
882.605	21767.62
882.846	21605.62
883.088	21547.62
883.329	21486.62
883.571	21442.62
883.812	21642.62
884.053	21825.62
884.295	21990.62
884.536	22273.62
884.777	22048.62
885.018	21849.62
885.259	21831.62
885.5	21613.62
885.742	21972.62
885.982	21562.62
886.223	21437.62
886.464	21353.62
886.705	21144.62
886.946	21029.62
887.187	20745.62
887.428	20603.62
887.668	20287.62
887.909	20135.62
888.15	19892.62
888.39	19769.62
888.631	19748.62
888.871	19476.62
889.111	19323.62
889.352	19218.62
889.592	19103.62
889.833	18939.62
890.073	18839.62
890.313	18788.62
890.553	18519.62
890.793	18429.62
891.033	18523.62
891.273	18232.62
891.513	18255.62
891.753	18252.62
891.993	18197.62
892.233	18151.62
892.473	18215.62
892.713	18272.62
892.952	18179.62
893.192	18182.62
893.432	18116.62
893.671	18194.62
893.911	17999.62
894.15	17926.62
894.39	17718.62
894.629	17621.62
894.869	17529.62
895.108	17485.62
895.347	17327.62
895.587	17383.62
895.826	17275.62
896.065	17187.62
896.304	17198.62
896.543	17096.62
896.782	16980.62
897.021	17012.62
897.26	16888.62
897.499	16985.62
897.738	16873.62
897.977	16614.62
898.216	16580.62
898.454	16459.62
898.693	16280.62
898.932	16291.62
899.17	16213.62
899.409	16145.62
899.647	16101.62
899.886	16017.62
900.124	15963.62
900.363	16055.62
900.601	16025.62
900.839	16080.62
901.078	16085.62
901.316	15979.62
901.554	16032.62
901.792	16161.62
902.03	16114.62
902.268	16036.62
902.506	16052.62
902.744	15951.62
902.982	15912.62
903.22	15665.62
903.458	15428.62
903.695	15277.62
903.933	15077.62
904.171	14826.62
904.409	14679.62
904.646	14498.62
904.884	14226.62
905.121	14156.62
905.359	13974.62
905.596	13886.62
905.833	13675.62
906.071	13715.62
906.308	13655.62
906.545	13579.62
906.783	13579.62
907.02	13640.62
907.257	13505.62
907.494	13470.62
907.731	13430.62
907.968	13449.62
908.205	13296.62
908.442	13161.62
908.679	12986.62
908.915	13003.62
909.152	12941.62
909.389	12694.62
909.626	12720.62
909.862	12595.62
910.099	12499.62
910.335	12550.62
910.572	12288.62
910.808	12424.62
911.045	12320.62
911.281	12282.62
911.518	12276.62
911.754	12225.62
911.99	12136.62
912.226	11968.62
912.463	11856.62
912.699	11813.62
912.935	11728.62
913.171	11581.62
913.407	11549.62
913.643	11434.62
913.879	11364.62
914.114	11220.62
914.35	11170.62
914.586	11040.62
914.822	10965.62
915.057	10955.62
915.293	10737.62
915.529	10632.62
915.764	10764.62
916	10683.62
916.235	10670.62
916.471	10634.62
916.706	10548.62
916.941	10553.62
917.177	10520.62
917.412	10520.62
917.647	10567.62
917.882	10412.62
918.117	10456.62
918.352	10417.62
918.588	10385.62
918.823	10326.62
919.057	10157.62
919.292	10029.62
919.527	10025.62
919.762	9820.62
919.997	9776.62
920.232	9602.62
920.466	9638.62
920.701	9451.62
920.935	9455.62
921.17	9316.62
921.405	9281.62
921.639	9330.62
921.873	9241.62
922.108	9204.62
922.342	9264.62
922.576	9076.62
922.811	9140.62
923.045	9071.62
923.279	9072.62
923.513	8928.62
923.747	8899.62
923.981	8876.62
924.215	8719.62
924.449	8751.62
924.683	8655.62
924.917	8678.62
925.151	8497.62
925.385	8595.62
925.618	8527.62
925.852	8492.62
926.086	8386.62
926.319	8447.62
926.553	8409.62
926.786	8415.62
927.02	8394.62
927.253	8375.62
927.486	8329.62
927.72	8360.62
927.953	8426.62
928.186	8310.62
928.42	8297.62
928.653	8264.62
928.886	8132.62
929.119	8156.62
929.352	8102.62
929.585	8061.62
929.818	8010.62
930.051	7928.62
930.284	7883.62
930.516	7733.62
930.749	7683.62
930.982	7706.62
931.215	7687.62
931.447	7616.62
931.68	7549.62
931.912	7564.62
932.145	7493.62
932.377	7511.62
932.61	7654.62
932.842	7390.62
933.074	7497.62
933.307	7424.62
933.539	7581.62
933.771	7547.62
934.003	7480.62
934.236	7524.62
934.468	7533.62
934.7	7413.62
934.932	7439.62
935.164	7418.62
935.395	7323.62
935.627	7322.62
935.859	7298.62
936.091	7227.62
936.323	7223.62
936.554	7266.62
936.786	7168.62
937.017	7108.62
937.249	7155.62
937.481	7014.62
937.712	7045.62
937.943	7051.62
938.175	7078.62
938.406	7011.62
938.637	7082.62
938.869	6890.62
939.1	6998.62
939.331	6961.62
939.562	6974.62
939.793	6878.62
940.024	6912.62
940.255	6825.62
940.486	6779.62
940.717	6779.62
940.948	6714.62
941.179	6700.62
941.409	6628.62
941.64	6653.62
941.871	6672.62
942.102	6666.62
942.332	6663.62
942.563	6669.62
942.793	6691.62
943.024	6564.62
943.254	6583.62
943.484	6646.62
943.715	6571.62
943.945	6616.62
944.175	6532.62
944.405	6450.62
944.636	6518.62
944.866	6540.62
945.096	6486.62
945.326	6417.62
945.556	6432.62
945.786	6409.62
946.016	6376.62
946.245	6337.62
946.475	6310.62
946.705	6216.62
946.935	6182.62
947.164	6196.62
947.394	6092.62
947.624	6150.62
947.853	6103.62
948.083	6044.62
948.312	6043.62
948.542	6018.62
948.771	5909.62
949	5927.62
949.23	5915.62
949.459	5938.62
949.688	5945.62
949.917	5909.62
950.146	5904.62
950.375	5989.62
950.604	5806.62
950.833	5948.62
951.062	5871.62
951.291	5826.62
951.52	5781.62
951.749	5833.62
951.978	5774.62
952.206	5720.62
952.435	5728.62
952.664	5701.62
952.892	5768.62
953.121	5678.62
953.349	5692.62
953.578	5610.62
953.806	5594.62
954.035	5490.62
954.263	5537.62
954.491	5481.62
954.719	5511.62
954.948	5408.62
955.176	5422.62
955.404	5324.62
955.632	5375.62
955.86	5340.62
956.088	5342.62
956.316	5342.62
956.544	5326.62
956.772	5172.62
956.999	5154.62
957.227	5209.62
957.455	5115.62
957.683	5099.62
957.91	5061.62
958.138	5012.62
958.365	5076.62
958.593	5006.62
958.82	4957.62
959.048	5036.62
959.275	4944.62
959.502	4941.62
959.73	4925.62
959.957	4930.62
960.184	4922.62
960.411	4879.62
960.638	4935.62
960.865	4863.62
961.092	4891.62
961.319	4801.62
961.546	4857.62
961.773	4879.62
962	4771.62
962.227	4882.62
962.454	4812.62
962.68	4752.62
962.907	4735.62
963.134	4708.62
963.36	4712.62
963.587	4678.62
963.813	4558.62
964.04	4610.62
964.266	4548.62
964.493	4589.62
964.719	4588.62
964.945	4518.62
965.171	4428.62
965.398	4468.62
965.624	4490.62
965.85	4407.62
966.076	4415.62
966.302	4382.62
966.528	4380.62
966.754	4387.62
966.98	4328.62
967.206	4320.62
967.431	4269.62
967.657	4327.62
967.883	4261.62
968.109	4226.62
968.334	4177.62
968.56	4183.62
968.785	4157.62
969.011	4124.62
969.236	4191.62
969.462	4169.62
969.687	4119.62
969.912	4171.62
970.138	4190.62
970.363	4061.62
970.588	4114.62
970.813	4059.62
971.038	3973.62
971.263	4048.62
971.488	4037.62
971.713	4026.62
971.938	4040.62
972.163	3922.62
972.388	3959.62
972.613	3943.62
972.838	3898.62
973.062	3867.62
973.287	3842.62
973.512	3805.62
973.736	3804.62
973.961	3763.62
974.185	3704.62
974.41	3755.62
974.634	3692.62
974.858	3654.62
975.083	3720.62
975.307	3703.62
975.531	3606.62
975.755	3551.62
975.98	3607.62
976.204	3488.62
976.428	3506.62
976.652	3472.62
976.876	3464.62
977.1	3473.62
977.324	3444.62
977.547	3502.62
977.771	3436.62
977.995	3448.62
978.219	3400.62
978.442	3466.62
978.666	3391.62
978.89	3412.62
979.113	3379.62
979.337	3369.62
979.56	3346.62
979.783	3396.62
980.007	3319.62
980.23	3316.62
980.453	3267.62
980.677	3312.62
980.9	3298.62
981.123	3174.62
981.346	3269.62
981.569	3205.62
981.792	3251.62
982.015	3168.62
982.238	3120.62
982.461	3111.62
982.684	3083.62
982.907	3068.62
983.129	3082.62
983.352	3094.62
983.575	3049.62
983.797	3043.62
984.02	3027.62
984.242	3000.62
984.465	2993.62
984.687	2973.62
984.91	3004.62
985.132	2947.62
985.354	3002.62
985.577	2921.62
985.799	2933.62
986.021	2842.62
986.243	2901.62
986.465	2882.62
986.687	2924.62
986.909	2957.62
987.131	2847.62
987.353	2819.62
987.575	2858.62
987.797	2833.62
988.019	2771.62
988.241	2774.62
988.462	2776.62
988.684	2861.62
988.906	2816.62
989.127	2844.62
989.349	2696.62
989.57	2741.62
989.792	2803.62
990.013	2743.62
990.234	2771.62
990.456	2785.62
990.677	2751.62
990.898	2662.62
991.119	2651.62
991.341	2698.62
991.562	2627.62
991.783	2640.62
992.004	2580.62
992.225	2565.62
992.446	2618.62
992.667	2501.62
992.887	2574.62
993.108	2503.62
993.329	2605.62
993.55	2551.62
993.77	2444.62
993.991	2420.62
994.212	2492.62
994.432	2453.62
994.653	2492.62
994.873	2421.62
995.093	2354.62
995.314	2403.62
995.534	2428.62
995.754	2424.62
995.975	2472.62
996.195	2330.62
996.415	2360.62
996.635	2377.62
996.855	2366.62
997.075	2344.62
997.295	2345.62
997.515	2340.62
997.735	2390.62
997.955	2336.62
998.174	2352.62
998.394	2312.62
998.614	2341.62
998.834	2286.62
999.053	2330.62
999.273	2308.62
999.492	2360.62
999.712	2269.62
999.931	2204.62
1000.151	2329.62
1000.37	2251.62
1000.589	2301.62
1000.809	2180.62
1001.028	2338.62
1001.247	2227.62
1001.466	2128.62
1001.685	2255.62
1001.904	2194.62
1002.123	2160.62
1002.342	2138.62
1002.561	2106.62
1002.78	2135.62
1002.999	2178.62
1003.218	2145.62
1003.436	2119.62
1003.655	2132.62
1003.874	2083.62
1004.092	2092.62
1004.311	2125.62
1004.53	2086.62
1004.748	2167.62
1004.966	2046.62
1005.185	2113.62
1005.403	2129.62
1005.622	2096.62
1005.84	2125.62
1006.058	2029.62
1006.276	2083.62
1006.494	2532.62
1006.712	2057.62
1006.931	2109.62
1007.149	2005.62
1007.367	2013.62
1007.584	2044.62
1007.802	2101.62
1008.02	2049.62
1008.238	2125.62
1008.456	2106.62
1008.673	2010.62
1008.891	2074.62
1009.109	2055.62
1009.326	2084.62
1009.544	2196.62
1009.761	2114.62
1009.979	2197.62
1010.196	2208.62
1010.413	2293.62
1010.631	2381.62
1010.848	2389.62
1011.065	2402.62
1011.282	2346.62
1011.5	2325.62
1011.717	2425.62
1011.934	2337.62
1012.151	2334.62
1012.368	2343.62
1012.585	2297.62
1012.801	2346.62
1013.018	2248.62
1013.235	2267.62
1013.452	2279.62
1013.669	2258.62
1013.885	2269.62
1014.102	2270.62
1014.318	2269.62
1014.535	2239.62
1014.751	2271.62
1014.968	2227.62
1015.184	2244.62
1015.401	2172.62
1015.617	2182.62
1015.833	2125.62
1016.049	2130.62
1016.266	2119.62
1016.482	2082.62
1016.698	2036.62
1016.914	2106.62
1017.13	2015.62
1017.346	1991.62
1017.562	2067.62
1017.778	1985.62
1017.993	1954.62
1018.209	2031.62
1018.425	1973.62
1018.641	1942.62
1018.856	1901.62
1019.072	1972.62
1019.288	1965.62
1019.503	1924.62
1019.719	1869.62
1019.934	1860.62
1020.149	1932.62
1020.365	1865.62
1020.58	1824.62
1020.795	1815.62
1021.011	1768.62
1021.226	1730.62
1021.441	1761.62
1021.656	1668.62
1021.871	1612.62
1022.086	1596.62
1022.301	1581.62
1022.516	1551.62
1022.731	1622.62
1022.946	1509.62
1023.16	1521.62
1023.375	1469.62
1023.59	1464.62
1023.804	1392.62
1024.019	1506.62
1024.234	1361.62
1024.448	1364.62
1024.663	1296.62
1024.877	1314.62
1025.092	1326.62
1025.306	1295.62
1025.52	1223.62
1025.734	1284.62
1025.949	1197.62
1026.163	1184.62
1026.377	1101.62
1026.591	1144.62
1026.805	1067.62
1027.019	1096.62
1027.233	1029.62
1027.447	968.62
1027.661	1077.62
1027.875	1014.62
1028.088	985.62
1028.302	906.62
1028.516	902.62
1028.73	916.62
1028.943	894.62
1029.157	822.62
1029.37	769.62
1029.584	-0.38
1029.797	-1.38
1030.011	-4.38
1030.224	-0.38
