Data from QEP037381__192__15-55-29-890.txt Node

Date: Fri Dec 16 15:55:29 EST 2022
User: dcclab
Spectrometer: QEP03738
Trigger mode: 4
Integration Time (sec): 1.000000E1
Scans to average: 1
Electric dark correction enabled: true
Nonlinearity correction enabled: false
Boxcar width: 0
XAxis mode: Wavelengths
Number of Pixels in Spectrum: 1044
>>>>>Begin Spectral Data<<<<<
784.041	11.62
784.3	-2.38
784.558	-4.38
784.817	-2.38
785.075	114045.62
785.334	20295.62
785.592	9719.62
785.851	6742.62
786.109	5072.62
786.368	3942.62
786.626	3107.62
786.884	2572.62
787.143	2154.62
787.401	1809.62
787.659	1619.62
787.917	1361.62
788.175	1218.62
788.433	1081.62
788.691	961.62
788.949	886.62
789.207	828.62
789.465	743.62
789.723	696.62
789.98	637.62
790.238	662.62
790.496	611.62
790.753	605.62
791.011	631.62
791.268	569.62
791.526	555.62
791.783	566.62
792.041	550.62
792.298	474.62
792.556	529.62
792.813	504.62
793.07	490.62
793.327	487.62
793.584	536.62
793.841	467.62
794.099	488.62
794.356	544.62
794.613	454.62
794.869	475.62
795.126	444.62
795.383	442.62
795.64	455.62
795.897	406.62
796.153	470.62
796.41	444.62
796.667	427.62
796.923	459.62
797.18	448.62
797.436	449.62
797.693	422.62
797.949	479.62
798.206	514.62
798.462	423.62
798.718	478.62
798.974	458.62
799.231	498.62
799.487	489.62
799.743	508.62
799.999	546.62
800.255	527.62
800.511	500.62
800.767	557.62
801.023	564.62
801.279	581.62
801.534	634.62
801.79	673.62
802.046	706.62
802.302	850.62
802.557	982.62
802.813	1212.62
803.068	1505.62
803.324	2072.62
803.579	2824.62
803.835	3892.62
804.09	5338.62
804.345	6992.62
804.601	8826.62
804.856	10640.62
805.111	12257.62
805.366	13534.62
805.621	14458.62
805.876	15097.62
806.131	15491.62
806.386	15845.62
806.641	16011.62
806.896	16329.62
807.151	16537.62
807.406	16878.62
807.661	17229.62
807.915	17420.62
808.17	17646.62
808.425	17851.62
808.679	17949.62
808.934	18257.62
809.188	18316.62
809.443	18573.62
809.697	18828.62
809.951	18885.62
810.206	19038.62
810.46	19211.62
810.714	19291.62
810.968	19573.62
811.223	19742.62
811.477	19874.62
811.731	20018.62
811.985	19994.62
812.239	20078.62
812.493	20286.62
812.747	20327.62
813	20288.62
813.254	20393.62
813.508	20635.62
813.762	20597.62
814.015	20614.62
814.269	20868.62
814.522	20944.62
814.776	21230.62
815.03	21522.62
815.283	21828.62
815.536	22004.62
815.79	22387.62
816.043	22683.62
816.296	23060.62
816.55	23245.62
816.803	23498.62
817.056	23718.62
817.309	24036.62
817.562	24234.62
817.815	24429.62
818.068	24637.62
818.321	24781.62
818.574	25078.62
818.827	25305.62
819.079	25581.62
819.332	26142.62
819.585	26388.62
819.838	26741.62
820.09	26762.62
820.343	27034.62
820.595	27112.62
820.848	27437.62
821.1	27427.62
821.353	27422.62
821.605	27429.62
821.857	27389.62
822.11	27203.62
822.362	27154.62
822.614	27064.62
822.866	27180.62
823.118	27086.62
823.37	27329.62
823.622	27288.62
823.874	27431.62
824.126	27469.62
824.378	27378.62
824.63	27575.62
824.882	27581.62
825.134	27567.62
825.385	27598.62
825.637	27419.62
825.888	27371.62
826.14	27200.62
826.392	27183.62
826.643	26921.62
826.895	26982.62
827.146	26763.62
827.397	26721.62
827.649	26717.62
827.9	26786.62
828.151	26690.62
828.402	26874.62
828.653	26908.62
828.905	27027.62
829.156	27101.62
829.407	26936.62
829.658	26991.62
829.909	27022.62
830.159	27049.62
830.41	26875.62
830.661	26668.62
830.912	26542.62
831.162	26332.62
831.413	26309.62
831.664	26386.62
831.914	26290.62
832.165	26152.62
832.415	26218.62
832.666	26183.62
832.916	26314.62
833.167	26203.62
833.417	26170.62
833.667	26230.62
833.917	25916.62
834.168	25970.62
834.418	25977.62
834.668	25757.62
834.918	25591.62
835.168	25652.62
835.418	25543.62
835.668	25421.62
835.918	25295.62
836.167	25439.62
836.417	25126.62
836.667	25189.62
836.917	25142.62
837.166	25132.62
837.416	24988.62
837.666	25042.62
837.915	25018.62
838.165	24932.62
838.414	24935.62
838.663	24751.62
838.913	24843.62
839.162	24679.62
839.411	24813.62
839.661	24556.62
839.91	24465.62
840.159	24401.62
840.408	24401.62
840.657	24476.62
840.906	24401.62
841.155	24525.62
841.404	24428.62
841.653	24513.62
841.902	24460.62
842.15	24506.62
842.399	24600.62
842.648	24408.62
842.897	24335.62
843.145	24317.62
843.394	23916.62
843.642	23832.62
843.891	23773.62
844.139	23641.62
844.388	23489.62
844.636	23416.62
844.884	23382.62
845.133	23301.62
845.381	23350.62
845.629	23210.62
845.877	23407.62
846.125	23223.62
846.373	23170.62
846.621	23103.62
846.869	23015.62
847.117	22773.62
847.365	22763.62
847.613	22659.62
847.861	22622.62
848.108	22568.62
848.356	22539.62
848.604	22428.62
848.851	22435.62
849.099	22421.62
849.346	22489.62
849.594	22648.62
849.841	22679.62
850.089	22652.62
850.336	22607.62
850.583	22703.62
850.831	22521.62
851.078	22344.62
851.325	22365.62
851.572	22494.62
851.819	22219.62
852.066	21857.62
852.313	21534.62
852.56	21402.62
852.807	21205.62
853.054	21194.62
853.301	21144.62
853.548	21272.62
853.794	21354.62
854.041	21401.62
854.288	21461.62
854.534	21693.62
854.781	21546.62
855.028	21475.62
855.274	21446.62
855.52	21370.62
855.767	21271.62
856.013	21177.62
856.26	21597.62
856.506	20881.62
856.752	21015.62
856.998	21006.62
857.244	20995.62
857.49	21082.62
857.736	21161.62
857.982	21245.62
858.228	21067.62
858.474	20902.62
858.72	20705.62
858.966	20546.62
859.212	20382.62
859.458	20198.62
859.703	19974.62
859.949	19762.62
860.195	19625.62
860.44	19546.62
860.686	19498.62
860.931	19505.62
861.177	19276.62
861.422	19315.62
861.667	19196.62
861.913	19102.62
862.158	19120.62
862.403	19276.62
862.648	19290.62
862.893	19239.62
863.138	19258.62
863.384	19313.62
863.629	19177.62
863.873	19191.62
864.118	19068.62
864.363	19008.62
864.608	18988.62
864.853	18939.62
865.098	18815.62
865.342	18747.62
865.587	18612.62
865.832	18529.62
866.076	18547.62
866.321	18362.62
866.565	18391.62
866.81	18182.62
867.054	18194.62
867.298	18228.62
867.543	18108.62
867.787	18171.62
868.031	18062.62
868.275	18024.62
868.519	18046.62
868.764	17940.62
869.008	17948.62
869.252	17879.62
869.496	17827.62
869.739	17829.62
869.983	17777.62
870.227	17746.62
870.471	17701.62
870.715	17889.62
870.958	17718.62
871.202	17749.62
871.446	17875.62
871.689	17757.62
871.933	17842.62
872.176	17778.62
872.42	17813.62
872.663	17609.62
872.906	17703.62
873.15	17708.62
873.393	17519.62
873.636	17514.62
873.879	17422.62
874.122	17323.62
874.366	17023.62
874.609	16758.62
874.852	16667.62
875.095	16592.62
875.337	16546.62
875.58	16382.62
875.823	16395.62
876.066	16420.62
876.309	16311.62
876.551	16117.62
876.794	16058.62
877.037	16173.62
877.279	15913.62
877.522	16055.62
877.764	16038.62
878.007	15954.62
878.249	16000.62
878.491	15897.62
878.734	15975.62
878.976	15795.62
879.218	15744.62
879.46	15672.62
879.702	15548.62
879.945	15528.62
880.187	15163.62
880.429	15225.62
880.671	15207.62
880.912	15076.62
881.154	14994.62
881.396	14926.62
881.638	14992.62
881.88	14875.62
882.121	14953.62
882.363	14874.62
882.605	14882.62
882.846	14859.62
883.088	14854.62
883.329	14756.62
883.571	14733.62
883.812	14932.62
884.053	15104.62
884.295	15366.62
884.536	15525.62
884.777	15369.62
885.018	15296.62
885.259	15307.62
885.5	15127.62
885.742	15486.62
885.982	15006.62
886.223	14934.62
886.464	14807.62
886.705	14720.62
886.946	14550.62
887.187	14258.62
887.428	14215.62
887.668	14081.62
887.909	13817.62
888.15	13757.62
888.39	13655.62
888.631	13504.62
888.871	13397.62
889.111	13255.62
889.352	13236.62
889.592	13155.62
889.833	12983.62
890.073	12924.62
890.313	12920.62
890.553	12717.62
890.793	12712.62
891.033	12661.62
891.273	12630.62
891.513	12558.62
891.753	12598.62
891.993	12382.62
892.233	12492.62
892.473	12616.62
892.713	12539.62
892.952	12524.62
893.192	12455.62
893.432	12437.62
893.671	12559.62
893.911	12392.62
894.15	12274.62
894.39	12209.62
894.629	12183.62
894.869	12150.62
895.108	12057.62
895.347	11914.62
895.587	12064.62
895.826	11906.62
896.065	11883.62
896.304	11868.62
896.543	11825.62
896.782	11777.62
897.021	11799.62
897.26	11765.62
897.499	11733.62
897.738	11824.62
897.977	11601.62
898.216	11560.62
898.454	11441.62
898.693	11336.62
898.932	11407.62
899.17	11276.62
899.409	11253.62
899.647	11202.62
899.886	11280.62
900.124	11218.62
900.363	11129.62
900.601	11220.62
900.839	11291.62
901.078	11172.62
901.316	11265.62
901.554	11322.62
901.792	11314.62
902.03	11332.62
902.268	11349.62
902.506	11350.62
902.744	11173.62
902.982	11190.62
903.22	10941.62
903.458	10895.62
903.695	10754.62
903.933	10548.62
904.171	10367.62
904.409	10251.62
904.646	10192.62
904.884	9936.62
905.121	9853.62
905.359	9844.62
905.596	9725.62
905.833	9597.62
906.071	9514.62
906.308	9588.62
906.545	9555.62
906.783	9474.62
907.02	9431.62
907.257	9465.62
907.494	9430.62
907.731	9429.62
907.968	9310.62
908.205	9207.62
908.442	9194.62
908.679	9190.62
908.915	9167.62
909.152	9049.62
909.389	8855.62
909.626	8861.62
909.862	8703.62
910.099	8738.62
910.335	8784.62
910.572	8648.62
910.808	8728.62
911.045	8590.62
911.281	8525.62
911.518	8682.62
911.754	8469.62
911.99	8460.62
912.226	8387.62
912.463	8329.62
912.699	8274.62
912.935	8176.62
913.171	8087.62
913.407	8009.62
913.643	8077.62
913.879	7967.62
914.114	7846.62
914.35	7790.62
914.586	7767.62
914.822	7662.62
915.057	7680.62
915.293	7459.62
915.529	7531.62
915.764	7595.62
916	7528.62
916.235	7443.62
916.471	7464.62
916.706	7422.62
916.941	7354.62
917.177	7387.62
917.412	7400.62
917.647	7354.62
917.882	7306.62
918.117	7378.62
918.352	7299.62
918.588	7333.62
918.823	7228.62
919.057	7140.62
919.292	6983.62
919.527	7064.62
919.762	6977.62
919.997	6957.62
920.232	6811.62
920.466	6806.62
920.701	6669.62
920.935	6631.62
921.17	6627.62
921.405	6530.62
921.639	6637.62
921.873	6546.62
922.108	6544.62
922.342	6482.62
922.576	6509.62
922.811	6483.62
923.045	6424.62
923.279	6493.62
923.513	6258.62
923.747	6403.62
923.981	6290.62
924.215	6219.62
924.449	6189.62
924.683	6110.62
924.917	6106.62
925.151	6065.62
925.385	6103.62
925.618	6039.62
925.852	6052.62
926.086	5954.62
926.319	6037.62
926.553	5976.62
926.786	5954.62
927.02	5994.62
927.253	5977.62
927.486	5958.62
927.72	5835.62
927.953	5961.62
928.186	5898.62
928.42	5949.62
928.653	5832.62
928.886	5829.62
929.119	5785.62
929.352	5760.62
929.585	5756.62
929.818	5675.62
930.051	5654.62
930.284	5657.62
930.516	5532.62
930.749	5469.62
930.982	5501.62
931.215	5514.62
931.447	5369.62
931.68	5433.62
931.912	5370.62
932.145	5362.62
932.377	5380.62
932.61	5561.62
932.842	5323.62
933.074	5396.62
933.307	5292.62
933.539	5407.62
933.771	5381.62
934.003	5296.62
934.236	5429.62
934.468	5406.62
934.7	5264.62
934.932	5328.62
935.164	5262.62
935.395	5287.62
935.627	5229.62
935.859	5259.62
936.091	5129.62
936.323	5228.62
936.554	5239.62
936.786	5178.62
937.017	5110.62
937.249	5114.62
937.481	5033.62
937.712	5096.62
937.943	5086.62
938.175	5043.62
938.406	4999.62
938.637	5068.62
938.869	4986.62
939.1	5018.62
939.331	4946.62
939.562	4939.62
939.793	4959.62
940.024	4958.62
940.255	4924.62
940.486	4861.62
940.717	4890.62
940.948	4883.62
941.179	4789.62
941.409	4804.62
941.64	4882.62
941.871	4807.62
942.102	4714.62
942.332	4789.62
942.563	4778.62
942.793	4783.62
943.024	4693.62
943.254	4771.62
943.484	4830.62
943.715	4808.62
943.945	4758.62
944.175	4664.62
944.405	4668.62
944.636	4670.62
944.866	4699.62
945.096	4722.62
945.326	4662.62
945.556	4666.62
945.786	4656.62
946.016	4603.62
946.245	4543.62
946.475	4527.62
946.705	4455.62
946.935	4510.62
947.164	4509.62
947.394	4380.62
947.624	4417.62
947.853	4420.62
948.083	4374.62
948.312	4365.62
948.542	4306.62
948.771	4268.62
949	4259.62
949.23	4281.62
949.459	4294.62
949.688	4347.62
949.917	4305.62
950.146	4320.62
950.375	4350.62
950.604	4263.62
950.833	4295.62
951.062	4282.62
951.291	4231.62
951.52	4180.62
951.749	4157.62
951.978	4152.62
952.206	4151.62
952.435	4141.62
952.664	4183.62
952.892	4192.62
953.121	4116.62
953.349	4140.62
953.578	4139.62
953.806	4097.62
954.035	4019.62
954.263	4059.62
954.491	3927.62
954.719	3997.62
954.948	3908.62
955.176	3958.62
955.404	3867.62
955.632	3911.62
955.86	3903.62
956.088	3908.62
956.316	3862.62
956.544	3891.62
956.772	3824.62
956.999	3793.62
957.227	3901.62
957.455	3720.62
957.683	3739.62
957.91	3690.62
958.138	3667.62
958.365	3653.62
958.593	3624.62
958.82	3586.62
959.048	3627.62
959.275	3636.62
959.502	3645.62
959.73	3584.62
959.957	3618.62
960.184	3627.62
960.411	3547.62
960.638	3634.62
960.865	3596.62
961.092	3602.62
961.319	3449.62
961.546	3575.62
961.773	3609.62
962	3537.62
962.227	3578.62
962.454	3512.62
962.68	3450.62
962.907	3502.62
963.134	3474.62
963.36	3451.62
963.587	3487.62
963.813	3423.62
964.04	3433.62
964.266	3301.62
964.493	3430.62
964.719	3371.62
964.945	3365.62
965.171	3263.62
965.398	3273.62
965.624	3311.62
965.85	3243.62
966.076	3221.62
966.302	3269.62
966.528	3214.62
966.754	3212.62
966.98	3240.62
967.206	3191.62
967.431	3113.62
967.657	3255.62
967.883	3150.62
968.109	3169.62
968.334	3166.62
968.56	3108.62
968.785	3122.62
969.011	3083.62
969.236	3113.62
969.462	3084.62
969.687	3063.62
969.912	3072.62
970.138	3071.62
970.363	3014.62
970.588	3057.62
970.813	3037.62
971.038	2946.62
971.263	3009.62
971.488	3018.62
971.713	3034.62
971.938	3009.62
972.163	2922.62
972.388	2923.62
972.613	2881.62
972.838	2880.62
973.062	2878.62
973.287	2887.62
973.512	2840.62
973.736	2858.62
973.961	2793.62
974.185	2811.62
974.41	2816.62
974.634	2733.62
974.858	2750.62
975.083	2771.62
975.307	2794.62
975.531	2713.62
975.755	2647.62
975.98	2672.62
976.204	2575.62
976.428	2632.62
976.652	2628.62
976.876	2557.62
977.1	2622.62
977.324	2547.62
977.547	2608.62
977.771	2630.62
977.995	2615.62
978.219	2550.62
978.442	2578.62
978.666	2560.62
978.89	2550.62
979.113	2548.62
979.337	2539.62
979.56	2499.62
979.783	2599.62
980.007	2441.62
980.23	2482.62
980.453	2458.62
980.677	2476.62
980.9	2482.62
981.123	2406.62
981.346	2476.62
981.569	2448.62
981.792	2445.62
982.015	2406.62
982.238	2393.62
982.461	2347.62
982.684	2361.62
982.907	2300.62
983.129	2298.62
983.352	2364.62
983.575	2330.62
983.797	2342.62
984.02	2276.62
984.242	2252.62
984.465	2276.62
984.687	2300.62
984.91	2325.62
985.132	2280.62
985.354	2294.62
985.577	2243.62
985.799	2242.62
986.021	2163.62
986.243	2174.62
986.465	2192.62
986.687	2240.62
986.909	2265.62
987.131	2189.62
987.353	2147.62
987.575	2166.62
987.797	2154.62
988.019	2120.62
988.241	2122.62
988.462	2139.62
988.684	2182.62
988.906	2169.62
989.127	2236.62
989.349	2075.62
989.57	2132.62
989.792	2143.62
990.013	2160.62
990.234	2135.62
990.456	2132.62
990.677	2117.62
990.898	2067.62
991.119	2063.62
991.341	2073.62
991.562	2029.62
991.783	2084.62
992.004	2015.62
992.225	1966.62
992.446	2006.62
992.667	1969.62
992.887	2021.62
993.108	1914.62
993.329	2061.62
993.55	1977.62
993.77	1907.62
993.991	1946.62
994.212	1964.62
994.432	1924.62
994.653	1947.62
994.873	1941.62
995.093	1819.62
995.314	1862.62
995.534	1917.62
995.754	1930.62
995.975	1966.62
996.195	1814.62
996.415	1878.62
996.635	1879.62
996.855	1868.62
997.075	1848.62
997.295	1834.62
997.515	1847.62
997.735	1878.62
997.955	1855.62
998.174	1860.62
998.394	1795.62
998.614	1846.62
998.834	1813.62
999.053	1853.62
999.273	1821.62
999.492	1883.62
999.712	1831.62
999.931	1781.62
1000.151	1793.62
1000.37	1797.62
1000.589	1838.62
1000.809	1745.62
1001.028	1864.62
1001.247	1815.62
1001.466	1697.62
1001.685	1808.62
1001.904	1750.62
1002.123	1749.62
1002.342	1732.62
1002.561	1689.62
1002.78	1712.62
1002.999	1772.62
1003.218	1722.62
1003.436	1691.62
1003.655	1748.62
1003.874	1667.62
1004.092	1718.62
1004.311	1743.62
1004.53	1717.62
1004.748	1767.62
1004.966	1674.62
1005.185	1767.62
1005.403	1745.62
1005.622	1699.62
1005.84	1740.62
1006.058	1659.62
1006.276	1694.62
1006.494	2170.62
1006.712	1682.62
1006.931	1741.62
1007.149	1652.62
1007.367	1632.62
1007.584	1702.62
1007.802	1703.62
1008.02	1688.62
1008.238	1747.62
1008.456	1798.62
1008.673	1639.62
1008.891	1724.62
1009.109	1735.62
1009.326	1761.62
1009.544	1849.62
1009.761	1752.62
1009.979	1871.62
1010.196	1876.62
1010.413	1951.62
1010.631	2016.62
1010.848	2059.62
1011.065	2068.62
1011.282	2049.62
1011.5	1956.62
1011.717	2078.62
1011.934	1996.62
1012.151	2027.62
1012.368	2018.62
1012.585	1937.62
1012.801	1982.62
1013.018	1959.62
1013.235	1973.62
1013.452	1970.62
1013.669	1963.62
1013.885	1958.62
1014.102	2022.62
1014.318	1925.62
1014.535	1938.62
1014.751	1960.62
1014.968	1940.62
1015.184	1955.62
1015.401	1881.62
1015.617	1914.62
1015.833	1832.62
1016.049	1840.62
1016.266	1817.62
1016.482	1794.62
1016.698	1764.62
1016.914	1780.62
1017.13	1740.62
1017.346	1754.62
1017.562	1805.62
1017.778	1736.62
1017.993	1668.62
1018.209	1738.62
1018.425	1712.62
1018.641	1679.62
1018.856	1668.62
1019.072	1678.62
1019.288	1734.62
1019.503	1683.62
1019.719	1630.62
1019.934	1639.62
1020.149	1680.62
1020.365	1647.62
1020.58	1590.62
1020.795	1576.62
1021.011	1526.62
1021.226	1529.62
1021.441	1538.62
1021.656	1441.62
1021.871	1385.62
1022.086	1381.62
1022.301	1381.62
1022.516	1357.62
1022.731	1393.62
1022.946	1303.62
1023.16	1285.62
1023.375	1260.62
1023.59	1234.62
1023.804	1172.62
1024.019	1301.62
1024.234	1167.62
1024.448	1192.62
1024.663	1127.62
1024.877	1143.62
1025.092	1146.62
1025.306	1156.62
1025.52	1072.62
1025.734	1131.62
1025.949	1057.62
1026.163	1025.62
1026.377	943.62
1026.591	991.62
1026.805	927.62
1027.019	930.62
1027.233	902.62
1027.447	825.62
1027.661	936.62
1027.875	846.62
1028.088	871.62
1028.302	794.62
1028.516	789.62
1028.73	779.62
1028.943	762.62
1029.157	715.62
1029.37	658.62
1029.584	0.62
1029.797	-1.38
1030.011	-1.38
1030.224	-0.38
