Data from QEP037381__150__15-48-29-883.txt Node

Date: Fri Dec 16 15:48:29 EST 2022
User: dcclab
Spectrometer: QEP03738
Trigger mode: 4
Integration Time (sec): 1.000000E1
Scans to average: 1
Electric dark correction enabled: true
Nonlinearity correction enabled: false
Boxcar width: 0
XAxis mode: Wavelengths
Number of Pixels in Spectrum: 1044
>>>>>Begin Spectral Data<<<<<
784.041	12.25
784.3	-2.75
784.558	-3.75
784.817	-1.75
785.075	113318.25
785.334	19871.25
785.592	9406.25
785.851	6504.25
786.109	4825.25
786.368	3801.25
786.626	3046.25
786.884	2509.25
787.143	2096.25
787.401	1730.25
787.659	1552.25
787.917	1331.25
788.175	1220.25
788.433	1087.25
788.691	956.25
788.949	877.25
789.207	833.25
789.465	727.25
789.723	695.25
789.98	659.25
790.238	683.25
790.496	633.25
790.753	613.25
791.011	645.25
791.268	587.25
791.526	554.25
791.783	588.25
792.041	570.25
792.298	496.25
792.556	543.25
792.813	522.25
793.07	504.25
793.327	494.25
793.584	585.25
793.841	500.25
794.099	514.25
794.356	563.25
794.613	467.25
794.869	509.25
795.126	469.25
795.383	447.25
795.64	474.25
795.897	420.25
796.153	488.25
796.41	467.25
796.667	457.25
796.923	466.25
797.18	454.25
797.436	480.25
797.693	451.25
797.949	502.25
798.206	544.25
798.462	456.25
798.718	519.25
798.974	480.25
799.231	530.25
799.487	517.25
799.743	529.25
799.999	577.25
800.255	564.25
800.511	553.25
800.767	609.25
801.023	621.25
801.279	657.25
801.534	690.25
801.79	781.25
802.046	825.25
802.302	1003.25
802.557	1169.25
802.813	1461.25
803.068	1874.25
803.324	2575.25
803.579	3582.25
803.835	4963.25
804.09	6934.25
804.345	9049.25
804.601	11491.25
804.856	13905.25
805.111	16092.25
805.366	17823.25
805.621	19034.25
805.876	19915.25
806.131	20513.25
806.386	20905.25
806.641	21179.25
806.896	21667.25
807.151	22097.25
807.406	22456.25
807.661	22811.25
807.915	23221.25
808.17	23632.25
808.425	23873.25
808.679	23982.25
808.934	24271.25
809.188	24591.25
809.443	24868.25
809.697	25058.25
809.951	25275.25
810.206	25528.25
810.46	25695.25
810.714	26086.25
810.968	26240.25
811.223	26372.25
811.477	26732.25
811.731	26831.25
811.985	27039.25
812.239	26996.25
812.493	27324.25
812.747	27313.25
813	27396.25
813.254	27531.25
813.508	27757.25
813.762	27739.25
814.015	27847.25
814.269	28084.25
814.522	28334.25
814.776	28674.25
815.03	29029.25
815.283	29424.25
815.536	29972.25
815.79	30507.25
816.043	30862.25
816.296	31283.25
816.55	31586.25
816.803	32006.25
817.056	32357.25
817.309	32669.25
817.562	32862.25
817.815	33351.25
818.068	33470.25
818.321	33834.25
818.574	34280.25
818.827	34563.25
819.079	34922.25
819.332	35573.25
819.585	35974.25
819.838	36402.25
820.09	36575.25
820.343	36980.25
820.595	37257.25
820.848	37314.25
821.1	37571.25
821.353	37707.25
821.605	37547.25
821.857	37590.25
822.11	37385.25
822.362	37321.25
822.614	37171.25
822.866	37245.25
823.118	37296.25
823.37	37379.25
823.622	37352.25
823.874	37406.25
824.126	37732.25
824.378	37671.25
824.63	37709.25
824.882	37873.25
825.134	37822.25
825.385	37927.25
825.637	37717.25
825.888	37693.25
826.14	37614.25
826.392	37420.25
826.643	37275.25
826.895	37090.25
827.146	36992.25
827.397	36910.25
827.649	36977.25
827.9	36934.25
828.151	36953.25
828.402	37046.25
828.653	37114.25
828.905	37179.25
829.156	37215.25
829.407	37080.25
829.658	37213.25
829.909	37120.25
830.159	37108.25
830.41	36981.25
830.661	36808.25
830.912	36480.25
831.162	36342.25
831.413	36370.25
831.664	36305.25
831.914	36245.25
832.165	36214.25
832.415	36261.25
832.666	36202.25
832.916	36340.25
833.167	36124.25
833.417	36214.25
833.667	36018.25
833.917	35939.25
834.168	35878.25
834.418	35767.25
834.668	35621.25
834.918	35524.25
835.168	35421.25
835.418	35250.25
835.668	35135.25
835.918	34957.25
836.167	34946.25
836.417	34784.25
836.667	34754.25
836.917	34655.25
837.166	34720.25
837.416	34764.25
837.666	34573.25
837.915	34598.25
838.165	34409.25
838.414	34372.25
838.663	34374.25
838.913	34322.25
839.162	34218.25
839.411	34272.25
839.661	33991.25
839.91	33887.25
840.159	33817.25
840.408	33882.25
840.657	33900.25
840.906	33725.25
841.155	33812.25
841.404	33734.25
841.653	33787.25
841.902	33893.25
842.15	33804.25
842.399	33866.25
842.648	33789.25
842.897	33733.25
843.145	33420.25
843.394	33273.25
843.642	32987.25
843.891	32961.25
844.139	32834.25
844.388	32564.25
844.636	32465.25
844.884	32482.25
845.133	32278.25
845.381	32283.25
845.629	32352.25
845.877	32277.25
846.125	32171.25
846.373	32197.25
846.621	32050.25
846.869	31947.25
847.117	31814.25
847.365	31515.25
847.613	31390.25
847.861	31358.25
848.108	31354.25
848.356	31276.25
848.604	31174.25
848.851	31134.25
849.099	31261.25
849.346	31266.25
849.594	31390.25
849.841	31536.25
850.089	31440.25
850.336	31490.25
850.583	31515.25
850.831	31261.25
851.078	31040.25
851.325	31000.25
851.572	31053.25
851.819	30752.25
852.066	30306.25
852.313	29929.25
852.56	29663.25
852.807	29657.25
853.054	29536.25
853.301	29365.25
853.548	29316.25
853.794	29575.25
854.041	29619.25
854.288	29715.25
854.534	30007.25
854.781	29811.25
855.028	29763.25
855.274	29628.25
855.52	29585.25
855.767	29391.25
856.013	29408.25
856.26	29636.25
856.506	29046.25
856.752	28986.25
856.998	29028.25
857.244	29175.25
857.49	29272.25
857.736	29264.25
857.982	29215.25
858.228	29236.25
858.474	28916.25
858.72	28912.25
858.966	28580.25
859.212	28288.25
859.458	28111.25
859.703	27788.25
859.949	27491.25
860.195	27303.25
860.44	27174.25
860.686	26984.25
860.931	27058.25
861.177	26814.25
861.422	26779.25
861.667	26710.25
861.913	26577.25
862.158	26814.25
862.403	26886.25
862.648	26794.25
862.893	26804.25
863.138	26928.25
863.384	26790.25
863.629	26727.25
863.873	26687.25
864.118	26511.25
864.363	26521.25
864.608	26485.25
864.853	26387.25
865.098	26147.25
865.342	26071.25
865.587	25948.25
865.832	25916.25
866.076	25835.25
866.321	25738.25
866.565	25714.25
866.81	25486.25
867.054	25457.25
867.298	25383.25
867.543	25233.25
867.787	25252.25
868.031	25253.25
868.275	25086.25
868.519	25009.25
868.764	25054.25
869.008	25017.25
869.252	24908.25
869.496	24801.25
869.739	24671.25
869.983	24765.25
870.227	24718.25
870.471	24641.25
870.715	24820.25
870.958	24766.25
871.202	24740.25
871.446	24850.25
871.689	24838.25
871.933	24805.25
872.176	24807.25
872.42	24689.25
872.663	24618.25
872.906	24623.25
873.15	24417.25
873.393	24364.25
873.636	24195.25
873.879	23932.25
874.122	23862.25
874.366	23610.25
874.609	23366.25
874.852	23223.25
875.095	23077.25
875.337	22944.25
875.58	22859.25
875.823	22818.25
876.066	22857.25
876.309	22740.25
876.551	22459.25
876.794	22436.25
877.037	22464.25
877.279	22319.25
877.522	22364.25
877.764	22293.25
878.007	22356.25
878.249	22263.25
878.491	22178.25
878.734	22285.25
878.976	22217.25
879.218	22009.25
879.46	21972.25
879.702	21699.25
879.945	21587.25
880.187	21421.25
880.429	21262.25
880.671	21185.25
880.912	21156.25
881.154	21030.25
881.396	20890.25
881.638	21012.25
881.88	20932.25
882.121	20826.25
882.363	20922.25
882.605	20839.25
882.846	20780.25
883.088	20681.25
883.329	20714.25
883.571	20564.25
883.812	20661.25
884.053	20961.25
884.295	21123.25
884.536	21238.25
884.777	21133.25
885.018	21119.25
885.259	20963.25
885.5	20793.25
885.742	21124.25
885.982	20792.25
886.223	20580.25
886.464	20706.25
886.705	20395.25
886.946	20244.25
887.187	19897.25
887.428	19784.25
887.668	19504.25
887.909	19405.25
888.15	19167.25
888.39	19117.25
888.631	18923.25
888.871	18805.25
889.111	18800.25
889.352	18580.25
889.592	18427.25
889.833	18244.25
890.073	18187.25
890.313	18143.25
890.553	17913.25
890.793	17840.25
891.033	17825.25
891.273	17659.25
891.513	17576.25
891.753	17566.25
891.993	17537.25
892.233	17508.25
892.473	17674.25
892.713	17646.25
892.952	17534.25
893.192	17601.25
893.432	17440.25
893.671	17588.25
893.911	17417.25
894.15	17334.25
894.39	17199.25
894.629	17127.25
894.869	16980.25
895.108	16936.25
895.347	16816.25
895.587	16789.25
895.826	16767.25
896.065	16561.25
896.304	16689.25
896.543	16668.25
896.782	16618.25
897.021	16532.25
897.26	16455.25
897.499	16514.25
897.738	16347.25
897.977	16285.25
898.216	16181.25
898.454	15990.25
898.693	15886.25
898.932	15890.25
899.17	15741.25
899.409	15767.25
899.647	15623.25
899.886	15636.25
900.124	15722.25
900.363	15583.25
900.601	15601.25
900.839	15690.25
901.078	15728.25
901.316	15766.25
901.554	15722.25
901.792	15801.25
902.03	15818.25
902.268	15744.25
902.506	15682.25
902.744	15619.25
902.982	15521.25
903.22	15286.25
903.458	15133.25
903.695	14954.25
903.933	14811.25
904.171	14615.25
904.409	14317.25
904.646	14266.25
904.884	14055.25
905.121	13917.25
905.359	13693.25
905.596	13612.25
905.833	13464.25
906.071	13378.25
906.308	13387.25
906.545	13387.25
906.783	13356.25
907.02	13303.25
907.257	13211.25
907.494	13321.25
907.731	13164.25
907.968	13135.25
908.205	13006.25
908.442	12815.25
908.679	12888.25
908.915	12775.25
909.152	12669.25
909.389	12468.25
909.626	12425.25
909.862	12453.25
910.099	12317.25
910.335	12283.25
910.572	12149.25
910.808	12202.25
911.045	12156.25
911.281	12084.25
911.518	12053.25
911.754	11982.25
911.99	11910.25
912.226	11793.25
912.463	11728.25
912.699	11580.25
912.935	11523.25
913.171	11450.25
913.407	11387.25
913.643	11308.25
913.879	11167.25
914.114	11099.25
914.35	10963.25
914.586	10891.25
914.822	10752.25
915.057	10708.25
915.293	10514.25
915.529	10577.25
915.764	10554.25
916	10515.25
916.235	10490.25
916.471	10555.25
916.706	10384.25
916.941	10370.25
917.177	10374.25
917.412	10474.25
917.647	10433.25
917.882	10325.25
918.117	10313.25
918.352	10278.25
918.588	10286.25
918.823	10065.25
919.057	10019.25
919.292	9888.25
919.527	9891.25
919.762	9735.25
919.997	9735.25
920.232	9579.25
920.466	9526.25
920.701	9421.25
920.935	9326.25
921.17	9228.25
921.405	9186.25
921.639	9213.25
921.873	9138.25
922.108	9186.25
922.342	9118.25
922.576	9050.25
922.811	9048.25
923.045	9017.25
923.279	8938.25
923.513	8816.25
923.747	8885.25
923.981	8802.25
924.215	8644.25
924.449	8687.25
924.683	8503.25
924.917	8524.25
925.151	8520.25
925.385	8557.25
925.618	8408.25
925.852	8437.25
926.086	8391.25
926.319	8372.25
926.553	8392.25
926.786	8388.25
927.02	8345.25
927.253	8408.25
927.486	8358.25
927.72	8215.25
927.953	8325.25
928.186	8230.25
928.42	8269.25
928.653	8254.25
928.886	8147.25
929.119	8128.25
929.352	8046.25
929.585	8032.25
929.818	7943.25
930.051	7889.25
930.284	7823.25
930.516	7761.25
930.749	7683.25
930.982	7721.25
931.215	7664.25
931.447	7554.25
931.68	7526.25
931.912	7502.25
932.145	7520.25
932.377	7483.25
932.61	7645.25
932.842	7418.25
933.074	7513.25
933.307	7459.25
933.539	7506.25
933.771	7493.25
934.003	7397.25
934.236	7524.25
934.468	7553.25
934.7	7395.25
934.932	7346.25
935.164	7351.25
935.395	7322.25
935.627	7294.25
935.859	7283.25
936.091	7229.25
936.323	7258.25
936.554	7162.25
936.786	7171.25
937.017	6991.25
937.249	7069.25
937.481	7074.25
937.712	7067.25
937.943	7059.25
938.175	7048.25
938.406	6928.25
938.637	7101.25
938.869	6967.25
939.1	6984.25
939.331	6894.25
939.562	6937.25
939.793	6862.25
940.024	6831.25
940.255	6875.25
940.486	6815.25
940.717	6719.25
940.948	6694.25
941.179	6644.25
941.409	6700.25
941.64	6682.25
941.871	6630.25
942.102	6641.25
942.332	6647.25
942.563	6638.25
942.793	6694.25
943.024	6623.25
943.254	6613.25
943.484	6647.25
943.715	6653.25
943.945	6627.25
944.175	6506.25
944.405	6529.25
944.636	6497.25
944.866	6516.25
945.096	6494.25
945.326	6462.25
945.556	6472.25
945.786	6451.25
946.016	6432.25
946.245	6325.25
946.475	6297.25
946.705	6293.25
946.935	6211.25
947.164	6209.25
947.394	6109.25
947.624	6150.25
947.853	6170.25
948.083	6088.25
948.312	6026.25
948.542	5953.25
948.771	5947.25
949	5909.25
949.23	5935.25
949.459	5970.25
949.688	5981.25
949.917	5940.25
950.146	5914.25
950.375	5913.25
950.604	5826.25
950.833	5886.25
951.062	5880.25
951.291	5861.25
951.52	5818.25
951.749	5828.25
951.978	5732.25
952.206	5702.25
952.435	5762.25
952.664	5736.25
952.892	5704.25
953.121	5664.25
953.349	5722.25
953.578	5659.25
953.806	5566.25
954.035	5585.25
954.263	5548.25
954.491	5554.25
954.719	5540.25
954.948	5517.25
955.176	5443.25
955.404	5339.25
955.632	5408.25
955.86	5455.25
956.088	5366.25
956.316	5318.25
956.544	5335.25
956.772	5229.25
956.999	5189.25
957.227	5243.25
957.455	5167.25
957.683	5172.25
957.91	5100.25
958.138	5090.25
958.365	5071.25
958.593	5030.25
958.82	4963.25
959.048	5039.25
959.275	4973.25
959.502	4933.25
959.73	4947.25
959.957	4969.25
960.184	4945.25
960.411	4895.25
960.638	4903.25
960.865	4882.25
961.092	4883.25
961.319	4825.25
961.546	4918.25
961.773	4889.25
962	4821.25
962.227	4870.25
962.454	4819.25
962.68	4767.25
962.907	4802.25
963.134	4730.25
963.36	4714.25
963.587	4750.25
963.813	4609.25
964.04	4644.25
964.266	4579.25
964.493	4646.25
964.719	4587.25
964.945	4569.25
965.171	4442.25
965.398	4535.25
965.624	4492.25
965.85	4420.25
966.076	4386.25
966.302	4432.25
966.528	4398.25
966.754	4442.25
966.98	4384.25
967.206	4372.25
967.431	4283.25
967.657	4362.25
967.883	4320.25
968.109	4303.25
968.334	4251.25
968.56	4223.25
968.785	4220.25
969.011	4160.25
969.236	4230.25
969.462	4172.25
969.687	4153.25
969.912	4190.25
970.138	4182.25
970.363	4109.25
970.588	4114.25
970.813	4090.25
971.038	4073.25
971.263	4097.25
971.488	4056.25
971.713	4074.25
971.938	4032.25
972.163	3931.25
972.388	3952.25
972.613	3924.25
972.838	3939.25
973.062	3927.25
973.287	3910.25
973.512	3805.25
973.736	3887.25
973.961	3839.25
974.185	3801.25
974.41	3831.25
974.634	3698.25
974.858	3684.25
975.083	3749.25
975.307	3744.25
975.531	3652.25
975.755	3605.25
975.98	3590.25
976.204	3566.25
976.428	3533.25
976.652	3553.25
976.876	3499.25
977.1	3534.25
977.324	3511.25
977.547	3526.25
977.771	3507.25
977.995	3477.25
978.219	3452.25
978.442	3552.25
978.666	3464.25
978.89	3466.25
979.113	3419.25
979.337	3384.25
979.56	3372.25
979.783	3424.25
980.007	3298.25
980.23	3364.25
980.453	3304.25
980.677	3367.25
980.9	3339.25
981.123	3251.25
981.346	3311.25
981.569	3258.25
981.792	3241.25
982.015	3211.25
982.238	3170.25
982.461	3166.25
982.684	3140.25
982.907	3108.25
983.129	3119.25
983.352	3165.25
983.575	3081.25
983.797	3076.25
984.02	3036.25
984.242	3030.25
984.465	3052.25
984.687	3037.25
984.91	3029.25
985.132	3074.25
985.354	3013.25
985.577	2986.25
985.799	2968.25
986.021	2876.25
986.243	2921.25
986.465	2870.25
986.687	2944.25
986.909	2926.25
987.131	2893.25
987.353	2829.25
987.575	2911.25
987.797	2865.25
988.019	2795.25
988.241	2793.25
988.462	2780.25
988.684	2845.25
988.906	2850.25
989.127	2867.25
989.349	2722.25
989.57	2780.25
989.792	2824.25
990.013	2796.25
990.234	2815.25
990.456	2814.25
990.677	2798.25
990.898	2737.25
991.119	2721.25
991.341	2770.25
991.562	2653.25
991.783	2711.25
992.004	2634.25
992.225	2603.25
992.446	2661.25
992.667	2563.25
992.887	2641.25
993.108	2531.25
993.329	2633.25
993.55	2540.25
993.77	2528.25
993.991	2522.25
994.212	2510.25
994.432	2513.25
994.653	2503.25
994.873	2511.25
995.093	2381.25
995.314	2419.25
995.534	2477.25
995.754	2488.25
995.975	2500.25
996.195	2366.25
996.415	2427.25
996.635	2391.25
996.855	2430.25
997.075	2383.25
997.295	2379.25
997.515	2341.25
997.735	2383.25
997.955	2368.25
998.174	2335.25
998.394	2305.25
998.614	2345.25
998.834	2294.25
999.053	2367.25
999.273	2327.25
999.492	2366.25
999.712	2328.25
999.931	2264.25
1000.151	2286.25
1000.37	2270.25
1000.589	2342.25
1000.809	2268.25
1001.028	2356.25
1001.247	2277.25
1001.466	2169.25
1001.685	2284.25
1001.904	2233.25
1002.123	2211.25
1002.342	2213.25
1002.561	2138.25
1002.78	2167.25
1002.999	2200.25
1003.218	2162.25
1003.436	2141.25
1003.655	2161.25
1003.874	2075.25
1004.092	2086.25
1004.311	2145.25
1004.53	2106.25
1004.748	2171.25
1004.966	2106.25
1005.185	2148.25
1005.403	2134.25
1005.622	2091.25
1005.84	2160.25
1006.058	2047.25
1006.276	2080.25
1006.494	2576.25
1006.712	2093.25
1006.931	2150.25
1007.149	2040.25
1007.367	2048.25
1007.584	2078.25
1007.802	2116.25
1008.02	2039.25
1008.238	2157.25
1008.456	2148.25
1008.673	2001.25
1008.891	2094.25
1009.109	2088.25
1009.326	2129.25
1009.544	2208.25
1009.761	2125.25
1009.979	2217.25
1010.196	2228.25
1010.413	2314.25
1010.631	2399.25
1010.848	2425.25
1011.065	2401.25
1011.282	2380.25
1011.5	2302.25
1011.717	2421.25
1011.934	2349.25
1012.151	2352.25
1012.368	2330.25
1012.585	2244.25
1012.801	2350.25
1013.018	2300.25
1013.235	2251.25
1013.452	2270.25
1013.669	2283.25
1013.885	2312.25
1014.102	2312.25
1014.318	2282.25
1014.535	2219.25
1014.751	2260.25
1014.968	2281.25
1015.184	2290.25
1015.401	2186.25
1015.617	2209.25
1015.833	2145.25
1016.049	2130.25
1016.266	2094.25
1016.482	2102.25
1016.698	2064.25
1016.914	2091.25
1017.13	2052.25
1017.346	2035.25
1017.562	2095.25
1017.778	2036.25
1017.993	1982.25
1018.209	2033.25
1018.425	1978.25
1018.641	1980.25
1018.856	1934.25
1019.072	1970.25
1019.288	2029.25
1019.503	1997.25
1019.719	1880.25
1019.934	1896.25
1020.149	1986.25
1020.365	1875.25
1020.58	1827.25
1020.795	1859.25
1021.011	1817.25
1021.226	1775.25
1021.441	1818.25
1021.656	1702.25
1021.871	1644.25
1022.086	1637.25
1022.301	1598.25
1022.516	1599.25
1022.731	1636.25
1022.946	1559.25
1023.16	1528.25
1023.375	1488.25
1023.59	1491.25
1023.804	1446.25
1024.019	1524.25
1024.234	1379.25
1024.448	1407.25
1024.663	1311.25
1024.877	1324.25
1025.092	1361.25
1025.306	1352.25
1025.52	1229.25
1025.734	1332.25
1025.949	1228.25
1026.163	1222.25
1026.377	1129.25
1026.591	1173.25
1026.805	1080.25
1027.019	1098.25
1027.233	1065.25
1027.447	1003.25
1027.661	1099.25
1027.875	1031.25
1028.088	1029.25
1028.302	951.25
1028.516	917.25
1028.73	917.25
1028.943	885.25
1029.157	830.25
1029.37	798.25
1029.584	-1.75
1029.797	-0.75
1030.011	-0.75
1030.224	-0.75
