Data from QEP037381__135__15-45-59-882.txt Node

Date: Fri Dec 16 15:45:59 EST 2022
User: dcclab
Spectrometer: QEP03738
Trigger mode: 4
Integration Time (sec): 1.000000E1
Scans to average: 1
Electric dark correction enabled: true
Nonlinearity correction enabled: false
Boxcar width: 0
XAxis mode: Wavelengths
Number of Pixels in Spectrum: 1044
>>>>>Begin Spectral Data<<<<<
784.041	13.62
784.3	1.62
784.558	-0.38
784.817	-9.38
785.075	112383.62
785.334	19486.62
785.592	9123.62
785.851	6301.62
786.109	4774.62
786.368	3675.62
786.626	2984.62
786.884	2459.62
787.143	2056.62
787.401	1708.62
787.659	1523.62
787.917	1322.62
788.175	1211.62
788.433	1051.62
788.691	930.62
788.949	889.62
789.207	845.62
789.465	716.62
789.723	696.62
789.98	648.62
790.238	681.62
790.496	636.62
790.753	621.62
791.011	656.62
791.268	599.62
791.526	572.62
791.783	563.62
792.041	566.62
792.298	484.62
792.556	528.62
792.813	529.62
793.07	486.62
793.327	495.62
793.584	557.62
793.841	494.62
794.099	496.62
794.356	579.62
794.613	465.62
794.869	497.62
795.126	486.62
795.383	446.62
795.64	468.62
795.897	433.62
796.153	489.62
796.41	472.62
796.667	443.62
796.923	462.62
797.18	468.62
797.436	481.62
797.693	453.62
797.949	509.62
798.206	526.62
798.462	462.62
798.718	509.62
798.974	497.62
799.231	538.62
799.487	536.62
799.743	543.62
799.999	595.62
800.255	575.62
800.511	575.62
800.767	616.62
801.023	623.62
801.279	665.62
801.534	717.62
801.79	784.62
802.046	839.62
802.302	1010.62
802.557	1204.62
802.813	1535.62
803.068	1942.62
803.324	2720.62
803.579	3744.62
803.835	5243.62
804.09	7241.62
804.345	9558.62
804.601	12035.62
804.856	14639.62
805.111	16882.62
805.366	18741.62
805.621	19998.62
805.876	20931.62
806.131	21464.62
806.386	22018.62
806.641	22307.62
806.896	22749.62
807.151	23102.62
807.406	23369.62
807.661	24014.62
807.915	24374.62
808.17	24657.62
808.425	25009.62
808.679	25122.62
808.934	25502.62
809.188	25763.62
809.443	26116.62
809.697	26365.62
809.951	26447.62
810.206	26778.62
810.46	27035.62
810.714	27225.62
810.968	27353.62
811.223	27626.62
811.477	27895.62
811.731	28073.62
811.985	28295.62
812.239	28339.62
812.493	28615.62
812.747	28619.62
813	28689.62
813.254	28919.62
813.508	28901.62
813.762	29258.62
814.015	29170.62
814.269	29553.62
814.522	29580.62
814.776	30133.62
815.03	30469.62
815.283	30852.62
815.536	31317.62
815.79	31791.62
816.043	32316.62
816.296	32748.62
816.55	33123.62
816.803	33436.62
817.056	33838.62
817.309	34245.62
817.562	34559.62
817.815	34850.62
818.068	34897.62
818.321	35480.62
818.574	35887.62
818.827	36275.62
819.079	36782.62
819.332	37345.62
819.585	37681.62
819.838	38160.62
820.09	38326.62
820.343	38877.62
820.595	38995.62
820.848	39130.62
821.1	39352.62
821.353	39289.62
821.605	39324.62
821.857	39315.62
822.11	39236.62
822.362	39015.62
822.614	39014.62
822.866	39192.62
823.118	39051.62
823.37	39225.62
823.622	39282.62
823.874	39233.62
824.126	39523.62
824.378	39455.62
824.63	39555.62
824.882	39766.62
825.134	39698.62
825.385	39620.62
825.637	39432.62
825.888	39533.62
826.14	39290.62
826.392	39154.62
826.643	39115.62
826.895	38969.62
827.146	38814.62
827.397	38702.62
827.649	38743.62
827.9	38668.62
828.151	38634.62
828.402	38752.62
828.653	38906.62
828.905	38931.62
829.156	39031.62
829.407	39103.62
829.658	39065.62
829.909	39040.62
830.159	38906.62
830.41	38695.62
830.661	38547.62
830.912	38225.62
831.162	38091.62
831.413	37959.62
831.664	38125.62
831.914	37952.62
832.165	38024.62
832.415	37994.62
832.666	38048.62
832.916	38021.62
833.167	37875.62
833.417	37980.62
833.667	37807.62
833.917	37763.62
834.168	37526.62
834.418	37448.62
834.668	37365.62
834.918	37045.62
835.168	37112.62
835.418	36858.62
835.668	36755.62
835.918	36684.62
836.167	36488.62
836.417	36584.62
836.667	36426.62
836.917	36404.62
837.166	36310.62
837.416	36394.62
837.666	36275.62
837.915	36201.62
838.165	36158.62
838.414	36139.62
838.663	35984.62
838.913	35949.62
839.162	35913.62
839.411	35743.62
839.661	35585.62
839.91	35499.62
840.159	35324.62
840.408	35387.62
840.657	35430.62
840.906	35360.62
841.155	35347.62
841.404	35489.62
841.653	35236.62
841.902	35313.62
842.15	35411.62
842.399	35382.62
842.648	35289.62
842.897	35162.62
843.145	35033.62
843.394	34703.62
843.642	34656.62
843.891	34507.62
844.139	34182.62
844.388	34076.62
844.636	34025.62
844.884	33921.62
845.133	33782.62
845.381	33778.62
845.629	33704.62
845.877	33624.62
846.125	33621.62
846.373	33663.62
846.621	33567.62
846.869	33330.62
847.117	33128.62
847.365	33203.62
847.613	32825.62
847.861	32716.62
848.108	32727.62
848.356	32685.62
848.604	32606.62
848.851	32432.62
849.099	32617.62
849.346	32719.62
849.594	32727.62
849.841	32753.62
850.089	32862.62
850.336	33002.62
850.583	32873.62
850.831	32585.62
851.078	32455.62
851.325	32478.62
851.572	32352.62
851.819	32120.62
852.066	31658.62
852.313	31296.62
852.56	30935.62
852.807	30817.62
853.054	30755.62
853.301	30696.62
853.548	30716.62
853.794	30889.62
854.041	30949.62
854.288	31031.62
854.534	31235.62
854.781	31268.62
855.028	31032.62
855.274	30997.62
855.52	30802.62
855.767	30604.62
856.013	30578.62
856.26	30854.62
856.506	30264.62
856.752	30452.62
856.998	30293.62
857.244	30408.62
857.49	30537.62
857.736	30431.62
857.982	30502.62
858.228	30416.62
858.474	30226.62
858.72	29981.62
858.966	29771.62
859.212	29629.62
859.458	29254.62
859.703	29133.62
859.949	28545.62
860.195	28510.62
860.44	28298.62
860.686	28153.62
860.931	28297.62
861.177	28103.62
861.422	27981.62
861.667	27855.62
861.913	27826.62
862.158	27914.62
862.403	27889.62
862.648	27984.62
862.893	28073.62
863.138	27833.62
863.384	27839.62
863.629	27845.62
863.873	27785.62
864.118	27839.62
864.363	27591.62
864.608	27522.62
864.853	27445.62
865.098	27276.62
865.342	27115.62
865.587	27000.62
865.832	26969.62
866.076	26941.62
866.321	26800.62
866.565	26709.62
866.81	26490.62
867.054	26504.62
867.298	26361.62
867.543	26342.62
867.787	26286.62
868.031	26238.62
868.275	26092.62
868.519	26078.62
868.764	26085.62
869.008	25851.62
869.252	25992.62
869.496	25758.62
869.739	25599.62
869.983	25664.62
870.227	25669.62
870.471	25735.62
870.715	25691.62
870.958	25667.62
871.202	25766.62
871.446	25774.62
871.689	25881.62
871.933	25782.62
872.176	25850.62
872.42	25624.62
872.663	25552.62
872.906	25544.62
873.15	25408.62
873.393	25181.62
873.636	25077.62
873.879	24940.62
874.122	24711.62
874.366	24338.62
874.609	24258.62
874.852	24141.62
875.095	23986.62
875.337	23815.62
875.58	23698.62
875.823	23674.62
876.066	23631.62
876.309	23601.62
876.551	23354.62
876.794	23334.62
877.037	23280.62
877.279	23138.62
877.522	23104.62
877.764	23304.62
878.007	23149.62
878.249	23167.62
878.491	23168.62
878.734	22976.62
878.976	22953.62
879.218	22822.62
879.46	22660.62
879.702	22589.62
879.945	22362.62
880.187	22293.62
880.429	22050.62
880.671	21997.62
880.912	21880.62
881.154	21799.62
881.396	21670.62
881.638	21737.62
881.88	21761.62
882.121	21573.62
882.363	21592.62
882.605	21561.62
882.846	21461.62
883.088	21443.62
883.329	21386.62
883.571	21385.62
883.812	21397.62
884.053	21681.62
884.295	21846.62
884.536	22053.62
884.777	21818.62
885.018	21799.62
885.259	21630.62
885.5	21582.62
885.742	21790.62
885.982	21424.62
886.223	21263.62
886.464	21294.62
886.705	21029.62
886.946	20915.62
887.187	20790.62
887.428	20449.62
887.668	20281.62
887.909	19914.62
888.15	19864.62
888.39	19776.62
888.631	19556.62
888.871	19432.62
889.111	19293.62
889.352	19208.62
889.592	19013.62
889.833	18894.62
890.073	18865.62
890.313	18760.62
890.553	18565.62
890.793	18545.62
891.033	18332.62
891.273	18352.62
891.513	18304.62
891.753	18218.62
891.993	18055.62
892.233	18145.62
892.473	18232.62
892.713	18163.62
892.952	18084.62
893.192	18166.62
893.432	18125.62
893.671	18138.62
893.911	18063.62
894.15	17884.62
894.39	17729.62
894.629	17652.62
894.869	17606.62
895.108	17398.62
895.347	17392.62
895.587	17349.62
895.826	17220.62
896.065	17195.62
896.304	17245.62
896.543	17224.62
896.782	17113.62
897.021	17083.62
897.26	16926.62
897.499	16965.62
897.738	16864.62
897.977	16834.62
898.216	16590.62
898.454	16478.62
898.693	16426.62
898.932	16313.62
899.17	16226.62
899.409	16208.62
899.647	16146.62
899.886	16195.62
900.124	16208.62
900.363	16230.62
900.601	16105.62
900.839	16118.62
901.078	16174.62
901.316	16191.62
901.554	16227.62
901.792	16305.62
902.03	16214.62
902.268	16135.62
902.506	16137.62
902.744	16032.62
902.982	16030.62
903.22	15764.62
903.458	15437.62
903.695	15401.62
903.933	15221.62
904.171	14990.62
904.409	14687.62
904.646	14686.62
904.884	14412.62
905.121	14317.62
905.359	14123.62
905.596	14036.62
905.833	13790.62
906.071	13764.62
906.308	13834.62
906.545	13815.62
906.783	13765.62
907.02	13629.62
907.257	13572.62
907.494	13563.62
907.731	13574.62
907.968	13524.62
908.205	13286.62
908.442	13337.62
908.679	13207.62
908.915	13108.62
909.152	13111.62
909.389	12825.62
909.626	12773.62
909.862	12690.62
910.099	12718.62
910.335	12652.62
910.572	12533.62
910.808	12479.62
911.045	12477.62
911.281	12378.62
911.518	12512.62
911.754	12313.62
911.99	12224.62
912.226	12101.62
912.463	11970.62
912.699	11947.62
912.935	11886.62
913.171	11713.62
913.407	11590.62
913.643	11636.62
913.879	11584.62
914.114	11398.62
914.35	11239.62
914.586	11205.62
914.822	11048.62
915.057	11054.62
915.293	10897.62
915.529	10901.62
915.764	10857.62
916	10810.62
916.235	10763.62
916.471	10780.62
916.706	10600.62
916.941	10673.62
917.177	10665.62
917.412	10694.62
917.647	10655.62
917.882	10611.62
918.117	10665.62
918.352	10554.62
918.588	10534.62
918.823	10356.62
919.057	10337.62
919.292	10128.62
919.527	10176.62
919.762	9964.62
919.997	9960.62
920.232	9810.62
920.466	9800.62
920.701	9550.62
920.935	9603.62
921.17	9494.62
921.405	9445.62
921.639	9497.62
921.873	9417.62
922.108	9368.62
922.342	9336.62
922.576	9302.62
922.811	9224.62
923.045	9181.62
923.279	9163.62
923.513	9035.62
923.747	9077.62
923.981	9044.62
924.215	8935.62
924.449	8924.62
924.683	8791.62
924.917	8750.62
925.151	8718.62
925.385	8768.62
925.618	8727.62
925.852	8682.62
926.086	8591.62
926.319	8599.62
926.553	8582.62
926.786	8654.62
927.02	8532.62
927.253	8573.62
927.486	8553.62
927.72	8476.62
927.953	8488.62
928.186	8412.62
928.42	8432.62
928.653	8303.62
928.886	8279.62
929.119	8292.62
929.352	8285.62
929.585	8213.62
929.818	8091.62
930.051	8116.62
930.284	8028.62
930.516	7937.62
930.749	7860.62
930.982	7884.62
931.215	7778.62
931.447	7698.62
931.68	7709.62
931.912	7734.62
932.145	7658.62
932.377	7652.62
932.61	7815.62
932.842	7562.62
933.074	7652.62
933.307	7584.62
933.539	7661.62
933.771	7648.62
934.003	7637.62
934.236	7628.62
934.468	7647.62
934.7	7588.62
934.932	7545.62
935.164	7495.62
935.395	7460.62
935.627	7515.62
935.859	7399.62
936.091	7360.62
936.323	7410.62
936.554	7372.62
936.786	7315.62
937.017	7225.62
937.249	7273.62
937.481	7134.62
937.712	7197.62
937.943	7272.62
938.175	7149.62
938.406	7112.62
938.637	7259.62
938.869	7107.62
939.1	7164.62
939.331	7066.62
939.562	7065.62
939.793	7038.62
940.024	7039.62
940.255	7027.62
940.486	6931.62
940.717	6892.62
940.948	6859.62
941.179	6816.62
941.409	6792.62
941.64	6839.62
941.871	6796.62
942.102	6791.62
942.332	6761.62
942.563	6773.62
942.793	6785.62
943.024	6735.62
943.254	6767.62
943.484	6738.62
943.715	6784.62
943.945	6721.62
944.175	6651.62
944.405	6674.62
944.636	6642.62
944.866	6600.62
945.096	6737.62
945.326	6536.62
945.556	6611.62
945.786	6621.62
946.016	6516.62
946.245	6484.62
946.475	6432.62
946.705	6435.62
946.935	6338.62
947.164	6307.62
947.394	6263.62
947.624	6250.62
947.853	6210.62
948.083	6216.62
948.312	6122.62
948.542	6046.62
948.771	6077.62
949	6051.62
949.23	6038.62
949.459	6062.62
949.688	6107.62
949.917	6043.62
950.146	6019.62
950.375	6101.62
950.604	5951.62
950.833	6086.62
951.062	6065.62
951.291	5963.62
951.52	5886.62
951.749	5928.62
951.978	5874.62
952.206	5829.62
952.435	5828.62
952.664	5861.62
952.892	5881.62
953.121	5844.62
953.349	5806.62
953.578	5788.62
953.806	5656.62
954.035	5624.62
954.263	5670.62
954.491	5593.62
954.719	5655.62
954.948	5578.62
955.176	5512.62
955.404	5442.62
955.632	5526.62
955.86	5505.62
956.088	5413.62
956.316	5399.62
956.544	5412.62
956.772	5349.62
956.999	5331.62
957.227	5362.62
957.455	5274.62
957.683	5311.62
957.91	5163.62
958.138	5195.62
958.365	5139.62
958.593	5107.62
958.82	5024.62
959.048	5123.62
959.275	5048.62
959.502	5043.62
959.73	5005.62
959.957	5040.62
960.184	5097.62
960.411	4970.62
960.638	5039.62
960.865	4958.62
961.092	4974.62
961.319	4886.62
961.546	4984.62
961.773	5001.62
962	4925.62
962.227	4917.62
962.454	4886.62
962.68	4830.62
962.907	4851.62
963.134	4814.62
963.36	4782.62
963.587	4810.62
963.813	4715.62
964.04	4763.62
964.266	4652.62
964.493	4703.62
964.719	4656.62
964.945	4642.62
965.171	4499.62
965.398	4578.62
965.624	4607.62
965.85	4550.62
966.076	4477.62
966.302	4501.62
966.528	4475.62
966.754	4496.62
966.98	4441.62
967.206	4383.62
967.431	4358.62
967.657	4391.62
967.883	4383.62
968.109	4361.62
968.334	4304.62
968.56	4312.62
968.785	4362.62
969.011	4219.62
969.236	4296.62
969.462	4273.62
969.687	4247.62
969.912	4253.62
970.138	4274.62
970.363	4158.62
970.588	4188.62
970.813	4151.62
971.038	4149.62
971.263	4131.62
971.488	4140.62
971.713	4157.62
971.938	4117.62
972.163	4001.62
972.388	4034.62
972.613	3988.62
972.838	3983.62
973.062	3986.62
973.287	3968.62
973.512	3894.62
973.736	3945.62
973.961	3883.62
974.185	3856.62
974.41	3839.62
974.634	3774.62
974.858	3751.62
975.083	3761.62
975.307	3745.62
975.531	3714.62
975.755	3654.62
975.98	3695.62
976.204	3588.62
976.428	3570.62
976.652	3578.62
976.876	3566.62
977.1	3588.62
977.324	3532.62
977.547	3539.62
977.771	3590.62
977.995	3544.62
978.219	3511.62
978.442	3538.62
978.666	3532.62
978.89	3469.62
979.113	3453.62
979.337	3472.62
979.56	3405.62
979.783	3527.62
980.007	3372.62
980.23	3373.62
980.453	3360.62
980.677	3391.62
980.9	3393.62
981.123	3287.62
981.346	3376.62
981.569	3314.62
981.792	3362.62
982.015	3287.62
982.238	3225.62
982.461	3235.62
982.684	3162.62
982.907	3126.62
983.129	3148.62
983.352	3193.62
983.575	3160.62
983.797	3154.62
984.02	3083.62
984.242	3050.62
984.465	3058.62
984.687	3105.62
984.91	3077.62
985.132	3071.62
985.354	3049.62
985.577	3013.62
985.799	3033.62
986.021	2925.62
986.243	2939.62
986.465	2963.62
986.687	2991.62
986.909	2991.62
987.131	2955.62
987.353	2877.62
987.575	2932.62
987.797	2867.62
988.019	2820.62
988.241	2897.62
988.462	2813.62
988.684	2864.62
988.906	2896.62
989.127	2887.62
989.349	2760.62
989.57	2855.62
989.792	2801.62
990.013	2849.62
990.234	2814.62
990.456	2849.62
990.677	2813.62
990.898	2743.62
991.119	2767.62
991.341	2758.62
991.562	2697.62
991.783	2739.62
992.004	2668.62
992.225	2615.62
992.446	2663.62
992.667	2583.62
992.887	2653.62
993.108	2550.62
993.329	2645.62
993.55	2614.62
993.77	2539.62
993.991	2517.62
994.212	2533.62
994.432	2519.62
994.653	2524.62
994.873	2537.62
995.093	2369.62
995.314	2431.62
995.534	2473.62
995.754	2474.62
995.975	2512.62
996.195	2395.62
996.415	2445.62
996.635	2421.62
996.855	2417.62
997.075	2409.62
997.295	2381.62
997.515	2356.62
997.735	2402.62
997.955	2380.62
998.174	2365.62
998.394	2330.62
998.614	2375.62
998.834	2325.62
999.053	2392.62
999.273	2363.62
999.492	2382.62
999.712	2339.62
999.931	2309.62
1000.151	2328.62
1000.37	2295.62
1000.589	2296.62
1000.809	2235.62
1001.028	2355.62
1001.247	2300.62
1001.466	2155.62
1001.685	2296.62
1001.904	2229.62
1002.123	2223.62
1002.342	2229.62
1002.561	2157.62
1002.78	2181.62
1002.999	2247.62
1003.218	2170.62
1003.436	2144.62
1003.655	2198.62
1003.874	2092.62
1004.092	2103.62
1004.311	2150.62
1004.53	2145.62
1004.748	2171.62
1004.966	2103.62
1005.185	2147.62
1005.403	2149.62
1005.622	2095.62
1005.84	2178.62
1006.058	2059.62
1006.276	2093.62
1006.494	2580.62
1006.712	2076.62
1006.931	2114.62
1007.149	2047.62
1007.367	2040.62
1007.584	2095.62
1007.802	2141.62
1008.02	2052.62
1008.238	2172.62
1008.456	2178.62
1008.673	2014.62
1008.891	2123.62
1009.109	2057.62
1009.326	2091.62
1009.544	2196.62
1009.761	2137.62
1009.979	2214.62
1010.196	2250.62
1010.413	2318.62
1010.631	2375.62
1010.848	2401.62
1011.065	2396.62
1011.282	2369.62
1011.5	2317.62
1011.717	2437.62
1011.934	2326.62
1012.151	2348.62
1012.368	2325.62
1012.585	2295.62
1012.801	2348.62
1013.018	2306.62
1013.235	2256.62
1013.452	2284.62
1013.669	2278.62
1013.885	2292.62
1014.102	2299.62
1014.318	2276.62
1014.535	2221.62
1014.751	2270.62
1014.968	2245.62
1015.184	2279.62
1015.401	2180.62
1015.617	2213.62
1015.833	2119.62
1016.049	2153.62
1016.266	2118.62
1016.482	2133.62
1016.698	2058.62
1016.914	2103.62
1017.13	2021.62
1017.346	2004.62
1017.562	2073.62
1017.778	2004.62
1017.993	1955.62
1018.209	2031.62
1018.425	2009.62
1018.641	1956.62
1018.856	1943.62
1019.072	1964.62
1019.288	2031.62
1019.503	1953.62
1019.719	1848.62
1019.934	1888.62
1020.149	1969.62
1020.365	1889.62
1020.58	1852.62
1020.795	1881.62
1021.011	1791.62
1021.226	1770.62
1021.441	1802.62
1021.656	1697.62
1021.871	1632.62
1022.086	1651.62
1022.301	1630.62
1022.516	1580.62
1022.731	1624.62
1022.946	1577.62
1023.16	1532.62
1023.375	1477.62
1023.59	1474.62
1023.804	1444.62
1024.019	1518.62
1024.234	1367.62
1024.448	1406.62
1024.663	1343.62
1024.877	1344.62
1025.092	1346.62
1025.306	1348.62
1025.52	1232.62
1025.734	1331.62
1025.949	1213.62
1026.163	1186.62
1026.377	1109.62
1026.591	1157.62
1026.805	1090.62
1027.019	1079.62
1027.233	1039.62
1027.447	1017.62
1027.661	1096.62
1027.875	1035.62
1028.088	1030.62
1028.302	945.62
1028.516	935.62
1028.73	935.62
1028.943	896.62
1029.157	850.62
1029.37	805.62
1029.584	-1.38
1029.797	-2.38
1030.011	0.62
1030.224	-2.38
