Data from QEP037381__209__15-58-19-892.txt Node

Date: Fri Dec 16 15:58:19 EST 2022
User: dcclab
Spectrometer: QEP03738
Trigger mode: 4
Integration Time (sec): 1.000000E1
Scans to average: 1
Electric dark correction enabled: true
Nonlinearity correction enabled: false
Boxcar width: 0
XAxis mode: Wavelengths
Number of Pixels in Spectrum: 1044
>>>>>Begin Spectral Data<<<<<
784.041	13.25
784.3	1.25
784.558	-0.75
784.817	-5.75
785.075	113814.25
785.334	19591.25
785.592	9124.25
785.851	6329.25
786.109	4782.25
786.368	3703.25
786.626	2956.25
786.884	2445.25
787.143	2054.25
787.401	1694.25
787.659	1512.25
787.917	1331.25
788.175	1167.25
788.433	1048.25
788.691	934.25
788.949	869.25
789.207	816.25
789.465	691.25
789.723	676.25
789.98	634.25
790.238	653.25
790.496	618.25
790.753	577.25
791.011	639.25
791.268	575.25
791.526	550.25
791.783	589.25
792.041	553.25
792.298	460.25
792.556	527.25
792.813	492.25
793.07	498.25
793.327	477.25
793.584	552.25
793.841	470.25
794.099	501.25
794.356	529.25
794.613	431.25
794.869	488.25
795.126	443.25
795.383	425.25
795.64	443.25
795.897	406.25
796.153	453.25
796.41	438.25
796.667	437.25
796.923	422.25
797.18	443.25
797.436	464.25
797.693	418.25
797.949	477.25
798.206	499.25
798.462	428.25
798.718	483.25
798.974	456.25
799.231	506.25
799.487	489.25
799.743	502.25
799.999	519.25
800.255	519.25
800.511	499.25
800.767	548.25
801.023	530.25
801.279	564.25
801.534	613.25
801.79	657.25
802.046	679.25
802.302	812.25
802.557	935.25
802.813	1168.25
803.068	1426.25
803.324	1935.25
803.579	2666.25
803.835	3617.25
804.09	5027.25
804.345	6561.25
804.601	8184.25
804.856	9982.25
805.111	11555.25
805.366	12783.25
805.621	13660.25
805.876	14405.25
806.131	14672.25
806.386	15076.25
806.641	15242.25
806.896	15566.25
807.151	15790.25
807.406	16005.25
807.661	16216.25
807.915	16570.25
808.17	16777.25
808.425	16952.25
808.679	17057.25
808.934	17360.25
809.188	17376.25
809.443	17579.25
809.697	17766.25
809.951	17911.25
810.206	18064.25
810.46	18196.25
810.714	18310.25
810.968	18661.25
811.223	18631.25
811.477	18837.25
811.731	19001.25
811.985	18998.25
812.239	19106.25
812.493	19199.25
812.747	19284.25
813	19364.25
813.254	19386.25
813.508	19441.25
813.762	19556.25
814.015	19619.25
814.269	19830.25
814.522	19901.25
814.776	20224.25
815.03	20377.25
815.283	20685.25
815.536	21003.25
815.79	21344.25
816.043	21669.25
816.296	21805.25
816.55	22086.25
816.803	22400.25
817.056	22638.25
817.309	22801.25
817.562	22973.25
817.815	23262.25
818.068	23298.25
818.321	23615.25
818.574	23819.25
818.827	24057.25
819.079	24388.25
819.332	24770.25
819.585	24967.25
819.838	25459.25
820.09	25608.25
820.343	25651.25
820.595	25836.25
820.848	25953.25
821.1	26048.25
821.353	26034.25
821.605	26071.25
821.857	26163.25
822.11	25860.25
822.362	25822.25
822.614	25724.25
822.866	25751.25
823.118	25792.25
823.37	25946.25
823.622	25867.25
823.874	25941.25
824.126	26080.25
824.378	26033.25
824.63	26348.25
824.882	26267.25
825.134	26164.25
825.385	26191.25
825.637	26082.25
825.888	25961.25
826.14	25872.25
826.392	25788.25
826.643	25570.25
826.895	25592.25
827.146	25444.25
827.397	25360.25
827.649	25440.25
827.9	25262.25
828.151	25363.25
828.402	25607.25
828.653	25541.25
828.905	25633.25
829.156	25659.25
829.407	25690.25
829.658	25657.25
829.909	25635.25
830.159	25704.25
830.41	25548.25
830.661	25296.25
830.912	25108.25
831.162	25048.25
831.413	25000.25
831.664	25052.25
831.914	24865.25
832.165	24973.25
832.415	24894.25
832.666	24902.25
832.916	24812.25
833.167	24891.25
833.417	24946.25
833.667	24806.25
833.917	24832.25
834.168	24588.25
834.418	24576.25
834.668	24379.25
834.918	24219.25
835.168	24174.25
835.418	24127.25
835.668	24056.25
835.918	23992.25
836.167	23865.25
836.417	23880.25
836.667	23725.25
836.917	23776.25
837.166	23773.25
837.416	23773.25
837.666	23745.25
837.915	23679.25
838.165	23644.25
838.414	23573.25
838.663	23442.25
838.913	23503.25
839.162	23390.25
839.411	23367.25
839.661	23251.25
839.91	23204.25
840.159	23094.25
840.408	23187.25
840.657	23092.25
840.906	23119.25
841.155	23132.25
841.404	23014.25
841.653	23127.25
841.902	23079.25
842.15	23172.25
842.399	23153.25
842.648	23205.25
842.897	22948.25
843.145	22726.25
843.394	22731.25
843.642	22718.25
843.891	22451.25
844.139	22327.25
844.388	22339.25
844.636	22145.25
844.884	22140.25
845.133	21997.25
845.381	21946.25
845.629	22073.25
845.877	22000.25
846.125	21899.25
846.373	21964.25
846.621	21833.25
846.869	21610.25
847.117	21559.25
847.365	21341.25
847.613	21277.25
847.861	21274.25
848.108	21238.25
848.356	21195.25
848.604	21044.25
848.851	21155.25
849.099	21172.25
849.346	21195.25
849.594	21278.25
849.841	21349.25
850.089	21264.25
850.336	21225.25
850.583	21367.25
850.831	21180.25
851.078	21051.25
851.325	20984.25
851.572	21118.25
851.819	20915.25
852.066	20604.25
852.313	20298.25
852.56	20071.25
852.807	20010.25
853.054	19967.25
853.301	19904.25
853.548	19954.25
853.794	20179.25
854.041	20159.25
854.288	20153.25
854.534	20292.25
854.781	20185.25
855.028	20134.25
855.274	20158.25
855.52	20105.25
855.767	19963.25
856.013	20100.25
856.26	20281.25
856.506	19779.25
856.752	19702.25
856.998	19705.25
857.244	19787.25
857.49	19900.25
857.736	19943.25
857.982	19844.25
858.228	19885.25
858.474	19640.25
858.72	19478.25
858.966	19315.25
859.212	19191.25
859.458	18927.25
859.703	18804.25
859.949	18657.25
860.195	18529.25
860.44	18364.25
860.686	18316.25
860.931	18275.25
861.177	18181.25
861.422	18109.25
861.667	18041.25
861.913	17974.25
862.158	17991.25
862.403	18028.25
862.648	18118.25
862.893	18127.25
863.138	18123.25
863.384	17900.25
863.629	17905.25
863.873	18017.25
864.118	17929.25
864.363	17777.25
864.608	17798.25
864.853	17763.25
865.098	17563.25
865.342	17472.25
865.587	17459.25
865.832	17387.25
866.076	17360.25
866.321	17174.25
866.565	17198.25
866.81	17013.25
867.054	17101.25
867.298	17022.25
867.543	16987.25
867.787	16931.25
868.031	16868.25
868.275	16827.25
868.519	16774.25
868.764	16746.25
869.008	16785.25
869.252	16777.25
869.496	16631.25
869.739	16691.25
869.983	16734.25
870.227	16599.25
870.471	16508.25
870.715	16665.25
870.958	16589.25
871.202	16672.25
871.446	16717.25
871.689	16648.25
871.933	16731.25
872.176	16694.25
872.42	16636.25
872.663	16541.25
872.906	16599.25
873.15	16461.25
873.393	16421.25
873.636	16469.25
873.879	16215.25
874.122	16114.25
874.366	15919.25
874.609	15802.25
874.852	15617.25
875.095	15536.25
875.337	15447.25
875.58	15377.25
875.823	15288.25
876.066	15280.25
876.309	15313.25
876.551	15146.25
876.794	14962.25
877.037	15106.25
877.279	14934.25
877.522	14925.25
877.764	15015.25
878.007	14973.25
878.249	14914.25
878.491	14837.25
878.734	14863.25
878.976	14763.25
879.218	14761.25
879.46	14623.25
879.702	14615.25
879.945	14456.25
880.187	14189.25
880.429	14173.25
880.671	14131.25
880.912	14039.25
881.154	14074.25
881.396	13903.25
881.638	13980.25
881.88	13865.25
882.121	13963.25
882.363	13913.25
882.605	13910.25
882.846	13919.25
883.088	13909.25
883.329	13783.25
883.571	13791.25
883.812	13982.25
884.053	14201.25
884.295	14474.25
884.536	14587.25
884.777	14395.25
885.018	14314.25
885.259	14198.25
885.5	14078.25
885.742	14239.25
885.982	14026.25
886.223	13935.25
886.464	13860.25
886.705	13741.25
886.946	13594.25
887.187	13390.25
887.428	13301.25
887.668	13058.25
887.909	12873.25
888.15	12727.25
888.39	12648.25
888.631	12546.25
888.871	12475.25
889.111	12406.25
889.352	12464.25
889.592	12214.25
889.833	12166.25
890.073	11984.25
890.313	11925.25
890.553	11838.25
890.793	11866.25
891.033	11794.25
891.273	11747.25
891.513	11612.25
891.753	11658.25
891.993	11577.25
892.233	11637.25
892.473	11683.25
892.713	11716.25
892.952	11567.25
893.192	11683.25
893.432	11597.25
893.671	11636.25
893.911	11487.25
894.15	11579.25
894.39	11334.25
894.629	11317.25
894.869	11304.25
895.108	11116.25
895.347	11038.25
895.587	11162.25
895.826	11039.25
896.065	10989.25
896.304	11126.25
896.543	11040.25
896.782	10967.25
897.021	10959.25
897.26	10894.25
897.499	10875.25
897.738	10923.25
897.977	10806.25
898.216	10654.25
898.454	10560.25
898.693	10528.25
898.932	10490.25
899.17	10467.25
899.409	10447.25
899.647	10433.25
899.886	10364.25
900.124	10400.25
900.363	10354.25
900.601	10375.25
900.839	10360.25
901.078	10433.25
901.316	10460.25
901.554	10442.25
901.792	10495.25
902.03	10460.25
902.268	10474.25
902.506	10479.25
902.744	10368.25
902.982	10361.25
903.22	10169.25
903.458	10030.25
903.695	9890.25
903.933	9821.25
904.171	9626.25
904.409	9486.25
904.646	9424.25
904.884	9220.25
905.121	9180.25
905.359	9002.25
905.596	9042.25
905.833	8826.25
906.071	8933.25
906.308	8829.25
906.545	8798.25
906.783	8710.25
907.02	8712.25
907.257	8693.25
907.494	8669.25
907.731	8650.25
907.968	8660.25
908.205	8552.25
908.442	8458.25
908.679	8390.25
908.915	8381.25
909.152	8370.25
909.389	8200.25
909.626	8194.25
909.862	8173.25
910.099	8113.25
910.335	8073.25
910.572	7972.25
910.808	8040.25
911.045	8003.25
911.281	7917.25
911.518	7954.25
911.754	7865.25
911.99	7777.25
912.226	7706.25
912.463	7665.25
912.699	7605.25
912.935	7555.25
913.171	7553.25
913.407	7390.25
913.643	7460.25
913.879	7332.25
914.114	7283.25
914.35	7185.25
914.586	7154.25
914.822	7084.25
915.057	7129.25
915.293	6981.25
915.529	6926.25
915.764	6971.25
916	6981.25
916.235	6882.25
916.471	6907.25
916.706	6855.25
916.941	6799.25
917.177	6839.25
917.412	6808.25
917.647	6827.25
917.882	6760.25
918.117	6797.25
918.352	6746.25
918.588	6766.25
918.823	6677.25
919.057	6619.25
919.292	6500.25
919.527	6543.25
919.762	6393.25
919.997	6407.25
920.232	6315.25
920.466	6312.25
920.701	6151.25
920.935	6166.25
921.17	6150.25
921.405	6090.25
921.639	6071.25
921.873	6097.25
922.108	5997.25
922.342	6024.25
922.576	5937.25
922.811	5944.25
923.045	5926.25
923.279	5919.25
923.513	5741.25
923.747	5822.25
923.981	5769.25
924.215	5726.25
924.449	5635.25
924.683	5606.25
924.917	5582.25
925.151	5553.25
925.385	5618.25
925.618	5557.25
925.852	5589.25
926.086	5482.25
926.319	5552.25
926.553	5506.25
926.786	5556.25
927.02	5449.25
927.253	5513.25
927.486	5489.25
927.72	5442.25
927.953	5464.25
928.186	5407.25
928.42	5430.25
928.653	5428.25
928.886	5324.25
929.119	5368.25
929.352	5278.25
929.585	5305.25
929.818	5228.25
930.051	5200.25
930.284	5182.25
930.516	5053.25
930.749	5053.25
930.982	5073.25
931.215	5007.25
931.447	4929.25
931.68	4973.25
931.912	4951.25
932.145	4970.25
932.377	5015.25
932.61	5113.25
932.842	4877.25
933.074	4981.25
933.307	4903.25
933.539	4991.25
933.771	4924.25
934.003	4874.25
934.236	4928.25
934.468	5015.25
934.7	4880.25
934.932	4930.25
935.164	4823.25
935.395	4810.25
935.627	4796.25
935.859	4855.25
936.091	4731.25
936.323	4788.25
936.554	4786.25
936.786	4769.25
937.017	4658.25
937.249	4674.25
937.481	4631.25
937.712	4645.25
937.943	4650.25
938.175	4614.25
938.406	4581.25
938.637	4666.25
938.869	4623.25
939.1	4644.25
939.331	4606.25
939.562	4597.25
939.793	4535.25
940.024	4595.25
940.255	4574.25
940.486	4493.25
940.717	4460.25
940.948	4464.25
941.179	4394.25
941.409	4420.25
941.64	4415.25
941.871	4408.25
942.102	4371.25
942.332	4384.25
942.563	4435.25
942.793	4391.25
943.024	4316.25
943.254	4359.25
943.484	4451.25
943.715	4425.25
943.945	4400.25
944.175	4302.25
944.405	4265.25
944.636	4287.25
944.866	4343.25
945.096	4366.25
945.326	4234.25
945.556	4267.25
945.786	4279.25
946.016	4237.25
946.245	4153.25
946.475	4147.25
946.705	4125.25
946.935	4082.25
947.164	4103.25
947.394	4081.25
947.624	4053.25
947.853	4053.25
948.083	4066.25
948.312	3985.25
948.542	3925.25
948.771	3913.25
949	3951.25
949.23	3932.25
949.459	3939.25
949.688	4006.25
949.917	3941.25
950.146	3971.25
950.375	3956.25
950.604	3884.25
950.833	3977.25
951.062	3961.25
951.291	3882.25
951.52	3897.25
951.749	3847.25
951.978	3809.25
952.206	3804.25
952.435	3778.25
952.664	3856.25
952.892	3835.25
953.121	3772.25
953.349	3792.25
953.578	3769.25
953.806	3738.25
954.035	3665.25
954.263	3706.25
954.491	3641.25
954.719	3706.25
954.948	3624.25
955.176	3622.25
955.404	3550.25
955.632	3608.25
955.86	3582.25
956.088	3544.25
956.316	3580.25
956.544	3608.25
956.772	3511.25
956.999	3474.25
957.227	3542.25
957.455	3431.25
957.683	3435.25
957.91	3371.25
958.138	3356.25
958.365	3378.25
958.593	3363.25
958.82	3320.25
959.048	3388.25
959.275	3341.25
959.502	3358.25
959.73	3281.25
959.957	3305.25
960.184	3337.25
960.411	3251.25
960.638	3321.25
960.865	3264.25
961.092	3296.25
961.319	3186.25
961.546	3282.25
961.773	3268.25
962	3260.25
962.227	3312.25
962.454	3216.25
962.68	3197.25
962.907	3242.25
963.134	3155.25
963.36	3180.25
963.587	3172.25
963.813	3140.25
964.04	3118.25
964.266	3055.25
964.493	3147.25
964.719	3113.25
964.945	3045.25
965.171	2988.25
965.398	3071.25
965.624	3059.25
965.85	2945.25
966.076	2972.25
966.302	3045.25
966.528	2982.25
966.754	2971.25
966.98	2957.25
967.206	2953.25
967.431	2884.25
967.657	2984.25
967.883	2917.25
968.109	2893.25
968.334	2877.25
968.56	2865.25
968.785	2854.25
969.011	2815.25
969.236	2864.25
969.462	2864.25
969.687	2827.25
969.912	2862.25
970.138	2880.25
970.363	2762.25
970.588	2823.25
970.813	2754.25
971.038	2740.25
971.263	2759.25
971.488	2760.25
971.713	2798.25
971.938	2763.25
972.163	2670.25
972.388	2671.25
972.613	2678.25
972.838	2665.25
973.062	2662.25
973.287	2638.25
973.512	2572.25
973.736	2621.25
973.961	2611.25
974.185	2550.25
974.41	2613.25
974.634	2525.25
974.858	2526.25
975.083	2563.25
975.307	2547.25
975.531	2478.25
975.755	2461.25
975.98	2448.25
976.204	2426.25
976.428	2399.25
976.652	2394.25
976.876	2391.25
977.1	2391.25
977.324	2366.25
977.547	2408.25
977.771	2438.25
977.995	2353.25
978.219	2286.25
978.442	2422.25
978.666	2380.25
978.89	2338.25
979.113	2352.25
979.337	2308.25
979.56	2284.25
979.783	2368.25
980.007	2260.25
980.23	2318.25
980.453	2266.25
980.677	2294.25
980.9	2209.25
981.123	2210.25
981.346	2225.25
981.569	2245.25
981.792	2248.25
982.015	2229.25
982.238	2191.25
982.461	2235.25
982.684	2162.25
982.907	2138.25
983.129	2131.25
983.352	2185.25
983.575	2156.25
983.797	2138.25
984.02	2077.25
984.242	2117.25
984.465	2112.25
984.687	2123.25
984.91	2128.25
985.132	2115.25
985.354	2100.25
985.577	2061.25
985.799	2072.25
986.021	1978.25
986.243	2010.25
986.465	2038.25
986.687	2119.25
986.909	2106.25
987.131	2027.25
987.353	1987.25
987.575	2076.25
987.797	1990.25
988.019	1948.25
988.241	1990.25
988.462	1959.25
988.684	1991.25
988.906	2014.25
989.127	2030.25
989.349	1922.25
989.57	1976.25
989.792	1994.25
990.013	1986.25
990.234	1999.25
990.456	2016.25
990.677	2001.25
990.898	1928.25
991.119	1921.25
991.341	1941.25
991.562	1889.25
991.783	1950.25
992.004	1859.25
992.225	1843.25
992.446	1866.25
992.667	1779.25
992.887	1907.25
993.108	1758.25
993.329	1896.25
993.55	1839.25
993.77	1764.25
993.991	1778.25
994.212	1822.25
994.432	1815.25
994.653	1783.25
994.873	1786.25
995.093	1664.25
995.314	1721.25
995.534	1807.25
995.754	1798.25
995.975	1813.25
996.195	1723.25
996.415	1745.25
996.635	1755.25
996.855	1752.25
997.075	1710.25
997.295	1727.25
997.515	1692.25
997.735	1763.25
997.955	1712.25
998.174	1709.25
998.394	1707.25
998.614	1747.25
998.834	1678.25
999.053	1734.25
999.273	1716.25
999.492	1764.25
999.712	1709.25
999.931	1654.25
1000.151	1686.25
1000.37	1698.25
1000.589	1721.25
1000.809	1648.25
1001.028	1741.25
1001.247	1646.25
1001.466	1570.25
1001.685	1701.25
1001.904	1652.25
1002.123	1626.25
1002.342	1665.25
1002.561	1594.25
1002.78	1647.25
1002.999	1677.25
1003.218	1618.25
1003.436	1618.25
1003.655	1649.25
1003.874	1564.25
1004.092	1593.25
1004.311	1641.25
1004.53	1587.25
1004.748	1657.25
1004.966	1586.25
1005.185	1651.25
1005.403	1612.25
1005.622	1617.25
1005.84	1676.25
1006.058	1577.25
1006.276	1600.25
1006.494	2096.25
1006.712	1596.25
1006.931	1632.25
1007.149	1572.25
1007.367	1566.25
1007.584	1609.25
1007.802	1658.25
1008.02	1594.25
1008.238	1694.25
1008.456	1686.25
1008.673	1556.25
1008.891	1662.25
1009.109	1614.25
1009.326	1705.25
1009.544	1762.25
1009.761	1688.25
1009.979	1790.25
1010.196	1796.25
1010.413	1884.25
1010.631	1932.25
1010.848	2009.25
1011.065	1969.25
1011.282	1948.25
1011.5	1858.25
1011.717	1977.25
1011.934	1897.25
1012.151	1968.25
1012.368	1914.25
1012.585	1855.25
1012.801	1908.25
1013.018	1866.25
1013.235	1859.25
1013.452	1871.25
1013.669	1867.25
1013.885	1853.25
1014.102	1897.25
1014.318	1887.25
1014.535	1830.25
1014.751	1838.25
1014.968	1848.25
1015.184	1865.25
1015.401	1758.25
1015.617	1845.25
1015.833	1770.25
1016.049	1772.25
1016.266	1716.25
1016.482	1739.25
1016.698	1672.25
1016.914	1723.25
1017.13	1662.25
1017.346	1613.25
1017.562	1688.25
1017.778	1622.25
1017.993	1601.25
1018.209	1657.25
1018.425	1653.25
1018.641	1556.25
1018.856	1568.25
1019.072	1584.25
1019.288	1611.25
1019.503	1594.25
1019.719	1498.25
1019.934	1511.25
1020.149	1614.25
1020.365	1549.25
1020.58	1456.25
1020.795	1510.25
1021.011	1442.25
1021.226	1432.25
1021.441	1445.25
1021.656	1357.25
1021.871	1324.25
1022.086	1314.25
1022.301	1287.25
1022.516	1292.25
1022.731	1333.25
1022.946	1212.25
1023.16	1225.25
1023.375	1187.25
1023.59	1169.25
1023.804	1134.25
1024.019	1236.25
1024.234	1108.25
1024.448	1133.25
1024.663	1069.25
1024.877	1058.25
1025.092	1082.25
1025.306	1093.25
1025.52	972.25
1025.734	1062.25
1025.949	980.25
1026.163	947.25
1026.377	893.25
1026.591	965.25
1026.805	865.25
1027.019	864.25
1027.233	826.25
1027.447	794.25
1027.661	883.25
1027.875	820.25
1028.088	832.25
1028.302	761.25
1028.516	722.25
1028.73	747.25
1028.943	719.25
1029.157	678.25
1029.37	633.25
1029.584	-2.75
1029.797	-0.75
1030.011	-2.75
1030.224	-1.75
