Data from QEP037381__137__15-46-19-883.txt Node

Date: Fri Dec 16 15:46:19 EST 2022
User: dcclab
Spectrometer: QEP03738
Trigger mode: 4
Integration Time (sec): 1.000000E1
Scans to average: 1
Electric dark correction enabled: true
Nonlinearity correction enabled: false
Boxcar width: 0
XAxis mode: Wavelengths
Number of Pixels in Spectrum: 1044
>>>>>Begin Spectral Data<<<<<
784.041	11.12
784.3	1.12
784.558	-4.88
784.817	-0.88
785.075	114046.12
785.334	19431.12
785.592	9123.12
785.851	6306.12
786.109	4759.12
786.368	3703.12
786.626	2988.12
786.884	2448.12
787.143	2097.12
787.401	1705.12
787.659	1553.12
787.917	1319.12
788.175	1202.12
788.433	1059.12
788.691	941.12
788.949	877.12
789.207	827.12
789.465	730.12
789.723	691.12
789.98	647.12
790.238	678.12
790.496	637.12
790.753	601.12
791.011	640.12
791.268	584.12
791.526	558.12
791.783	582.12
792.041	567.12
792.298	473.12
792.556	541.12
792.813	515.12
793.07	492.12
793.327	484.12
793.584	556.12
793.841	471.12
794.099	497.12
794.356	559.12
794.613	463.12
794.869	493.12
795.126	457.12
795.383	440.12
795.64	464.12
795.897	414.12
796.153	475.12
796.41	450.12
796.667	431.12
796.923	455.12
797.18	445.12
797.436	480.12
797.693	432.12
797.949	497.12
798.206	513.12
798.462	448.12
798.718	491.12
798.974	475.12
799.231	524.12
799.487	520.12
799.743	523.12
799.999	545.12
800.255	554.12
800.511	548.12
800.767	599.12
801.023	580.12
801.279	623.12
801.534	669.12
801.79	739.12
802.046	781.12
802.302	953.12
802.557	1103.12
802.813	1402.12
803.068	1747.12
803.324	2449.12
803.579	3366.12
803.835	4693.12
804.09	6373.12
804.345	8348.12
804.601	10505.12
804.856	12761.12
805.111	14782.12
805.366	16377.12
805.621	17407.12
805.876	18266.12
806.131	18759.12
806.386	19096.12
806.641	19414.12
806.896	19703.12
807.151	20154.12
807.406	20378.12
807.661	20832.12
807.915	21175.12
808.17	21454.12
808.425	21666.12
808.679	21842.12
808.934	22162.12
809.188	22378.12
809.443	22610.12
809.697	22791.12
809.951	22970.12
810.206	23220.12
810.46	23362.12
810.714	23655.12
810.968	23819.12
811.223	24020.12
811.477	24101.12
811.731	24381.12
811.985	24515.12
812.239	24647.12
812.493	24783.12
812.747	24893.12
813	24883.12
813.254	24962.12
813.508	25084.12
813.762	25158.12
814.015	25305.12
814.269	25530.12
814.522	25743.12
814.776	26006.12
815.03	26318.12
815.283	26660.12
815.536	27187.12
815.79	27544.12
816.043	27954.12
816.296	28239.12
816.55	28645.12
816.803	29008.12
817.056	29309.12
817.309	29483.12
817.562	29733.12
817.815	30184.12
818.068	30266.12
818.321	30661.12
818.574	30921.12
818.827	31301.12
819.079	31698.12
819.332	32260.12
819.585	32648.12
819.838	32945.12
820.09	33158.12
820.343	33511.12
820.595	33518.12
820.848	33755.12
821.1	33944.12
821.353	34011.12
821.605	33877.12
821.857	33975.12
822.11	33888.12
822.362	33555.12
822.614	33591.12
822.866	33690.12
823.118	33532.12
823.37	33717.12
823.622	33859.12
823.874	33969.12
824.126	34030.12
824.378	34073.12
824.63	34058.12
824.882	34213.12
825.134	34140.12
825.385	34221.12
825.637	33939.12
825.888	34083.12
826.14	33769.12
826.392	33663.12
826.643	33553.12
826.895	33340.12
827.146	33328.12
827.397	33087.12
827.649	33412.12
827.9	33104.12
828.151	33255.12
828.402	33365.12
828.653	33284.12
828.905	33500.12
829.156	33549.12
829.407	33501.12
829.658	33675.12
829.909	33586.12
830.159	33551.12
830.41	33309.12
830.661	33099.12
830.912	32881.12
831.162	32775.12
831.413	32712.12
831.664	32752.12
831.914	32647.12
832.165	32724.12
832.415	32669.12
832.666	32576.12
832.916	32660.12
833.167	32658.12
833.417	32671.12
833.667	32494.12
833.917	32363.12
834.168	32211.12
834.418	32224.12
834.668	32082.12
834.918	31900.12
835.168	31895.12
835.418	31671.12
835.668	31547.12
835.918	31426.12
836.167	31526.12
836.417	31274.12
836.667	31286.12
836.917	31474.12
837.166	31248.12
837.416	31282.12
837.666	31311.12
837.915	31217.12
838.165	31121.12
838.414	30940.12
838.663	30908.12
838.913	30788.12
839.162	30737.12
839.411	30693.12
839.661	30481.12
839.91	30611.12
840.159	30445.12
840.408	30538.12
840.657	30369.12
840.906	30404.12
841.155	30444.12
841.404	30473.12
841.653	30406.12
841.902	30377.12
842.15	30540.12
842.399	30495.12
842.648	30382.12
842.897	30279.12
843.145	30097.12
843.394	29808.12
843.642	29717.12
843.891	29710.12
844.139	29361.12
844.388	29351.12
844.636	29202.12
844.884	29070.12
845.133	29053.12
845.381	28954.12
845.629	29130.12
845.877	29013.12
846.125	28950.12
846.373	28981.12
846.621	28831.12
846.869	28687.12
847.117	28540.12
847.365	28453.12
847.613	28325.12
847.861	28162.12
848.108	28160.12
848.356	28042.12
848.604	27843.12
848.851	28064.12
849.099	28097.12
849.346	28032.12
849.594	28189.12
849.841	28322.12
850.089	28353.12
850.336	28408.12
850.583	28304.12
850.831	27992.12
851.078	27981.12
851.325	27826.12
851.572	27969.12
851.819	27684.12
852.066	27170.12
852.313	26819.12
852.56	26697.12
852.807	26542.12
853.054	26468.12
853.301	26374.12
853.548	26505.12
853.794	26579.12
854.041	26628.12
854.288	26740.12
854.534	27043.12
854.781	26858.12
855.028	26728.12
855.274	26792.12
855.52	26600.12
855.767	26455.12
856.013	26463.12
856.26	26693.12
856.506	26165.12
856.752	26109.12
856.998	26128.12
857.244	26120.12
857.49	26413.12
857.736	26406.12
857.982	26296.12
858.228	26362.12
858.474	26080.12
858.72	25995.12
858.966	25680.12
859.212	25376.12
859.458	25126.12
859.703	24962.12
859.949	24639.12
860.195	24587.12
860.44	24389.12
860.686	24334.12
860.931	24275.12
861.177	24105.12
861.422	24134.12
861.667	24064.12
861.913	23955.12
862.158	23923.12
862.403	24072.12
862.648	24125.12
862.893	24205.12
863.138	24187.12
863.384	23975.12
863.629	24101.12
863.873	23965.12
864.118	23936.12
864.363	23736.12
864.608	23757.12
864.853	23665.12
865.098	23434.12
865.342	23328.12
865.587	23223.12
865.832	23202.12
866.076	23200.12
866.321	23119.12
866.565	23017.12
866.81	22832.12
867.054	22806.12
867.298	22832.12
867.543	22564.12
867.787	22653.12
868.031	22585.12
868.275	22551.12
868.519	22545.12
868.764	22490.12
869.008	22327.12
869.252	22271.12
869.496	22196.12
869.739	22238.12
869.983	22178.12
870.227	22139.12
870.471	21929.12
870.715	22136.12
870.958	22211.12
871.202	22202.12
871.446	22364.12
871.689	22297.12
871.933	22248.12
872.176	22326.12
872.42	22141.12
872.663	22070.12
872.906	22076.12
873.15	21970.12
873.393	21802.12
873.636	21866.12
873.879	21732.12
874.122	21438.12
874.366	21172.12
874.609	21020.12
874.852	20868.12
875.095	20758.12
875.337	20618.12
875.58	20472.12
875.823	20537.12
876.066	20460.12
876.309	20495.12
876.551	20128.12
876.794	20171.12
877.037	20114.12
877.279	19986.12
877.522	20019.12
877.764	20035.12
878.007	19972.12
878.249	19910.12
878.491	19905.12
878.734	19877.12
878.976	19883.12
879.218	19728.12
879.46	19573.12
879.702	19489.12
879.945	19326.12
880.187	19122.12
880.429	19085.12
880.671	19041.12
880.912	18887.12
881.154	18767.12
881.396	18620.12
881.638	18670.12
881.88	18719.12
882.121	18627.12
882.363	18549.12
882.605	18680.12
882.846	18560.12
883.088	18557.12
883.329	18382.12
883.571	18489.12
883.812	18619.12
884.053	18862.12
884.295	19051.12
884.536	19220.12
884.777	19030.12
885.018	18965.12
885.259	18943.12
885.5	18793.12
885.742	19076.12
885.982	18681.12
886.223	18606.12
886.464	18486.12
886.705	18299.12
886.946	18156.12
887.187	17902.12
887.428	17789.12
887.668	17566.12
887.909	17276.12
888.15	17115.12
888.39	17076.12
888.631	17102.12
888.871	16806.12
889.111	16785.12
889.352	16695.12
889.592	16461.12
889.833	16328.12
890.073	16259.12
890.313	16243.12
890.553	15944.12
890.793	15999.12
891.033	15844.12
891.273	15687.12
891.513	15712.12
891.753	15750.12
891.993	15726.12
892.233	15732.12
892.473	15781.12
892.713	15775.12
892.952	15696.12
893.192	15672.12
893.432	15712.12
893.671	15704.12
893.911	15585.12
894.15	15447.12
894.39	15288.12
894.629	15325.12
894.869	15191.12
895.108	15094.12
895.347	14991.12
895.587	15017.12
895.826	14913.12
896.065	14889.12
896.304	14914.12
896.543	14969.12
896.782	14707.12
897.021	14832.12
897.26	14749.12
897.499	14696.12
897.738	14740.12
897.977	14555.12
898.216	14439.12
898.454	14344.12
898.693	14208.12
898.932	14254.12
899.17	14121.12
899.409	14069.12
899.647	14062.12
899.886	13995.12
900.124	14000.12
900.363	14005.12
900.601	14018.12
900.839	13975.12
901.078	14047.12
901.316	14176.12
901.554	14128.12
901.792	14113.12
902.03	14123.12
902.268	14074.12
902.506	14083.12
902.744	13985.12
902.982	13927.12
903.22	13643.12
903.458	13556.12
903.695	13413.12
903.933	13173.12
904.171	12921.12
904.409	12833.12
904.646	12712.12
904.884	12477.12
905.121	12411.12
905.359	12284.12
905.596	12137.12
905.833	12014.12
906.071	11997.12
906.308	12008.12
906.545	11897.12
906.783	11859.12
907.02	11827.12
907.257	11682.12
907.494	11772.12
907.731	11727.12
907.968	11716.12
908.205	11612.12
908.442	11544.12
908.679	11445.12
908.915	11321.12
909.152	11311.12
909.389	11086.12
909.626	11110.12
909.862	11042.12
910.099	11008.12
910.335	10975.12
910.572	10863.12
910.808	10939.12
911.045	10812.12
911.281	10756.12
911.518	10751.12
911.754	10649.12
911.99	10621.12
912.226	10514.12
912.463	10406.12
912.699	10290.12
912.935	10352.12
913.171	10168.12
913.407	10063.12
913.643	10093.12
913.879	9926.12
914.114	9910.12
914.35	9820.12
914.586	9687.12
914.822	9637.12
915.057	9606.12
915.293	9460.12
915.529	9335.12
915.764	9421.12
916	9411.12
916.235	9375.12
916.471	9352.12
916.706	9200.12
916.941	9314.12
917.177	9213.12
917.412	9271.12
917.647	9182.12
917.882	9201.12
918.117	9190.12
918.352	9146.12
918.588	9098.12
918.823	9046.12
919.057	8914.12
919.292	8788.12
919.527	8829.12
919.762	8661.12
919.997	8639.12
920.232	8534.12
920.466	8501.12
920.701	8306.12
920.935	8316.12
921.17	8243.12
921.405	8278.12
921.639	8193.12
921.873	8192.12
922.108	8102.12
922.342	8106.12
922.576	8003.12
922.811	8034.12
923.045	7955.12
923.279	8045.12
923.513	7814.12
923.747	7908.12
923.981	7845.12
924.215	7756.12
924.449	7711.12
924.683	7593.12
924.917	7598.12
925.151	7562.12
925.385	7595.12
925.618	7574.12
925.852	7499.12
926.086	7447.12
926.319	7436.12
926.553	7453.12
926.786	7436.12
927.02	7419.12
927.253	7467.12
927.486	7517.12
927.72	7377.12
927.953	7460.12
928.186	7360.12
928.42	7333.12
928.653	7242.12
928.886	7231.12
929.119	7210.12
929.352	7153.12
929.585	7150.12
929.818	7090.12
930.051	7025.12
930.284	6969.12
930.516	6818.12
930.749	6865.12
930.982	6849.12
931.215	6820.12
931.447	6697.12
931.68	6754.12
931.912	6734.12
932.145	6719.12
932.377	6709.12
932.61	6798.12
932.842	6603.12
933.074	6679.12
933.307	6617.12
933.539	6731.12
933.771	6704.12
934.003	6627.12
934.236	6710.12
934.468	6691.12
934.7	6600.12
934.932	6606.12
935.164	6526.12
935.395	6480.12
935.627	6504.12
935.859	6515.12
936.091	6420.12
936.323	6465.12
936.554	6447.12
936.786	6365.12
937.017	6341.12
937.249	6319.12
937.481	6257.12
937.712	6331.12
937.943	6282.12
938.175	6246.12
938.406	6292.12
938.637	6303.12
938.869	6206.12
939.1	6207.12
939.331	6114.12
939.562	6133.12
939.793	6154.12
940.024	6143.12
940.255	6112.12
940.486	6009.12
940.717	6010.12
940.948	5937.12
941.179	5921.12
941.409	5923.12
941.64	5964.12
941.871	5952.12
942.102	5849.12
942.332	5934.12
942.563	5924.12
942.793	5935.12
943.024	5806.12
943.254	5817.12
943.484	5900.12
943.715	5896.12
943.945	5875.12
944.175	5772.12
944.405	5769.12
944.636	5769.12
944.866	5845.12
945.096	5784.12
945.326	5728.12
945.556	5760.12
945.786	5764.12
946.016	5664.12
946.245	5579.12
946.475	5537.12
946.705	5572.12
946.935	5587.12
947.164	5496.12
947.394	5493.12
947.624	5447.12
947.853	5482.12
948.083	5453.12
948.312	5445.12
948.542	5337.12
948.771	5312.12
949	5285.12
949.23	5271.12
949.459	5300.12
949.688	5327.12
949.917	5265.12
950.146	5292.12
950.375	5316.12
950.604	5216.12
950.833	5266.12
951.062	5316.12
951.291	5259.12
951.52	5171.12
951.749	5181.12
951.978	5095.12
952.206	5110.12
952.435	5120.12
952.664	5146.12
952.892	5098.12
953.121	5065.12
953.349	5111.12
953.578	5017.12
953.806	4983.12
954.035	4939.12
954.263	4980.12
954.491	4864.12
954.719	4917.12
954.948	4862.12
955.176	4842.12
955.404	4746.12
955.632	4793.12
955.86	4804.12
956.088	4794.12
956.316	4767.12
956.544	4767.12
956.772	4668.12
956.999	4622.12
957.227	4723.12
957.455	4559.12
957.683	4624.12
957.91	4522.12
958.138	4530.12
958.365	4554.12
958.593	4493.12
958.82	4441.12
959.048	4515.12
959.275	4470.12
959.502	4434.12
959.73	4423.12
959.957	4420.12
960.184	4390.12
960.411	4353.12
960.638	4467.12
960.865	4374.12
961.092	4369.12
961.319	4223.12
961.546	4429.12
961.773	4397.12
962	4274.12
962.227	4364.12
962.454	4334.12
962.68	4233.12
962.907	4292.12
963.134	4207.12
963.36	4222.12
963.587	4210.12
963.813	4113.12
964.04	4170.12
964.266	4096.12
964.493	4161.12
964.719	4103.12
964.945	4071.12
965.171	3976.12
965.398	4013.12
965.624	4041.12
965.85	3932.12
966.076	3935.12
966.302	3978.12
966.528	3948.12
966.754	3945.12
966.98	3910.12
967.206	3916.12
967.431	3774.12
967.657	3856.12
967.883	3874.12
968.109	3826.12
968.334	3776.12
968.56	3707.12
968.785	3788.12
969.011	3730.12
969.236	3805.12
969.462	3714.12
969.687	3761.12
969.912	3761.12
970.138	3783.12
970.363	3657.12
970.588	3661.12
970.813	3629.12
971.038	3627.12
971.263	3656.12
971.488	3645.12
971.713	3611.12
971.938	3610.12
972.163	3521.12
972.388	3544.12
972.613	3481.12
972.838	3497.12
973.062	3459.12
973.287	3517.12
973.512	3401.12
973.736	3450.12
973.961	3422.12
974.185	3389.12
974.41	3440.12
974.634	3308.12
974.858	3284.12
975.083	3361.12
975.307	3332.12
975.531	3282.12
975.755	3227.12
975.98	3232.12
976.204	3195.12
976.428	3157.12
976.652	3157.12
976.876	3121.12
977.1	3131.12
977.324	3083.12
977.547	3157.12
977.771	3160.12
977.995	3110.12
978.219	3062.12
978.442	3143.12
978.666	3101.12
978.89	3099.12
979.113	3083.12
979.337	3065.12
979.56	2986.12
979.783	3097.12
980.007	2940.12
980.23	2994.12
980.453	2947.12
980.677	2978.12
980.9	2973.12
981.123	2863.12
981.346	2962.12
981.569	2947.12
981.792	2930.12
982.015	2879.12
982.238	2865.12
982.461	2848.12
982.684	2801.12
982.907	2766.12
983.129	2757.12
983.352	2769.12
983.575	2783.12
983.797	2797.12
984.02	2755.12
984.242	2740.12
984.465	2704.12
984.687	2719.12
984.91	2719.12
985.132	2705.12
985.354	2730.12
985.577	2669.12
985.799	2629.12
986.021	2562.12
986.243	2630.12
986.465	2619.12
986.687	2657.12
986.909	2707.12
987.131	2615.12
987.353	2565.12
987.575	2603.12
987.797	2582.12
988.019	2491.12
988.241	2564.12
988.462	2499.12
988.684	2555.12
988.906	2610.12
989.127	2592.12
989.349	2457.12
989.57	2470.12
989.792	2502.12
990.013	2576.12
990.234	2532.12
990.456	2583.12
990.677	2525.12
990.898	2446.12
991.119	2435.12
991.341	2504.12
991.562	2395.12
991.783	2446.12
992.004	2372.12
992.225	2315.12
992.446	2420.12
992.667	2302.12
992.887	2373.12
993.108	2272.12
993.329	2394.12
993.55	2335.12
993.77	2278.12
993.991	2247.12
994.212	2285.12
994.432	2265.12
994.653	2283.12
994.873	2243.12
995.093	2123.12
995.314	2187.12
995.534	2242.12
995.754	2268.12
995.975	2255.12
996.195	2165.12
996.415	2205.12
996.635	2203.12
996.855	2191.12
997.075	2164.12
997.295	2131.12
997.515	2128.12
997.735	2181.12
997.955	2140.12
998.174	2128.12
998.394	2090.12
998.614	2139.12
998.834	2108.12
999.053	2193.12
999.273	2142.12
999.492	2192.12
999.712	2098.12
999.931	2097.12
1000.151	2135.12
1000.37	2067.12
1000.589	2125.12
1000.809	2019.12
1001.028	2133.12
1001.247	2068.12
1001.466	1973.12
1001.685	2077.12
1001.904	2026.12
1002.123	2024.12
1002.342	2037.12
1002.561	1981.12
1002.78	1992.12
1002.999	2047.12
1003.218	1952.12
1003.436	1968.12
1003.655	1995.12
1003.874	1947.12
1004.092	1923.12
1004.311	1975.12
1004.53	1936.12
1004.748	2005.12
1004.966	1930.12
1005.185	1989.12
1005.403	1944.12
1005.622	1937.12
1005.84	1977.12
1006.058	1867.12
1006.276	1925.12
1006.494	2409.12
1006.712	1878.12
1006.931	1964.12
1007.149	1883.12
1007.367	1879.12
1007.584	1950.12
1007.802	1969.12
1008.02	1888.12
1008.238	1987.12
1008.456	2015.12
1008.673	1855.12
1008.891	1972.12
1009.109	1932.12
1009.326	1987.12
1009.544	2073.12
1009.761	2001.12
1009.979	2070.12
1010.196	2066.12
1010.413	2192.12
1010.631	2253.12
1010.848	2302.12
1011.065	2313.12
1011.282	2232.12
1011.5	2161.12
1011.717	2294.12
1011.934	2229.12
1012.151	2243.12
1012.368	2241.12
1012.585	2136.12
1012.801	2212.12
1013.018	2161.12
1013.235	2144.12
1013.452	2183.12
1013.669	2152.12
1013.885	2162.12
1014.102	2202.12
1014.318	2188.12
1014.535	2127.12
1014.751	2135.12
1014.968	2163.12
1015.184	2165.12
1015.401	2063.12
1015.617	2072.12
1015.833	2012.12
1016.049	2041.12
1016.266	1982.12
1016.482	1992.12
1016.698	1898.12
1016.914	1969.12
1017.13	1885.12
1017.346	1916.12
1017.562	1971.12
1017.778	1852.12
1017.993	1832.12
1018.209	1911.12
1018.425	1906.12
1018.641	1839.12
1018.856	1806.12
1019.072	1821.12
1019.288	1911.12
1019.503	1841.12
1019.719	1753.12
1019.934	1790.12
1020.149	1845.12
1020.365	1781.12
1020.58	1746.12
1020.795	1770.12
1021.011	1673.12
1021.226	1658.12
1021.441	1692.12
1021.656	1580.12
1021.871	1535.12
1022.086	1511.12
1022.301	1502.12
1022.516	1470.12
1022.731	1508.12
1022.946	1461.12
1023.16	1408.12
1023.375	1398.12
1023.59	1367.12
1023.804	1335.12
1024.019	1425.12
1024.234	1271.12
1024.448	1296.12
1024.663	1251.12
1024.877	1243.12
1025.092	1271.12
1025.306	1232.12
1025.52	1161.12
1025.734	1216.12
1025.949	1139.12
1026.163	1103.12
1026.377	1050.12
1026.591	1093.12
1026.805	1041.12
1027.019	1028.12
1027.233	984.12
1027.447	928.12
1027.661	993.12
1027.875	953.12
1028.088	976.12
1028.302	882.12
1028.516	856.12
1028.73	866.12
1028.943	843.12
1029.157	803.12
1029.37	743.12
1029.584	-1.88
1029.797	-1.88
1030.011	-1.88
1030.224	-0.88
