Data from QEP037381__161__15-50-19-884.txt Node

Date: Fri Dec 16 15:50:19 EST 2022
User: dcclab
Spectrometer: QEP03738
Trigger mode: 4
Integration Time (sec): 1.000000E1
Scans to average: 1
Electric dark correction enabled: true
Nonlinearity correction enabled: false
Boxcar width: 0
XAxis mode: Wavelengths
Number of Pixels in Spectrum: 1044
>>>>>Begin Spectral Data<<<<<
784.041	13.88
784.3	-1.12
784.558	-0.12
784.817	-5.12
785.075	114563.88
785.334	19619.88
785.592	9236.88
785.851	6329.88
786.109	4768.88
786.368	3675.88
786.626	3005.88
786.884	2485.88
787.143	2080.88
787.401	1730.88
787.659	1593.88
787.917	1343.88
788.175	1200.88
788.433	1070.88
788.691	967.88
788.949	894.88
789.207	838.88
789.465	733.88
789.723	712.88
789.98	655.88
790.238	681.88
790.496	658.88
790.753	629.88
791.011	662.88
791.268	598.88
791.526	599.88
791.783	593.88
792.041	581.88
792.298	496.88
792.556	575.88
792.813	556.88
793.07	522.88
793.327	509.88
793.584	583.88
793.841	512.88
794.099	524.88
794.356	587.88
794.613	503.88
794.869	530.88
795.126	470.88
795.383	476.88
795.64	494.88
795.897	446.88
796.153	509.88
796.41	497.88
796.667	472.88
796.923	489.88
797.18	503.88
797.436	513.88
797.693	501.88
797.949	546.88
798.206	573.88
798.462	497.88
798.718	552.88
798.974	528.88
799.231	578.88
799.487	570.88
799.743	606.88
799.999	636.88
800.255	636.88
800.511	615.88
800.767	701.88
801.023	688.88
801.279	745.88
801.534	798.88
801.79	903.88
802.046	990.88
802.302	1186.88
802.557	1412.88
802.813	1805.88
803.068	2358.88
803.324	3270.88
803.579	4549.88
803.835	6446.88
804.09	8979.88
804.345	11881.88
804.601	15190.88
804.856	18414.88
805.111	21396.88
805.366	23683.88
805.621	25470.88
805.876	26630.88
806.131	27451.88
806.386	28074.88
806.641	28466.88
806.896	28950.88
807.151	29352.88
807.406	29894.88
807.661	30494.88
807.915	31043.88
808.17	31557.88
808.425	31862.88
808.679	32103.88
808.934	32604.88
809.188	32894.88
809.443	33147.88
809.697	33592.88
809.951	33753.88
810.206	34078.88
810.46	34426.88
810.714	34736.88
810.968	35118.88
811.223	35359.88
811.477	35680.88
811.731	35985.88
811.985	36089.88
812.239	36247.88
812.493	36514.88
812.747	36757.88
813	36636.88
813.254	36904.88
813.508	37105.88
813.762	37273.88
814.015	37435.88
814.269	37803.88
814.522	38064.88
814.776	38705.88
815.03	39116.88
815.283	39529.88
815.536	40362.88
815.79	40769.88
816.043	41369.88
816.296	42103.88
816.55	42457.88
816.803	42754.88
817.056	43522.88
817.309	43805.88
817.562	44433.88
817.815	44723.88
818.068	45163.88
818.321	45655.88
818.574	46105.88
818.827	46614.88
819.079	47309.88
819.332	48087.88
819.585	48567.88
819.838	49257.88
820.09	49591.88
820.343	50010.88
820.595	50123.88
820.848	50515.88
821.1	50858.88
821.353	50828.88
821.605	50693.88
821.857	50864.88
822.11	50438.88
822.362	50459.88
822.614	50417.88
822.866	50340.88
823.118	50211.88
823.37	50443.88
823.622	50726.88
823.874	50648.88
824.126	50908.88
824.378	51167.88
824.63	51244.88
824.882	51369.88
825.134	51361.88
825.385	51276.88
825.637	51210.88
825.888	50961.88
826.14	51155.88
826.392	50932.88
826.643	50525.88
826.895	50310.88
827.146	50211.88
827.397	50146.88
827.649	50173.88
827.9	50106.88
828.151	50151.88
828.402	50316.88
828.653	50501.88
828.905	50647.88
829.156	50543.88
829.407	50631.88
829.658	50522.88
829.909	50552.88
830.159	50542.88
830.41	50359.88
830.661	49863.88
830.912	49808.88
831.162	49579.88
831.413	49473.88
831.664	49465.88
831.914	49425.88
832.165	49354.88
832.415	49497.88
832.666	49394.88
832.916	49382.88
833.167	49360.88
833.417	49434.88
833.667	49159.88
833.917	49115.88
834.168	48966.88
834.418	48987.88
834.668	48607.88
834.918	48304.88
835.168	48108.88
835.418	47992.88
835.668	47806.88
835.918	47786.88
836.167	47573.88
836.417	47532.88
836.667	47457.88
836.917	47514.88
837.166	47575.88
837.416	47434.88
837.666	47438.88
837.915	47321.88
838.165	47246.88
838.414	46962.88
838.663	46992.88
838.913	46812.88
839.162	46792.88
839.411	46720.88
839.661	46420.88
839.91	46289.88
840.159	46353.88
840.408	46274.88
840.657	46169.88
840.906	46416.88
841.155	46305.88
841.404	46340.88
841.653	46397.88
841.902	46351.88
842.15	46128.88
842.399	46404.88
842.648	46334.88
842.897	46089.88
843.145	45777.88
843.394	45540.88
843.642	45423.88
843.891	45053.88
844.139	44855.88
844.388	44708.88
844.636	44289.88
844.884	44727.88
845.133	44398.88
845.381	44401.88
845.629	44297.88
845.877	44407.88
846.125	44242.88
846.373	43959.88
846.621	44007.88
846.869	43747.88
847.117	43470.88
847.365	43302.88
847.613	43166.88
847.861	42835.88
848.108	42821.88
848.356	42706.88
848.604	42686.88
848.851	42712.88
849.099	42715.88
849.346	42777.88
849.594	43063.88
849.841	43124.88
850.089	43322.88
850.336	43235.88
850.583	43149.88
850.831	43019.88
851.078	42736.88
851.325	42529.88
851.572	42596.88
851.819	42251.88
852.066	41506.88
852.313	41092.88
852.56	40801.88
852.807	40596.88
853.054	40535.88
853.301	40381.88
853.548	40328.88
853.794	40620.88
854.041	40685.88
854.288	40805.88
854.534	41046.88
854.781	41066.88
855.028	40963.88
855.274	40945.88
855.52	40635.88
855.767	40317.88
856.013	40357.88
856.26	40640.88
856.506	39926.88
856.752	39877.88
856.998	39981.88
857.244	40037.88
857.49	40188.88
857.736	40286.88
857.982	40379.88
858.228	39996.88
858.474	39812.88
858.72	39631.88
858.966	39242.88
859.212	38994.88
859.458	38439.88
859.703	38195.88
859.949	37890.88
860.195	37555.88
860.44	37258.88
860.686	37234.88
860.931	36999.88
861.177	36894.88
861.422	36912.88
861.667	36745.88
861.913	36641.88
862.158	36776.88
862.403	36806.88
862.648	37066.88
862.893	37101.88
863.138	36979.88
863.384	36818.88
863.629	36771.88
863.873	36653.88
864.118	36482.88
864.363	36530.88
864.608	36366.88
864.853	36136.88
865.098	35982.88
865.342	35843.88
865.587	35677.88
865.832	35601.88
866.076	35541.88
866.321	35365.88
866.565	35156.88
866.81	35084.88
867.054	35021.88
867.298	34759.88
867.543	34686.88
867.787	34797.88
868.031	34541.88
868.275	34496.88
868.519	34366.88
868.764	34515.88
869.008	34138.88
869.252	34147.88
869.496	34010.88
869.739	33947.88
869.983	33779.88
870.227	33747.88
870.471	33646.88
870.715	33893.88
870.958	33960.88
871.202	33868.88
871.446	34025.88
871.689	34152.88
871.933	33927.88
872.176	34086.88
872.42	33915.88
872.663	33712.88
872.906	33558.88
873.15	33469.88
873.393	33302.88
873.636	33126.88
873.879	32825.88
874.122	32486.88
874.366	32120.88
874.609	31899.88
874.852	31761.88
875.095	31485.88
875.337	31352.88
875.58	31295.88
875.823	31315.88
876.066	31224.88
876.309	30933.88
876.551	30871.88
876.794	30760.88
877.037	30657.88
877.279	30573.88
877.522	30517.88
877.764	30638.88
878.007	30606.88
878.249	30584.88
878.491	30391.88
878.734	30430.88
878.976	30357.88
879.218	30064.88
879.46	30095.88
879.702	29799.88
879.945	29593.88
880.187	29336.88
880.429	29119.88
880.671	29060.88
880.912	28827.88
881.154	28926.88
881.396	28688.88
881.638	28675.88
881.88	28674.88
882.121	28591.88
882.363	28488.88
882.605	28471.88
882.846	28303.88
883.088	28309.88
883.329	28151.88
883.571	28142.88
883.812	28182.88
884.053	28439.88
884.295	28652.88
884.536	28786.88
884.777	28699.88
885.018	28508.88
885.259	28257.88
885.5	28288.88
885.742	28458.88
885.982	28282.88
886.223	27965.88
886.464	28035.88
886.705	27750.88
886.946	27516.88
887.187	27264.88
887.428	27073.88
887.668	26772.88
887.909	26340.88
888.15	26230.88
888.39	26162.88
888.631	25801.88
888.871	25803.88
889.111	25526.88
889.352	25362.88
889.592	25126.88
889.833	24930.88
890.073	24775.88
890.313	24691.88
890.553	24482.88
890.793	24407.88
891.033	24227.88
891.273	24121.88
891.513	24013.88
891.753	24005.88
891.993	23830.88
892.233	23909.88
892.473	23957.88
892.713	23918.88
892.952	23955.88
893.192	24159.88
893.432	23839.88
893.671	23879.88
893.911	23655.88
894.15	23534.88
894.39	23461.88
894.629	23271.88
894.869	23129.88
895.108	22875.88
895.347	22917.88
895.587	22906.88
895.826	22639.88
896.065	22630.88
896.304	22641.88
896.543	22590.88
896.782	22476.88
897.021	22446.88
897.26	22364.88
897.499	22328.88
897.738	22163.88
897.977	21954.88
898.216	21846.88
898.454	21649.88
898.693	21410.88
898.932	21475.88
899.17	21219.88
899.409	21218.88
899.647	21183.88
899.886	21175.88
900.124	21067.88
900.363	21064.88
900.601	21034.88
900.839	21026.88
901.078	21123.88
901.316	21137.88
901.554	21137.88
901.792	21131.88
902.03	21056.88
902.268	20985.88
902.506	21098.88
902.744	20915.88
902.982	20832.88
903.22	20502.88
903.458	20291.88
903.695	20202.88
903.933	19877.88
904.171	19662.88
904.409	19381.88
904.646	19158.88
904.884	18893.88
905.121	18768.88
905.359	18475.88
905.596	18336.88
905.833	18198.88
906.071	18173.88
906.308	18149.88
906.545	18098.88
906.783	17958.88
907.02	17866.88
907.257	17987.88
907.494	17803.88
907.731	17707.88
907.968	17723.88
908.205	17526.88
908.442	17486.88
908.679	17305.88
908.915	17212.88
909.152	17048.88
909.389	16888.88
909.626	16828.88
909.862	16687.88
910.099	16647.88
910.335	16557.88
910.572	16490.88
910.808	16506.88
911.045	16335.88
911.281	16306.88
911.518	16269.88
911.754	16088.88
911.99	16102.88
912.226	15925.88
912.463	15852.88
912.699	15698.88
912.935	15531.88
913.171	15429.88
913.407	15300.88
913.643	15131.88
913.879	15132.88
914.114	14914.88
914.35	14801.88
914.586	14627.88
914.822	14476.88
915.057	14438.88
915.293	14272.88
915.529	14233.88
915.764	14235.88
916	14249.88
916.235	14171.88
916.471	14142.88
916.706	14026.88
916.941	14017.88
917.177	13872.88
917.412	13980.88
917.647	13990.88
917.882	13860.88
918.117	13914.88
918.352	13812.88
918.588	13826.88
918.823	13633.88
919.057	13526.88
919.292	13295.88
919.527	13278.88
919.762	13112.88
919.997	13062.88
920.232	12799.88
920.466	12731.88
920.701	12645.88
920.935	12553.88
921.17	12428.88
921.405	12364.88
921.639	12338.88
921.873	12300.88
922.108	12196.88
922.342	12180.88
922.576	12059.88
922.811	11997.88
923.045	12042.88
923.279	12077.88
923.513	11817.88
923.747	11872.88
923.981	11780.88
924.215	11591.88
924.449	11565.88
924.683	11579.88
924.917	11441.88
925.151	11362.88
925.385	11390.88
925.618	11305.88
925.852	11307.88
926.086	11216.88
926.319	11228.88
926.553	11133.88
926.786	11236.88
927.02	11113.88
927.253	11243.88
927.486	11161.88
927.72	11056.88
927.953	11080.88
928.186	11000.88
928.42	10998.88
928.653	10896.88
928.886	10860.88
929.119	10830.88
929.352	10732.88
929.585	10658.88
929.818	10552.88
930.051	10560.88
930.284	10498.88
930.516	10260.88
930.749	10293.88
930.982	10270.88
931.215	10141.88
931.447	10025.88
931.68	10088.88
931.912	9962.88
932.145	10058.88
932.377	9998.88
932.61	10117.88
932.842	9962.88
933.074	9980.88
933.307	9923.88
933.539	9894.88
933.771	9959.88
934.003	9863.88
934.236	9972.88
934.468	9929.88
934.7	9870.88
934.932	9878.88
935.164	9749.88
935.395	9688.88
935.627	9786.88
935.859	9607.88
936.091	9545.88
936.323	9583.88
936.554	9663.88
936.786	9570.88
937.017	9432.88
937.249	9420.88
937.481	9337.88
937.712	9464.88
937.943	9310.88
938.175	9284.88
938.406	9266.88
938.637	9260.88
938.869	9177.88
939.1	9254.88
939.331	9156.88
939.562	9161.88
939.793	9131.88
940.024	9123.88
940.255	9136.88
940.486	8990.88
940.717	8929.88
940.948	8914.88
941.179	8808.88
941.409	8828.88
941.64	8784.88
941.871	8851.88
942.102	8776.88
942.332	8754.88
942.563	8813.88
942.793	8783.88
943.024	8754.88
943.254	8719.88
943.484	8713.88
943.715	8850.88
943.945	8694.88
944.175	8568.88
944.405	8618.88
944.636	8618.88
944.866	8631.88
945.096	8593.88
945.326	8535.88
945.556	8617.88
945.786	8562.88
946.016	8466.88
946.245	8349.88
946.475	8257.88
946.705	8276.88
946.935	8173.88
947.164	8195.88
947.394	8126.88
947.624	8078.88
947.853	8096.88
948.083	8059.88
948.312	7955.88
948.542	7901.88
948.771	7860.88
949	7879.88
949.23	7850.88
949.459	7855.88
949.688	7881.88
949.917	7829.88
950.146	7783.88
950.375	7824.88
950.604	7722.88
950.833	7763.88
951.062	7789.88
951.291	7700.88
951.52	7643.88
951.749	7645.88
951.978	7622.88
952.206	7609.88
952.435	7502.88
952.664	7581.88
952.892	7549.88
953.121	7455.88
953.349	7468.88
953.578	7356.88
953.806	7365.88
954.035	7314.88
954.263	7267.88
954.491	7192.88
954.719	7284.88
954.948	7224.88
955.176	7131.88
955.404	7114.88
955.632	7133.88
955.86	7098.88
956.088	7034.88
956.316	7008.88
956.544	6989.88
956.772	6873.88
956.999	6896.88
957.227	6842.88
957.455	6789.88
957.683	6752.88
957.91	6664.88
958.138	6640.88
958.365	6712.88
958.593	6690.88
958.82	6499.88
959.048	6628.88
959.275	6536.88
959.502	6469.88
959.73	6461.88
959.957	6515.88
960.184	6500.88
960.411	6416.88
960.638	6417.88
960.865	6388.88
961.092	6422.88
961.319	6284.88
961.546	6432.88
961.773	6382.88
962	6332.88
962.227	6364.88
962.454	6316.88
962.68	6254.88
962.907	6182.88
963.134	6161.88
963.36	6156.88
963.587	6159.88
963.813	6015.88
964.04	6078.88
964.266	5987.88
964.493	6100.88
964.719	5954.88
964.945	5959.88
965.171	5881.88
965.398	5857.88
965.624	5833.88
965.85	5774.88
966.076	5727.88
966.302	5725.88
966.528	5688.88
966.754	5652.88
966.98	5708.88
967.206	5660.88
967.431	5573.88
967.657	5630.88
967.883	5598.88
968.109	5602.88
968.334	5546.88
968.56	5478.88
968.785	5441.88
969.011	5463.88
969.236	5505.88
969.462	5410.88
969.687	5404.88
969.912	5455.88
970.138	5388.88
970.363	5304.88
970.588	5334.88
970.813	5325.88
971.038	5272.88
971.263	5310.88
971.488	5264.88
971.713	5326.88
971.938	5215.88
972.163	5103.88
972.388	5157.88
972.613	5109.88
972.838	5068.88
973.062	5091.88
973.287	5063.88
973.512	4954.88
973.736	4963.88
973.961	4998.88
974.185	4923.88
974.41	4984.88
974.634	4781.88
974.858	4798.88
975.083	4794.88
975.307	4795.88
975.531	4705.88
975.755	4637.88
975.98	4672.88
976.204	4622.88
976.428	4543.88
976.652	4574.88
976.876	4486.88
977.1	4529.88
977.324	4521.88
977.547	4542.88
977.771	4483.88
977.995	4477.88
978.219	4392.88
978.442	4508.88
978.666	4436.88
978.89	4441.88
979.113	4393.88
979.337	4394.88
979.56	4378.88
979.783	4374.88
980.007	4315.88
980.23	4319.88
980.453	4244.88
980.677	4295.88
980.9	4270.88
981.123	4168.88
981.346	4218.88
981.569	4198.88
981.792	4171.88
982.015	4110.88
982.238	4090.88
982.461	4079.88
982.684	4037.88
982.907	4033.88
983.129	3979.88
983.352	3960.88
983.575	3953.88
983.797	3941.88
984.02	3857.88
984.242	3855.88
984.465	3867.88
984.687	3840.88
984.91	3872.88
985.132	3871.88
985.354	3822.88
985.577	3813.88
985.799	3737.88
986.021	3688.88
986.243	3696.88
986.465	3699.88
986.687	3735.88
986.909	3752.88
987.131	3695.88
987.353	3651.88
987.575	3698.88
987.797	3614.88
988.019	3539.88
988.241	3613.88
988.462	3564.88
988.684	3586.88
988.906	3615.88
989.127	3622.88
989.349	3517.88
989.57	3512.88
989.792	3551.88
990.013	3530.88
990.234	3518.88
990.456	3531.88
990.677	3503.88
990.898	3386.88
991.119	3436.88
991.341	3421.88
991.562	3337.88
991.783	3367.88
992.004	3329.88
992.225	3295.88
992.446	3315.88
992.667	3203.88
992.887	3322.88
993.108	3148.88
993.329	3300.88
993.55	3228.88
993.77	3138.88
993.991	3156.88
994.212	3135.88
994.432	3115.88
994.653	3163.88
994.873	3135.88
995.093	3000.88
995.314	3001.88
995.534	3063.88
995.754	3075.88
995.975	3083.88
996.195	2948.88
996.415	3042.88
996.635	2983.88
996.855	3005.88
997.075	2981.88
997.295	2943.88
997.515	2924.88
997.735	2984.88
997.955	2906.88
998.174	2912.88
998.394	2858.88
998.614	2933.88
998.834	2853.88
999.053	2941.88
999.273	2864.88
999.492	2949.88
999.712	2842.88
999.931	2826.88
1000.151	2865.88
1000.37	2776.88
1000.589	2835.88
1000.809	2740.88
1001.028	2881.88
1001.247	2819.88
1001.466	2669.88
1001.685	2755.88
1001.904	2689.88
1002.123	2700.88
1002.342	2667.88
1002.561	2627.88
1002.78	2613.88
1002.999	2690.88
1003.218	2624.88
1003.436	2597.88
1003.655	2606.88
1003.874	2562.88
1004.092	2581.88
1004.311	2584.88
1004.53	2535.88
1004.748	2601.88
1004.966	2545.88
1005.185	2592.88
1005.403	2590.88
1005.622	2537.88
1005.84	2597.88
1006.058	2520.88
1006.276	2500.88
1006.494	3007.88
1006.712	2484.88
1006.931	2540.88
1007.149	2479.88
1007.367	2454.88
1007.584	2501.88
1007.802	2520.88
1008.02	2471.88
1008.238	2606.88
1008.456	2537.88
1008.673	2423.88
1008.891	2526.88
1009.109	2483.88
1009.326	2562.88
1009.544	2631.88
1009.761	2526.88
1009.979	2637.88
1010.196	2656.88
1010.413	2764.88
1010.631	2855.88
1010.848	2857.88
1011.065	2884.88
1011.282	2839.88
1011.5	2765.88
1011.717	2874.88
1011.934	2773.88
1012.151	2833.88
1012.368	2751.88
1012.585	2725.88
1012.801	2767.88
1013.018	2712.88
1013.235	2701.88
1013.452	2673.88
1013.669	2721.88
1013.885	2684.88
1014.102	2780.88
1014.318	2716.88
1014.535	2658.88
1014.751	2673.88
1014.968	2658.88
1015.184	2677.88
1015.401	2583.88
1015.617	2571.88
1015.833	2526.88
1016.049	2556.88
1016.266	2475.88
1016.482	2487.88
1016.698	2332.88
1016.914	2446.88
1017.13	2354.88
1017.346	2379.88
1017.562	2422.88
1017.778	2327.88
1017.993	2256.88
1018.209	2356.88
1018.425	2324.88
1018.641	2308.88
1018.856	2235.88
1019.072	2261.88
1019.288	2314.88
1019.503	2266.88
1019.719	2177.88
1019.934	2220.88
1020.149	2263.88
1020.365	2184.88
1020.58	2106.88
1020.795	2184.88
1021.011	2108.88
1021.226	2050.88
1021.441	2087.88
1021.656	1968.88
1021.871	1892.88
1022.086	1890.88
1022.301	1873.88
1022.516	1842.88
1022.731	1872.88
1022.946	1740.88
1023.16	1749.88
1023.375	1706.88
1023.59	1708.88
1023.804	1632.88
1024.019	1753.88
1024.234	1574.88
1024.448	1612.88
1024.663	1534.88
1024.877	1535.88
1025.092	1541.88
1025.306	1528.88
1025.52	1438.88
1025.734	1505.88
1025.949	1404.88
1026.163	1366.88
1026.377	1319.88
1026.591	1339.88
1026.805	1276.88
1027.019	1266.88
1027.233	1201.88
1027.447	1151.88
1027.661	1236.88
1027.875	1153.88
1028.088	1170.88
1028.302	1066.88
1028.516	1055.88
1028.73	1031.88
1028.943	1011.88
1029.157	951.88
1029.37	914.88
1029.584	-2.12
1029.797	-2.12
1030.011	-3.12
1030.224	-0.12
