Data from QEP037381__238__16-03-09-896.txt Node

Date: Fri Dec 16 16:03:09 EST 2022
User: dcclab
Spectrometer: QEP03738
Trigger mode: 4
Integration Time (sec): 1.000000E1
Scans to average: 1
Electric dark correction enabled: true
Nonlinearity correction enabled: false
Boxcar width: 0
XAxis mode: Wavelengths
Number of Pixels in Spectrum: 1044
>>>>>Begin Spectral Data<<<<<
784.041	14.38
784.3	0.38
784.558	-2.62
784.817	-3.62
785.075	112652.38
785.334	19618.38
785.592	9100.38
785.851	6313.38
786.109	4739.38
786.368	3696.38
786.626	3019.38
786.884	2470.38
787.143	2095.38
787.401	1730.38
787.659	1520.38
787.917	1324.38
788.175	1180.38
788.433	1026.38
788.691	953.38
788.949	854.38
789.207	798.38
789.465	724.38
789.723	697.38
789.98	620.38
790.238	647.38
790.496	613.38
790.753	599.38
791.011	629.38
791.268	550.38
791.526	535.38
791.783	557.38
792.041	515.38
792.298	456.38
792.556	523.38
792.813	497.38
793.07	476.38
793.327	449.38
793.584	543.38
793.841	465.38
794.099	470.38
794.356	551.38
794.613	432.38
794.869	471.38
795.126	425.38
795.383	416.38
795.64	444.38
795.897	387.38
796.153	445.38
796.41	447.38
796.667	431.38
796.923	424.38
797.18	422.38
797.436	456.38
797.693	416.38
797.949	470.38
798.206	512.38
798.462	415.38
798.718	465.38
798.974	441.38
799.231	487.38
799.487	474.38
799.743	493.38
799.999	496.38
800.255	503.38
800.511	477.38
800.767	546.38
801.023	524.38
801.279	538.38
801.534	573.38
801.79	631.38
802.046	661.38
802.302	790.38
802.557	880.38
802.813	1111.38
803.068	1324.38
803.324	1860.38
803.579	2503.38
803.835	3416.38
804.09	4665.38
804.345	6079.38
804.601	7672.38
804.856	9251.38
805.111	10689.38
805.366	11841.38
805.621	12615.38
805.876	13190.38
806.131	13504.38
806.386	13709.38
806.641	13913.38
806.896	14251.38
807.151	14411.38
807.406	14590.38
807.661	14946.38
807.915	15063.38
808.17	15309.38
808.425	15408.38
808.679	15546.38
808.934	15688.38
809.188	15874.38
809.443	15944.38
809.697	16188.38
809.951	16315.38
810.206	16415.38
810.46	16543.38
810.714	16706.38
810.968	16957.38
811.223	16919.38
811.477	17243.38
811.731	17372.38
811.985	17257.38
812.239	17319.38
812.493	17505.38
812.747	17502.38
813	17422.38
813.254	17567.38
813.508	17730.38
813.762	17746.38
814.015	17811.38
814.269	17919.38
814.522	18044.38
814.776	18293.38
815.03	18464.38
815.283	18699.38
815.536	19012.38
815.79	19230.38
816.043	19529.38
816.296	19744.38
816.55	19867.38
816.803	20165.38
817.056	20477.38
817.309	20664.38
817.562	20725.38
817.815	20956.38
818.068	20941.38
818.321	21253.38
818.574	21429.38
818.827	21650.38
819.079	21968.38
819.332	22327.38
819.585	22577.38
819.838	22866.38
820.09	22885.38
820.343	23044.38
820.595	23168.38
820.848	23262.38
821.1	23469.38
821.353	23312.38
821.605	23424.38
821.857	23416.38
822.11	23180.38
822.362	23227.38
822.614	23190.38
822.866	23230.38
823.118	23098.38
823.37	23209.38
823.622	23204.38
823.874	23372.38
824.126	23461.38
824.378	23359.38
824.63	23443.38
824.882	23512.38
825.134	23439.38
825.385	23427.38
825.637	23388.38
825.888	23255.38
826.14	23202.38
826.392	23138.38
826.643	22966.38
826.895	22875.38
827.146	22823.38
827.397	22716.38
827.649	22779.38
827.9	22737.38
828.151	22702.38
828.402	22750.38
828.653	22825.38
828.905	22889.38
829.156	22971.38
829.407	22872.38
829.658	22901.38
829.909	22925.38
830.159	23049.38
830.41	22846.38
830.661	22618.38
830.912	22453.38
831.162	22369.38
831.413	22398.38
831.664	22452.38
831.914	22331.38
832.165	22254.38
832.415	22254.38
832.666	22307.38
832.916	22254.38
833.167	22173.38
833.417	22290.38
833.667	22106.38
833.917	22054.38
834.168	22087.38
834.418	22021.38
834.668	21991.38
834.918	21793.38
835.168	21629.38
835.418	21539.38
835.668	21566.38
835.918	21593.38
836.167	21452.38
836.417	21318.38
836.667	21294.38
836.917	21268.38
837.166	21358.38
837.416	21295.38
837.666	21400.38
837.915	21177.38
838.165	21154.38
838.414	20978.38
838.663	20953.38
838.913	21061.38
839.162	20919.38
839.411	20825.38
839.661	20802.38
839.91	20688.38
840.159	20800.38
840.408	20786.38
840.657	20714.38
840.906	20886.38
841.155	20722.38
841.404	20677.38
841.653	20670.38
841.902	20642.38
842.15	20782.38
842.399	20635.38
842.648	20752.38
842.897	20582.38
843.145	20542.38
843.394	20474.38
843.642	20214.38
843.891	20143.38
844.139	20013.38
844.388	19912.38
844.636	19777.38
844.884	19817.38
845.133	19822.38
845.381	19778.38
845.629	19856.38
845.877	19687.38
846.125	19666.38
846.373	19606.38
846.621	19514.38
846.869	19521.38
847.117	19305.38
847.365	19197.38
847.613	19196.38
847.861	19142.38
848.108	19163.38
848.356	19014.38
848.604	18993.38
848.851	18963.38
849.099	19042.38
849.346	19128.38
849.594	19066.38
849.841	19231.38
850.089	19135.38
850.336	19084.38
850.583	19100.38
850.831	18967.38
851.078	18953.38
851.325	18868.38
851.572	19012.38
851.819	18820.38
852.066	18447.38
852.313	18243.38
852.56	18064.38
852.807	17985.38
853.054	17906.38
853.301	17962.38
853.548	17959.38
853.794	18010.38
854.041	18128.38
854.288	18181.38
854.534	18284.38
854.781	18191.38
855.028	18221.38
855.274	18203.38
855.52	18049.38
855.767	18072.38
856.013	18055.38
856.26	18291.38
856.506	17753.38
856.752	17800.38
856.998	17787.38
857.244	17779.38
857.49	17866.38
857.736	17936.38
857.982	18010.38
858.228	17783.38
858.474	17765.38
858.72	17558.38
858.966	17390.38
859.212	17281.38
859.458	17145.38
859.703	16902.38
859.949	16639.38
860.195	16676.38
860.44	16639.38
860.686	16475.38
860.931	16499.38
861.177	16445.38
861.422	16334.38
861.667	16266.38
861.913	16208.38
862.158	16157.38
862.403	16211.38
862.648	16297.38
862.893	16258.38
863.138	16176.38
863.384	16115.38
863.629	16212.38
863.873	16190.38
864.118	16145.38
864.363	16077.38
864.608	15899.38
864.853	15882.38
865.098	15803.38
865.342	15750.38
865.587	15684.38
865.832	15696.38
866.076	15601.38
866.321	15565.38
866.565	15514.38
866.81	15368.38
867.054	15404.38
867.298	15379.38
867.543	15277.38
867.787	15351.38
868.031	15241.38
868.275	15236.38
868.519	15208.38
868.764	15196.38
869.008	15039.38
869.252	15075.38
869.496	15067.38
869.739	14993.38
869.983	15003.38
870.227	15054.38
870.471	14956.38
870.715	15048.38
870.958	14994.38
871.202	15057.38
871.446	15113.38
871.689	15145.38
871.933	15157.38
872.176	15098.38
872.42	15076.38
872.663	15013.38
872.906	15123.38
873.15	14992.38
873.393	14869.38
873.636	14878.38
873.879	14882.38
874.122	14703.38
874.366	14325.38
874.609	14300.38
874.852	14147.38
875.095	14068.38
875.337	14018.38
875.58	13794.38
875.823	13832.38
876.066	13856.38
876.309	13840.38
876.551	13691.38
876.794	13589.38
877.037	13618.38
877.279	13469.38
877.522	13568.38
877.764	13453.38
878.007	13451.38
878.249	13464.38
878.491	13401.38
878.734	13334.38
878.976	13312.38
879.218	13242.38
879.46	13206.38
879.702	13133.38
879.945	13046.38
880.187	12835.38
880.429	12865.38
880.671	12693.38
880.912	12692.38
881.154	12698.38
881.396	12496.38
881.638	12574.38
881.88	12619.38
882.121	12583.38
882.363	12587.38
882.605	12601.38
882.846	12457.38
883.088	12575.38
883.329	12453.38
883.571	12554.38
883.812	12773.38
884.053	12894.38
884.295	13157.38
884.536	13397.38
884.777	13150.38
885.018	13067.38
885.259	12993.38
885.5	12869.38
885.742	13073.38
885.982	12809.38
886.223	12762.38
886.464	12643.38
886.705	12484.38
886.946	12343.38
887.187	12124.38
887.428	12045.38
887.668	11799.38
887.909	11615.38
888.15	11431.38
888.39	11454.38
888.631	11457.38
888.871	11326.38
889.111	11215.38
889.352	11137.38
889.592	11053.38
889.833	10924.38
890.073	10841.38
890.313	10876.38
890.553	10644.38
890.793	10756.38
891.033	10672.38
891.273	10596.38
891.513	10551.38
891.753	10634.38
891.993	10467.38
892.233	10451.38
892.473	10654.38
892.713	10543.38
892.952	10517.38
893.192	10457.38
893.432	10508.38
893.671	10462.38
893.911	10429.38
894.15	10418.38
894.39	10257.38
894.629	10232.38
894.869	10288.38
895.108	10154.38
895.347	10097.38
895.587	10043.38
895.826	9985.38
896.065	9949.38
896.304	10045.38
896.543	10010.38
896.782	9883.38
897.021	9909.38
897.26	9904.38
897.499	9974.38
897.738	9847.38
897.977	9778.38
898.216	9748.38
898.454	9640.38
898.693	9534.38
898.932	9584.38
899.17	9539.38
899.409	9483.38
899.647	9472.38
899.886	9365.38
900.124	9463.38
900.363	9422.38
900.601	9450.38
900.839	9462.38
901.078	9531.38
901.316	9512.38
901.554	9515.38
901.792	9564.38
902.03	9558.38
902.268	9555.38
902.506	9617.38
902.744	9526.38
902.982	9472.38
903.22	9316.38
903.458	9176.38
903.695	9066.38
903.933	8888.38
904.171	8745.38
904.409	8632.38
904.646	8611.38
904.884	8381.38
905.121	8442.38
905.359	8240.38
905.596	8219.38
905.833	8104.38
906.071	8052.38
906.308	8066.38
906.545	8040.38
906.783	7984.38
907.02	7999.38
907.257	7904.38
907.494	7922.38
907.731	7888.38
907.968	7906.38
908.205	7771.38
908.442	7775.38
908.679	7671.38
908.915	7649.38
909.152	7570.38
909.389	7488.38
909.626	7477.38
909.862	7307.38
910.099	7348.38
910.335	7347.38
910.572	7252.38
910.808	7272.38
911.045	7224.38
911.281	7258.38
911.518	7247.38
911.754	7077.38
911.99	7144.38
912.226	7088.38
912.463	6984.38
912.699	6979.38
912.935	6920.38
913.171	6859.38
913.407	6742.38
913.643	6818.38
913.879	6660.38
914.114	6683.38
914.35	6607.38
914.586	6530.38
914.822	6440.38
915.057	6522.38
915.293	6275.38
915.529	6292.38
915.764	6356.38
916	6359.38
916.235	6302.38
916.471	6371.38
916.706	6224.38
916.941	6214.38
917.177	6231.38
917.412	6242.38
917.647	6215.38
917.882	6176.38
918.117	6195.38
918.352	6184.38
918.588	6215.38
918.823	6050.38
919.057	6062.38
919.292	5904.38
919.527	5939.38
919.762	5801.38
919.997	5853.38
920.232	5676.38
920.466	5725.38
920.701	5611.38
920.935	5648.38
921.17	5555.38
921.405	5592.38
921.639	5572.38
921.873	5532.38
922.108	5511.38
922.342	5493.38
922.576	5446.38
922.811	5413.38
923.045	5421.38
923.279	5428.38
923.513	5289.38
923.747	5333.38
923.981	5293.38
924.215	5274.38
924.449	5224.38
924.683	5132.38
924.917	5188.38
925.151	5066.38
925.385	5167.38
925.618	5129.38
925.852	5140.38
926.086	5063.38
926.319	5093.38
926.553	5081.38
926.786	5048.38
927.02	5059.38
927.253	5073.38
927.486	5058.38
927.72	5003.38
927.953	4982.38
928.186	4928.38
928.42	4994.38
928.653	4934.38
928.886	4875.38
929.119	4866.38
929.352	4892.38
929.585	4861.38
929.818	4779.38
930.051	4793.38
930.284	4802.38
930.516	4610.38
930.749	4650.38
930.982	4687.38
931.215	4681.38
931.447	4553.38
931.68	4529.38
931.912	4568.38
932.145	4525.38
932.377	4589.38
932.61	4696.38
932.842	4531.38
933.074	4615.38
933.307	4478.38
933.539	4566.38
933.771	4576.38
934.003	4512.38
934.236	4554.38
934.468	4583.38
934.7	4482.38
934.932	4542.38
935.164	4419.38
935.395	4445.38
935.627	4478.38
935.859	4429.38
936.091	4369.38
936.323	4429.38
936.554	4422.38
936.786	4335.38
937.017	4357.38
937.249	4341.38
937.481	4242.38
937.712	4354.38
937.943	4322.38
938.175	4279.38
938.406	4300.38
938.637	4293.38
938.869	4237.38
939.1	4273.38
939.331	4209.38
939.562	4289.38
939.793	4205.38
940.024	4237.38
940.255	4234.38
940.486	4147.38
940.717	4137.38
940.948	4137.38
941.179	4071.38
941.409	4058.38
941.64	4033.38
941.871	4084.38
942.102	4060.38
942.332	4038.38
942.563	4054.38
942.793	4055.38
943.024	3935.38
943.254	4045.38
943.484	4060.38
943.715	4106.38
943.945	4059.38
944.175	3956.38
944.405	3949.38
944.636	4022.38
944.866	3979.38
945.096	4001.38
945.326	3912.38
945.556	3951.38
945.786	3978.38
946.016	3907.38
946.245	3892.38
946.475	3870.38
946.705	3818.38
946.935	3797.38
947.164	3803.38
947.394	3729.38
947.624	3766.38
947.853	3753.38
948.083	3714.38
948.312	3735.38
948.542	3632.38
948.771	3623.38
949	3652.38
949.23	3625.38
949.459	3650.38
949.688	3672.38
949.917	3644.38
950.146	3663.38
950.375	3691.38
950.604	3544.38
950.833	3691.38
951.062	3630.38
951.291	3576.38
951.52	3594.38
951.749	3591.38
951.978	3548.38
952.206	3507.38
952.435	3494.38
952.664	3560.38
952.892	3586.38
953.121	3535.38
953.349	3501.38
953.578	3489.38
953.806	3471.38
954.035	3398.38
954.263	3451.38
954.491	3415.38
954.719	3424.38
954.948	3396.38
955.176	3371.38
955.404	3287.38
955.632	3317.38
955.86	3308.38
956.088	3313.38
956.316	3302.38
956.544	3304.38
956.772	3224.38
956.999	3229.38
957.227	3283.38
957.455	3190.38
957.683	3211.38
957.91	3128.38
958.138	3150.38
958.365	3171.38
958.593	3132.38
958.82	3076.38
959.048	3131.38
959.275	3110.38
959.502	3076.38
959.73	3068.38
959.957	3100.38
960.184	3101.38
960.411	3073.38
960.638	3112.38
960.865	3047.38
961.092	3107.38
961.319	3002.38
961.546	3071.38
961.773	3085.38
962	3008.38
962.227	3100.38
962.454	3008.38
962.68	2997.38
962.907	3001.38
963.134	2933.38
963.36	2922.38
963.587	2963.38
963.813	2908.38
964.04	2923.38
964.266	2874.38
964.493	2940.38
964.719	2907.38
964.945	2868.38
965.171	2798.38
965.398	2831.38
965.624	2880.38
965.85	2764.38
966.076	2769.38
966.302	2806.38
966.528	2756.38
966.754	2790.38
966.98	2725.38
967.206	2752.38
967.431	2648.38
967.657	2753.38
967.883	2766.38
968.109	2706.38
968.334	2666.38
968.56	2645.38
968.785	2700.38
969.011	2636.38
969.236	2688.38
969.462	2624.38
969.687	2611.38
969.912	2671.38
970.138	2663.38
970.363	2602.38
970.588	2630.38
970.813	2576.38
971.038	2570.38
971.263	2606.38
971.488	2587.38
971.713	2579.38
971.938	2596.38
972.163	2484.38
972.388	2507.38
972.613	2477.38
972.838	2552.38
973.062	2492.38
973.287	2517.38
973.512	2449.38
973.736	2457.38
973.961	2449.38
974.185	2394.38
974.41	2463.38
974.634	2313.38
974.858	2366.38
975.083	2402.38
975.307	2407.38
975.531	2354.38
975.755	2265.38
975.98	2311.38
976.204	2284.38
976.428	2216.38
976.652	2245.38
976.876	2216.38
977.1	2264.38
977.324	2214.38
977.547	2247.38
977.771	2276.38
977.995	2216.38
978.219	2197.38
978.442	2303.38
978.666	2203.38
978.89	2224.38
979.113	2232.38
979.337	2182.38
979.56	2150.38
979.783	2246.38
980.007	2128.38
980.23	2184.38
980.453	2118.38
980.677	2156.38
980.9	2168.38
981.123	2040.38
981.346	2115.38
981.569	2115.38
981.792	2129.38
982.015	2093.38
982.238	2070.38
982.461	2069.38
982.684	2036.38
982.907	2012.38
983.129	2007.38
983.352	2049.38
983.575	2021.38
983.797	2023.38
984.02	1969.38
984.242	1990.38
984.465	1980.38
984.687	1999.38
984.91	2033.38
985.132	1960.38
985.354	2010.38
985.577	1967.38
985.799	1955.38
986.021	1860.38
986.243	1914.38
986.465	1878.38
986.687	1949.38
986.909	1970.38
987.131	1894.38
987.353	1870.38
987.575	1912.38
987.797	1874.38
988.019	1819.38
988.241	1895.38
988.462	1875.38
988.684	1884.38
988.906	1931.38
989.127	1956.38
989.349	1809.38
989.57	1829.38
989.792	1890.38
990.013	1897.38
990.234	1887.38
990.456	1903.38
990.677	1876.38
990.898	1833.38
991.119	1828.38
991.341	1844.38
991.562	1791.38
991.783	1796.38
992.004	1780.38
992.225	1734.38
992.446	1794.38
992.667	1691.38
992.887	1776.38
993.108	1667.38
993.329	1797.38
993.55	1759.38
993.77	1693.38
993.991	1689.38
994.212	1702.38
994.432	1714.38
994.653	1736.38
994.873	1736.38
995.093	1619.38
995.314	1659.38
995.534	1715.38
995.754	1710.38
995.975	1741.38
996.195	1624.38
996.415	1658.38
996.635	1669.38
996.855	1664.38
997.075	1653.38
997.295	1656.38
997.515	1621.38
997.735	1684.38
997.955	1631.38
998.174	1645.38
998.394	1602.38
998.614	1668.38
998.834	1620.38
999.053	1697.38
999.273	1653.38
999.492	1673.38
999.712	1608.38
999.931	1559.38
1000.151	1638.38
1000.37	1635.38
1000.589	1670.38
1000.809	1605.38
1001.028	1701.38
1001.247	1619.38
1001.466	1501.38
1001.685	1637.38
1001.904	1593.38
1002.123	1583.38
1002.342	1595.38
1002.561	1547.38
1002.78	1567.38
1002.999	1616.38
1003.218	1549.38
1003.436	1535.38
1003.655	1552.38
1003.874	1515.38
1004.092	1530.38
1004.311	1590.38
1004.53	1540.38
1004.748	1591.38
1004.966	1513.38
1005.185	1581.38
1005.403	1580.38
1005.622	1513.38
1005.84	1599.38
1006.058	1518.38
1006.276	1544.38
1006.494	2046.38
1006.712	1551.38
1006.931	1589.38
1007.149	1525.38
1007.367	1503.38
1007.584	1561.38
1007.802	1580.38
1008.02	1504.38
1008.238	1622.38
1008.456	1634.38
1008.673	1493.38
1008.891	1604.38
1009.109	1558.38
1009.326	1616.38
1009.544	1711.38
1009.761	1611.38
1009.979	1741.38
1010.196	1752.38
1010.413	1844.38
1010.631	1888.38
1010.848	1929.38
1011.065	1974.38
1011.282	1897.38
1011.5	1824.38
1011.717	1957.38
1011.934	1858.38
1012.151	1870.38
1012.368	1861.38
1012.585	1830.38
1012.801	1858.38
1013.018	1858.38
1013.235	1792.38
1013.452	1826.38
1013.669	1814.38
1013.885	1830.38
1014.102	1874.38
1014.318	1858.38
1014.535	1790.38
1014.751	1846.38
1014.968	1851.38
1015.184	1854.38
1015.401	1763.38
1015.617	1786.38
1015.833	1723.38
1016.049	1734.38
1016.266	1708.38
1016.482	1703.38
1016.698	1627.38
1016.914	1691.38
1017.13	1628.38
1017.346	1607.38
1017.562	1669.38
1017.778	1608.38
1017.993	1583.38
1018.209	1607.38
1018.425	1605.38
1018.641	1573.38
1018.856	1541.38
1019.072	1570.38
1019.288	1625.38
1019.503	1571.38
1019.719	1458.38
1019.934	1509.38
1020.149	1573.38
1020.365	1507.38
1020.58	1454.38
1020.795	1502.38
1021.011	1415.38
1021.226	1406.38
1021.441	1435.38
1021.656	1355.38
1021.871	1303.38
1022.086	1299.38
1022.301	1285.38
1022.516	1241.38
1022.731	1285.38
1022.946	1207.38
1023.16	1220.38
1023.375	1180.38
1023.59	1148.38
1023.804	1105.38
1024.019	1191.38
1024.234	1095.38
1024.448	1124.38
1024.663	1044.38
1024.877	1045.38
1025.092	1063.38
1025.306	1053.38
1025.52	974.38
1025.734	1044.38
1025.949	993.38
1026.163	935.38
1026.377	885.38
1026.591	926.38
1026.805	866.38
1027.019	838.38
1027.233	788.38
1027.447	765.38
1027.661	838.38
1027.875	793.38
1028.088	796.38
1028.302	738.38
1028.516	726.38
1028.73	715.38
1028.943	716.38
1029.157	660.38
1029.37	614.38
1029.584	-1.62
1029.797	-1.62
1030.011	-5.62
1030.224	0.38
