Data from QEP037381__128__15-44-49-880.txt Node

Date: Fri Dec 16 15:44:49 EST 2022
User: dcclab
Spectrometer: QEP03738
Trigger mode: 4
Integration Time (sec): 1.000000E1
Scans to average: 1
Electric dark correction enabled: true
Nonlinearity correction enabled: false
Boxcar width: 0
XAxis mode: Wavelengths
Number of Pixels in Spectrum: 1044
>>>>>Begin Spectral Data<<<<<
784.041	11.62
784.3	1.62
784.558	-7.38
784.817	-2.38
785.075	110524.62
785.334	19206.62
785.592	9085.62
785.851	6237.62
786.109	4754.62
786.368	3659.62
786.626	2964.62
786.884	2435.62
787.143	2039.62
787.401	1685.62
787.659	1553.62
787.917	1301.62
788.175	1197.62
788.433	1041.62
788.691	952.62
788.949	884.62
789.207	816.62
789.465	730.62
789.723	692.62
789.98	633.62
790.238	691.62
790.496	643.62
790.753	608.62
791.011	658.62
791.268	595.62
791.526	569.62
791.783	580.62
792.041	558.62
792.298	472.62
792.556	548.62
792.813	517.62
793.07	489.62
793.327	484.62
793.584	578.62
793.841	490.62
794.099	508.62
794.356	569.62
794.613	471.62
794.869	500.62
795.126	466.62
795.383	455.62
795.64	482.62
795.897	411.62
796.153	485.62
796.41	475.62
796.667	458.62
796.923	468.62
797.18	468.62
797.436	507.62
797.693	445.62
797.949	510.62
798.206	532.62
798.462	450.62
798.718	508.62
798.974	497.62
799.231	548.62
799.487	526.62
799.743	552.62
799.999	559.62
800.255	571.62
800.511	564.62
800.767	617.62
801.023	599.62
801.279	662.62
801.534	702.62
801.79	762.62
802.046	837.62
802.302	1029.62
802.557	1174.62
802.813	1516.62
803.068	1902.62
803.324	2633.62
803.579	3676.62
803.835	5113.62
804.09	7037.62
804.345	9293.62
804.601	11797.62
804.856	14217.62
805.111	16469.62
805.366	18362.62
805.621	19740.62
805.876	20606.62
806.131	21098.62
806.386	21484.62
806.641	21981.62
806.896	22362.62
807.151	22714.62
807.406	23089.62
807.661	23460.62
807.915	23810.62
808.17	24324.62
808.425	24707.62
808.679	24775.62
808.934	25034.62
809.188	25226.62
809.443	25549.62
809.697	25842.62
809.951	25967.62
810.206	26170.62
810.46	26477.62
810.714	26690.62
810.968	26842.62
811.223	27073.62
811.477	27405.62
811.731	27513.62
811.985	27782.62
812.239	27781.62
812.493	27996.62
812.747	28177.62
813	28047.62
813.254	28223.62
813.508	28368.62
813.762	28568.62
814.015	28665.62
814.269	28889.62
814.522	29081.62
814.776	29370.62
815.03	29759.62
815.283	30271.62
815.536	30640.62
815.79	31205.62
816.043	31459.62
816.296	32031.62
816.55	32313.62
816.803	32696.62
817.056	33001.62
817.309	33446.62
817.562	33675.62
817.815	34052.62
818.068	34343.62
818.321	34609.62
818.574	35025.62
818.827	35437.62
819.079	35759.62
819.332	36482.62
819.585	36782.62
819.838	37259.62
820.09	37409.62
820.343	37822.62
820.595	38014.62
820.848	38264.62
821.1	38475.62
821.353	38439.62
821.605	38321.62
821.857	38269.62
822.11	38216.62
822.362	38091.62
822.614	37894.62
822.866	37926.62
823.118	37815.62
823.37	38213.62
823.622	38050.62
823.874	38283.62
824.126	38512.62
824.378	38506.62
824.63	38501.62
824.882	38822.62
825.134	38634.62
825.385	38705.62
825.637	38514.62
825.888	38411.62
826.14	38288.62
826.392	38128.62
826.643	37942.62
826.895	37534.62
827.146	37569.62
827.397	37535.62
827.649	37620.62
827.9	37424.62
828.151	37593.62
828.402	37692.62
828.653	37924.62
828.905	37753.62
829.156	38051.62
829.407	37831.62
829.658	37930.62
829.909	37829.62
830.159	37937.62
830.41	37593.62
830.661	37556.62
830.912	37140.62
831.162	37009.62
831.413	36882.62
831.664	36924.62
831.914	36915.62
832.165	36879.62
832.415	36646.62
832.666	36809.62
832.916	36945.62
833.167	36852.62
833.417	36685.62
833.667	36723.62
833.917	36482.62
834.168	36470.62
834.418	36342.62
834.668	36153.62
834.918	35875.62
835.168	35829.62
835.418	35659.62
835.668	35551.62
835.918	35437.62
836.167	35435.62
836.417	35243.62
836.667	35261.62
836.917	35224.62
837.166	35163.62
837.416	35186.62
837.666	35154.62
837.915	35053.62
838.165	35041.62
838.414	35019.62
838.663	34733.62
838.913	34806.62
839.162	34738.62
839.411	34602.62
839.661	34419.62
839.91	34337.62
840.159	34215.62
840.408	34297.62
840.657	34155.62
840.906	34238.62
841.155	34270.62
841.404	34187.62
841.653	34207.62
841.902	34137.62
842.15	34268.62
842.399	34289.62
842.648	34150.62
842.897	34113.62
843.145	33915.62
843.394	33613.62
843.642	33474.62
843.891	33373.62
844.139	33271.62
844.388	32944.62
844.636	32774.62
844.884	32862.62
845.133	32776.62
845.381	32653.62
845.629	32731.62
845.877	32618.62
846.125	32521.62
846.373	32558.62
846.621	32355.62
846.869	32266.62
847.117	32047.62
847.365	31808.62
847.613	31690.62
847.861	31574.62
848.108	31653.62
848.356	31514.62
848.604	31354.62
848.851	31489.62
849.099	31479.62
849.346	31615.62
849.594	31626.62
849.841	31603.62
850.089	31642.62
850.336	31804.62
850.583	31690.62
850.831	31478.62
851.078	31359.62
851.325	31315.62
851.572	31126.62
851.819	31044.62
852.066	30479.62
852.313	30150.62
852.56	29953.62
852.807	29758.62
853.054	29641.62
853.301	29524.62
853.548	29660.62
853.794	29674.62
854.041	29809.62
854.288	30032.62
854.534	30188.62
854.781	30214.62
855.028	29944.62
855.274	29971.62
855.52	29797.62
855.767	29617.62
856.013	29617.62
856.26	29949.62
856.506	29318.62
856.752	29155.62
856.998	29337.62
857.244	29246.62
857.49	29443.62
857.736	29436.62
857.982	29438.62
858.228	29345.62
858.474	29134.62
858.72	28988.62
858.966	28660.62
859.212	28471.62
859.458	28259.62
859.703	27911.62
859.949	27616.62
860.195	27488.62
860.44	27235.62
860.686	27141.62
860.931	27131.62
861.177	27035.62
861.422	26986.62
861.667	26821.62
861.913	26655.62
862.158	26875.62
862.403	26925.62
862.648	26893.62
862.893	27059.62
863.138	26960.62
863.384	26957.62
863.629	26819.62
863.873	26656.62
864.118	26696.62
864.363	26585.62
864.608	26394.62
864.853	26426.62
865.098	26263.62
865.342	26064.62
865.587	25977.62
865.832	25895.62
866.076	25827.62
866.321	25717.62
866.565	25764.62
866.81	25551.62
867.054	25483.62
867.298	25363.62
867.543	25447.62
867.787	25292.62
868.031	25280.62
868.275	25071.62
868.519	25120.62
868.764	25014.62
869.008	24893.62
869.252	24935.62
869.496	24807.62
869.739	24796.62
869.983	24783.62
870.227	24682.62
870.471	24655.62
870.715	24729.62
870.958	24771.62
871.202	24879.62
871.446	24858.62
871.689	24832.62
871.933	24851.62
872.176	24818.62
872.42	24690.62
872.663	24610.62
872.906	24485.62
873.15	24470.62
873.393	24554.62
873.636	24356.62
873.879	24239.62
874.122	23919.62
874.366	23528.62
874.609	23329.62
874.852	23232.62
875.095	23186.62
875.337	22958.62
875.58	22838.62
875.823	22859.62
876.066	22742.62
876.309	22685.62
876.551	22476.62
876.794	22437.62
877.037	22433.62
877.279	22354.62
877.522	22341.62
877.764	22351.62
878.007	22237.62
878.249	22240.62
878.491	22153.62
878.734	22128.62
878.976	22118.62
879.218	22006.62
879.46	21934.62
879.702	21764.62
879.945	21547.62
880.187	21409.62
880.429	21355.62
880.671	21185.62
880.912	21049.62
881.154	20939.62
881.396	20902.62
881.638	20825.62
881.88	20895.62
882.121	20800.62
882.363	20780.62
882.605	20636.62
882.846	20729.62
883.088	20683.62
883.329	20490.62
883.571	20505.62
883.812	20614.62
884.053	20843.62
884.295	21156.62
884.536	21338.62
884.777	21159.62
885.018	21127.62
885.259	21022.62
885.5	20904.62
885.742	21048.62
885.982	20728.62
886.223	20558.62
886.464	20499.62
886.705	20330.62
886.946	20198.62
887.187	19847.62
887.428	19774.62
887.668	19482.62
887.909	19334.62
888.15	19027.62
888.39	19056.62
888.631	18868.62
888.871	18638.62
889.111	18551.62
889.352	18469.62
889.592	18318.62
889.833	18191.62
890.073	18036.62
890.313	17976.62
890.553	17806.62
890.793	17813.62
891.033	17710.62
891.273	17648.62
891.513	17454.62
891.753	17478.62
891.993	17430.62
892.233	17489.62
892.473	17577.62
892.713	17374.62
892.952	17515.62
893.192	17409.62
893.432	17442.62
893.671	17409.62
893.911	17280.62
894.15	17226.62
894.39	17060.62
894.629	17013.62
894.869	16902.62
895.108	16815.62
895.347	16673.62
895.587	16679.62
895.826	16547.62
896.065	16603.62
896.304	16488.62
896.543	16495.62
896.782	16372.62
897.021	16445.62
897.26	16408.62
897.499	16327.62
897.738	16371.62
897.977	16223.62
898.216	16009.62
898.454	15910.62
898.693	15709.62
898.932	15836.62
899.17	15660.62
899.409	15629.62
899.647	15540.62
899.886	15487.62
900.124	15569.62
900.363	15551.62
900.601	15592.62
900.839	15572.62
901.078	15555.62
901.316	15535.62
901.554	15613.62
901.792	15642.62
902.03	15637.62
902.268	15572.62
902.506	15558.62
902.744	15523.62
902.982	15406.62
903.22	15178.62
903.458	15015.62
903.695	14965.62
903.933	14591.62
904.171	14457.62
904.409	14314.62
904.646	14082.62
904.884	13824.62
905.121	13824.62
905.359	13636.62
905.596	13504.62
905.833	13381.62
906.071	13312.62
906.308	13324.62
906.545	13214.62
906.783	13170.62
907.02	13092.62
907.257	13166.62
907.494	13032.62
907.731	13033.62
907.968	12923.62
908.205	12951.62
908.442	12804.62
908.679	12658.62
908.915	12553.62
909.152	12622.62
909.389	12376.62
909.626	12372.62
909.862	12231.62
910.099	12210.62
910.335	12191.62
910.572	12043.62
910.808	12046.62
911.045	11958.62
911.281	11904.62
911.518	11914.62
911.754	11823.62
911.99	11812.62
912.226	11693.62
912.463	11560.62
912.699	11468.62
912.935	11420.62
913.171	11339.62
913.407	11214.62
913.643	11191.62
913.879	10984.62
914.114	10907.62
914.35	10777.62
914.586	10799.62
914.822	10643.62
915.057	10673.62
915.293	10481.62
915.529	10340.62
915.764	10471.62
916	10425.62
916.235	10359.62
916.471	10353.62
916.706	10220.62
916.941	10314.62
917.177	10252.62
917.412	10286.62
917.647	10265.62
917.882	10140.62
918.117	10234.62
918.352	10157.62
918.588	10217.62
918.823	9959.62
919.057	9986.62
919.292	9738.62
919.527	9754.62
919.762	9592.62
919.997	9584.62
920.232	9468.62
920.466	9393.62
920.701	9283.62
920.935	9270.62
921.17	9267.62
921.405	9110.62
921.639	9140.62
921.873	9031.62
922.108	9087.62
922.342	9038.62
922.576	8913.62
922.811	8929.62
923.045	8889.62
923.279	8828.62
923.513	8681.62
923.747	8829.62
923.981	8718.62
924.215	8633.62
924.449	8618.62
924.683	8446.62
924.917	8418.62
925.151	8426.62
925.385	8495.62
925.618	8361.62
925.852	8344.62
926.086	8248.62
926.319	8343.62
926.553	8281.62
926.786	8304.62
927.02	8224.62
927.253	8277.62
927.486	8256.62
927.72	8097.62
927.953	8181.62
928.186	8120.62
928.42	8191.62
928.653	8043.62
928.886	7967.62
929.119	8031.62
929.352	8010.62
929.585	7884.62
929.818	7792.62
930.051	7801.62
930.284	7771.62
930.516	7563.62
930.749	7577.62
930.982	7587.62
931.215	7577.62
931.447	7458.62
931.68	7461.62
931.912	7378.62
932.145	7412.62
932.377	7404.62
932.61	7552.62
932.842	7346.62
933.074	7486.62
933.307	7318.62
933.539	7489.62
933.771	7434.62
934.003	7348.62
934.236	7394.62
934.468	7369.62
934.7	7285.62
934.932	7285.62
935.164	7214.62
935.395	7157.62
935.627	7206.62
935.859	7256.62
936.091	7146.62
936.323	7095.62
936.554	7147.62
936.786	7035.62
937.017	6982.62
937.249	7021.62
937.481	6938.62
937.712	7047.62
937.943	6964.62
938.175	6947.62
938.406	6899.62
938.637	6962.62
938.869	6892.62
939.1	6923.62
939.331	6835.62
939.562	6822.62
939.793	6791.62
940.024	6793.62
940.255	6769.62
940.486	6686.62
940.717	6695.62
940.948	6616.62
941.179	6580.62
941.409	6613.62
941.64	6585.62
941.871	6606.62
942.102	6544.62
942.332	6585.62
942.563	6620.62
942.793	6552.62
943.024	6468.62
943.254	6517.62
943.484	6556.62
943.715	6554.62
943.945	6495.62
944.175	6443.62
944.405	6397.62
944.636	6402.62
944.866	6436.62
945.096	6386.62
945.326	6350.62
945.556	6450.62
945.786	6373.62
946.016	6359.62
946.245	6205.62
946.475	6198.62
946.705	6171.62
946.935	6094.62
947.164	6109.62
947.394	6057.62
947.624	6060.62
947.853	6017.62
948.083	6036.62
948.312	5946.62
948.542	5874.62
948.771	5869.62
949	5905.62
949.23	5889.62
949.459	5854.62
949.688	5867.62
949.917	5803.62
950.146	5877.62
950.375	5890.62
950.604	5754.62
950.833	5846.62
951.062	5840.62
951.291	5808.62
951.52	5703.62
951.749	5727.62
951.978	5696.62
952.206	5659.62
952.435	5678.62
952.664	5654.62
952.892	5653.62
953.121	5615.62
953.349	5562.62
953.578	5566.62
953.806	5503.62
954.035	5449.62
954.263	5494.62
954.491	5424.62
954.719	5431.62
954.948	5348.62
955.176	5377.62
955.404	5284.62
955.632	5343.62
955.86	5365.62
956.088	5259.62
956.316	5247.62
956.544	5247.62
956.772	5154.62
956.999	5166.62
957.227	5218.62
957.455	5096.62
957.683	5080.62
957.91	5035.62
958.138	5018.62
958.365	4985.62
958.593	4989.62
958.82	4926.62
959.048	4946.62
959.275	4947.62
959.502	4889.62
959.73	4843.62
959.957	4882.62
960.184	4898.62
960.411	4848.62
960.638	4870.62
960.865	4768.62
961.092	4855.62
961.319	4726.62
961.546	4850.62
961.773	4844.62
962	4756.62
962.227	4810.62
962.454	4728.62
962.68	4721.62
962.907	4753.62
963.134	4624.62
963.36	4671.62
963.587	4669.62
963.813	4563.62
964.04	4585.62
964.266	4479.62
964.493	4558.62
964.719	4512.62
964.945	4544.62
965.171	4363.62
965.398	4420.62
965.624	4458.62
965.85	4349.62
966.076	4345.62
966.302	4354.62
966.528	4335.62
966.754	4321.62
966.98	4324.62
967.206	4344.62
967.431	4211.62
967.657	4276.62
967.883	4245.62
968.109	4245.62
968.334	4195.62
968.56	4167.62
968.785	4178.62
969.011	4124.62
969.236	4189.62
969.462	4100.62
969.687	4120.62
969.912	4142.62
970.138	4136.62
970.363	4091.62
970.588	4084.62
970.813	4010.62
971.038	3996.62
971.263	4068.62
971.488	4003.62
971.713	4021.62
971.938	3982.62
972.163	3913.62
972.388	3900.62
972.613	3876.62
972.838	3899.62
973.062	3868.62
973.287	3886.62
973.512	3753.62
973.736	3796.62
973.961	3790.62
974.185	3764.62
974.41	3756.62
974.634	3636.62
974.858	3671.62
975.083	3681.62
975.307	3695.62
975.531	3613.62
975.755	3562.62
975.98	3562.62
976.204	3472.62
976.428	3507.62
976.652	3474.62
976.876	3473.62
977.1	3523.62
977.324	3447.62
977.547	3479.62
977.771	3484.62
977.995	3445.62
978.219	3333.62
978.442	3451.62
978.666	3413.62
978.89	3342.62
979.113	3379.62
979.337	3384.62
979.56	3305.62
979.783	3362.62
980.007	3289.62
980.23	3338.62
980.453	3225.62
980.677	3277.62
980.9	3316.62
981.123	3180.62
981.346	3264.62
981.569	3243.62
981.792	3225.62
982.015	3195.62
982.238	3101.62
982.461	3134.62
982.684	3087.62
982.907	3083.62
983.129	3058.62
983.352	3117.62
983.575	3087.62
983.797	3074.62
984.02	3016.62
984.242	3001.62
984.465	2956.62
984.687	2994.62
984.91	3014.62
985.132	2983.62
985.354	2978.62
985.577	2932.62
985.799	2922.62
986.021	2852.62
986.243	2832.62
986.465	2857.62
986.687	2899.62
986.909	2917.62
987.131	2857.62
987.353	2824.62
987.575	2836.62
987.797	2816.62
988.019	2727.62
988.241	2779.62
988.462	2707.62
988.684	2828.62
988.906	2809.62
989.127	2808.62
989.349	2717.62
989.57	2749.62
989.792	2762.62
990.013	2751.62
990.234	2781.62
990.456	2793.62
990.677	2722.62
990.898	2677.62
991.119	2682.62
991.341	2708.62
991.562	2597.62
991.783	2661.62
992.004	2609.62
992.225	2559.62
992.446	2591.62
992.667	2482.62
992.887	2623.62
993.108	2464.62
993.329	2588.62
993.55	2534.62
993.77	2464.62
993.991	2465.62
994.212	2470.62
994.432	2466.62
994.653	2421.62
994.873	2465.62
995.093	2316.62
995.314	2397.62
995.534	2425.62
995.754	2440.62
995.975	2433.62
996.195	2368.62
996.415	2404.62
996.635	2366.62
996.855	2348.62
997.075	2341.62
997.295	2331.62
997.515	2276.62
997.735	2373.62
997.955	2320.62
998.174	2319.62
998.394	2289.62
998.614	2321.62
998.834	2299.62
999.053	2326.62
999.273	2273.62
999.492	2349.62
999.712	2247.62
999.931	2248.62
1000.151	2252.62
1000.37	2257.62
1000.589	2280.62
1000.809	2205.62
1001.028	2315.62
1001.247	2205.62
1001.466	2129.62
1001.685	2241.62
1001.904	2163.62
1002.123	2188.62
1002.342	2162.62
1002.561	2105.62
1002.78	2153.62
1002.999	2214.62
1003.218	2129.62
1003.436	2111.62
1003.655	2158.62
1003.874	2067.62
1004.092	2096.62
1004.311	2143.62
1004.53	2066.62
1004.748	2147.62
1004.966	2075.62
1005.185	2127.62
1005.403	2082.62
1005.622	2075.62
1005.84	2133.62
1006.058	2015.62
1006.276	2072.62
1006.494	2533.62
1006.712	2046.62
1006.931	2083.62
1007.149	2047.62
1007.367	2029.62
1007.584	2053.62
1007.802	2069.62
1008.02	2037.62
1008.238	2118.62
1008.456	2111.62
1008.673	1974.62
1008.891	2092.62
1009.109	2076.62
1009.326	2112.62
1009.544	2194.62
1009.761	2101.62
1009.979	2187.62
1010.196	2230.62
1010.413	2337.62
1010.631	2382.62
1010.848	2414.62
1011.065	2419.62
1011.282	2361.62
1011.5	2314.62
1011.717	2437.62
1011.934	2354.62
1012.151	2356.62
1012.368	2362.62
1012.585	2282.62
1012.801	2321.62
1013.018	2303.62
1013.235	2287.62
1013.452	2285.62
1013.669	2295.62
1013.885	2275.62
1014.102	2345.62
1014.318	2312.62
1014.535	2249.62
1014.751	2263.62
1014.968	2273.62
1015.184	2283.62
1015.401	2197.62
1015.617	2211.62
1015.833	2157.62
1016.049	2123.62
1016.266	2134.62
1016.482	2138.62
1016.698	2063.62
1016.914	2082.62
1017.13	2020.62
1017.346	2027.62
1017.562	2057.62
1017.778	1989.62
1017.993	1971.62
1018.209	2025.62
1018.425	1966.62
1018.641	1939.62
1018.856	1930.62
1019.072	1948.62
1019.288	1991.62
1019.503	1960.62
1019.719	1894.62
1019.934	1898.62
1020.149	1931.62
1020.365	1897.62
1020.58	1846.62
1020.795	1854.62
1021.011	1761.62
1021.226	1745.62
1021.441	1777.62
1021.656	1711.62
1021.871	1615.62
1022.086	1598.62
1022.301	1629.62
1022.516	1563.62
1022.731	1631.62
1022.946	1531.62
1023.16	1532.62
1023.375	1471.62
1023.59	1461.62
1023.804	1442.62
1024.019	1514.62
1024.234	1365.62
1024.448	1385.62
1024.663	1285.62
1024.877	1322.62
1025.092	1334.62
1025.306	1347.62
1025.52	1233.62
1025.734	1298.62
1025.949	1228.62
1026.163	1175.62
1026.377	1104.62
1026.591	1160.62
1026.805	1087.62
1027.019	1089.62
1027.233	1020.62
1027.447	973.62
1027.661	1081.62
1027.875	1033.62
1028.088	1025.62
1028.302	910.62
1028.516	919.62
1028.73	915.62
1028.943	873.62
1029.157	825.62
1029.37	776.62
1029.584	-1.38
1029.797	-0.38
1030.011	0.62
1030.224	-2.38
