Data from QEP037381__198__15-56-29-890.txt Node

Date: Fri Dec 16 15:56:29 EST 2022
User: dcclab
Spectrometer: QEP03738
Trigger mode: 4
Integration Time (sec): 1.000000E1
Scans to average: 1
Electric dark correction enabled: true
Nonlinearity correction enabled: false
Boxcar width: 0
XAxis mode: Wavelengths
Number of Pixels in Spectrum: 1044
>>>>>Begin Spectral Data<<<<<
784.041	10.25
784.3	-0.75
784.558	-2.75
784.817	-3.75
785.075	112782.25
785.334	19475.25
785.592	9171.25
785.851	6326.25
786.109	4735.25
786.368	3668.25
786.626	2941.25
786.884	2443.25
787.143	2060.25
787.401	1698.25
787.659	1535.25
787.917	1279.25
788.175	1188.25
788.433	1048.25
788.691	933.25
788.949	875.25
789.207	822.25
789.465	733.25
789.723	679.25
789.98	622.25
790.238	660.25
790.496	632.25
790.753	609.25
791.011	642.25
791.268	575.25
791.526	567.25
791.783	851.25
792.041	577.25
792.298	470.25
792.556	514.25
792.813	518.25
793.07	489.25
793.327	467.25
793.584	553.25
793.841	458.25
794.099	495.25
794.356	536.25
794.613	453.25
794.869	483.25
795.126	448.25
795.383	435.25
795.64	436.25
795.897	409.25
796.153	449.25
796.41	446.25
796.667	427.25
796.923	427.25
797.18	443.25
797.436	460.25
797.693	423.25
797.949	490.25
798.206	502.25
798.462	433.25
798.718	489.25
798.974	446.25
799.231	496.25
799.487	478.25
799.743	501.25
799.999	524.25
800.255	523.25
800.511	502.25
800.767	560.25
801.023	522.25
801.279	580.25
801.534	623.25
801.79	659.25
802.046	693.25
802.302	854.25
802.557	952.25
802.813	1196.25
803.068	1442.25
803.324	1992.25
803.579	2733.25
803.835	3769.25
804.09	5145.25
804.345	6701.25
804.601	8421.25
804.856	10261.25
805.111	11900.25
805.366	13089.25
805.621	13993.25
805.876	14562.25
806.131	15009.25
806.386	15224.25
806.641	15537.25
806.896	15820.25
807.151	16014.25
807.406	16229.25
807.661	16592.25
807.915	16783.25
808.17	17152.25
808.425	17284.25
808.679	17463.25
808.934	17622.25
809.188	17836.25
809.443	17891.25
809.697	18135.25
809.951	18169.25
810.206	18475.25
810.46	18651.25
810.714	18709.25
810.968	18818.25
811.223	18974.25
811.477	19163.25
811.731	19278.25
811.985	19393.25
812.239	19431.25
812.493	19394.25
812.747	19575.25
813	19741.25
813.254	19699.25
813.508	19924.25
813.762	19834.25
814.015	19918.25
814.269	20071.25
814.522	20380.25
814.776	20397.25
815.03	20706.25
815.283	21011.25
815.536	21399.25
815.79	21758.25
816.043	22008.25
816.296	22179.25
816.55	22474.25
816.803	22700.25
817.056	22985.25
817.309	23144.25
817.562	23348.25
817.815	23648.25
818.068	23668.25
818.321	23897.25
818.574	24198.25
818.827	24435.25
819.079	24780.25
819.332	25254.25
819.585	25487.25
819.838	25813.25
820.09	25972.25
820.343	26021.25
820.595	26140.25
820.848	26396.25
821.1	26410.25
821.353	26491.25
821.605	26337.25
821.857	26403.25
822.11	26274.25
822.362	26146.25
822.614	26150.25
822.866	26077.25
823.118	26196.25
823.37	26314.25
823.622	26330.25
823.874	26429.25
824.126	26474.25
824.378	26432.25
824.63	26510.25
824.882	26665.25
825.134	26523.25
825.385	26475.25
825.637	26494.25
825.888	26277.25
826.14	26319.25
826.392	26173.25
826.643	25966.25
826.895	26038.25
827.146	25817.25
827.397	25829.25
827.649	25805.25
827.9	25771.25
828.151	25749.25
828.402	25906.25
828.653	25982.25
828.905	26004.25
829.156	26138.25
829.407	25950.25
829.658	26055.25
829.909	26121.25
830.159	26089.25
830.41	25965.25
830.661	25739.25
830.912	25517.25
831.162	25458.25
831.413	25403.25
831.664	25340.25
831.914	25422.25
832.165	25301.25
832.415	25329.25
832.666	25344.25
832.916	25327.25
833.167	25305.25
833.417	25212.25
833.667	25167.25
833.917	25109.25
834.168	25010.25
834.418	24992.25
834.668	24872.25
834.918	24693.25
835.168	24641.25
835.418	24514.25
835.668	24522.25
835.918	24262.25
836.167	24312.25
836.417	24327.25
836.667	24268.25
836.917	24220.25
837.166	24074.25
837.416	24201.25
837.666	24120.25
837.915	24086.25
838.165	23985.25
838.414	23898.25
838.663	23879.25
838.913	23852.25
839.162	23799.25
839.411	23805.25
839.661	23598.25
839.91	23587.25
840.159	23526.25
840.408	23471.25
840.657	23514.25
840.906	23601.25
841.155	23532.25
841.404	23362.25
841.653	23448.25
841.902	23443.25
842.15	23516.25
842.399	23738.25
842.648	23488.25
842.897	23401.25
843.145	23194.25
843.394	23058.25
843.642	22886.25
843.891	22845.25
844.139	22608.25
844.388	22576.25
844.636	22502.25
844.884	22464.25
845.133	22427.25
845.381	22412.25
845.629	22384.25
845.877	22327.25
846.125	22230.25
846.373	22262.25
846.621	22198.25
846.869	22169.25
847.117	22038.25
847.365	21876.25
847.613	21848.25
847.861	21693.25
848.108	21670.25
848.356	21595.25
848.604	21619.25
848.851	21653.25
849.099	21596.25
849.346	21641.25
849.594	21739.25
849.841	21755.25
850.089	21714.25
850.336	21761.25
850.583	21823.25
850.831	21601.25
851.078	21551.25
851.325	21431.25
851.572	21581.25
851.819	21248.25
852.066	20870.25
852.313	20724.25
852.56	20667.25
852.807	20464.25
853.054	20397.25
853.301	20327.25
853.548	20323.25
853.794	20524.25
854.041	20512.25
854.288	20552.25
854.534	20772.25
854.781	20601.25
855.028	20503.25
855.274	20694.25
855.52	20444.25
855.767	20350.25
856.013	20420.25
856.26	20699.25
856.506	20191.25
856.752	20086.25
856.998	20085.25
857.244	20139.25
857.49	20307.25
857.736	20361.25
857.982	20301.25
858.228	20220.25
858.474	20008.25
858.72	19884.25
858.966	19689.25
859.212	19618.25
859.458	19366.25
859.703	19219.25
859.949	18957.25
860.195	18827.25
860.44	18726.25
860.686	18720.25
860.931	18699.25
861.177	18536.25
861.422	18469.25
861.667	18349.25
861.913	18410.25
862.158	18467.25
862.403	18479.25
862.648	18535.25
862.893	18543.25
863.138	18397.25
863.384	18388.25
863.629	18405.25
863.873	18292.25
864.118	18262.25
864.363	18164.25
864.608	18233.25
864.853	18099.25
865.098	17957.25
865.342	17876.25
865.587	17815.25
865.832	17834.25
866.076	17730.25
866.321	17632.25
866.565	17601.25
866.81	17514.25
867.054	17471.25
867.298	17402.25
867.543	17376.25
867.787	17309.25
868.031	17309.25
868.275	17200.25
868.519	17235.25
868.764	17280.25
869.008	17107.25
869.252	17059.25
869.496	17097.25
869.739	17107.25
869.983	17031.25
870.227	16964.25
870.471	16871.25
870.715	17010.25
870.958	17040.25
871.202	16963.25
871.446	17100.25
871.689	17051.25
871.933	17028.25
872.176	17084.25
872.42	16998.25
872.663	16934.25
872.906	17034.25
873.15	16828.25
873.393	16833.25
873.636	16772.25
873.879	16629.25
874.122	16540.25
874.366	16234.25
874.609	16089.25
874.852	15985.25
875.095	15814.25
875.337	15804.25
875.58	15780.25
875.823	15657.25
876.066	15631.25
876.309	15621.25
876.551	15455.25
876.794	15402.25
877.037	15387.25
877.279	15261.25
877.522	15233.25
877.764	15333.25
878.007	15282.25
878.249	15253.25
878.491	15210.25
878.734	15236.25
878.976	15237.25
879.218	15051.25
879.46	15021.25
879.702	14853.25
879.945	14661.25
880.187	14637.25
880.429	14522.25
880.671	14453.25
880.912	14383.25
881.154	14307.25
881.396	14263.25
881.638	14248.25
881.88	14352.25
882.121	14168.25
882.363	14137.25
882.605	14305.25
882.846	14146.25
883.088	14237.25
883.329	14070.25
883.571	14117.25
883.812	14228.25
884.053	14513.25
884.295	14696.25
884.536	14894.25
884.777	14804.25
885.018	14671.25
885.259	14547.25
885.5	14382.25
885.742	14733.25
885.982	14395.25
886.223	14284.25
886.464	14224.25
886.705	14067.25
886.946	13853.25
887.187	13739.25
887.428	13583.25
887.668	13422.25
887.909	13198.25
888.15	13008.25
888.39	13000.25
888.631	12951.25
888.871	12880.25
889.111	12769.25
889.352	12614.25
889.592	12574.25
889.833	12503.25
890.073	12388.25
890.313	12329.25
890.553	12164.25
890.793	12228.25
891.033	12140.25
891.273	12036.25
891.513	11895.25
891.753	11995.25
891.993	11956.25
892.233	11951.25
892.473	12010.25
892.713	12049.25
892.952	11970.25
893.192	11925.25
893.432	11884.25
893.671	11918.25
893.911	11871.25
894.15	11791.25
894.39	11674.25
894.629	11669.25
894.869	11579.25
895.108	11561.25
895.347	11451.25
895.587	11459.25
895.826	11368.25
896.065	11257.25
896.304	11380.25
896.543	11283.25
896.782	11251.25
897.021	11283.25
897.26	11214.25
897.499	11262.25
897.738	11237.25
897.977	11052.25
898.216	10966.25
898.454	10887.25
898.693	10870.25
898.932	10794.25
899.17	10703.25
899.409	10676.25
899.647	10708.25
899.886	10648.25
900.124	10730.25
900.363	10681.25
900.601	10679.25
900.839	10651.25
901.078	10685.25
901.316	10746.25
901.554	10744.25
901.792	10804.25
902.03	10737.25
902.268	10825.25
902.506	10837.25
902.744	10657.25
902.982	10676.25
903.22	10438.25
903.458	10315.25
903.695	10249.25
903.933	10034.25
904.171	9874.25
904.409	9776.25
904.646	9646.25
904.884	9525.25
905.121	9474.25
905.359	9348.25
905.596	9236.25
905.833	9167.25
906.071	9093.25
906.308	9154.25
906.545	9079.25
906.783	8973.25
907.02	9037.25
907.257	8914.25
907.494	8952.25
907.731	8910.25
907.968	8900.25
908.205	8795.25
908.442	8746.25
908.679	8699.25
908.915	8640.25
909.152	8575.25
909.389	8454.25
909.626	8463.25
909.862	8395.25
910.099	8364.25
910.335	8364.25
910.572	8242.25
910.808	8277.25
911.045	8203.25
911.281	8133.25
911.518	8184.25
911.754	8069.25
911.99	8066.25
912.226	7934.25
912.463	7879.25
912.699	7841.25
912.935	7827.25
913.171	7752.25
913.407	7719.25
913.643	7690.25
913.879	7587.25
914.114	7538.25
914.35	7399.25
914.586	7388.25
914.822	7253.25
915.057	7373.25
915.293	7170.25
915.529	7116.25
915.764	7225.25
916	7151.25
916.235	7157.25
916.471	7114.25
916.706	7021.25
916.941	7043.25
917.177	7062.25
917.412	7098.25
917.647	7060.25
917.882	6984.25
918.117	7050.25
918.352	7009.25
918.588	7019.25
918.823	6929.25
919.057	6799.25
919.292	6731.25
919.527	6742.25
919.762	6629.25
919.997	6581.25
920.232	6502.25
920.466	6505.25
920.701	6347.25
920.935	6324.25
921.17	6238.25
921.405	6303.25
921.639	6305.25
921.873	6237.25
922.108	6213.25
922.342	6210.25
922.576	6118.25
922.811	6118.25
923.045	6117.25
923.279	6133.25
923.513	6029.25
923.747	6078.25
923.981	5966.25
924.215	5917.25
924.449	5912.25
924.683	5873.25
924.917	5857.25
925.151	5768.25
925.385	5858.25
925.618	5771.25
925.852	5795.25
926.086	5656.25
926.319	5747.25
926.553	5706.25
926.786	5736.25
927.02	5689.25
927.253	5698.25
927.486	5703.25
927.72	5627.25
927.953	5687.25
928.186	5598.25
928.42	5619.25
928.653	5588.25
928.886	5493.25
929.119	5531.25
929.352	5514.25
929.585	5507.25
929.818	5381.25
930.051	5411.25
930.284	5387.25
930.516	5245.25
930.749	5222.25
930.982	5288.25
931.215	5262.25
931.447	5164.25
931.68	5125.25
931.912	5122.25
932.145	5118.25
932.377	5142.25
932.61	5316.25
932.842	5055.25
933.074	5133.25
933.307	5028.25
933.539	5168.25
933.771	5138.25
934.003	5103.25
934.236	5185.25
934.468	5156.25
934.7	5014.25
934.932	5034.25
935.164	5042.25
935.395	4985.25
935.627	5031.25
935.859	4954.25
936.091	4944.25
936.323	5008.25
936.554	4997.25
936.786	4904.25
937.017	4856.25
937.249	4857.25
937.481	4788.25
937.712	4874.25
937.943	4812.25
938.175	4824.25
938.406	4787.25
938.637	4877.25
938.869	4751.25
939.1	4816.25
939.331	4725.25
939.562	4787.25
939.793	4781.25
940.024	4728.25
940.255	4698.25
940.486	4658.25
940.717	4670.25
940.948	4630.25
941.179	4587.25
941.409	4549.25
941.64	4552.25
941.871	4581.25
942.102	4539.25
942.332	4534.25
942.563	4642.25
942.793	4563.25
943.024	4494.25
943.254	4543.25
943.484	4558.25
943.715	4539.25
943.945	4517.25
944.175	4433.25
944.405	4405.25
944.636	4420.25
944.866	4475.25
945.096	4508.25
945.326	4448.25
945.556	4427.25
945.786	4467.25
946.016	4335.25
946.245	4294.25
946.475	4322.25
946.705	4261.25
946.935	4297.25
947.164	4283.25
947.394	4249.25
947.624	4209.25
947.853	4270.25
948.083	4208.25
948.312	4158.25
948.542	4116.25
948.771	4068.25
949	4074.25
949.23	4102.25
949.459	4104.25
949.688	4128.25
949.917	4071.25
950.146	4078.25
950.375	4104.25
950.604	4029.25
950.833	4102.25
951.062	4115.25
951.291	4024.25
951.52	3983.25
951.749	4008.25
951.978	3959.25
952.206	3949.25
952.435	3908.25
952.664	3974.25
952.892	3961.25
953.121	3946.25
953.349	3906.25
953.578	3934.25
953.806	3888.25
954.035	3818.25
954.263	3860.25
954.491	3794.25
954.719	3832.25
954.948	3732.25
955.176	3741.25
955.404	3696.25
955.632	3734.25
955.86	3746.25
956.088	3676.25
956.316	3694.25
956.544	3733.25
956.772	3678.25
956.999	3618.25
957.227	3708.25
957.455	3565.25
957.683	3576.25
957.91	3555.25
958.138	3532.25
958.365	3491.25
958.593	3532.25
958.82	3449.25
959.048	3449.25
959.275	3446.25
959.502	3445.25
959.73	3385.25
959.957	3457.25
960.184	3498.25
960.411	3385.25
960.638	3436.25
960.865	3392.25
961.092	3438.25
961.319	3305.25
961.546	3421.25
961.773	3396.25
962	3370.25
962.227	3428.25
962.454	3361.25
962.68	3336.25
962.907	3327.25
963.134	3303.25
963.36	3299.25
963.587	3316.25
963.813	3198.25
964.04	3268.25
964.266	3169.25
964.493	3241.25
964.719	3210.25
964.945	3193.25
965.171	3128.25
965.398	3157.25
965.624	3118.25
965.85	3129.25
966.076	3123.25
966.302	3081.25
966.528	3110.25
966.754	3060.25
966.98	3055.25
967.206	3064.25
967.431	2993.25
967.657	3067.25
967.883	3033.25
968.109	3045.25
968.334	2935.25
968.56	2948.25
968.785	2998.25
969.011	2911.25
969.236	2990.25
969.462	2926.25
969.687	2926.25
969.912	2952.25
970.138	2960.25
970.363	2875.25
970.588	2928.25
970.813	2877.25
971.038	2868.25
971.263	2905.25
971.488	2875.25
971.713	2904.25
971.938	2863.25
972.163	2769.25
972.388	2792.25
972.613	2783.25
972.838	2783.25
973.062	2753.25
973.287	2725.25
973.512	2652.25
973.736	2700.25
973.961	2699.25
974.185	2667.25
974.41	2703.25
974.634	2622.25
974.858	2638.25
975.083	2656.25
975.307	2643.25
975.531	2601.25
975.755	2516.25
975.98	2570.25
976.204	2503.25
976.428	2505.25
976.652	2465.25
976.876	2472.25
977.1	2480.25
977.324	2435.25
977.547	2493.25
977.771	2508.25
977.995	2506.25
978.219	2382.25
978.442	2516.25
978.666	2433.25
978.89	2433.25
979.113	2447.25
979.337	2419.25
979.56	2367.25
979.783	2457.25
980.007	2353.25
980.23	2371.25
980.453	2365.25
980.677	2422.25
980.9	2346.25
981.123	2261.25
981.346	2365.25
981.569	2316.25
981.792	2356.25
982.015	2274.25
982.238	2260.25
982.461	2282.25
982.684	2255.25
982.907	2214.25
983.129	2180.25
983.352	2258.25
983.575	2214.25
983.797	2235.25
984.02	2203.25
984.242	2206.25
984.465	2155.25
984.687	2214.25
984.91	2213.25
985.132	2199.25
985.354	2202.25
985.577	2171.25
985.799	2137.25
986.021	2075.25
986.243	2081.25
986.465	2112.25
986.687	2132.25
986.909	2178.25
987.131	2131.25
987.353	2074.25
987.575	2087.25
987.797	2078.25
988.019	1980.25
988.241	2083.25
988.462	2012.25
988.684	2080.25
988.906	2059.25
989.127	2107.25
989.349	2000.25
989.57	2040.25
989.792	2045.25
990.013	2061.25
990.234	2042.25
990.456	2095.25
990.677	2084.25
990.898	1976.25
991.119	1983.25
991.341	2049.25
991.562	1936.25
991.783	1994.25
992.004	1910.25
992.225	1896.25
992.446	1930.25
992.667	1869.25
992.887	1931.25
993.108	1854.25
993.329	1967.25
993.55	1883.25
993.77	1817.25
993.991	1832.25
994.212	1884.25
994.432	1844.25
994.653	1852.25
994.873	1850.25
995.093	1716.25
995.314	1754.25
995.534	1859.25
995.754	1815.25
995.975	1886.25
996.195	1757.25
996.415	1822.25
996.635	1784.25
996.855	1794.25
997.075	1785.25
997.295	1757.25
997.515	1754.25
997.735	1862.25
997.955	1787.25
998.174	1750.25
998.394	1716.25
998.614	1783.25
998.834	1740.25
999.053	1788.25
999.273	1765.25
999.492	1821.25
999.712	1771.25
999.931	1707.25
1000.151	1743.25
1000.37	1731.25
1000.589	1785.25
1000.809	1680.25
1001.028	1796.25
1001.247	1701.25
1001.466	1621.25
1001.685	1776.25
1001.904	1697.25
1002.123	1666.25
1002.342	1680.25
1002.561	1634.25
1002.78	1675.25
1002.999	1728.25
1003.218	1665.25
1003.436	1605.25
1003.655	1692.25
1003.874	1628.25
1004.092	1657.25
1004.311	1680.25
1004.53	1642.25
1004.748	1707.25
1004.966	1627.25
1005.185	1662.25
1005.403	1666.25
1005.622	1650.25
1005.84	1719.25
1006.058	1633.25
1006.276	1626.25
1006.494	2125.25
1006.712	1628.25
1006.931	1687.25
1007.149	1606.25
1007.367	1617.25
1007.584	1627.25
1007.802	1691.25
1008.02	1626.25
1008.238	1711.25
1008.456	1719.25
1008.673	1580.25
1008.891	1677.25
1009.109	1669.25
1009.326	1678.25
1009.544	1799.25
1009.761	1691.25
1009.979	1795.25
1010.196	1796.25
1010.413	1896.25
1010.631	1937.25
1010.848	1971.25
1011.065	2013.25
1011.282	1927.25
1011.5	1893.25
1011.717	1997.25
1011.934	1908.25
1012.151	1936.25
1012.368	1934.25
1012.585	1879.25
1012.801	1926.25
1013.018	1865.25
1013.235	1855.25
1013.452	1892.25
1013.669	1889.25
1013.885	1878.25
1014.102	1937.25
1014.318	1876.25
1014.535	1834.25
1014.751	1884.25
1014.968	1876.25
1015.184	1903.25
1015.401	1804.25
1015.617	1825.25
1015.833	1761.25
1016.049	1765.25
1016.266	1747.25
1016.482	1744.25
1016.698	1669.25
1016.914	1713.25
1017.13	1662.25
1017.346	1679.25
1017.562	1733.25
1017.778	1644.25
1017.993	1619.25
1018.209	1661.25
1018.425	1646.25
1018.641	1635.25
1018.856	1591.25
1019.072	1607.25
1019.288	1684.25
1019.503	1639.25
1019.719	1494.25
1019.934	1561.25
1020.149	1633.25
1020.365	1554.25
1020.58	1477.25
1020.795	1523.25
1021.011	1459.25
1021.226	1443.25
1021.441	1487.25
1021.656	1375.25
1021.871	1313.25
1022.086	1316.25
1022.301	1327.25
1022.516	1304.25
1022.731	1350.25
1022.946	1242.25
1023.16	1228.25
1023.375	1217.25
1023.59	1186.25
1023.804	1161.25
1024.019	1213.25
1024.234	1101.25
1024.448	1150.25
1024.663	1078.25
1024.877	1070.25
1025.092	1097.25
1025.306	1113.25
1025.52	997.25
1025.734	1080.25
1025.949	1010.25
1026.163	976.25
1026.377	912.25
1026.591	954.25
1026.805	873.25
1027.019	902.25
1027.233	860.25
1027.447	794.25
1027.661	890.25
1027.875	820.25
1028.088	850.25
1028.302	749.25
1028.516	771.25
1028.73	758.25
1028.943	744.25
1029.157	708.25
1029.37	642.25
1029.584	3.25
1029.797	-0.75
1030.011	-1.75
1030.224	-3.75
