Data from QEP037381__146__15-47-49-883.txt Node

Date: Fri Dec 16 15:47:49 EST 2022
User: dcclab
Spectrometer: QEP03738
Trigger mode: 4
Integration Time (sec): 1.000000E1
Scans to average: 1
Electric dark correction enabled: true
Nonlinearity correction enabled: false
Boxcar width: 0
XAxis mode: Wavelengths
Number of Pixels in Spectrum: 1044
>>>>>Begin Spectral Data<<<<<
784.041	11.75
784.3	-0.25
784.558	-2.25
784.817	-4.25
785.075	107427.75
785.334	18782.75
785.592	8903.75
785.851	6158.75
786.109	4626.75
786.368	3610.75
786.626	2903.75
786.884	2418.75
787.143	2046.75
787.401	1680.75
787.659	1520.75
787.917	1311.75
788.175	1189.75
788.433	1043.75
788.691	939.75
788.949	868.75
789.207	808.75
789.465	737.75
789.723	684.75
789.98	653.75
790.238	664.75
790.496	628.75
790.753	613.75
791.011	647.75
791.268	592.75
791.526	557.75
791.783	592.75
792.041	559.75
792.298	478.75
792.556	536.75
792.813	513.75
793.07	497.75
793.327	475.75
793.584	565.75
793.841	484.75
794.099	496.75
794.356	553.75
794.613	455.75
794.869	502.75
795.126	457.75
795.383	444.75
795.64	469.75
795.897	422.75
796.153	484.75
796.41	464.75
796.667	454.75
796.923	474.75
797.18	438.75
797.436	479.75
797.693	451.75
797.949	522.75
798.206	529.75
798.462	438.75
798.718	499.75
798.974	494.75
799.231	519.75
799.487	519.75
799.743	535.75
799.999	558.75
800.255	578.75
800.511	552.75
800.767	590.75
801.023	596.75
801.279	639.75
801.534	687.75
801.79	757.75
802.046	800.75
802.302	983.75
802.557	1136.75
802.813	1442.75
803.068	1841.75
803.324	2582.75
803.579	3528.75
803.835	4927.75
804.09	6865.75
804.345	8958.75
804.601	11254.75
804.856	13590.75
805.111	15833.75
805.366	17474.75
805.621	18698.75
805.876	19548.75
806.131	20213.75
806.386	20490.75
806.641	20805.75
806.896	21284.75
807.151	21635.75
807.406	22012.75
807.661	22338.75
807.915	22755.75
808.17	23155.75
808.425	23318.75
808.679	23464.75
808.934	23843.75
809.188	24119.75
809.443	24361.75
809.697	24548.75
809.951	24763.75
810.206	24860.75
810.46	25126.75
810.714	25468.75
810.968	25449.75
811.223	25777.75
811.477	25959.75
811.731	26262.75
811.985	26449.75
812.239	26483.75
812.493	26764.75
812.747	26775.75
813	26724.75
813.254	26876.75
813.508	26993.75
813.762	27052.75
814.015	27211.75
814.269	27539.75
814.522	27776.75
814.776	28119.75
815.03	28344.75
815.283	28796.75
815.536	29088.75
815.79	29630.75
816.043	30072.75
816.296	30460.75
816.55	30741.75
816.803	31100.75
817.056	31441.75
817.309	31732.75
817.562	32137.75
817.815	32502.75
818.068	32584.75
818.321	32891.75
818.574	33348.75
818.827	33834.75
819.079	34060.75
819.332	34787.75
819.585	35159.75
819.838	35516.75
820.09	35743.75
820.343	35949.75
820.595	36278.75
820.848	36398.75
821.1	36666.75
821.353	36631.75
821.605	36590.75
821.857	36505.75
822.11	36351.75
822.362	36250.75
822.614	36233.75
822.866	36279.75
823.118	36154.75
823.37	36329.75
823.622	36480.75
823.874	36599.75
824.126	36744.75
824.378	36713.75
824.63	36796.75
824.882	36920.75
825.134	36759.75
825.385	36777.75
825.637	36659.75
825.888	36646.75
826.14	36584.75
826.392	36523.75
826.643	36371.75
826.895	36102.75
827.146	35862.75
827.397	35823.75
827.649	35896.75
827.9	35754.75
828.151	35922.75
828.402	35872.75
828.653	36230.75
828.905	36239.75
829.156	36266.75
829.407	36078.75
829.658	36225.75
829.909	36405.75
830.159	36285.75
830.41	35915.75
830.661	35863.75
830.912	35698.75
831.162	35380.75
831.413	35466.75
831.664	35335.75
831.914	35380.75
832.165	35282.75
832.415	35321.75
832.666	35337.75
832.916	35351.75
833.167	35332.75
833.417	35234.75
833.667	35126.75
833.917	34982.75
834.168	34842.75
834.418	34768.75
834.668	34715.75
834.918	34525.75
835.168	34383.75
835.418	34127.75
835.668	34062.75
835.918	34145.75
836.167	33946.75
836.417	33945.75
836.667	33791.75
836.917	33787.75
837.166	33845.75
837.416	33876.75
837.666	33862.75
837.915	33659.75
838.165	33555.75
838.414	33465.75
838.663	33400.75
838.913	33438.75
839.162	33195.75
839.411	33206.75
839.661	33126.75
839.91	33060.75
840.159	32863.75
840.408	33021.75
840.657	33008.75
840.906	32869.75
841.155	32956.75
841.404	32807.75
841.653	32891.75
841.902	32911.75
842.15	32956.75
842.399	33047.75
842.648	33004.75
842.897	32727.75
843.145	32553.75
843.394	32273.75
843.642	32155.75
843.891	32088.75
844.139	31879.75
844.388	31633.75
844.636	31567.75
844.884	31530.75
845.133	31512.75
845.381	31471.75
845.629	31461.75
845.877	31389.75
846.125	31287.75
846.373	31348.75
846.621	31249.75
846.869	30980.75
847.117	30883.75
847.365	30563.75
847.613	30528.75
847.861	30503.75
848.108	30489.75
848.356	30327.75
848.604	30376.75
848.851	30402.75
849.099	30368.75
849.346	30348.75
849.594	30556.75
849.841	30633.75
850.089	30639.75
850.336	30624.75
850.583	30624.75
850.831	30370.75
851.078	30328.75
851.325	30328.75
851.572	30273.75
851.819	29832.75
852.066	29519.75
852.313	28989.75
852.56	28882.75
852.807	28774.75
853.054	28586.75
853.301	28574.75
853.548	28701.75
853.794	28754.75
854.041	28839.75
854.288	28936.75
854.534	29116.75
854.781	29215.75
855.028	28889.75
855.274	29025.75
855.52	28816.75
855.767	28610.75
856.013	28765.75
856.26	28827.75
856.506	28384.75
856.752	28293.75
856.998	28421.75
857.244	28328.75
857.49	28447.75
857.736	28350.75
857.982	28478.75
858.228	28380.75
858.474	28229.75
858.72	28066.75
858.966	27819.75
859.212	27617.75
859.458	27222.75
859.703	26968.75
859.949	26735.75
860.195	26562.75
860.44	26431.75
860.686	26415.75
860.931	26313.75
861.177	26101.75
861.422	26107.75
861.667	26017.75
861.913	25939.75
862.158	26022.75
862.403	26037.75
862.648	26099.75
862.893	26083.75
863.138	26094.75
863.384	25934.75
863.629	26046.75
863.873	25926.75
864.118	25827.75
864.363	25704.75
864.608	25667.75
864.853	25493.75
865.098	25451.75
865.342	25329.75
865.587	25205.75
865.832	25170.75
866.076	25062.75
866.321	24864.75
866.565	24942.75
866.81	24711.75
867.054	24832.75
867.298	24804.75
867.543	24563.75
867.787	24527.75
868.031	24480.75
868.275	24389.75
868.519	24338.75
868.764	24413.75
869.008	24151.75
869.252	24251.75
869.496	24034.75
869.739	24051.75
869.983	24027.75
870.227	23920.75
870.471	24014.75
870.715	23970.75
870.958	24006.75
871.202	24155.75
871.446	24162.75
871.689	24129.75
871.933	24097.75
872.176	24076.75
872.42	24049.75
872.663	23920.75
872.906	23840.75
873.15	23789.75
873.393	23714.75
873.636	23586.75
873.879	23463.75
874.122	23207.75
874.366	22954.75
874.609	22718.75
874.852	22515.75
875.095	22410.75
875.337	22317.75
875.58	22258.75
875.823	22031.75
876.066	22060.75
876.309	22086.75
876.551	21863.75
876.794	21690.75
877.037	21755.75
877.279	21621.75
877.522	21705.75
877.764	21767.75
878.007	21575.75
878.249	21553.75
878.491	21531.75
878.734	21580.75
878.976	21427.75
879.218	21251.75
879.46	21356.75
879.702	21112.75
879.945	20977.75
880.187	20748.75
880.429	20675.75
880.671	20453.75
880.912	20569.75
881.154	20430.75
881.396	20294.75
881.638	20321.75
881.88	20241.75
882.121	20176.75
882.363	20260.75
882.605	20187.75
882.846	20170.75
883.088	20102.75
883.329	20042.75
883.571	20076.75
883.812	20162.75
884.053	20430.75
884.295	20602.75
884.536	20800.75
884.777	20850.75
885.018	20547.75
885.259	20397.75
885.5	20376.75
885.742	20607.75
885.982	20253.75
886.223	20091.75
886.464	20036.75
886.705	19827.75
886.946	19703.75
887.187	19392.75
887.428	19231.75
887.668	18950.75
887.909	18711.75
888.15	18601.75
888.39	18363.75
888.631	18334.75
888.871	18250.75
889.111	18128.75
889.352	18003.75
889.592	17830.75
889.833	17677.75
890.073	17564.75
890.313	17572.75
890.553	17346.75
890.793	17339.75
891.033	17221.75
891.273	17103.75
891.513	17112.75
891.753	17066.75
891.993	16976.75
892.233	17026.75
892.473	17099.75
892.713	16955.75
892.952	17017.75
893.192	17140.75
893.432	16914.75
893.671	17005.75
893.911	16876.75
894.15	16813.75
894.39	16640.75
894.629	16595.75
894.869	16424.75
895.108	16367.75
895.347	16230.75
895.587	16297.75
895.826	16162.75
896.065	16014.75
896.304	16178.75
896.543	16097.75
896.782	15925.75
897.021	15895.75
897.26	15975.75
897.499	15959.75
897.738	15946.75
897.977	15688.75
898.216	15630.75
898.454	15511.75
898.693	15378.75
898.932	15357.75
899.17	15266.75
899.409	15261.75
899.647	15200.75
899.886	15064.75
900.124	15083.75
900.363	15089.75
900.601	15119.75
900.839	15196.75
901.078	15097.75
901.316	15221.75
901.554	15216.75
901.792	15268.75
902.03	15162.75
902.268	15208.75
902.506	15201.75
902.744	15130.75
902.982	14997.75
903.22	14820.75
903.458	14663.75
903.695	14460.75
903.933	14246.75
904.171	14017.75
904.409	13820.75
904.646	13700.75
904.884	13495.75
905.121	13482.75
905.359	13153.75
905.596	13130.75
905.833	13000.75
906.071	12928.75
906.308	13001.75
906.545	12852.75
906.783	12782.75
907.02	12839.75
907.257	12680.75
907.494	12661.75
907.731	12757.75
907.968	12655.75
908.205	12510.75
908.442	12542.75
908.679	12343.75
908.915	12315.75
909.152	12221.75
909.389	12093.75
909.626	12050.75
909.862	11894.75
910.099	11897.75
910.335	11882.75
910.572	11704.75
910.808	11802.75
911.045	11734.75
911.281	11652.75
911.518	11661.75
911.754	11540.75
911.99	11575.75
912.226	11442.75
912.463	11285.75
912.699	11195.75
912.935	11120.75
913.171	11074.75
913.407	10923.75
913.643	10926.75
913.879	10836.75
914.114	10704.75
914.35	10543.75
914.586	10566.75
914.822	10374.75
915.057	10424.75
915.293	10187.75
915.529	10085.75
915.764	10297.75
916	10195.75
916.235	10166.75
916.471	10164.75
916.706	10067.75
916.941	10077.75
917.177	10063.75
917.412	10051.75
917.647	9959.75
917.882	10039.75
918.117	10001.75
918.352	9926.75
918.588	9895.75
918.823	9814.75
919.057	9698.75
919.292	9519.75
919.527	9617.75
919.762	9392.75
919.997	9418.75
920.232	9206.75
920.466	9292.75
920.701	8995.75
920.935	9099.75
921.17	8920.75
921.405	8911.75
921.639	8975.75
921.873	8829.75
922.108	8831.75
922.342	8765.75
922.576	8725.75
922.811	8729.75
923.045	8678.75
923.279	8703.75
923.513	8564.75
923.747	8578.75
923.981	8520.75
924.215	8368.75
924.449	8405.75
924.683	8266.75
924.917	8234.75
925.151	8232.75
925.385	8253.75
925.618	8180.75
925.852	8199.75
926.086	8081.75
926.319	8150.75
926.553	8055.75
926.786	8111.75
927.02	8112.75
927.253	8087.75
927.486	8114.75
927.72	7961.75
927.953	8036.75
928.186	7940.75
928.42	7979.75
928.653	7841.75
928.886	7837.75
929.119	7849.75
929.352	7753.75
929.585	7760.75
929.818	7692.75
930.051	7611.75
930.284	7594.75
930.516	7468.75
930.749	7450.75
930.982	7434.75
931.215	7349.75
931.447	7285.75
931.68	7303.75
931.912	7304.75
932.145	7229.75
932.377	7287.75
932.61	7366.75
932.842	7196.75
933.074	7219.75
933.307	7175.75
933.539	7292.75
933.771	7214.75
934.003	7181.75
934.236	7218.75
934.468	7254.75
934.7	7204.75
934.932	7199.75
935.164	7150.75
935.395	7097.75
935.627	7071.75
935.859	7077.75
936.091	7015.75
936.323	6980.75
936.554	6992.75
936.786	6928.75
937.017	6832.75
937.249	6886.75
937.481	6814.75
937.712	6857.75
937.943	6835.75
938.175	6716.75
938.406	6800.75
938.637	6810.75
938.869	6688.75
939.1	6795.75
939.331	6712.75
939.562	6674.75
939.793	6674.75
940.024	6620.75
940.255	6656.75
940.486	6579.75
940.717	6529.75
940.948	6516.75
941.179	6424.75
941.409	6422.75
941.64	6485.75
941.871	6506.75
942.102	6374.75
942.332	6396.75
942.563	6502.75
942.793	6440.75
943.024	6396.75
943.254	6379.75
943.484	6433.75
943.715	6391.75
943.945	6360.75
944.175	6332.75
944.405	6285.75
944.636	6312.75
944.866	6316.75
945.096	6350.75
945.326	6267.75
945.556	6287.75
945.786	6232.75
946.016	6204.75
946.245	6098.75
946.475	6071.75
946.705	6008.75
946.935	6030.75
947.164	5982.75
947.394	5933.75
947.624	5957.75
947.853	5961.75
948.083	5902.75
948.312	5860.75
948.542	5752.75
948.771	5741.75
949	5723.75
949.23	5727.75
949.459	5750.75
949.688	5799.75
949.917	5749.75
950.146	5793.75
950.375	5806.75
950.604	5660.75
950.833	5737.75
951.062	5730.75
951.291	5661.75
951.52	5620.75
951.749	5666.75
951.978	5576.75
952.206	5586.75
952.435	5532.75
952.664	5563.75
952.892	5535.75
953.121	5519.75
953.349	5524.75
953.578	5477.75
953.806	5430.75
954.035	5390.75
954.263	5407.75
954.491	5362.75
954.719	5389.75
954.948	5285.75
955.176	5271.75
955.404	5162.75
955.632	5250.75
955.86	5174.75
956.088	5182.75
956.316	5184.75
956.544	5144.75
956.772	5132.75
956.999	5060.75
957.227	5097.75
957.455	4969.75
957.683	5003.75
957.91	4929.75
958.138	4859.75
958.365	4909.75
958.593	4866.75
958.82	4816.75
959.048	4917.75
959.275	4830.75
959.502	4799.75
959.73	4780.75
959.957	4809.75
960.184	4794.75
960.411	4728.75
960.638	4801.75
960.865	4750.75
961.092	4766.75
961.319	4649.75
961.546	4762.75
961.773	4756.75
962	4741.75
962.227	4713.75
962.454	4710.75
962.68	4641.75
962.907	4638.75
963.134	4617.75
963.36	4616.75
963.587	4599.75
963.813	4504.75
964.04	4525.75
964.266	4438.75
964.493	4480.75
964.719	4430.75
964.945	4460.75
965.171	4320.75
965.398	4396.75
965.624	4330.75
965.85	4293.75
966.076	4315.75
966.302	4260.75
966.528	4292.75
966.754	4244.75
966.98	4216.75
967.206	4235.75
967.431	4078.75
967.657	4203.75
967.883	4187.75
968.109	4219.75
968.334	4152.75
968.56	4108.75
968.785	4087.75
969.011	4078.75
969.236	4127.75
969.462	4060.75
969.687	4048.75
969.912	4105.75
970.138	4052.75
970.363	4010.75
970.588	3990.75
970.813	3987.75
971.038	3991.75
971.263	3981.75
971.488	3907.75
971.713	3959.75
971.938	3928.75
972.163	3835.75
972.388	3882.75
972.613	3824.75
972.838	3851.75
973.062	3827.75
973.287	3801.75
973.512	3735.75
973.736	3764.75
973.961	3692.75
974.185	3711.75
974.41	3732.75
974.634	3607.75
974.858	3608.75
975.083	3649.75
975.307	3645.75
975.531	3574.75
975.755	3480.75
975.98	3532.75
976.204	3454.75
976.428	3422.75
976.652	3432.75
976.876	3402.75
977.1	3405.75
977.324	3400.75
977.547	3436.75
977.771	3436.75
977.995	3357.75
978.219	3318.75
978.442	3438.75
978.666	3356.75
978.89	3343.75
979.113	3321.75
979.337	3324.75
979.56	3251.75
979.783	3382.75
980.007	3244.75
980.23	3263.75
980.453	3218.75
980.677	3238.75
980.9	3203.75
981.123	3134.75
981.346	3248.75
981.569	3226.75
981.792	3204.75
982.015	3152.75
982.238	3132.75
982.461	3118.75
982.684	3064.75
982.907	3019.75
983.129	2999.75
983.352	3067.75
983.575	3011.75
983.797	2969.75
984.02	2940.75
984.242	2942.75
984.465	2946.75
984.687	2976.75
984.91	3013.75
985.132	2941.75
985.354	2942.75
985.577	2942.75
985.799	2896.75
986.021	2814.75
986.243	2823.75
986.465	2845.75
986.687	2882.75
986.909	2895.75
987.131	2833.75
987.353	2763.75
987.575	2806.75
987.797	2779.75
988.019	2713.75
988.241	2776.75
988.462	2726.75
988.684	2747.75
988.906	2804.75
989.127	2811.75
989.349	2662.75
989.57	2732.75
989.792	2737.75
990.013	2738.75
990.234	2730.75
990.456	2748.75
990.677	2714.75
990.898	2650.75
991.119	2692.75
991.341	2694.75
991.562	2579.75
991.783	2603.75
992.004	2555.75
992.225	2537.75
992.446	2559.75
992.667	2466.75
992.887	2523.75
993.108	2476.75
993.329	2530.75
993.55	2496.75
993.77	2463.75
993.991	2452.75
994.212	2441.75
994.432	2413.75
994.653	2445.75
994.873	2418.75
995.093	2329.75
995.314	2345.75
995.534	2417.75
995.754	2449.75
995.975	2443.75
996.195	2314.75
996.415	2331.75
996.635	2365.75
996.855	2389.75
997.075	2314.75
997.295	2328.75
997.515	2307.75
997.735	2371.75
997.955	2301.75
998.174	2317.75
998.394	2270.75
998.614	2361.75
998.834	2264.75
999.053	2338.75
999.273	2301.75
999.492	2330.75
999.712	2275.75
999.931	2227.75
1000.151	2266.75
1000.37	2227.75
1000.589	2279.75
1000.809	2197.75
1001.028	2291.75
1001.247	2224.75
1001.466	2139.75
1001.685	2230.75
1001.904	2169.75
1002.123	2164.75
1002.342	2134.75
1002.561	2078.75
1002.78	2141.75
1002.999	2183.75
1003.218	2120.75
1003.436	2088.75
1003.655	2118.75
1003.874	2024.75
1004.092	2053.75
1004.311	2105.75
1004.53	2075.75
1004.748	2097.75
1004.966	2059.75
1005.185	2112.75
1005.403	2078.75
1005.622	2073.75
1005.84	2077.75
1006.058	2031.75
1006.276	2027.75
1006.494	2515.75
1006.712	2034.75
1006.931	2107.75
1007.149	2017.75
1007.367	2014.75
1007.584	2065.75
1007.802	2093.75
1008.02	2043.75
1008.238	2118.75
1008.456	2105.75
1008.673	1995.75
1008.891	2077.75
1009.109	2079.75
1009.326	2104.75
1009.544	2202.75
1009.761	2133.75
1009.979	2200.75
1010.196	2194.75
1010.413	2338.75
1010.631	2359.75
1010.848	2426.75
1011.065	2465.75
1011.282	2360.75
1011.5	2316.75
1011.717	2442.75
1011.934	2375.75
1012.151	2364.75
1012.368	2367.75
1012.585	2312.75
1012.801	2356.75
1013.018	2300.75
1013.235	2297.75
1013.452	2272.75
1013.669	2316.75
1013.885	2296.75
1014.102	2350.75
1014.318	2286.75
1014.535	2260.75
1014.751	2279.75
1014.968	2262.75
1015.184	2317.75
1015.401	2198.75
1015.617	2229.75
1015.833	2193.75
1016.049	2179.75
1016.266	2141.75
1016.482	2142.75
1016.698	2058.75
1016.914	2092.75
1017.13	2043.75
1017.346	2059.75
1017.562	2076.75
1017.778	1995.75
1017.993	1977.75
1018.209	2018.75
1018.425	1990.75
1018.641	1968.75
1018.856	1957.75
1019.072	2003.75
1019.288	2009.75
1019.503	1947.75
1019.719	1859.75
1019.934	1891.75
1020.149	1963.75
1020.365	1898.75
1020.58	1831.75
1020.795	1884.75
1021.011	1813.75
1021.226	1781.75
1021.441	1806.75
1021.656	1694.75
1021.871	1616.75
1022.086	1630.75
1022.301	1607.75
1022.516	1613.75
1022.731	1582.75
1022.946	1553.75
1023.16	1508.75
1023.375	1469.75
1023.59	1448.75
1023.804	1415.75
1024.019	1486.75
1024.234	1360.75
1024.448	1409.75
1024.663	1317.75
1024.877	1311.75
1025.092	1325.75
1025.306	1319.75
1025.52	1232.75
1025.734	1297.75
1025.949	1202.75
1026.163	1172.75
1026.377	1107.75
1026.591	1176.75
1026.805	1090.75
1027.019	1077.75
1027.233	1029.75
1027.447	962.75
1027.661	1076.75
1027.875	1012.75
1028.088	1019.75
1028.302	929.75
1028.516	933.75
1028.73	917.75
1028.943	902.75
1029.157	824.75
1029.37	797.75
1029.584	-1.25
1029.797	-3.25
1030.011	-0.25
1030.224	-0.25
