Data from QEP037381__123__15-43-59-880.txt Node

Date: Fri Dec 16 15:43:59 EST 2022
User: dcclab
Spectrometer: QEP03738
Trigger mode: 4
Integration Time (sec): 1.000000E1
Scans to average: 1
Electric dark correction enabled: true
Nonlinearity correction enabled: false
Boxcar width: 0
XAxis mode: Wavelengths
Number of Pixels in Spectrum: 1044
>>>>>Begin Spectral Data<<<<<
784.041	10.62
784.3	-1.38
784.558	-1.38
784.817	-3.38
785.075	107841.62
785.334	18883.62
785.592	8999.62
785.851	6163.62
786.109	4730.62
786.368	3675.62
786.626	2926.62
786.884	2396.62
787.143	2027.62
787.401	1643.62
787.659	1516.62
787.917	1274.62
788.175	1183.62
788.433	1033.62
788.691	934.62
788.949	854.62
789.207	823.62
789.465	723.62
789.723	700.62
789.98	624.62
790.238	662.62
790.496	642.62
790.753	604.62
791.011	637.62
791.268	585.62
791.526	563.62
791.783	591.62
792.041	560.62
792.298	477.62
792.556	535.62
792.813	515.62
793.07	508.62
793.327	493.62
793.584	562.62
793.841	488.62
794.099	524.62
794.356	564.62
794.613	462.62
794.869	511.62
795.126	454.62
795.383	436.62
795.64	474.62
795.897	428.62
796.153	478.62
796.41	466.62
796.667	463.62
796.923	445.62
797.18	466.62
797.436	513.62
797.693	460.62
797.949	512.62
798.206	558.62
798.462	456.62
798.718	513.62
798.974	507.62
799.231	558.62
799.487	542.62
799.743	554.62
799.999	592.62
800.255	580.62
800.511	582.62
800.767	625.62
801.023	623.62
801.279	668.62
801.534	732.62
801.79	813.62
802.046	858.62
802.302	1040.62
802.557	1242.62
802.813	1571.62
803.068	2029.62
803.324	2845.62
803.579	3893.62
803.835	5483.62
804.09	7555.62
804.345	9884.62
804.601	12613.62
804.856	15182.62
805.111	17658.62
805.366	19555.62
805.621	20987.62
805.876	21952.62
806.131	22470.62
806.386	22964.62
806.641	23365.62
806.896	23654.62
807.151	24215.62
807.406	24585.62
807.661	24930.62
807.915	25424.62
808.17	25782.62
808.425	26093.62
808.679	26257.62
808.934	26613.62
809.188	26747.62
809.443	27073.62
809.697	27389.62
809.951	27527.62
810.206	27841.62
810.46	28140.62
810.714	28553.62
810.968	28609.62
811.223	28782.62
811.477	29062.62
811.731	29262.62
811.985	29537.62
812.239	29693.62
812.493	29767.62
812.747	29734.62
813	29992.62
813.254	30054.62
813.508	30200.62
813.762	30415.62
814.015	30476.62
814.269	30805.62
814.522	30864.62
814.776	31365.62
815.03	31655.62
815.283	32051.62
815.536	32522.62
815.79	33120.62
816.043	33683.62
816.296	34123.62
816.55	34306.62
816.803	34845.62
817.056	35263.62
817.309	35492.62
817.562	35832.62
817.815	36186.62
818.068	36458.62
818.321	36850.62
818.574	37169.62
818.827	37629.62
819.079	38141.62
819.332	38835.62
819.585	39227.62
819.838	39700.62
820.09	39947.62
820.343	40162.62
820.595	40397.62
820.848	40679.62
821.1	40775.62
821.353	40877.62
821.605	40808.62
821.857	40907.62
822.11	40681.62
822.362	40556.62
822.614	40546.62
822.866	40449.62
823.118	40524.62
823.37	40732.62
823.622	40657.62
823.874	40759.62
824.126	40886.62
824.378	40904.62
824.63	41113.62
824.882	41256.62
825.134	41196.62
825.385	41138.62
825.637	40977.62
825.888	40953.62
826.14	40761.62
826.392	40546.62
826.643	40527.62
826.895	40279.62
827.146	40179.62
827.397	40056.62
827.649	40088.62
827.9	40040.62
828.151	40122.62
828.402	40173.62
828.653	40423.62
828.905	40317.62
829.156	40345.62
829.407	40493.62
829.658	40397.62
829.909	40399.62
830.159	40335.62
830.41	40136.62
830.661	39879.62
830.912	39611.62
831.162	39439.62
831.413	39400.62
831.664	39492.62
831.914	39366.62
832.165	39174.62
832.415	39274.62
832.666	39252.62
832.916	39293.62
833.167	39328.62
833.417	39174.62
833.667	39078.62
833.917	38995.62
834.168	38890.62
834.418	38759.62
834.668	38518.62
834.918	38423.62
835.168	38316.62
835.418	38092.62
835.668	38044.62
835.918	37938.62
836.167	37910.62
836.417	37734.62
836.667	37527.62
836.917	37575.62
837.166	37599.62
837.416	37505.62
837.666	37483.62
837.915	37389.62
838.165	37314.62
838.414	37265.62
838.663	37164.62
838.913	37207.62
839.162	36989.62
839.411	37140.62
839.661	36729.62
839.91	36610.62
840.159	36675.62
840.408	36540.62
840.657	36471.62
840.906	36451.62
841.155	36488.62
841.404	36523.62
841.653	36450.62
841.902	36560.62
842.15	36658.62
842.399	36432.62
842.648	36463.62
842.897	36222.62
843.145	36026.62
843.394	35804.62
843.642	35743.62
843.891	35550.62
844.139	35325.62
844.388	34987.62
844.636	34953.62
844.884	34927.62
845.133	34926.62
845.381	34876.62
845.629	34868.62
845.877	34768.62
846.125	34801.62
846.373	34691.62
846.621	34434.62
846.869	34404.62
847.117	34117.62
847.365	33930.62
847.613	33842.62
847.861	33698.62
848.108	33690.62
848.356	33479.62
848.604	33343.62
848.851	33452.62
849.099	33572.62
849.346	33549.62
849.594	33825.62
849.841	33800.62
850.089	33809.62
850.336	33810.62
850.583	33707.62
850.831	33605.62
851.078	33461.62
851.325	33256.62
851.572	33219.62
851.819	32926.62
852.066	32574.62
852.313	32098.62
852.56	31955.62
852.807	31665.62
853.054	31673.62
853.301	31590.62
853.548	31500.62
853.794	31711.62
854.041	31669.62
854.288	31904.62
854.534	32125.62
854.781	31966.62
855.028	31857.62
855.274	31888.62
855.52	31644.62
855.767	31468.62
856.013	31306.62
856.26	31642.62
856.506	31234.62
856.752	31155.62
856.998	31040.62
857.244	31144.62
857.49	31323.62
857.736	31462.62
857.982	31303.62
858.228	31246.62
858.474	31028.62
858.72	30861.62
858.966	30590.62
859.212	30274.62
859.458	29991.62
859.703	29675.62
859.949	29446.62
860.195	29236.62
860.44	29125.62
860.686	28884.62
860.931	28848.62
861.177	28733.62
861.422	28635.62
861.667	28518.62
861.913	28513.62
862.158	28548.62
862.403	28611.62
862.648	28635.62
862.893	28772.62
863.138	28545.62
863.384	28538.62
863.629	28615.62
863.873	28472.62
864.118	28461.62
864.363	28204.62
864.608	28058.62
864.853	28089.62
865.098	27921.62
865.342	27864.62
865.587	27609.62
865.832	27742.62
866.076	27464.62
866.321	27365.62
866.565	27338.62
866.81	27073.62
867.054	27129.62
867.298	27035.62
867.543	26861.62
867.787	26929.62
868.031	26811.62
868.275	26916.62
868.519	26718.62
868.764	26625.62
869.008	26529.62
869.252	26503.62
869.496	26441.62
869.739	26318.62
869.983	26224.62
870.227	26218.62
870.471	26295.62
870.715	26328.62
870.958	26253.62
871.202	26347.62
871.446	26370.62
871.689	26243.62
871.933	26269.62
872.176	26271.62
872.42	26237.62
872.663	26169.62
872.906	26035.62
873.15	25958.62
873.393	25652.62
873.636	25729.62
873.879	25399.62
874.122	25213.62
874.366	24865.62
874.609	24646.62
874.852	24619.62
875.095	24430.62
875.337	24319.62
875.58	24218.62
875.823	24141.62
876.066	24127.62
876.309	24102.62
876.551	23840.62
876.794	23778.62
877.037	23765.62
877.279	23638.62
877.522	23622.62
877.764	23667.62
878.007	23732.62
878.249	23635.62
878.491	23455.62
878.734	23504.62
878.976	23520.62
879.218	23186.62
879.46	23311.62
879.702	23095.62
879.945	22740.62
880.187	22626.62
880.429	22370.62
880.671	22309.62
880.912	22328.62
881.154	22265.62
881.396	22085.62
881.638	22088.62
881.88	22101.62
882.121	21969.62
882.363	21878.62
882.605	22049.62
882.846	22007.62
883.088	21892.62
883.329	21759.62
883.571	21745.62
883.812	21772.62
884.053	21976.62
884.295	22302.62
884.536	22407.62
884.777	22203.62
885.018	22130.62
885.259	22104.62
885.5	22034.62
885.742	22197.62
885.982	21923.62
886.223	21718.62
886.464	21544.62
886.705	21465.62
886.946	21294.62
887.187	20967.62
887.428	20826.62
887.668	20675.62
887.909	20437.62
888.15	20221.62
888.39	20084.62
888.631	19928.62
888.871	19753.62
889.111	19668.62
889.352	19531.62
889.592	19259.62
889.833	19224.62
890.073	19089.62
890.313	19000.62
890.553	18822.62
890.793	18797.62
891.033	18716.62
891.273	18636.62
891.513	18571.62
891.753	18526.62
891.993	18473.62
892.233	18443.62
892.473	18557.62
892.713	18473.62
892.952	18516.62
893.192	18511.62
893.432	18377.62
893.671	18464.62
893.911	18318.62
894.15	18250.62
894.39	18150.62
894.629	17965.62
894.869	17905.62
895.108	17763.62
895.347	17598.62
895.587	17616.62
895.826	17629.62
896.065	17482.62
896.304	17580.62
896.543	17478.62
896.782	17324.62
897.021	17400.62
897.26	17284.62
897.499	17291.62
897.738	17186.62
897.977	17027.62
898.216	16877.62
898.454	16788.62
898.693	16629.62
898.932	16650.62
899.17	16599.62
899.409	16515.62
899.647	16417.62
899.886	16358.62
900.124	16431.62
900.363	16310.62
900.601	16343.62
900.839	16366.62
901.078	16430.62
901.316	16415.62
901.554	16495.62
901.792	16459.62
902.03	16408.62
902.268	16341.62
902.506	16362.62
902.744	16321.62
902.982	16203.62
903.22	16019.62
903.458	15796.62
903.695	15707.62
903.933	15452.62
904.171	15218.62
904.409	14940.62
904.646	14804.62
904.884	14518.62
905.121	14547.62
905.359	14335.62
905.596	14216.62
905.833	14142.62
906.071	14016.62
906.308	13952.62
906.545	13960.62
906.783	13908.62
907.02	13829.62
907.257	13770.62
907.494	13799.62
907.731	13714.62
907.968	13634.62
908.205	13545.62
908.442	13450.62
908.679	13406.62
908.915	13331.62
909.152	13146.62
909.389	12994.62
909.626	12971.62
909.862	12890.62
910.099	12844.62
910.335	12774.62
910.572	12700.62
910.808	12767.62
911.045	12608.62
911.281	12569.62
911.518	12600.62
911.754	12468.62
911.99	12453.62
912.226	12290.62
912.463	12214.62
912.699	12123.62
912.935	11996.62
913.171	11970.62
913.407	11826.62
913.643	11816.62
913.879	11670.62
914.114	11563.62
914.35	11389.62
914.586	11307.62
914.822	11234.62
915.057	11202.62
915.293	11025.62
915.529	10904.62
915.764	11084.62
916	10997.62
916.235	10892.62
916.471	10925.62
916.706	10799.62
916.941	10866.62
917.177	10711.62
917.412	10799.62
917.647	10812.62
917.882	10676.62
918.117	10784.62
918.352	10678.62
918.588	10674.62
918.823	10586.62
919.057	10438.62
919.292	10184.62
919.527	10281.62
919.762	10139.62
919.997	10102.62
920.232	9884.62
920.466	9853.62
920.701	9752.62
920.935	9734.62
921.17	9616.62
921.405	9524.62
921.639	9609.62
921.873	9507.62
922.108	9492.62
922.342	9464.62
922.576	9326.62
922.811	9351.62
923.045	9291.62
923.279	9313.62
923.513	9133.62
923.747	9202.62
923.981	9084.62
924.215	9003.62
924.449	8965.62
924.683	8867.62
924.917	8817.62
925.151	8845.62
925.385	8855.62
925.618	8772.62
925.852	8753.62
926.086	8643.62
926.319	8677.62
926.553	8676.62
926.786	8665.62
927.02	8683.62
927.253	8692.62
927.486	8587.62
927.72	8581.62
927.953	8533.62
928.186	8600.62
928.42	8562.62
928.653	8423.62
928.886	8400.62
929.119	8411.62
929.352	8424.62
929.585	8314.62
929.818	8261.62
930.051	8187.62
930.284	8133.62
930.516	7975.62
930.749	7934.62
930.982	7935.62
931.215	7895.62
931.447	7812.62
931.68	7786.62
931.912	7748.62
932.145	7740.62
932.377	7782.62
932.61	7914.62
932.842	7670.62
933.074	7756.62
933.307	7705.62
933.539	7722.62
933.771	7790.62
934.003	7645.62
934.236	7764.62
934.468	7802.62
934.7	7630.62
934.932	7726.62
935.164	7595.62
935.395	7503.62
935.627	7505.62
935.859	7522.62
936.091	7433.62
936.323	7509.62
936.554	7497.62
936.786	7414.62
937.017	7296.62
937.249	7397.62
937.481	7269.62
937.712	7269.62
937.943	7308.62
938.175	7188.62
938.406	7208.62
938.637	7300.62
938.869	7200.62
939.1	7181.62
939.331	7092.62
939.562	7170.62
939.793	7157.62
940.024	7101.62
940.255	7049.62
940.486	6980.62
940.717	6952.62
940.948	6938.62
941.179	6873.62
941.409	6889.62
941.64	6874.62
941.871	6793.62
942.102	6821.62
942.332	6866.62
942.563	6806.62
942.793	6821.62
943.024	6758.62
943.254	6731.62
943.484	6850.62
943.715	6841.62
943.945	6820.62
944.175	6726.62
944.405	6659.62
944.636	6717.62
944.866	6771.62
945.096	6739.62
945.326	6649.62
945.556	6704.62
945.786	6703.62
946.016	6624.62
946.245	6501.62
946.475	6494.62
946.705	6447.62
946.935	6367.62
947.164	6377.62
947.394	6279.62
947.624	6352.62
947.853	6351.62
948.083	6281.62
948.312	6205.62
948.542	6119.62
948.771	6147.62
949	6125.62
949.23	6125.62
949.459	6131.62
949.688	6110.62
949.917	6123.62
950.146	6187.62
950.375	6171.62
950.604	6089.62
950.833	6114.62
951.062	6066.62
951.291	5994.62
951.52	6001.62
951.749	5974.62
951.978	5933.62
952.206	5950.62
952.435	5910.62
952.664	5903.62
952.892	5844.62
953.121	5770.62
953.349	5836.62
953.578	5801.62
953.806	5793.62
954.035	5680.62
954.263	5688.62
954.491	5661.62
954.719	5672.62
954.948	5602.62
955.176	5558.62
955.404	5482.62
955.632	5446.62
955.86	5539.62
956.088	5516.62
956.316	5480.62
956.544	5458.62
956.772	5371.62
956.999	5337.62
957.227	5397.62
957.455	5265.62
957.683	5256.62
957.91	5219.62
958.138	5189.62
958.365	5174.62
958.593	5164.62
958.82	5091.62
959.048	5145.62
959.275	5130.62
959.502	5059.62
959.73	5032.62
959.957	5062.62
960.184	5046.62
960.411	5061.62
960.638	5058.62
960.865	4999.62
961.092	5023.62
961.319	4930.62
961.546	5060.62
961.773	4996.62
962	4980.62
962.227	5081.62
962.454	4947.62
962.68	4902.62
962.907	4935.62
963.134	4823.62
963.36	4829.62
963.587	4854.62
963.813	4751.62
964.04	4747.62
964.266	4691.62
964.493	4730.62
964.719	4732.62
964.945	4675.62
965.171	4584.62
965.398	4572.62
965.624	4593.62
965.85	4518.62
966.076	4491.62
966.302	4528.62
966.528	4491.62
966.754	4509.62
966.98	4452.62
967.206	4437.62
967.431	4379.62
967.657	4461.62
967.883	4459.62
968.109	4422.62
968.334	4322.62
968.56	4281.62
968.785	4332.62
969.011	4276.62
969.236	4363.62
969.462	4264.62
969.687	4223.62
969.912	4257.62
970.138	4285.62
970.363	4216.62
970.588	4250.62
970.813	4166.62
971.038	4173.62
971.263	4151.62
971.488	4117.62
971.713	4195.62
971.938	4113.62
972.163	4042.62
972.388	4043.62
972.613	3991.62
972.838	3985.62
973.062	3992.62
973.287	3978.62
973.512	3915.62
973.736	3920.62
973.961	3926.62
974.185	3870.62
974.41	3912.62
974.634	3800.62
974.858	3805.62
975.083	3821.62
975.307	3833.62
975.531	3736.62
975.755	3688.62
975.98	3708.62
976.204	3592.62
976.428	3600.62
976.652	3629.62
976.876	3572.62
977.1	3629.62
977.324	3578.62
977.547	3554.62
977.771	3574.62
977.995	3526.62
978.219	3467.62
978.442	3568.62
978.666	3526.62
978.89	3458.62
979.113	3461.62
979.337	3468.62
979.56	3450.62
979.783	3512.62
980.007	3379.62
980.23	3415.62
980.453	3379.62
980.677	3382.62
980.9	3395.62
981.123	3263.62
981.346	3348.62
981.569	3336.62
981.792	3337.62
982.015	3334.62
982.238	3239.62
982.461	3264.62
982.684	3189.62
982.907	3132.62
983.129	3150.62
983.352	3199.62
983.575	3157.62
983.797	3155.62
984.02	3119.62
984.242	3096.62
984.465	3097.62
984.687	3125.62
984.91	3102.62
985.132	3069.62
985.354	3042.62
985.577	3061.62
985.799	2981.62
986.021	2925.62
986.243	2921.62
986.465	2982.62
986.687	3019.62
986.909	3051.62
987.131	2928.62
987.353	2909.62
987.575	2910.62
987.797	2925.62
988.019	2815.62
988.241	2900.62
988.462	2856.62
988.684	2915.62
988.906	2918.62
989.127	2924.62
989.349	2803.62
989.57	2815.62
989.792	2845.62
990.013	2856.62
990.234	2840.62
990.456	2875.62
990.677	2848.62
990.898	2770.62
991.119	2762.62
991.341	2767.62
991.562	2699.62
991.783	2729.62
992.004	2707.62
992.225	2623.62
992.446	2666.62
992.667	2591.62
992.887	2644.62
993.108	2575.62
993.329	2667.62
993.55	2614.62
993.77	2544.62
993.991	2553.62
994.212	2553.62
994.432	2522.62
994.653	2564.62
994.873	2501.62
995.093	2412.62
995.314	2438.62
995.534	2521.62
995.754	2512.62
995.975	2510.62
996.195	2422.62
996.415	2466.62
996.635	2405.62
996.855	2447.62
997.075	2374.62
997.295	2405.62
997.515	2398.62
997.735	2385.62
997.955	2417.62
998.174	2406.62
998.394	2332.62
998.614	2395.62
998.834	2343.62
999.053	2379.62
999.273	2369.62
999.492	2410.62
999.712	2345.62
999.931	2305.62
1000.151	2328.62
1000.37	2317.62
1000.589	2362.62
1000.809	2278.62
1001.028	2371.62
1001.247	2295.62
1001.466	2188.62
1001.685	2287.62
1001.904	2218.62
1002.123	2216.62
1002.342	2244.62
1002.561	2179.62
1002.78	2204.62
1002.999	2268.62
1003.218	2200.62
1003.436	2159.62
1003.655	2192.62
1003.874	2090.62
1004.092	2126.62
1004.311	2170.62
1004.53	2115.62
1004.748	2208.62
1004.966	2081.62
1005.185	2169.62
1005.403	2179.62
1005.622	2106.62
1005.84	2184.62
1006.058	2084.62
1006.276	2073.62
1006.494	2596.62
1006.712	2098.62
1006.931	2144.62
1007.149	2050.62
1007.367	2096.62
1007.584	2105.62
1007.802	2160.62
1008.02	2087.62
1008.238	2159.62
1008.456	2158.62
1008.673	2016.62
1008.891	2140.62
1009.109	2083.62
1009.326	2169.62
1009.544	2229.62
1009.761	2154.62
1009.979	2234.62
1010.196	2218.62
1010.413	2356.62
1010.631	2408.62
1010.848	2436.62
1011.065	2427.62
1011.282	2379.62
1011.5	2311.62
1011.717	2441.62
1011.934	2370.62
1012.151	2380.62
1012.368	2394.62
1012.585	2314.62
1012.801	2383.62
1013.018	2312.62
1013.235	2305.62
1013.452	2313.62
1013.669	2340.62
1013.885	2312.62
1014.102	2343.62
1014.318	2303.62
1014.535	2240.62
1014.751	2293.62
1014.968	2283.62
1015.184	2307.62
1015.401	2165.62
1015.617	2222.62
1015.833	2183.62
1016.049	2172.62
1016.266	2138.62
1016.482	2148.62
1016.698	2050.62
1016.914	2104.62
1017.13	2029.62
1017.346	2001.62
1017.562	2065.62
1017.778	2051.62
1017.993	1989.62
1018.209	2043.62
1018.425	2014.62
1018.641	1968.62
1018.856	1978.62
1019.072	1978.62
1019.288	1999.62
1019.503	1959.62
1019.719	1909.62
1019.934	1920.62
1020.149	1965.62
1020.365	1880.62
1020.58	1824.62
1020.795	1872.62
1021.011	1811.62
1021.226	1797.62
1021.441	1818.62
1021.656	1714.62
1021.871	1632.62
1022.086	1619.62
1022.301	1602.62
1022.516	1565.62
1022.731	1642.62
1022.946	1578.62
1023.16	1523.62
1023.375	1494.62
1023.59	1473.62
1023.804	1447.62
1024.019	1520.62
1024.234	1392.62
1024.448	1421.62
1024.663	1345.62
1024.877	1339.62
1025.092	1345.62
1025.306	1343.62
1025.52	1246.62
1025.734	1321.62
1025.949	1232.62
1026.163	1218.62
1026.377	1160.62
1026.591	1208.62
1026.805	1108.62
1027.019	1073.62
1027.233	1063.62
1027.447	995.62
1027.661	1113.62
1027.875	1025.62
1028.088	1035.62
1028.302	951.62
1028.516	942.62
1028.73	916.62
1028.943	916.62
1029.157	841.62
1029.37	793.62
1029.584	-1.38
1029.797	-2.38
1030.011	-1.38
1030.224	0.62
