Data from QEP037381__173__15-52-19-886.txt Node

Date: Fri Dec 16 15:52:19 EST 2022
User: dcclab
Spectrometer: QEP03738
Trigger mode: 4
Integration Time (sec): 1.000000E1
Scans to average: 1
Electric dark correction enabled: true
Nonlinearity correction enabled: false
Boxcar width: 0
XAxis mode: Wavelengths
Number of Pixels in Spectrum: 1044
>>>>>Begin Spectral Data<<<<<
784.041	10.88
784.3	-1.12
784.558	-1.12
784.817	-4.12
785.075	116670.88
785.334	20200.88
785.592	9545.88
785.851	6506.88
786.109	4906.88
786.368	3868.88
786.626	3083.88
786.884	2544.88
787.143	2100.88
787.401	1751.88
787.659	1575.88
787.917	1337.88
788.175	1246.88
788.433	1073.88
788.691	952.88
788.949	893.88
789.207	841.88
789.465	737.88
789.723	713.88
789.98	654.88
790.238	697.88
790.496	630.88
790.753	612.88
791.011	653.88
791.268	592.88
791.526	569.88
791.783	572.88
792.041	557.88
792.298	477.88
792.556	544.88
792.813	520.88
793.07	514.88
793.327	485.88
793.584	574.88
793.841	479.88
794.099	521.88
794.356	562.88
794.613	474.88
794.869	512.88
795.126	468.88
795.383	436.88
795.64	472.88
795.897	422.88
796.153	494.88
796.41	467.88
796.667	461.88
796.923	471.88
797.18	459.88
797.436	487.88
797.693	450.88
797.949	506.88
798.206	542.88
798.462	462.88
798.718	513.88
798.974	498.88
799.231	536.88
799.487	539.88
799.743	546.88
799.999	558.88
800.255	587.88
800.511	574.88
800.767	606.88
801.023	611.88
801.279	650.88
801.534	701.88
801.79	756.88
802.046	815.88
802.302	1000.88
802.557	1167.88
802.813	1460.88
803.068	1861.88
803.324	2630.88
803.579	3622.88
803.835	5082.88
804.09	6988.88
804.345	9155.88
804.601	11596.88
804.856	14127.88
805.111	16315.88
805.366	18093.88
805.621	19254.88
805.876	20253.88
806.131	20821.88
806.386	21153.88
806.641	21540.88
806.896	21984.88
807.151	22464.88
807.406	22683.88
807.661	23043.88
807.915	23631.88
808.17	23787.88
808.425	24120.88
808.679	24330.88
808.934	24544.88
809.188	24829.88
809.443	25162.88
809.697	25452.88
809.951	25562.88
810.206	25985.88
810.46	25996.88
810.714	26323.88
810.968	26537.88
811.223	26673.88
811.477	27088.88
811.731	27113.88
811.985	27318.88
812.239	27501.88
812.493	27610.88
812.747	27727.88
813	27764.88
813.254	27879.88
813.508	28002.88
813.762	28116.88
814.015	28224.88
814.269	28595.88
814.522	28742.88
814.776	29012.88
815.03	29482.88
815.283	29904.88
815.536	30312.88
815.79	30750.88
816.043	31268.88
816.296	31624.88
816.55	31998.88
816.803	32412.88
817.056	32791.88
817.309	32971.88
817.562	33316.88
817.815	33715.88
818.068	34015.88
818.321	34272.88
818.574	34683.88
818.827	35153.88
819.079	35543.88
819.332	36113.88
819.585	36441.88
819.838	37047.88
820.09	37229.88
820.343	37523.88
820.595	37814.88
820.848	38042.88
821.1	38003.88
821.353	38221.88
821.605	37961.88
821.857	38112.88
822.11	37994.88
822.362	38033.88
822.614	37745.88
822.866	37903.88
823.118	37879.88
823.37	38002.88
823.622	37946.88
823.874	38118.88
824.126	38232.88
824.378	38330.88
824.63	38379.88
824.882	38678.88
825.134	38476.88
825.385	38402.88
825.637	38411.88
825.888	38191.88
826.14	38083.88
826.392	38045.88
826.643	37815.88
826.895	37771.88
827.146	37563.88
827.397	37433.88
827.649	37477.88
827.9	37335.88
828.151	37578.88
828.402	37597.88
828.653	37638.88
828.905	37816.88
829.156	37715.88
829.407	37778.88
829.658	37700.88
829.909	37878.88
830.159	37665.88
830.41	37635.88
830.661	37338.88
830.912	37167.88
831.162	36926.88
831.413	36918.88
831.664	36980.88
831.914	36830.88
832.165	36667.88
832.415	36728.88
832.666	36825.88
832.916	36862.88
833.167	36703.88
833.417	36697.88
833.667	36511.88
833.917	36362.88
834.168	36358.88
834.418	36322.88
834.668	36138.88
834.918	35998.88
835.168	35833.88
835.418	35680.88
835.668	35712.88
835.918	35482.88
836.167	35442.88
836.417	35279.88
836.667	35148.88
836.917	35195.88
837.166	35187.88
837.416	35249.88
837.666	35154.88
837.915	34961.88
838.165	34936.88
838.414	34921.88
838.663	34751.88
838.913	34723.88
839.162	34714.88
839.411	34706.88
839.661	34481.88
839.91	34374.88
840.159	34318.88
840.408	34089.88
840.657	34206.88
840.906	34134.88
841.155	34259.88
841.404	34182.88
841.653	34251.88
841.902	34232.88
842.15	34287.88
842.399	34257.88
842.648	34101.88
842.897	34109.88
843.145	33845.88
843.394	33647.88
843.642	33509.88
843.891	33389.88
844.139	33155.88
844.388	32925.88
844.636	32771.88
844.884	32784.88
845.133	32806.88
845.381	32824.88
845.629	32725.88
845.877	32646.88
846.125	32498.88
846.373	32505.88
846.621	32377.88
846.869	32201.88
847.117	31954.88
847.365	31890.88
847.613	31733.88
847.861	31604.88
848.108	31733.88
848.356	31619.88
848.604	31374.88
848.851	31395.88
849.099	31637.88
849.346	31556.88
849.594	31770.88
849.841	31686.88
850.089	31746.88
850.336	31764.88
850.583	31743.88
850.831	31549.88
851.078	31397.88
851.325	31481.88
851.572	31359.88
851.819	30977.88
852.066	30589.88
852.313	30197.88
852.56	29886.88
852.807	29804.88
853.054	29618.88
853.301	29692.88
853.548	29745.88
853.794	29904.88
854.041	29891.88
854.288	30020.88
854.534	30166.88
854.781	30035.88
855.028	30043.88
855.274	29874.88
855.52	29719.88
855.767	29717.88
856.013	29693.88
856.26	29961.88
856.506	29233.88
856.752	29241.88
856.998	29359.88
857.244	29328.88
857.49	29432.88
857.736	29422.88
857.982	29384.88
858.228	29509.88
858.474	29163.88
858.72	28991.88
858.966	28730.88
859.212	28461.88
859.458	28248.88
859.703	27985.88
859.949	27663.88
860.195	27448.88
860.44	27178.88
860.686	27129.88
860.931	27117.88
861.177	27032.88
861.422	26865.88
861.667	26745.88
861.913	26771.88
862.158	26855.88
862.403	26956.88
862.648	27049.88
862.893	27163.88
863.138	27041.88
863.384	26902.88
863.629	26911.88
863.873	26865.88
864.118	26726.88
864.363	26699.88
864.608	26449.88
864.853	26502.88
865.098	26347.88
865.342	26185.88
865.587	26032.88
865.832	25883.88
866.076	25949.88
866.321	25812.88
866.565	25646.88
866.81	25551.88
867.054	25552.88
867.298	25434.88
867.543	25310.88
867.787	25286.88
868.031	25294.88
868.275	25077.88
868.519	25164.88
868.764	25129.88
869.008	24930.88
869.252	24913.88
869.496	24744.88
869.739	24753.88
869.983	24747.88
870.227	24673.88
870.471	24589.88
870.715	24726.88
870.958	24856.88
871.202	24753.88
871.446	24614.88
871.689	24710.88
871.933	24742.88
872.176	24818.88
872.42	24563.88
872.663	24533.88
872.906	24563.88
873.15	24302.88
873.393	24309.88
873.636	24114.88
873.879	23892.88
874.122	23750.88
874.366	23433.88
874.609	23248.88
874.852	23024.88
875.095	23085.88
875.337	22874.88
875.58	22800.88
875.823	22653.88
876.066	22574.88
876.309	22606.88
876.551	22395.88
876.794	22315.88
877.037	22361.88
877.279	22219.88
877.522	22315.88
877.764	22340.88
878.007	22134.88
878.249	22293.88
878.491	22176.88
878.734	22110.88
878.976	21994.88
879.218	21774.88
879.46	21883.88
879.702	21619.88
879.945	21388.88
880.187	21260.88
880.429	21143.88
880.671	21023.88
880.912	20883.88
881.154	20790.88
881.396	20815.88
881.638	20821.88
881.88	20771.88
882.121	20657.88
882.363	20767.88
882.605	20667.88
882.846	20628.88
883.088	20520.88
883.329	20378.88
883.571	20418.88
883.812	20419.88
884.053	20741.88
884.295	20743.88
884.536	20952.88
884.777	20781.88
885.018	20710.88
885.259	20669.88
885.5	20702.88
885.742	20854.88
885.982	20526.88
886.223	20403.88
886.464	20383.88
886.705	20073.88
886.946	19947.88
887.187	19794.88
887.428	19621.88
887.668	19419.88
887.909	19226.88
888.15	18932.88
888.39	18873.88
888.631	18834.88
888.871	18671.88
889.111	18456.88
889.352	18237.88
889.592	18113.88
889.833	18115.88
890.073	17960.88
890.313	17923.88
890.553	17744.88
890.793	17603.88
891.033	17562.88
891.273	17514.88
891.513	17463.88
891.753	17487.88
891.993	17348.88
892.233	17355.88
892.473	17430.88
892.713	17406.88
892.952	17271.88
893.192	17440.88
893.432	17294.88
893.671	17360.88
893.911	17196.88
894.15	17034.88
894.39	16921.88
894.629	16820.88
894.869	16727.88
895.108	16717.88
895.347	16598.88
895.587	16506.88
895.826	16426.88
896.065	16320.88
896.304	16409.88
896.543	16385.88
896.782	16282.88
897.021	16147.88
897.26	16256.88
897.499	16157.88
897.738	16077.88
897.977	15925.88
898.216	15804.88
898.454	15674.88
898.693	15508.88
898.932	15589.88
899.17	15382.88
899.409	15418.88
899.647	15299.88
899.886	15291.88
900.124	15233.88
900.363	15250.88
900.601	15265.88
900.839	15234.88
901.078	15293.88
901.316	15269.88
901.554	15319.88
901.792	15361.88
902.03	15252.88
902.268	15288.88
902.506	15321.88
902.744	15098.88
902.982	15138.88
903.22	14873.88
903.458	14680.88
903.695	14535.88
903.933	14397.88
904.171	14201.88
904.409	14013.88
904.646	13919.88
904.884	13603.88
905.121	13587.88
905.359	13461.88
905.596	13272.88
905.833	13095.88
906.071	13057.88
906.308	13094.88
906.545	12988.88
906.783	12906.88
907.02	12984.88
907.257	12851.88
907.494	12834.88
907.731	12854.88
907.968	12834.88
908.205	12650.88
908.442	12605.88
908.679	12523.88
908.915	12425.88
909.152	12293.88
909.389	12220.88
909.626	12169.88
909.862	12058.88
910.099	11989.88
910.335	11976.88
910.572	11844.88
910.808	11862.88
911.045	11777.88
911.281	11725.88
911.518	11697.88
911.754	11627.88
911.99	11586.88
912.226	11531.88
912.463	11380.88
912.699	11291.88
912.935	11210.88
913.171	11131.88
913.407	10977.88
913.643	10988.88
913.879	10907.88
914.114	10785.88
914.35	10673.88
914.586	10556.88
914.822	10407.88
915.057	10483.88
915.293	10239.88
915.529	10242.88
915.764	10276.88
916	10236.88
916.235	10201.88
916.471	10193.88
916.706	10092.88
916.941	10121.88
917.177	10128.88
917.412	10142.88
917.647	10052.88
917.882	10060.88
918.117	10075.88
918.352	10062.88
918.588	9977.88
918.823	9835.88
919.057	9744.88
919.292	9562.88
919.527	9621.88
919.762	9451.88
919.997	9381.88
920.232	9238.88
920.466	9235.88
920.701	9017.88
920.935	9027.88
921.17	8942.88
921.405	8870.88
921.639	8959.88
921.873	8837.88
922.108	8863.88
922.342	8822.88
922.576	8740.88
922.811	8706.88
923.045	8681.88
923.279	8716.88
923.513	8515.88
923.747	8553.88
923.981	8497.88
924.215	8408.88
924.449	8395.88
924.683	8310.88
924.917	8247.88
925.151	8194.88
925.385	8243.88
925.618	8222.88
925.852	8118.88
926.086	8088.88
926.319	8110.88
926.553	8092.88
926.786	8024.88
927.02	8093.88
927.253	8104.88
927.486	8058.88
927.72	7974.88
927.953	7998.88
928.186	7910.88
928.42	7927.88
928.653	7864.88
928.886	7812.88
929.119	7812.88
929.352	7768.88
929.585	7766.88
929.818	7630.88
930.051	7609.88
930.284	7548.88
930.516	7462.88
930.749	7394.88
930.982	7402.88
931.215	7377.88
931.447	7260.88
931.68	7242.88
931.912	7219.88
932.145	7209.88
932.377	7245.88
932.61	7355.88
932.842	7117.88
933.074	7260.88
933.307	7157.88
933.539	7234.88
933.771	7203.88
934.003	7144.88
934.236	7262.88
934.468	7213.88
934.7	7116.88
934.932	7182.88
935.164	7076.88
935.395	7001.88
935.627	7009.88
935.859	6963.88
936.091	6876.88
936.323	6952.88
936.554	6970.88
936.786	6864.88
937.017	6789.88
937.249	6864.88
937.481	6743.88
937.712	6772.88
937.943	6789.88
938.175	6732.88
938.406	6714.88
938.637	6735.88
938.869	6633.88
939.1	6688.88
939.331	6630.88
939.562	6665.88
939.793	6642.88
940.024	6572.88
940.255	6603.88
940.486	6476.88
940.717	6539.88
940.948	6432.88
941.179	6420.88
941.409	6398.88
941.64	6354.88
941.871	6385.88
942.102	6363.88
942.332	6365.88
942.563	6352.88
942.793	6372.88
943.024	6366.88
943.254	6320.88
943.484	6413.88
943.715	6312.88
943.945	6305.88
944.175	6209.88
944.405	6234.88
944.636	6258.88
944.866	6266.88
945.096	6327.88
945.326	6216.88
945.556	6276.88
945.786	6193.88
946.016	6110.88
946.245	6076.88
946.475	6018.88
946.705	5993.88
946.935	5938.88
947.164	5923.88
947.394	5853.88
947.624	5903.88
947.853	5905.88
948.083	5820.88
948.312	5755.88
948.542	5698.88
948.771	5691.88
949	5678.88
949.23	5656.88
949.459	5640.88
949.688	5792.88
949.917	5694.88
950.146	5706.88
950.375	5715.88
950.604	5629.88
950.833	5693.88
951.062	5660.88
951.291	5570.88
951.52	5581.88
951.749	5542.88
951.978	5510.88
952.206	5475.88
952.435	5459.88
952.664	5498.88
952.892	5468.88
953.121	5453.88
953.349	5462.88
953.578	5398.88
953.806	5387.88
954.035	5338.88
954.263	5357.88
954.491	5240.88
954.719	5282.88
954.948	5260.88
955.176	5209.88
955.404	5130.88
955.632	5181.88
955.86	5166.88
956.088	5119.88
956.316	5107.88
956.544	5124.88
956.772	5045.88
956.999	5084.88
957.227	5063.88
957.455	4946.88
957.683	4937.88
957.91	4882.88
958.138	4828.88
958.365	4855.88
958.593	4789.88
958.82	4741.88
959.048	4830.88
959.275	4821.88
959.502	4711.88
959.73	4705.88
959.957	4750.88
960.184	4736.88
960.411	4713.88
960.638	4734.88
960.865	4683.88
961.092	4677.88
961.319	4588.88
961.546	4636.88
961.773	4677.88
962	4646.88
962.227	4706.88
962.454	4606.88
962.68	4588.88
962.907	4624.88
963.134	4537.88
963.36	4526.88
963.587	4543.88
963.813	4441.88
964.04	4461.88
964.266	4330.88
964.493	4481.88
964.719	4406.88
964.945	4359.88
965.171	4261.88
965.398	4339.88
965.624	4296.88
965.85	4242.88
966.076	4181.88
966.302	4230.88
966.528	4214.88
966.754	4240.88
966.98	4203.88
967.206	4133.88
967.431	4121.88
967.657	4146.88
967.883	4117.88
968.109	4122.88
968.334	4096.88
968.56	4081.88
968.785	4077.88
969.011	4012.88
969.236	4042.88
969.462	3984.88
969.687	3973.88
969.912	4021.88
970.138	4017.88
970.363	3974.88
970.588	3957.88
970.813	3907.88
971.038	3866.88
971.263	3920.88
971.488	3877.88
971.713	3879.88
971.938	3862.88
972.163	3763.88
972.388	3800.88
972.613	3764.88
972.838	3755.88
973.062	3732.88
973.287	3737.88
973.512	3663.88
973.736	3665.88
973.961	3635.88
974.185	3640.88
974.41	3647.88
974.634	3568.88
974.858	3551.88
975.083	3560.88
975.307	3570.88
975.531	3513.88
975.755	3462.88
975.98	3431.88
976.204	3394.88
976.428	3374.88
976.652	3350.88
976.876	3312.88
977.1	3371.88
977.324	3340.88
977.547	3360.88
977.771	3373.88
977.995	3318.88
978.219	3246.88
978.442	3343.88
978.666	3261.88
978.89	3277.88
979.113	3305.88
979.337	3248.88
979.56	3226.88
979.783	3304.88
980.007	3200.88
980.23	3200.88
980.453	3194.88
980.677	3176.88
980.9	3160.88
981.123	3043.88
981.346	3120.88
981.569	3130.88
981.792	3107.88
982.015	3053.88
982.238	3044.88
982.461	3076.88
982.684	3012.88
982.907	2961.88
983.129	2941.88
983.352	2990.88
983.575	2952.88
983.797	2981.88
984.02	2889.88
984.242	2877.88
984.465	2918.88
984.687	2904.88
984.91	2956.88
985.132	2873.88
985.354	2903.88
985.577	2874.88
985.799	2888.88
986.021	2762.88
986.243	2816.88
986.465	2788.88
986.687	2797.88
986.909	2835.88
987.131	2783.88
987.353	2719.88
987.575	2756.88
987.797	2716.88
988.019	2653.88
988.241	2695.88
988.462	2662.88
988.684	2744.88
988.906	2740.88
989.127	2754.88
989.349	2638.88
989.57	2658.88
989.792	2698.88
990.013	2689.88
990.234	2665.88
990.456	2680.88
990.677	2668.88
990.898	2573.88
991.119	2594.88
991.341	2624.88
991.562	2530.88
991.783	2587.88
992.004	2475.88
992.225	2471.88
992.446	2499.88
992.667	2435.88
992.887	2546.88
993.108	2371.88
993.329	2510.88
993.55	2431.88
993.77	2387.88
993.991	2375.88
994.212	2426.88
994.432	2415.88
994.653	2384.88
994.873	2362.88
995.093	2258.88
995.314	2306.88
995.534	2414.88
995.754	2359.88
995.975	2363.88
996.195	2322.88
996.415	2318.88
996.635	2306.88
996.855	2302.88
997.075	2259.88
997.295	2261.88
997.515	2242.88
997.735	2298.88
997.955	2272.88
998.174	2224.88
998.394	2209.88
998.614	2280.88
998.834	2227.88
999.053	2295.88
999.273	2252.88
999.492	2263.88
999.712	2187.88
999.931	2162.88
1000.151	2212.88
1000.37	2160.88
1000.589	2257.88
1000.809	2140.88
1001.028	2229.88
1001.247	2171.88
1001.466	2062.88
1001.685	2216.88
1001.904	2123.88
1002.123	2102.88
1002.342	2135.88
1002.561	2075.88
1002.78	2083.88
1002.999	2120.88
1003.218	2058.88
1003.436	2046.88
1003.655	2124.88
1003.874	1994.88
1004.092	2020.88
1004.311	2064.88
1004.53	2038.88
1004.748	2080.88
1004.966	1998.88
1005.185	2062.88
1005.403	2052.88
1005.622	1978.88
1005.84	2082.88
1006.058	1994.88
1006.276	1992.88
1006.494	2445.88
1006.712	1988.88
1006.931	2043.88
1007.149	1963.88
1007.367	1947.88
1007.584	2015.88
1007.802	2034.88
1008.02	1986.88
1008.238	2070.88
1008.456	2058.88
1008.673	1925.88
1008.891	2032.88
1009.109	1989.88
1009.326	2056.88
1009.544	2146.88
1009.761	2024.88
1009.979	2107.88
1010.196	2121.88
1010.413	2245.88
1010.631	2294.88
1010.848	2320.88
1011.065	2349.88
1011.282	2246.88
1011.5	2209.88
1011.717	2304.88
1011.934	2250.88
1012.151	2258.88
1012.368	2258.88
1012.585	2173.88
1012.801	2234.88
1013.018	2192.88
1013.235	2193.88
1013.452	2202.88
1013.669	2200.88
1013.885	2202.88
1014.102	2233.88
1014.318	2188.88
1014.535	2118.88
1014.751	2157.88
1014.968	2166.88
1015.184	2206.88
1015.401	2079.88
1015.617	2097.88
1015.833	2055.88
1016.049	2037.88
1016.266	1994.88
1016.482	2015.88
1016.698	1970.88
1016.914	1978.88
1017.13	1963.88
1017.346	1940.88
1017.562	1994.88
1017.778	1898.88
1017.993	1862.88
1018.209	1929.88
1018.425	1904.88
1018.641	1856.88
1018.856	1833.88
1019.072	1869.88
1019.288	1909.88
1019.503	1871.88
1019.719	1751.88
1019.934	1803.88
1020.149	1894.88
1020.365	1761.88
1020.58	1751.88
1020.795	1793.88
1021.011	1682.88
1021.226	1683.88
1021.441	1696.88
1021.656	1592.88
1021.871	1527.88
1022.086	1543.88
1022.301	1539.88
1022.516	1511.88
1022.731	1530.88
1022.946	1467.88
1023.16	1449.88
1023.375	1421.88
1023.59	1386.88
1023.804	1365.88
1024.019	1425.88
1024.234	1327.88
1024.448	1315.88
1024.663	1279.88
1024.877	1264.88
1025.092	1291.88
1025.306	1308.88
1025.52	1185.88
1025.734	1269.88
1025.949	1164.88
1026.163	1145.88
1026.377	1038.88
1026.591	1128.88
1026.805	1054.88
1027.019	1024.88
1027.233	1001.88
1027.447	934.88
1027.661	1036.88
1027.875	970.88
1028.088	987.88
1028.302	878.88
1028.516	887.88
1028.73	867.88
1028.943	828.88
1029.157	800.88
1029.37	752.88
1029.584	-0.12
1029.797	-3.12
1030.011	-0.12
1030.224	-1.12
