Data from QEP037381__160__15-50-09-885.txt Node

Date: Fri Dec 16 15:50:09 EST 2022
User: dcclab
Spectrometer: QEP03738
Trigger mode: 4
Integration Time (sec): 1.000000E1
Scans to average: 1
Electric dark correction enabled: true
Nonlinearity correction enabled: false
Boxcar width: 0
XAxis mode: Wavelengths
Number of Pixels in Spectrum: 1044
>>>>>Begin Spectral Data<<<<<
784.041	12.38
784.3	2.38
784.558	0.38
784.817	-3.62
785.075	111554.38
785.334	19141.38
785.592	8904.38
785.851	6103.38
786.109	4599.38
786.368	3623.38
786.626	2874.38
786.884	2418.38
787.143	2010.38
787.401	1674.38
787.659	1490.38
787.917	1288.38
788.175	1177.38
788.433	1025.38
788.691	918.38
788.949	869.38
789.207	828.38
789.465	713.38
789.723	692.38
789.98	633.38
790.238	667.38
790.496	638.38
790.753	595.38
791.011	646.38
791.268	593.38
791.526	571.38
791.783	591.38
792.041	570.38
792.298	480.38
792.556	547.38
792.813	528.38
793.07	508.38
793.327	490.38
793.584	566.38
793.841	480.38
794.099	519.38
794.356	571.38
794.613	470.38
794.869	504.38
795.126	476.38
795.383	451.38
795.64	474.38
795.897	430.38
796.153	490.38
796.41	464.38
796.667	446.38
796.923	464.38
797.18	482.38
797.436	507.38
797.693	441.38
797.949	518.38
798.206	540.38
798.462	469.38
798.718	526.38
798.974	492.38
799.231	554.38
799.487	559.38
799.743	555.38
799.999	572.38
800.255	575.38
800.511	563.38
800.767	620.38
801.023	632.38
801.279	676.38
801.534	709.38
801.79	772.38
802.046	837.38
802.302	1024.38
802.557	1196.38
802.813	1510.38
803.068	1904.38
803.324	2684.38
803.579	3734.38
803.835	5259.38
804.09	7230.38
804.345	9541.38
804.601	12143.38
804.856	14733.38
805.111	17128.38
805.366	18925.38
805.621	20393.38
805.876	21312.38
806.131	21872.38
806.386	22312.38
806.641	22809.38
806.896	23134.38
807.151	23649.38
807.406	23986.38
807.661	24459.38
807.915	24827.38
808.17	25211.38
808.425	25505.38
808.679	25753.38
808.934	26036.38
809.188	26242.38
809.443	26481.38
809.697	26880.38
809.951	27137.38
810.206	27243.38
810.46	27551.38
810.714	27861.38
810.968	28244.38
811.223	28312.38
811.477	28668.38
811.731	28821.38
811.985	28967.38
812.239	29132.38
812.493	29177.38
812.747	29439.38
813	29512.38
813.254	29523.38
813.508	29750.38
813.762	29826.38
814.015	29977.38
814.269	30227.38
814.522	30522.38
814.776	30710.38
815.03	31246.38
815.283	31617.38
815.536	32219.38
815.79	32682.38
816.043	33043.38
816.296	33475.38
816.55	34017.38
816.803	34423.38
817.056	34763.38
817.309	35137.38
817.562	35413.38
817.815	35796.38
818.068	35997.38
818.321	36375.38
818.574	36976.38
818.827	37307.38
819.079	37752.38
819.332	38334.38
819.585	38804.38
819.838	39143.38
820.09	39475.38
820.343	39878.38
820.595	40105.38
820.848	40379.38
821.1	40396.38
821.353	40487.38
821.605	40527.38
821.857	40513.38
822.11	40435.38
822.362	40181.38
822.614	40128.38
822.866	40247.38
823.118	40211.38
823.37	40304.38
823.622	40464.38
823.874	40402.38
824.126	40627.38
824.378	40646.38
824.63	40935.38
824.882	40827.38
825.134	40838.38
825.385	40771.38
825.637	40738.38
825.888	40720.38
826.14	40438.38
826.392	40361.38
826.643	39997.38
826.895	40020.38
827.146	39860.38
827.397	39784.38
827.649	39648.38
827.9	39920.38
828.151	39834.38
828.402	39860.38
828.653	40070.38
828.905	40097.38
829.156	40270.38
829.407	40029.38
829.658	40154.38
829.909	40172.38
830.159	39916.38
830.41	39785.38
830.661	39734.38
830.912	39361.38
831.162	39282.38
831.413	39237.38
831.664	39274.38
831.914	39090.38
832.165	39101.38
832.415	39032.38
832.666	39193.38
832.916	39012.38
833.167	39012.38
833.417	38947.38
833.667	38943.38
833.917	38765.38
834.168	38764.38
834.418	38575.38
834.668	38504.38
834.918	38249.38
835.168	38039.38
835.418	37902.38
835.668	37823.38
835.918	37809.38
836.167	37619.38
836.417	37491.38
836.667	37497.38
836.917	37504.38
837.166	37239.38
837.416	37623.38
837.666	37353.38
837.915	37319.38
838.165	37271.38
838.414	37184.38
838.663	36873.38
838.913	36995.38
839.162	36905.38
839.411	36758.38
839.661	36546.38
839.91	36461.38
840.159	36430.38
840.408	36388.38
840.657	36457.38
840.906	36402.38
841.155	36393.38
841.404	36212.38
841.653	36392.38
841.902	36424.38
842.15	36497.38
842.399	36480.38
842.648	36342.38
842.897	36057.38
843.145	35883.38
843.394	35745.38
843.642	35579.38
843.891	35315.38
844.139	35152.38
844.388	34928.38
844.636	34728.38
844.884	34891.38
845.133	34710.38
845.381	34651.38
845.629	34786.38
845.877	34615.38
846.125	34622.38
846.373	34521.38
846.621	34392.38
846.869	34220.38
847.117	34124.38
847.365	33856.38
847.613	33770.38
847.861	33607.38
848.108	33522.38
848.356	33277.38
848.604	33337.38
848.851	33432.38
849.099	33236.38
849.346	33419.38
849.594	33618.38
849.841	33700.38
850.089	33721.38
850.336	33716.38
850.583	33708.38
850.831	33516.38
851.078	33317.38
851.325	33145.38
851.572	33230.38
851.819	33008.38
852.066	32368.38
852.313	32118.38
852.56	31838.38
852.807	31608.38
853.054	31502.38
853.301	31351.38
853.548	31499.38
853.794	31483.38
854.041	31584.38
854.288	31790.38
854.534	32057.38
854.781	31931.38
855.028	31830.38
855.274	31695.38
855.52	31601.38
855.767	31161.38
856.013	31295.38
856.26	31620.38
856.506	31029.38
856.752	31064.38
856.998	31124.38
857.244	31047.38
857.49	31335.38
857.736	31246.38
857.982	31308.38
858.228	31033.38
858.474	30905.38
858.72	30731.38
858.966	30414.38
859.212	30192.38
859.458	29882.38
859.703	29740.38
859.949	29237.38
860.195	29099.38
860.44	28963.38
860.686	28841.38
860.931	28810.38
861.177	28522.38
861.422	28558.38
861.667	28402.38
861.913	28424.38
862.158	28488.38
862.403	28486.38
862.648	28460.38
862.893	28544.38
863.138	28499.38
863.384	28379.38
863.629	28338.38
863.873	28279.38
864.118	28222.38
864.363	27982.38
864.608	28053.38
864.853	27925.38
865.098	27780.38
865.342	27670.38
865.587	27457.38
865.832	27471.38
866.076	27298.38
866.321	27297.38
866.565	27224.38
866.81	27064.38
867.054	26956.38
867.298	26967.38
867.543	26791.38
867.787	26775.38
868.031	26543.38
868.275	26641.38
868.519	26527.38
868.764	26476.38
869.008	26322.38
869.252	26313.38
869.496	26200.38
869.739	26094.38
869.983	26148.38
870.227	26039.38
870.471	25925.38
870.715	26071.38
870.958	26052.38
871.202	26014.38
871.446	26217.38
871.689	26087.38
871.933	26153.38
872.176	26133.38
872.42	26116.38
872.663	25933.38
872.906	26001.38
873.15	25848.38
873.393	25636.38
873.636	25598.38
873.879	25194.38
874.122	24960.38
874.366	24813.38
874.609	24554.38
874.852	24463.38
875.095	24332.38
875.337	24124.38
875.58	24096.38
875.823	24032.38
876.066	23906.38
876.309	23829.38
876.551	23667.38
876.794	23596.38
877.037	23582.38
877.279	23460.38
877.522	23470.38
877.764	23436.38
878.007	23417.38
878.249	23355.38
878.491	23356.38
878.734	23341.38
878.976	23205.38
879.218	23035.38
879.46	22857.38
879.702	22713.38
879.945	22555.38
880.187	22525.38
880.429	22317.38
880.671	22158.38
880.912	22172.38
881.154	22007.38
881.396	21877.38
881.638	21986.38
881.88	21883.38
882.121	21853.38
882.363	21849.38
882.605	21851.38
882.846	21725.38
883.088	21803.38
883.329	21504.38
883.571	21549.38
883.812	21502.38
884.053	21722.38
884.295	22018.38
884.536	22199.38
884.777	22067.38
885.018	21885.38
885.259	21858.38
885.5	21733.38
885.742	21963.38
885.982	21680.38
886.223	21505.38
886.464	21407.38
886.705	21195.38
886.946	21102.38
887.187	20818.38
887.428	20618.38
887.668	20343.38
887.909	20103.38
888.15	19926.38
888.39	19914.38
888.631	19808.38
888.871	19626.38
889.111	19460.38
889.352	19319.38
889.592	19189.38
889.833	18989.38
890.073	18933.38
890.313	18854.38
890.553	18729.38
890.793	18618.38
891.033	18419.38
891.273	18424.38
891.513	18278.38
891.753	18328.38
891.993	18182.38
892.233	18288.38
892.473	18360.38
892.713	18308.38
892.952	18220.38
893.192	18294.38
893.432	18220.38
893.671	18139.38
893.911	18058.38
894.15	18039.38
894.39	17753.38
894.629	17685.38
894.869	17624.38
895.108	17548.38
895.347	17382.38
895.587	17418.38
895.826	17286.38
896.065	17302.38
896.304	17300.38
896.543	17177.38
896.782	17164.38
897.021	17101.38
897.26	16987.38
897.499	17025.38
897.738	16974.38
897.977	16717.38
898.216	16560.38
898.454	16530.38
898.693	16375.38
898.932	16400.38
899.17	16201.38
899.409	16163.38
899.647	16148.38
899.886	16130.38
900.124	16172.38
900.363	16030.38
900.601	16061.38
900.839	16119.38
901.078	16089.38
901.316	16160.38
901.554	16126.38
901.792	16174.38
902.03	16108.38
902.268	16104.38
902.506	16026.38
902.744	16058.38
902.982	15980.38
903.22	15638.38
903.458	15465.38
903.695	15378.38
903.933	15067.38
904.171	14960.38
904.409	14744.38
904.646	14593.38
904.884	14338.38
905.121	14231.38
905.359	14034.38
905.596	13922.38
905.833	13836.38
906.071	13752.38
906.308	13767.38
906.545	13737.38
906.783	13581.38
907.02	13607.38
907.257	13535.38
907.494	13567.38
907.731	13500.38
907.968	13446.38
908.205	13284.38
908.442	13192.38
908.679	13179.38
908.915	12947.38
909.152	12945.38
909.389	12713.38
909.626	12792.38
909.862	12637.38
910.099	12553.38
910.335	12651.38
910.572	12454.38
910.808	12406.38
911.045	12366.38
911.281	12352.38
911.518	12274.38
911.754	12222.38
911.99	12118.38
912.226	11978.38
912.463	11864.38
912.699	11901.38
912.935	11788.38
913.171	11713.38
913.407	11580.38
913.643	11528.38
913.879	11384.38
914.114	11298.38
914.35	11214.38
914.586	11092.38
914.822	11015.38
915.057	10920.38
915.293	10731.38
915.529	10736.38
915.764	10813.38
916	10738.38
916.235	10657.38
916.471	10642.38
916.706	10547.38
916.941	10587.38
917.177	10529.38
917.412	10563.38
917.647	10569.38
917.882	10441.38
918.117	10524.38
918.352	10518.38
918.588	10411.38
918.823	10313.38
919.057	10220.38
919.292	10055.38
919.527	10056.38
919.762	9873.38
919.997	9858.38
920.232	9702.38
920.466	9577.38
920.701	9548.38
920.935	9480.38
921.17	9398.38
921.405	9314.38
921.639	9295.38
921.873	9272.38
922.108	9222.38
922.342	9230.38
922.576	9051.38
922.811	9144.38
923.045	9055.38
923.279	9051.38
923.513	8943.38
923.747	9009.38
923.981	8871.38
924.215	8771.38
924.449	8803.38
924.683	8645.38
924.917	8685.38
925.151	8604.38
925.385	8638.38
925.618	8501.38
925.852	8561.38
926.086	8464.38
926.319	8446.38
926.553	8474.38
926.786	8436.38
927.02	8450.38
927.253	8392.38
927.486	8446.38
927.72	8347.38
927.953	8439.38
928.186	8271.38
928.42	8357.38
928.653	8290.38
928.886	8123.38
929.119	8250.38
929.352	8099.38
929.585	8020.38
929.818	8001.38
930.051	7950.38
930.284	7877.38
930.516	7775.38
930.749	7731.38
930.982	7739.38
931.215	7734.38
931.447	7582.38
931.68	7582.38
931.912	7517.38
932.145	7517.38
932.377	7580.38
932.61	7638.38
932.842	7409.38
933.074	7516.38
933.307	7486.38
933.539	7578.38
933.771	7516.38
934.003	7477.38
934.236	7499.38
934.468	7495.38
934.7	7392.38
934.932	7410.38
935.164	7407.38
935.395	7351.38
935.627	7320.38
935.859	7305.38
936.091	7275.38
936.323	7261.38
936.554	7249.38
936.786	7195.38
937.017	7139.38
937.249	7180.38
937.481	7042.38
937.712	7127.38
937.943	7044.38
938.175	7036.38
938.406	6996.38
938.637	7040.38
938.869	6872.38
939.1	7011.38
939.331	6960.38
939.562	6945.38
939.793	6872.38
940.024	7001.38
940.255	6909.38
940.486	6806.38
940.717	6803.38
940.948	6748.38
941.179	6629.38
941.409	6648.38
941.64	6635.38
941.871	6754.38
942.102	6689.38
942.332	6606.38
942.563	6708.38
942.793	6638.38
943.024	6559.38
943.254	6589.38
943.484	6631.38
943.715	6634.38
943.945	6610.38
944.175	6522.38
944.405	6501.38
944.636	6523.38
944.866	6496.38
945.096	6509.38
945.326	6438.38
945.556	6450.38
945.786	6470.38
946.016	6367.38
946.245	6301.38
946.475	6302.38
946.705	6253.38
946.935	6195.38
947.164	6225.38
947.394	6134.38
947.624	6101.38
947.853	6117.38
948.083	6080.38
948.312	6056.38
948.542	5970.38
948.771	5905.38
949	5918.38
949.23	5944.38
949.459	5921.38
949.688	6018.38
949.917	5935.38
950.146	5920.38
950.375	5949.38
950.604	5840.38
950.833	5914.38
951.062	5888.38
951.291	5862.38
951.52	5851.38
951.749	5835.38
951.978	5761.38
952.206	5735.38
952.435	5707.38
952.664	5714.38
952.892	5690.38
953.121	5622.38
953.349	5670.38
953.578	5655.38
953.806	5629.38
954.035	5512.38
954.263	5542.38
954.491	5438.38
954.719	5534.38
954.948	5421.38
955.176	5419.38
955.404	5310.38
955.632	5381.38
955.86	5363.38
956.088	5315.38
956.316	5340.38
956.544	5276.38
956.772	5199.38
956.999	5200.38
957.227	5223.38
957.455	5141.38
957.683	5149.38
957.91	5118.38
958.138	5087.38
958.365	5041.38
958.593	5059.38
958.82	4982.38
959.048	5024.38
959.275	4953.38
959.502	4887.38
959.73	4875.38
959.957	4972.38
960.184	4959.38
960.411	4865.38
960.638	4935.38
960.865	4891.38
961.092	4928.38
961.319	4780.38
961.546	4896.38
961.773	4822.38
962	4822.38
962.227	4853.38
962.454	4764.38
962.68	4779.38
962.907	4760.38
963.134	4733.38
963.36	4713.38
963.587	4681.38
963.813	4620.38
964.04	4608.38
964.266	4532.38
964.493	4628.38
964.719	4567.38
964.945	4560.38
965.171	4443.38
965.398	4436.38
965.624	4506.38
965.85	4393.38
966.076	4364.38
966.302	4396.38
966.528	4329.38
966.754	4357.38
966.98	4330.38
967.206	4319.38
967.431	4244.38
967.657	4329.38
967.883	4284.38
968.109	4289.38
968.334	4223.38
968.56	4179.38
968.785	4204.38
969.011	4195.38
969.236	4202.38
969.462	4117.38
969.687	4121.38
969.912	4185.38
970.138	4193.38
970.363	4089.38
970.588	4110.38
970.813	4068.38
971.038	4035.38
971.263	4064.38
971.488	4057.38
971.713	4047.38
971.938	4030.38
972.163	3897.38
972.388	3916.38
972.613	3878.38
972.838	3896.38
973.062	3886.38
973.287	3841.38
973.512	3803.38
973.736	3814.38
973.961	3792.38
974.185	3766.38
974.41	3798.38
974.634	3655.38
974.858	3728.38
975.083	3693.38
975.307	3716.38
975.531	3622.38
975.755	3531.38
975.98	3581.38
976.204	3501.38
976.428	3495.38
976.652	3511.38
976.876	3466.38
977.1	3488.38
977.324	3417.38
977.547	3472.38
977.771	3539.38
977.995	3437.38
978.219	3343.38
978.442	3478.38
978.666	3376.38
978.89	3443.38
979.113	3376.38
979.337	3385.38
979.56	3321.38
979.783	3411.38
980.007	3286.38
980.23	3339.38
980.453	3238.38
980.677	3296.38
980.9	3254.38
981.123	3186.38
981.346	3282.38
981.569	3261.38
981.792	3217.38
982.015	3194.38
982.238	3162.38
982.461	3157.38
982.684	3133.38
982.907	3105.38
983.129	3048.38
983.352	3116.38
983.575	3048.38
983.797	3111.38
984.02	3030.38
984.242	3017.38
984.465	2970.38
984.687	3001.38
984.91	3047.38
985.132	2973.38
985.354	2995.38
985.577	2983.38
985.799	2941.38
986.021	2826.38
986.243	2855.38
986.465	2864.38
986.687	2953.38
986.909	2956.38
987.131	2888.38
987.353	2876.38
987.575	2861.38
987.797	2861.38
988.019	2736.38
988.241	2815.38
988.462	2749.38
988.684	2804.38
988.906	2835.38
989.127	2839.38
989.349	2709.38
989.57	2742.38
989.792	2779.38
990.013	2810.38
990.234	2751.38
990.456	2796.38
990.677	2757.38
990.898	2670.38
991.119	2699.38
991.341	2713.38
991.562	2639.38
991.783	2660.38
992.004	2575.38
992.225	2572.38
992.446	2617.38
992.667	2504.38
992.887	2596.38
993.108	2505.38
993.329	2615.38
993.55	2549.38
993.77	2484.38
993.991	2450.38
994.212	2495.38
994.432	2453.38
994.653	2455.38
994.873	2432.38
995.093	2328.38
995.314	2349.38
995.534	2468.38
995.754	2460.38
995.975	2481.38
996.195	2345.38
996.415	2423.38
996.635	2364.38
996.855	2365.38
997.075	2347.38
997.295	2319.38
997.515	2324.38
997.735	2361.38
997.955	2346.38
998.174	2348.38
998.394	2262.38
998.614	2342.38
998.834	2295.38
999.053	2350.38
999.273	2306.38
999.492	2385.38
999.712	2296.38
999.931	2266.38
1000.151	2306.38
1000.37	2257.38
1000.589	2298.38
1000.809	2206.38
1001.028	2335.38
1001.247	2227.38
1001.466	2143.38
1001.685	2285.38
1001.904	2197.38
1002.123	2168.38
1002.342	2176.38
1002.561	2122.38
1002.78	2123.38
1002.999	2206.38
1003.218	2150.38
1003.436	2124.38
1003.655	2131.38
1003.874	2098.38
1004.092	2130.38
1004.311	2112.38
1004.53	2079.38
1004.748	2144.38
1004.966	2099.38
1005.185	2112.38
1005.403	2104.38
1005.622	2092.38
1005.84	2157.38
1006.058	2067.38
1006.276	2076.38
1006.494	2575.38
1006.712	2037.38
1006.931	2081.38
1007.149	1978.38
1007.367	2029.38
1007.584	2083.38
1007.802	2108.38
1008.02	2022.38
1008.238	2160.38
1008.456	2095.38
1008.673	1993.38
1008.891	2119.38
1009.109	2065.38
1009.326	2096.38
1009.544	2199.38
1009.761	2089.38
1009.979	2190.38
1010.196	2246.38
1010.413	2328.38
1010.631	2366.38
1010.848	2407.38
1011.065	2442.38
1011.282	2389.38
1011.5	2299.38
1011.717	2414.38
1011.934	2354.38
1012.151	2369.38
1012.368	2372.38
1012.585	2294.38
1012.801	2342.38
1013.018	2303.38
1013.235	2288.38
1013.452	2302.38
1013.669	2282.38
1013.885	2290.38
1014.102	2330.38
1014.318	2288.38
1014.535	2257.38
1014.751	2281.38
1014.968	2269.38
1015.184	2302.38
1015.401	2202.38
1015.617	2236.38
1015.833	2137.38
1016.049	2135.38
1016.266	2128.38
1016.482	2104.38
1016.698	2035.38
1016.914	2087.38
1017.13	2022.38
1017.346	2007.38
1017.562	2068.38
1017.778	1984.38
1017.993	1966.38
1018.209	2007.38
1018.425	1991.38
1018.641	1947.38
1018.856	1922.38
1019.072	1962.38
1019.288	1998.38
1019.503	1950.38
1019.719	1899.38
1019.934	1891.38
1020.149	1954.38
1020.365	1898.38
1020.58	1793.38
1020.795	1862.38
1021.011	1775.38
1021.226	1797.38
1021.441	1778.38
1021.656	1654.38
1021.871	1623.38
1022.086	1610.38
1022.301	1579.38
1022.516	1572.38
1022.731	1606.38
1022.946	1507.38
1023.16	1504.38
1023.375	1483.38
1023.59	1439.38
1023.804	1420.38
1024.019	1478.38
1024.234	1353.38
1024.448	1399.38
1024.663	1320.38
1024.877	1317.38
1025.092	1333.38
1025.306	1319.38
1025.52	1232.38
1025.734	1288.38
1025.949	1230.38
1026.163	1188.38
1026.377	1126.38
1026.591	1166.38
1026.805	1082.38
1027.019	1078.38
1027.233	1045.38
1027.447	989.38
1027.661	1076.38
1027.875	1001.38
1028.088	1007.38
1028.302	930.38
1028.516	917.38
1028.73	913.38
1028.943	908.38
1029.157	822.38
1029.37	793.38
1029.584	-3.62
1029.797	-4.62
1030.011	-3.62
1030.224	0.38
