Data from QEP037381__153__15-48-59-884.txt Node

Date: Fri Dec 16 15:48:59 EST 2022
User: dcclab
Spectrometer: QEP03738
Trigger mode: 4
Integration Time (sec): 1.000000E1
Scans to average: 1
Electric dark correction enabled: true
Nonlinearity correction enabled: false
Boxcar width: 0
XAxis mode: Wavelengths
Number of Pixels in Spectrum: 1044
>>>>>Begin Spectral Data<<<<<
784.041	10.38
784.3	1.38
784.558	-5.62
784.817	-0.62
785.075	110528.38
785.334	19681.38
785.592	9366.38
785.851	6524.38
786.109	4855.38
786.368	3784.38
786.626	3080.38
786.884	2494.38
787.143	2098.38
787.401	1734.38
787.659	1577.38
787.917	1333.38
788.175	1213.38
788.433	1066.38
788.691	964.38
788.949	886.38
789.207	840.38
789.465	746.38
789.723	699.38
789.98	658.38
790.238	658.38
790.496	641.38
790.753	606.38
791.011	649.38
791.268	593.38
791.526	569.38
791.783	575.38
792.041	562.38
792.298	475.38
792.556	538.38
792.813	532.38
793.07	501.38
793.327	502.38
793.584	572.38
793.841	492.38
794.099	506.38
794.356	554.38
794.613	465.38
794.869	502.38
795.126	465.38
795.383	447.38
795.64	479.38
795.897	429.38
796.153	471.38
796.41	464.38
796.667	448.38
796.923	448.38
797.18	460.38
797.436	492.38
797.693	440.38
797.949	499.38
798.206	542.38
798.462	446.38
798.718	505.38
798.974	481.38
799.231	548.38
799.487	529.38
799.743	534.38
799.999	560.38
800.255	562.38
800.511	542.38
800.767	613.38
801.023	601.38
801.279	641.38
801.534	701.38
801.79	758.38
802.046	805.38
802.302	1006.38
802.557	1137.38
802.813	1446.38
803.068	1816.38
803.324	2594.38
803.579	3598.38
803.835	4997.38
804.09	6965.38
804.345	9215.38
804.601	11635.38
804.856	14121.38
805.111	16282.38
805.366	18063.38
805.621	19230.38
805.876	20213.38
806.131	20740.38
806.386	21071.38
806.641	21480.38
806.896	21752.38
807.151	22188.38
807.406	22531.38
807.661	22955.38
807.915	23410.38
808.17	23725.38
808.425	23856.38
808.679	24075.38
808.934	24315.38
809.188	24676.38
809.443	24804.38
809.697	25089.38
809.951	25327.38
810.206	25507.38
810.46	25702.38
810.714	25892.38
810.968	26202.38
811.223	26316.38
811.477	26518.38
811.731	26775.38
811.985	26937.38
812.239	26963.38
812.493	27123.38
812.747	27332.38
813	27315.38
813.254	27562.38
813.508	27622.38
813.762	27653.38
814.015	27820.38
814.269	28033.38
814.522	28168.38
814.776	28507.38
815.03	28880.38
815.283	29303.38
815.536	29754.38
815.79	30166.38
816.043	30571.38
816.296	30931.38
816.55	31343.38
816.803	31590.38
817.056	32034.38
817.309	32267.38
817.562	32663.38
817.815	32929.38
818.068	33098.38
818.321	33448.38
818.574	33897.38
818.827	34294.38
819.079	34705.38
819.332	35169.38
819.585	35423.38
819.838	35865.38
820.09	36123.38
820.343	36396.38
820.595	36668.38
820.848	36854.38
821.1	36917.38
821.353	36935.38
821.605	36926.38
821.857	36989.38
822.11	36849.38
822.362	36672.38
822.614	36522.38
822.866	36551.38
823.118	36575.38
823.37	36728.38
823.622	36802.38
823.874	36908.38
824.126	36787.38
824.378	36943.38
824.63	37096.38
824.882	37357.38
825.134	37293.38
825.385	37206.38
825.637	36861.38
825.888	36894.38
826.14	36975.38
826.392	36670.38
826.643	36506.38
826.895	36392.38
827.146	36188.38
827.397	36213.38
827.649	36099.38
827.9	36150.38
828.151	36200.38
828.402	36233.38
828.653	36432.38
828.905	36420.38
829.156	36409.38
829.407	36536.38
829.658	36431.38
829.909	36483.38
830.159	36332.38
830.41	36241.38
830.661	35931.38
830.912	35762.38
831.162	35528.38
831.413	35515.38
831.664	35516.38
831.914	35360.38
832.165	35451.38
832.415	35403.38
832.666	35346.38
832.916	35277.38
833.167	35312.38
833.417	35269.38
833.667	35296.38
833.917	34944.38
834.168	34951.38
834.418	34875.38
834.668	34857.38
834.918	34593.38
835.168	34569.38
835.418	34332.38
835.668	34075.38
835.918	34068.38
836.167	34027.38
836.417	33720.38
836.667	34061.38
836.917	33700.38
837.166	33733.38
837.416	33798.38
837.666	33804.38
837.915	33684.38
838.165	33601.38
838.414	33505.38
838.663	33539.38
838.913	33296.38
839.162	33308.38
839.411	33161.38
839.661	33091.38
839.91	32973.38
840.159	32860.38
840.408	32965.38
840.657	32850.38
840.906	32911.38
841.155	32844.38
841.404	32762.38
841.653	32734.38
841.902	32739.38
842.15	32957.38
842.399	32762.38
842.648	32785.38
842.897	32583.38
843.145	32356.38
843.394	32116.38
843.642	31984.38
843.891	31914.38
844.139	31741.38
844.388	31570.38
844.636	31363.38
844.884	31376.38
845.133	31313.38
845.381	31285.38
845.629	31298.38
845.877	31211.38
846.125	31202.38
846.373	31087.38
846.621	30953.38
846.869	30789.38
847.117	30636.38
847.365	30476.38
847.613	30444.38
847.861	30261.38
848.108	30237.38
848.356	30192.38
848.604	29934.38
848.851	29979.38
849.099	29985.38
849.346	30172.38
849.594	30307.38
849.841	30259.38
850.089	30443.38
850.336	30346.38
850.583	30367.38
850.831	30147.38
851.078	29904.38
851.325	29931.38
851.572	29947.38
851.819	29480.38
852.066	29184.38
852.313	28828.38
852.56	28572.38
852.807	28250.38
853.054	28276.38
853.301	28222.38
853.548	28226.38
853.794	28459.38
854.041	28508.38
854.288	28459.38
854.534	28721.38
854.781	28667.38
855.028	28540.38
855.274	28702.38
855.52	28344.38
855.767	28215.38
856.013	28215.38
856.26	28493.38
856.506	27881.38
856.752	27821.38
856.998	27920.38
857.244	27855.38
857.49	27889.38
857.736	28017.38
857.982	28075.38
858.228	27985.38
858.474	27719.38
858.72	27573.38
858.966	27319.38
859.212	27045.38
859.458	26744.38
859.703	26514.38
859.949	26120.38
860.195	26069.38
860.44	25896.38
860.686	25882.38
860.931	25812.38
861.177	25681.38
861.422	25577.38
861.667	25445.38
861.913	25551.38
862.158	25476.38
862.403	25523.38
862.648	25548.38
862.893	25681.38
863.138	25560.38
863.384	25464.38
863.629	25415.38
863.873	25457.38
864.118	25301.38
864.363	25210.38
864.608	25026.38
864.853	25123.38
865.098	24873.38
865.342	24676.38
865.587	24710.38
865.832	24617.38
866.076	24509.38
866.321	24371.38
866.565	24360.38
866.81	24169.38
867.054	24193.38
867.298	23983.38
867.543	24121.38
867.787	24030.38
868.031	23889.38
868.275	23723.38
868.519	23757.38
868.764	23726.38
869.008	23746.38
869.252	23549.38
869.496	23467.38
869.739	23426.38
869.983	23342.38
870.227	23379.38
870.471	23334.38
870.715	23394.38
870.958	23483.38
871.202	23397.38
871.446	23424.38
871.689	23365.38
871.933	23416.38
872.176	23403.38
872.42	23451.38
872.663	23323.38
872.906	23283.38
873.15	23239.38
873.393	23092.38
873.636	22918.38
873.879	22838.38
874.122	22674.38
874.366	22271.38
874.609	22177.38
874.852	21806.38
875.095	21783.38
875.337	21610.38
875.58	21613.38
875.823	21584.38
876.066	21409.38
876.309	21460.38
876.551	21239.38
876.794	21079.38
877.037	21117.38
877.279	21089.38
877.522	21064.38
877.764	21044.38
878.007	20867.38
878.249	20944.38
878.491	20835.38
878.734	20805.38
878.976	20784.38
879.218	20650.38
879.46	20637.38
879.702	20486.38
879.945	20373.38
880.187	20104.38
880.429	19928.38
880.671	19752.38
880.912	19779.38
881.154	19675.38
881.396	19691.38
881.638	19700.38
881.88	19719.38
882.121	19535.38
882.363	19531.38
882.605	19562.38
882.846	19450.38
883.088	19315.38
883.329	19349.38
883.571	19304.38
883.812	19490.38
884.053	19606.38
884.295	19787.38
884.536	20104.38
884.777	19815.38
885.018	19797.38
885.259	19715.38
885.5	19560.38
885.742	19797.38
885.982	19462.38
886.223	19332.38
886.464	19233.38
886.705	19008.38
886.946	18871.38
887.187	18658.38
887.428	18640.38
887.668	18310.38
887.909	18039.38
888.15	17967.38
888.39	17811.38
888.631	17761.38
888.871	17527.38
889.111	17469.38
889.352	17311.38
889.592	17120.38
889.833	16971.38
890.073	16836.38
890.313	16851.38
890.553	16694.38
890.793	16542.38
891.033	16453.38
891.273	16432.38
891.513	16397.38
891.753	16384.38
891.993	16303.38
892.233	16426.38
892.473	16362.38
892.713	16359.38
892.952	16281.38
893.192	16352.38
893.432	16247.38
893.671	16354.38
893.911	16163.38
894.15	16094.38
894.39	15901.38
894.629	15890.38
894.869	15842.38
895.108	15590.38
895.347	15586.38
895.587	15568.38
895.826	15551.38
896.065	15460.38
896.304	15435.38
896.543	15407.38
896.782	15355.38
897.021	15299.38
897.26	15324.38
897.499	15311.38
897.738	15223.38
897.977	15067.38
898.216	14911.38
898.454	14858.38
898.693	14656.38
898.932	14735.38
899.17	14676.38
899.409	14506.38
899.647	14524.38
899.886	14486.38
900.124	14469.38
900.363	14497.38
900.601	14426.38
900.839	14520.38
901.078	14441.38
901.316	14526.38
901.554	14495.38
901.792	14465.38
902.03	14439.38
902.268	14549.38
902.506	14509.38
902.744	14415.38
902.982	14252.38
903.22	14109.38
903.458	14013.38
903.695	13836.38
903.933	13623.38
904.171	13339.38
904.409	13209.38
904.646	13074.38
904.884	12867.38
905.121	12789.38
905.359	12605.38
905.596	12577.38
905.833	12391.38
906.071	12353.38
906.308	12314.38
906.545	12293.38
906.783	12215.38
907.02	12165.38
907.257	12071.38
907.494	12063.38
907.731	12013.38
907.968	12048.38
908.205	11854.38
908.442	11802.38
908.679	11813.38
908.915	11710.38
909.152	11665.38
909.389	11434.38
909.626	11452.38
909.862	11302.38
910.099	11324.38
910.335	11302.38
910.572	11128.38
910.808	11162.38
911.045	11112.38
911.281	11027.38
911.518	11030.38
911.754	10909.38
911.99	10911.38
912.226	10776.38
912.463	10687.38
912.699	10669.38
912.935	10564.38
913.171	10430.38
913.407	10320.38
913.643	10394.38
913.879	10217.38
914.114	10133.38
914.35	9983.38
914.586	9905.38
914.822	9758.38
915.057	9844.38
915.293	9589.38
915.529	9523.38
915.764	9625.38
916	9623.38
916.235	9562.38
916.471	9554.38
916.706	9445.38
916.941	9386.38
917.177	9464.38
917.412	9572.38
917.647	9429.38
917.882	9439.38
918.117	9423.38
918.352	9370.38
918.588	9388.38
918.823	9289.38
919.057	9186.38
919.292	8985.38
919.527	9072.38
919.762	8851.38
919.997	8877.38
920.232	8722.38
920.466	8600.38
920.701	8522.38
920.935	8430.38
921.17	8428.38
921.405	8330.38
921.639	8402.38
921.873	8289.38
922.108	8315.38
922.342	8261.38
922.576	8205.38
922.811	8195.38
923.045	8129.38
923.279	8204.38
923.513	8020.38
923.747	8061.38
923.981	8021.38
924.215	7912.38
924.449	7915.38
924.683	7750.38
924.917	7748.38
925.151	7698.38
925.385	7727.38
925.618	7690.38
925.852	7657.38
926.086	7622.38
926.319	7562.38
926.553	7595.38
926.786	7609.38
927.02	7572.38
927.253	7525.38
927.486	7515.38
927.72	7453.38
927.953	7551.38
928.186	7460.38
928.42	7465.38
928.653	7397.38
928.886	7289.38
929.119	7434.38
929.352	7286.38
929.585	7248.38
929.818	7180.38
930.051	7175.38
930.284	7107.38
930.516	6971.38
930.749	6929.38
930.982	6945.38
931.215	6945.38
931.447	6791.38
931.68	6819.38
931.912	6764.38
932.145	6757.38
932.377	6804.38
932.61	6906.38
932.842	6749.38
933.074	6793.38
933.307	6723.38
933.539	6811.38
933.771	6755.38
934.003	6689.38
934.236	6817.38
934.468	6791.38
934.7	6690.38
934.932	6652.38
935.164	6601.38
935.395	6599.38
935.627	6636.38
935.859	6571.38
936.091	6511.38
936.323	6533.38
936.554	6521.38
936.786	6468.38
937.017	6404.38
937.249	6391.38
937.481	6345.38
937.712	6411.38
937.943	6346.38
938.175	6342.38
938.406	6302.38
938.637	6401.38
938.869	6302.38
939.1	6336.38
939.331	6312.38
939.562	6274.38
939.793	6207.38
940.024	6284.38
940.255	6183.38
940.486	6157.38
940.717	6125.38
940.948	6098.38
941.179	6019.38
941.409	5984.38
941.64	6038.38
941.871	6010.38
942.102	5983.38
942.332	5963.38
942.563	6048.38
942.793	5967.38
943.024	5886.38
943.254	5988.38
943.484	6019.38
943.715	6013.38
943.945	5912.38
944.175	5820.38
944.405	5837.38
944.636	5827.38
944.866	5816.38
945.096	5925.38
945.326	5781.38
945.556	5818.38
945.786	5842.38
946.016	5732.38
946.245	5669.38
946.475	5636.38
946.705	5634.38
946.935	5625.38
947.164	5591.38
947.394	5494.38
947.624	5489.38
947.853	5525.38
948.083	5515.38
948.312	5456.38
948.542	5373.38
948.771	5317.38
949	5388.38
949.23	5352.38
949.459	5330.38
949.688	5406.38
949.917	5337.38
950.146	5320.38
950.375	5398.38
950.604	5233.38
950.833	5338.38
951.062	5372.38
951.291	5266.38
951.52	5213.38
951.749	5246.38
951.978	5165.38
952.206	5197.38
952.435	5128.38
952.664	5194.38
952.892	5146.38
953.121	5146.38
953.349	5087.38
953.578	5036.38
953.806	5034.38
954.035	4976.38
954.263	5016.38
954.491	4951.38
954.719	4967.38
954.948	4937.38
955.176	4874.38
955.404	4835.38
955.632	4816.38
955.86	4846.38
956.088	4791.38
956.316	4772.38
956.544	4767.38
956.772	4706.38
956.999	4650.38
957.227	4707.38
957.455	4661.38
957.683	4595.38
957.91	4580.38
958.138	4559.38
958.365	4546.38
958.593	4574.38
958.82	4414.38
959.048	4484.38
959.275	4489.38
959.502	4457.38
959.73	4465.38
959.957	4451.38
960.184	4495.38
960.411	4390.38
960.638	4461.38
960.865	4344.38
961.092	4402.38
961.319	4273.38
961.546	4440.38
961.773	4431.38
962	4353.38
962.227	4397.38
962.454	4331.38
962.68	4292.38
962.907	4317.38
963.134	4207.38
963.36	4195.38
963.587	4298.38
963.813	4175.38
964.04	4164.38
964.266	4121.38
964.493	4166.38
964.719	4117.38
964.945	4088.38
965.171	4046.38
965.398	4080.38
965.624	4050.38
965.85	4004.38
966.076	3971.38
966.302	4003.38
966.528	3928.38
966.754	3959.38
966.98	3918.38
967.206	3887.38
967.431	3789.38
967.657	3919.38
967.883	3869.38
968.109	3859.38
968.334	3819.38
968.56	3802.38
968.785	3757.38
969.011	3745.38
969.236	3820.38
969.462	3765.38
969.687	3779.38
969.912	3761.38
970.138	3807.38
970.363	3678.38
970.588	3705.38
970.813	3688.38
971.038	3629.38
971.263	3633.38
971.488	3640.38
971.713	3687.38
971.938	3610.38
972.163	3577.38
972.388	3492.38
972.613	3549.38
972.838	3572.38
973.062	3511.38
973.287	3530.38
973.512	3428.38
973.736	3488.38
973.961	3481.38
974.185	3401.38
974.41	3471.38
974.634	3295.38
974.858	3333.38
975.083	3318.38
975.307	3378.38
975.531	3287.38
975.755	3243.38
975.98	3245.38
976.204	3194.38
976.428	3126.38
976.652	3182.38
976.876	3132.38
977.1	3150.38
977.324	3100.38
977.547	3166.38
977.771	3178.38
977.995	3095.38
978.219	3034.38
978.442	3165.38
978.666	3105.38
978.89	3082.38
979.113	3090.38
979.337	3081.38
979.56	3031.38
979.783	3151.38
980.007	2954.38
980.23	3024.38
980.453	2957.38
980.677	2988.38
980.9	2955.38
981.123	2880.38
981.346	2955.38
981.569	2952.38
981.792	2965.38
982.015	2894.38
982.238	2866.38
982.461	2867.38
982.684	2802.38
982.907	2811.38
983.129	2809.38
983.352	2844.38
983.575	2816.38
983.797	2779.38
984.02	2738.38
984.242	2674.38
984.465	2722.38
984.687	2736.38
984.91	2778.38
985.132	2748.38
985.354	2755.38
985.577	2700.38
985.799	2667.38
986.021	2609.38
986.243	2625.38
986.465	2602.38
986.687	2671.38
986.909	2707.38
987.131	2624.38
987.353	2578.38
987.575	2608.38
987.797	2593.38
988.019	2505.38
988.241	2566.38
988.462	2523.38
988.684	2583.38
988.906	2610.38
989.127	2619.38
989.349	2492.38
989.57	2512.38
989.792	2533.38
990.013	2574.38
990.234	2558.38
990.456	2566.38
990.677	2523.38
990.898	2466.38
991.119	2460.38
991.341	2487.38
991.562	2414.38
991.783	2468.38
992.004	2364.38
992.225	2365.38
992.446	2419.38
992.667	2266.38
992.887	2373.38
993.108	2266.38
993.329	2382.38
993.55	2349.38
993.77	2254.38
993.991	2243.38
994.212	2281.38
994.432	2260.38
994.653	2281.38
994.873	2263.38
995.093	2120.38
995.314	2155.38
995.534	2251.38
995.754	2250.38
995.975	2279.38
996.195	2161.38
996.415	2211.38
996.635	2158.38
996.855	2195.38
997.075	2168.38
997.295	2147.38
997.515	2127.38
997.735	2216.38
997.955	2136.38
998.174	2103.38
998.394	2068.38
998.614	2172.38
998.834	2099.38
999.053	2171.38
999.273	2125.38
999.492	2201.38
999.712	2105.38
999.931	2036.38
1000.151	2098.38
1000.37	2082.38
1000.589	2123.38
1000.809	2019.38
1001.028	2156.38
1001.247	2044.38
1001.466	1961.38
1001.685	2116.38
1001.904	2073.38
1002.123	2045.38
1002.342	2022.38
1002.561	1999.38
1002.78	1996.38
1002.999	2029.38
1003.218	1973.38
1003.436	1953.38
1003.655	2038.38
1003.874	1932.38
1004.092	1952.38
1004.311	1978.38
1004.53	1936.38
1004.748	2003.38
1004.966	1941.38
1005.185	1970.38
1005.403	1968.38
1005.622	1942.38
1005.84	1988.38
1006.058	1927.38
1006.276	1907.38
1006.494	2430.38
1006.712	1923.38
1006.931	1976.38
1007.149	1907.38
1007.367	1842.38
1007.584	1945.38
1007.802	1964.38
1008.02	1906.38
1008.238	1969.38
1008.456	2018.38
1008.673	1851.38
1008.891	1987.38
1009.109	1944.38
1009.326	1970.38
1009.544	2060.38
1009.761	1991.38
1009.979	2074.38
1010.196	2088.38
1010.413	2182.38
1010.631	2240.38
1010.848	2306.38
1011.065	2300.38
1011.282	2234.38
1011.5	2230.38
1011.717	2321.38
1011.934	2249.38
1012.151	2234.38
1012.368	2221.38
1012.585	2230.38
1012.801	2213.38
1013.018	2208.38
1013.235	2169.38
1013.452	2180.38
1013.669	2176.38
1013.885	2171.38
1014.102	2223.38
1014.318	2148.38
1014.535	2144.38
1014.751	2166.38
1014.968	2161.38
1015.184	2163.38
1015.401	2077.38
1015.617	2075.38
1015.833	2024.38
1016.049	2053.38
1016.266	2023.38
1016.482	2022.38
1016.698	1948.38
1016.914	1965.38
1017.13	1892.38
1017.346	1885.38
1017.562	1973.38
1017.778	1909.38
1017.993	1876.38
1018.209	1921.38
1018.425	1890.38
1018.641	1874.38
1018.856	1825.38
1019.072	1880.38
1019.288	1888.38
1019.503	1862.38
1019.719	1786.38
1019.934	1773.38
1020.149	1889.38
1020.365	1762.38
1020.58	1741.38
1020.795	1771.38
1021.011	1665.38
1021.226	1679.38
1021.441	1663.38
1021.656	1595.38
1021.871	1540.38
1022.086	1515.38
1022.301	1532.38
1022.516	1507.38
1022.731	1532.38
1022.946	1448.38
1023.16	1439.38
1023.375	1391.38
1023.59	1372.38
1023.804	1341.38
1024.019	1406.38
1024.234	1285.38
1024.448	1306.38
1024.663	1228.38
1024.877	1259.38
1025.092	1252.38
1025.306	1248.38
1025.52	1153.38
1025.734	1244.38
1025.949	1132.38
1026.163	1110.38
1026.377	1075.38
1026.591	1083.38
1026.805	1022.38
1027.019	1012.38
1027.233	975.38
1027.447	928.38
1027.661	1015.38
1027.875	963.38
1028.088	960.38
1028.302	852.38
1028.516	869.38
1028.73	864.38
1028.943	866.38
1029.157	794.38
1029.37	736.38
1029.584	0.38
1029.797	-3.62
1030.011	-1.62
1030.224	-0.62
