Data from QEP037381__200__15-56-49-889.txt Node

Date: Fri Dec 16 15:56:49 EST 2022
User: dcclab
Spectrometer: QEP03738
Trigger mode: 4
Integration Time (sec): 1.000000E1
Scans to average: 1
Electric dark correction enabled: true
Nonlinearity correction enabled: false
Boxcar width: 0
XAxis mode: Wavelengths
Number of Pixels in Spectrum: 1044
>>>>>Begin Spectral Data<<<<<
784.041	9.62
784.3	0.62
784.558	-0.38
784.817	-2.38
785.075	110204.62
785.334	19456.62
785.592	9158.62
785.851	6351.62
786.109	4791.62
786.368	3703.62
786.626	2960.62
786.884	2482.62
787.143	2078.62
787.401	1717.62
787.659	1567.62
787.917	1324.62
788.175	1198.62
788.433	1047.62
788.691	946.62
788.949	872.62
789.207	817.62
789.465	728.62
789.723	698.62
789.98	631.62
790.238	681.62
790.496	654.62
790.753	585.62
791.011	637.62
791.268	566.62
791.526	565.62
791.783	569.62
792.041	542.62
792.298	469.62
792.556	517.62
792.813	492.62
793.07	486.62
793.327	473.62
793.584	553.62
793.841	474.62
794.099	503.62
794.356	548.62
794.613	450.62
794.869	496.62
795.126	460.62
795.383	444.62
795.64	457.62
795.897	413.62
796.153	458.62
796.41	455.62
796.667	430.62
796.923	440.62
797.18	450.62
797.436	467.62
797.693	439.62
797.949	501.62
798.206	517.62
798.462	434.62
798.718	484.62
798.974	478.62
799.231	512.62
799.487	505.62
799.743	519.62
799.999	534.62
800.255	546.62
800.511	523.62
800.767	584.62
801.023	569.62
801.279	607.62
801.534	657.62
801.79	698.62
802.046	746.62
802.302	907.62
802.557	1042.62
802.813	1288.62
803.068	1629.62
803.324	2278.62
803.579	3071.62
803.835	4325.62
804.09	5931.62
804.345	7775.62
804.601	9864.62
804.856	11931.62
805.111	13827.62
805.366	15237.62
805.621	16316.62
805.876	17080.62
806.131	17503.62
806.386	17843.62
806.641	18257.62
806.896	18544.62
807.151	18908.62
807.406	18970.62
807.661	19506.62
807.915	19861.62
808.17	20083.62
808.425	20316.62
808.679	20444.62
808.934	20689.62
809.188	20896.62
809.443	20984.62
809.697	21466.62
809.951	21445.62
810.206	21678.62
810.46	21843.62
810.714	21932.62
810.968	22198.62
811.223	22445.62
811.477	22669.62
811.731	22836.62
811.985	22785.62
812.239	22937.62
812.493	23151.62
812.747	23234.62
813	23264.62
813.254	23286.62
813.508	23403.62
813.762	23537.62
814.015	23624.62
814.269	23812.62
814.522	24038.62
814.776	24282.62
815.03	24563.62
815.283	24976.62
815.536	25319.62
815.79	25811.62
816.043	26077.62
816.296	26314.62
816.55	26680.62
816.803	26978.62
817.056	27399.62
817.309	27566.62
817.562	27897.62
817.815	28043.62
818.068	28324.62
818.321	28620.62
818.574	28856.62
818.827	29263.62
819.079	29523.62
819.332	30030.62
819.585	30342.62
819.838	30704.62
820.09	30784.62
820.343	31238.62
820.595	31154.62
820.848	31532.62
821.1	31581.62
821.353	31612.62
821.605	31627.62
821.857	31604.62
822.11	31395.62
822.362	31326.62
822.614	31366.62
822.866	31335.62
823.118	31375.62
823.37	31540.62
823.622	31556.62
823.874	31598.62
824.126	31555.62
824.378	31586.62
824.63	31845.62
824.882	31912.62
825.134	31843.62
825.385	31875.62
825.637	31689.62
825.888	31620.62
826.14	31524.62
826.392	31376.62
826.643	31142.62
826.895	31175.62
827.146	30967.62
827.397	30945.62
827.649	30957.62
827.9	30938.62
828.151	31029.62
828.402	31076.62
828.653	31085.62
828.905	31235.62
829.156	31244.62
829.407	31188.62
829.658	31225.62
829.909	31129.62
830.159	31259.62
830.41	31120.62
830.661	30852.62
830.912	30687.62
831.162	30505.62
831.413	30440.62
831.664	30522.62
831.914	30507.62
832.165	30347.62
832.415	30534.62
832.666	30431.62
832.916	30264.62
833.167	30395.62
833.417	30401.62
833.667	30283.62
833.917	30158.62
834.168	30109.62
834.418	30046.62
834.668	29858.62
834.918	29718.62
835.168	29631.62
835.418	29481.62
835.668	29401.62
835.918	29355.62
836.167	29179.62
836.417	29116.62
836.667	29134.62
836.917	28987.62
837.166	29135.62
837.416	29183.62
837.666	28917.62
837.915	28956.62
838.165	28924.62
838.414	28825.62
838.663	28769.62
838.913	28783.62
839.162	28661.62
839.411	28522.62
839.661	28470.62
839.91	28455.62
840.159	28382.62
840.408	28300.62
840.657	28393.62
840.906	28337.62
841.155	28448.62
841.404	28238.62
841.653	28363.62
841.902	28310.62
842.15	28382.62
842.399	28335.62
842.648	28138.62
842.897	28065.62
843.145	28003.62
843.394	27845.62
843.642	27784.62
843.891	27604.62
844.139	27369.62
844.388	27349.62
844.636	27060.62
844.884	27069.62
845.133	26997.62
845.381	26997.62
845.629	27043.62
845.877	26964.62
846.125	26938.62
846.373	26826.62
846.621	26773.62
846.869	26703.62
847.117	26546.62
847.365	26416.62
847.613	26200.62
847.861	26144.62
848.108	26212.62
848.356	26153.62
848.604	26014.62
848.851	25918.62
849.099	25962.62
849.346	26103.62
849.594	26097.62
849.841	26391.62
850.089	26264.62
850.336	26238.62
850.583	26344.62
850.831	26013.62
851.078	25987.62
851.325	25881.62
851.572	26077.62
851.819	25725.62
852.066	25286.62
852.313	25021.62
852.56	24802.62
852.807	24769.62
853.054	24621.62
853.301	24464.62
853.548	24561.62
853.794	24729.62
854.041	24821.62
854.288	24743.62
854.534	25131.62
854.781	24957.62
855.028	24800.62
855.274	24931.62
855.52	24636.62
855.767	24412.62
856.013	24566.62
856.26	24913.62
856.506	24330.62
856.752	24379.62
856.998	24340.62
857.244	24381.62
857.49	24413.62
857.736	24514.62
857.982	24502.62
858.228	24478.62
858.474	24263.62
858.72	24096.62
858.966	23862.62
859.212	23687.62
859.458	23362.62
859.703	23186.62
859.949	22900.62
860.195	22753.62
860.44	22650.62
860.686	22497.62
860.931	22639.62
861.177	22445.62
861.422	22270.62
861.667	22231.62
861.913	22297.62
862.158	22240.62
862.403	22389.62
862.648	22387.62
862.893	22303.62
863.138	22342.62
863.384	22459.62
863.629	22311.62
863.873	22225.62
864.118	22131.62
864.363	21990.62
864.608	22029.62
864.853	21819.62
865.098	21699.62
865.342	21637.62
865.587	21611.62
865.832	21522.62
866.076	21458.62
866.321	21471.62
866.565	21420.62
866.81	21190.62
867.054	21195.62
867.298	21087.62
867.543	21007.62
867.787	21078.62
868.031	21001.62
868.275	20966.62
868.519	20900.62
868.764	20761.62
869.008	20701.62
869.252	20712.62
869.496	20612.62
869.739	20557.62
869.983	20587.62
870.227	20561.62
870.471	20537.62
870.715	20598.62
870.958	20603.62
871.202	20673.62
871.446	20684.62
871.689	20573.62
871.933	20668.62
872.176	20618.62
872.42	20591.62
872.663	20582.62
872.906	20435.62
873.15	20355.62
873.393	20343.62
873.636	20180.62
873.879	20033.62
874.122	19883.62
874.366	19510.62
874.609	19437.62
874.852	19352.62
875.095	19207.62
875.337	19070.62
875.58	19032.62
875.823	19043.62
876.066	18859.62
876.309	18800.62
876.551	18721.62
876.794	18659.62
877.037	18586.62
877.279	18561.62
877.522	18612.62
877.764	18662.62
878.007	18578.62
878.249	18490.62
878.491	18441.62
878.734	18436.62
878.976	18408.62
879.218	18262.62
879.46	18269.62
879.702	18095.62
879.945	17905.62
880.187	17769.62
880.429	17694.62
880.671	17493.62
880.912	17535.62
881.154	17466.62
881.396	17243.62
881.638	17391.62
881.88	17403.62
882.121	17315.62
882.363	17309.62
882.605	17323.62
882.846	17152.62
883.088	17165.62
883.329	17035.62
883.571	17141.62
883.812	17169.62
884.053	17510.62
884.295	17595.62
884.536	17847.62
884.777	17657.62
885.018	17540.62
885.259	17444.62
885.5	17318.62
885.742	17541.62
885.982	17323.62
886.223	17126.62
886.464	17097.62
886.705	16912.62
886.946	16852.62
887.187	16557.62
887.428	16476.62
887.668	16258.62
887.909	16023.62
888.15	15867.62
888.39	15783.62
888.631	15718.62
888.871	15589.62
889.111	15505.62
889.352	15282.62
889.592	15253.62
889.833	15187.62
890.073	15047.62
890.313	15093.62
890.553	14732.62
890.793	14721.62
891.033	14624.62
891.273	14619.62
891.513	14575.62
891.753	14546.62
891.993	14491.62
892.233	14579.62
892.473	14600.62
892.713	14529.62
892.952	14452.62
893.192	14477.62
893.432	14518.62
893.671	14486.62
893.911	14418.62
894.15	14372.62
894.39	14200.62
894.629	14103.62
894.869	14057.62
895.108	13975.62
895.347	13883.62
895.587	13915.62
895.826	13815.62
896.065	13685.62
896.304	13762.62
896.543	13763.62
896.782	13637.62
897.021	13760.62
897.26	13590.62
897.499	13563.62
897.738	13591.62
897.977	13458.62
898.216	13344.62
898.454	13248.62
898.693	13096.62
898.932	13073.62
899.17	13085.62
899.409	12968.62
899.647	12945.62
899.886	12944.62
900.124	12944.62
900.363	12843.62
900.601	12854.62
900.839	12959.62
901.078	12943.62
901.316	12931.62
901.554	12956.62
901.792	12984.62
902.03	12983.62
902.268	12990.62
902.506	13022.62
902.744	12873.62
902.982	12792.62
903.22	12661.62
903.458	12455.62
903.695	12302.62
903.933	12201.62
904.171	11997.62
904.409	11805.62
904.646	11717.62
904.884	11538.62
905.121	11499.62
905.359	11304.62
905.596	11208.62
905.833	11079.62
906.071	11100.62
906.308	11071.62
906.545	11013.62
906.783	10955.62
907.02	10988.62
907.257	10827.62
907.494	10885.62
907.731	10903.62
907.968	10752.62
908.205	10714.62
908.442	10686.62
908.679	10572.62
908.915	10461.62
909.152	10469.62
909.389	10270.62
909.626	10286.62
909.862	10243.62
910.099	10138.62
910.335	10079.62
910.572	10007.62
910.808	10021.62
911.045	9992.62
911.281	9951.62
911.518	9979.62
911.754	9886.62
911.99	9842.62
912.226	9713.62
912.463	9621.62
912.699	9558.62
912.935	9492.62
913.171	9471.62
913.407	9380.62
913.643	9290.62
913.879	9256.62
914.114	9190.62
914.35	8995.62
914.586	8959.62
914.822	8852.62
915.057	8822.62
915.293	8744.62
915.529	8681.62
915.764	8740.62
916	8711.62
916.235	8674.62
916.471	8593.62
916.706	8605.62
916.941	8589.62
917.177	8536.62
917.412	8557.62
917.647	8566.62
917.882	8472.62
918.117	8521.62
918.352	8451.62
918.588	8579.62
918.823	8399.62
919.057	8307.62
919.292	8178.62
919.527	8175.62
919.762	8072.62
919.997	8065.62
920.232	7852.62
920.466	7845.62
920.701	7717.62
920.935	7644.62
921.17	7590.62
921.405	7581.62
921.639	7679.62
921.873	7584.62
922.108	7580.62
922.342	7573.62
922.576	7499.62
922.811	7420.62
923.045	7466.62
923.279	7450.62
923.513	7279.62
923.747	7360.62
923.981	7257.62
924.215	7164.62
924.449	7204.62
924.683	7020.62
924.917	7058.62
925.151	6980.62
925.385	7081.62
925.618	7014.62
925.852	6941.62
926.086	6925.62
926.319	6982.62
926.553	6915.62
926.786	6981.62
927.02	6925.62
927.253	6951.62
927.486	6881.62
927.72	6864.62
927.953	6801.62
928.186	6808.62
928.42	6832.62
928.653	6729.62
928.886	6722.62
929.119	6669.62
929.352	6635.62
929.585	6628.62
929.818	6522.62
930.051	6503.62
930.284	6530.62
930.516	6378.62
930.749	6375.62
930.982	6318.62
931.215	6308.62
931.447	6252.62
931.68	6197.62
931.912	6183.62
932.145	6230.62
932.377	6243.62
932.61	6300.62
932.842	6126.62
933.074	6215.62
933.307	6156.62
933.539	6224.62
933.771	6201.62
934.003	6132.62
934.236	6236.62
934.468	6229.62
934.7	6084.62
934.932	6144.62
935.164	6089.62
935.395	6025.62
935.627	6019.62
935.859	6112.62
936.091	5896.62
936.323	5981.62
936.554	5985.62
936.786	5901.62
937.017	5878.62
937.249	5906.62
937.481	5754.62
937.712	5856.62
937.943	5800.62
938.175	5833.62
938.406	5812.62
938.637	5820.62
938.869	5757.62
939.1	5779.62
939.331	5753.62
939.562	5754.62
939.793	5679.62
940.024	5690.62
940.255	5655.62
940.486	5616.62
940.717	5563.62
940.948	5568.62
941.179	5478.62
941.409	5523.62
941.64	5516.62
941.871	5560.62
942.102	5479.62
942.332	5508.62
942.563	5558.62
942.793	5475.62
943.024	5424.62
943.254	5479.62
943.484	5498.62
943.715	5527.62
943.945	5494.62
944.175	5415.62
944.405	5352.62
944.636	5338.62
944.866	5357.62
945.096	5475.62
945.326	5285.62
945.556	5373.62
945.786	5402.62
946.016	5315.62
946.245	5198.62
946.475	5187.62
946.705	5182.62
946.935	5168.62
947.164	5126.62
947.394	5082.62
947.624	5100.62
947.853	5063.62
948.083	5045.62
948.312	5032.62
948.542	4924.62
948.771	4915.62
949	4946.62
949.23	4963.62
949.459	4944.62
949.688	4978.62
949.917	4936.62
950.146	4868.62
950.375	4934.62
950.604	4849.62
950.833	4963.62
951.062	4903.62
951.291	4874.62
951.52	4833.62
951.749	4782.62
951.978	4833.62
952.206	4787.62
952.435	4770.62
952.664	4778.62
952.892	4750.62
953.121	4727.62
953.349	4747.62
953.578	4653.62
953.806	4619.62
954.035	4599.62
954.263	4636.62
954.491	4542.62
954.719	4592.62
954.948	4563.62
955.176	4480.62
955.404	4406.62
955.632	4516.62
955.86	4477.62
956.088	4464.62
956.316	4497.62
956.544	4420.62
956.772	4376.62
956.999	4316.62
957.227	4431.62
957.455	4288.62
957.683	4306.62
957.91	4203.62
958.138	4213.62
958.365	4222.62
958.593	4177.62
958.82	4167.62
959.048	4185.62
959.275	4158.62
959.502	4113.62
959.73	4087.62
959.957	4122.62
960.184	4143.62
960.411	4070.62
960.638	4128.62
960.865	4089.62
961.092	4133.62
961.319	3991.62
961.546	4108.62
961.773	4126.62
962	4072.62
962.227	4075.62
962.454	4005.62
962.68	4050.62
962.907	4022.62
963.134	3982.62
963.36	3941.62
963.587	3949.62
963.813	3911.62
964.04	3874.62
964.266	3787.62
964.493	3853.62
964.719	3829.62
964.945	3824.62
965.171	3694.62
965.398	3764.62
965.624	3745.62
965.85	3712.62
966.076	3713.62
966.302	3729.62
966.528	3654.62
966.754	3694.62
966.98	3640.62
967.206	3662.62
967.431	3564.62
967.657	3638.62
967.883	3622.62
968.109	3591.62
968.334	3577.62
968.56	3524.62
968.785	3527.62
969.011	3467.62
969.236	3520.62
969.462	3499.62
969.687	3503.62
969.912	3502.62
970.138	3516.62
970.363	3492.62
970.588	3451.62
970.813	3442.62
971.038	3406.62
971.263	3455.62
971.488	3403.62
971.713	3413.62
971.938	3406.62
972.163	3292.62
972.388	3328.62
972.613	3277.62
972.838	3338.62
973.062	3311.62
973.287	3257.62
973.512	3228.62
973.736	3253.62
973.961	3180.62
974.185	3200.62
974.41	3237.62
974.634	3061.62
974.858	3102.62
975.083	3123.62
975.307	3165.62
975.531	3109.62
975.755	3003.62
975.98	3033.62
976.204	2988.62
976.428	2943.62
976.652	2966.62
976.876	2951.62
977.1	2964.62
977.324	2934.62
977.547	2954.62
977.771	2957.62
977.995	2916.62
978.219	2878.62
978.442	3002.62
978.666	2948.62
978.89	2887.62
979.113	2875.62
979.337	2873.62
979.56	2810.62
979.783	2909.62
980.007	2807.62
980.23	2766.62
980.453	2804.62
980.677	2821.62
980.9	2753.62
981.123	2736.62
981.346	2775.62
981.569	2759.62
981.792	2821.62
982.015	2687.62
982.238	2693.62
982.461	2677.62
982.684	2681.62
982.907	2640.62
983.129	2585.62
983.352	2653.62
983.575	2617.62
983.797	2628.62
984.02	2566.62
984.242	2571.62
984.465	2576.62
984.687	2582.62
984.91	2584.62
985.132	2527.62
985.354	2573.62
985.577	2524.62
985.799	2502.62
986.021	2430.62
986.243	2485.62
986.465	2464.62
986.687	2522.62
986.909	2564.62
987.131	2459.62
987.353	2462.62
987.575	2472.62
987.797	2436.62
988.019	2347.62
988.241	2401.62
988.462	2355.62
988.684	2406.62
988.906	2452.62
989.127	2453.62
989.349	2346.62
989.57	2362.62
989.792	2403.62
990.013	2378.62
990.234	2390.62
990.456	2412.62
990.677	2393.62
990.898	2303.62
991.119	2313.62
991.341	2360.62
991.562	2309.62
991.783	2337.62
992.004	2270.62
992.225	2218.62
992.446	2293.62
992.667	2172.62
992.887	2279.62
993.108	2148.62
993.329	2289.62
993.55	2213.62
993.77	2124.62
993.991	2156.62
994.212	2145.62
994.432	2163.62
994.653	2185.62
994.873	2106.62
995.093	2019.62
995.314	2078.62
995.534	2142.62
995.754	2161.62
995.975	2148.62
996.195	2065.62
996.415	2095.62
996.635	2093.62
996.855	2076.62
997.075	2060.62
997.295	2050.62
997.515	2040.62
997.735	2096.62
997.955	2050.62
998.174	2034.62
998.394	2014.62
998.614	2034.62
998.834	1986.62
999.053	2072.62
999.273	2031.62
999.492	2099.62
999.712	2037.62
999.931	1974.62
1000.151	2021.62
1000.37	1985.62
1000.589	2030.62
1000.809	1936.62
1001.028	2047.62
1001.247	1996.62
1001.466	1855.62
1001.685	2007.62
1001.904	1941.62
1002.123	1944.62
1002.342	1898.62
1002.561	1869.62
1002.78	1905.62
1002.999	1962.62
1003.218	1893.62
1003.436	1856.62
1003.655	1922.62
1003.874	1827.62
1004.092	1856.62
1004.311	1894.62
1004.53	1818.62
1004.748	1908.62
1004.966	1830.62
1005.185	1909.62
1005.403	1874.62
1005.622	1871.62
1005.84	1887.62
1006.058	1823.62
1006.276	1853.62
1006.494	2321.62
1006.712	1826.62
1006.931	1882.62
1007.149	1822.62
1007.367	1799.62
1007.584	1840.62
1007.802	1873.62
1008.02	1813.62
1008.238	1887.62
1008.456	1898.62
1008.673	1763.62
1008.891	1877.62
1009.109	1841.62
1009.326	1881.62
1009.544	1968.62
1009.761	1891.62
1009.979	1959.62
1010.196	1983.62
1010.413	2089.62
1010.631	2154.62
1010.848	2179.62
1011.065	2195.62
1011.282	2133.62
1011.5	2078.62
1011.717	2179.62
1011.934	2156.62
1012.151	2145.62
1012.368	2119.62
1012.585	2027.62
1012.801	2122.62
1013.018	2098.62
1013.235	2066.62
1013.452	2042.62
1013.669	2121.62
1013.885	2071.62
1014.102	2087.62
1014.318	2073.62
1014.535	2001.62
1014.751	2080.62
1014.968	2048.62
1015.184	2103.62
1015.401	1960.62
1015.617	2002.62
1015.833	1937.62
1016.049	1931.62
1016.266	1910.62
1016.482	1925.62
1016.698	1839.62
1016.914	1891.62
1017.13	1818.62
1017.346	1804.62
1017.562	1889.62
1017.778	1783.62
1017.993	1773.62
1018.209	1837.62
1018.425	1782.62
1018.641	1794.62
1018.856	1743.62
1019.072	1777.62
1019.288	1793.62
1019.503	1744.62
1019.719	1674.62
1019.934	1686.62
1020.149	1750.62
1020.365	1697.62
1020.58	1631.62
1020.795	1681.62
1021.011	1594.62
1021.226	1591.62
1021.441	1621.62
1021.656	1556.62
1021.871	1477.62
1022.086	1465.62
1022.301	1446.62
1022.516	1408.62
1022.731	1472.62
1022.946	1368.62
1023.16	1371.62
1023.375	1356.62
1023.59	1302.62
1023.804	1283.62
1024.019	1372.62
1024.234	1244.62
1024.448	1258.62
1024.663	1190.62
1024.877	1193.62
1025.092	1210.62
1025.306	1214.62
1025.52	1114.62
1025.734	1187.62
1025.949	1111.62
1026.163	1083.62
1026.377	1000.62
1026.591	1055.62
1026.805	1011.62
1027.019	964.62
1027.233	919.62
1027.447	899.62
1027.661	973.62
1027.875	943.62
1028.088	908.62
1028.302	845.62
1028.516	833.62
1028.73	811.62
1028.943	795.62
1029.157	753.62
1029.37	708.62
1029.584	-0.38
1029.797	-0.38
1030.011	-2.38
1030.224	-4.38
