Data from QEP037381__124__15-44-09-880.txt Node

Date: Fri Dec 16 15:44:09 EST 2022
User: dcclab
Spectrometer: QEP03738
Trigger mode: 4
Integration Time (sec): 1.000000E1
Scans to average: 1
Electric dark correction enabled: true
Nonlinearity correction enabled: false
Boxcar width: 0
XAxis mode: Wavelengths
Number of Pixels in Spectrum: 1044
>>>>>Begin Spectral Data<<<<<
784.041	11.25
784.3	-0.75
784.558	-1.75
784.817	-6.75
785.075	111013.25
785.334	19367.25
785.592	9133.25
785.851	6328.25
786.109	4750.25
786.368	3736.25
786.626	2963.25
786.884	2416.25
787.143	2076.25
787.401	1711.25
787.659	1509.25
787.917	1321.25
788.175	1174.25
788.433	1045.25
788.691	951.25
788.949	882.25
789.207	811.25
789.465	747.25
789.723	691.25
789.98	637.25
790.238	662.25
790.496	644.25
790.753	620.25
791.011	642.25
791.268	585.25
791.526	560.25
791.783	600.25
792.041	546.25
792.298	481.25
792.556	547.25
792.813	525.25
793.07	496.25
793.327	495.25
793.584	571.25
793.841	493.25
794.099	493.25
794.356	565.25
794.613	465.25
794.869	506.25
795.126	460.25
795.383	446.25
795.64	474.25
795.897	430.25
796.153	486.25
796.41	481.25
796.667	455.25
796.923	458.25
797.18	464.25
797.436	497.25
797.693	453.25
797.949	505.25
798.206	539.25
798.462	454.25
798.718	521.25
798.974	494.25
799.231	555.25
799.487	528.25
799.743	537.25
799.999	594.25
800.255	580.25
800.511	564.25
800.767	608.25
801.023	631.25
801.279	668.25
801.534	715.25
801.79	792.25
802.046	837.25
802.302	1020.25
802.557	1189.25
802.813	1555.25
803.068	1941.25
803.324	2747.25
803.579	3787.25
803.835	5273.25
804.09	7242.25
804.345	9541.25
804.601	12053.25
804.856	14601.25
805.111	16770.25
805.366	18589.25
805.621	19853.25
805.876	20781.25
806.131	21331.25
806.386	21839.25
806.641	22095.25
806.896	22604.25
807.151	22866.25
807.406	23229.25
807.661	23634.25
807.915	24145.25
808.17	24554.25
808.425	24754.25
808.679	24892.25
808.934	25277.25
809.188	25352.25
809.443	25675.25
809.697	25974.25
809.951	26164.25
810.206	26444.25
810.46	26732.25
810.714	26966.25
810.968	27175.25
811.223	27370.25
811.477	27545.25
811.731	27810.25
811.985	27850.25
812.239	28030.25
812.493	28330.25
812.747	28321.25
813	28425.25
813.254	28622.25
813.508	28683.25
813.762	28788.25
814.015	28978.25
814.269	29185.25
814.522	29478.25
814.776	29822.25
815.03	30155.25
815.283	30471.25
815.536	31097.25
815.79	31595.25
816.043	31891.25
816.296	32445.25
816.55	32713.25
816.803	33090.25
817.056	33483.25
817.309	33823.25
817.562	34198.25
817.815	34465.25
818.068	34582.25
818.321	35081.25
818.574	35400.25
818.827	35826.25
819.079	36299.25
819.332	37078.25
819.585	37229.25
819.838	37715.25
820.09	37974.25
820.343	38437.25
820.595	38379.25
820.848	38709.25
821.1	38846.25
821.353	38841.25
821.605	38934.25
821.857	38773.25
822.11	38784.25
822.362	38541.25
822.614	38587.25
822.866	38562.25
823.118	38542.25
823.37	38650.25
823.622	38796.25
823.874	38956.25
824.126	39037.25
824.378	38961.25
824.63	39144.25
824.882	39312.25
825.134	39285.25
825.385	39112.25
825.637	39071.25
825.888	39075.25
826.14	38939.25
826.392	38794.25
826.643	38536.25
826.895	38484.25
827.146	38213.25
827.397	38294.25
827.649	38332.25
827.9	38135.25
828.151	38410.25
828.402	38368.25
828.653	38377.25
828.905	38620.25
829.156	38641.25
829.407	38451.25
829.658	38537.25
829.909	38718.25
830.159	38478.25
830.41	38420.25
830.661	38047.25
830.912	37810.25
831.162	37590.25
831.413	37679.25
831.664	37681.25
831.914	37523.25
832.165	37458.25
832.415	37583.25
832.666	37495.25
832.916	37642.25
833.167	37483.25
833.417	37528.25
833.667	37358.25
833.917	37182.25
834.168	37083.25
834.418	36995.25
834.668	36883.25
834.918	36802.25
835.168	36537.25
835.418	36405.25
835.668	36346.25
835.918	36250.25
836.167	36137.25
836.417	35976.25
836.667	35930.25
836.917	35992.25
837.166	35892.25
837.416	35920.25
837.666	35771.25
837.915	35897.25
838.165	35812.25
838.414	35513.25
838.663	35663.25
838.913	35418.25
839.162	35320.25
839.411	35467.25
839.661	35113.25
839.91	35191.25
840.159	35032.25
840.408	35068.25
840.657	35017.25
840.906	34939.25
841.155	35014.25
841.404	34998.25
841.653	35055.25
841.902	34861.25
842.15	35095.25
842.399	35081.25
842.648	34942.25
842.897	34802.25
843.145	34714.25
843.394	34393.25
843.642	34205.25
843.891	34056.25
844.139	33922.25
844.388	33763.25
844.636	33676.25
844.884	33493.25
845.133	33431.25
845.381	33356.25
845.629	33342.25
845.877	33327.25
846.125	33349.25
846.373	33213.25
846.621	33076.25
846.869	33067.25
847.117	32767.25
847.365	32736.25
847.613	32489.25
847.861	32275.25
848.108	32359.25
848.356	32285.25
848.604	32025.25
848.851	32307.25
849.099	32206.25
849.346	32181.25
849.594	32484.25
849.841	32539.25
850.089	32498.25
850.336	32514.25
850.583	32484.25
850.831	32209.25
851.078	32087.25
851.325	32103.25
851.572	32001.25
851.819	31670.25
852.066	31261.25
852.313	30934.25
852.56	30547.25
852.807	30484.25
853.054	30341.25
853.301	30429.25
853.548	30374.25
853.794	30391.25
854.041	30593.25
854.288	30679.25
854.534	30938.25
854.781	30957.25
855.028	30676.25
855.274	30762.25
855.52	30520.25
855.767	30340.25
856.013	30353.25
856.26	30606.25
856.506	30194.25
856.752	30073.25
856.998	30024.25
857.244	30029.25
857.49	30159.25
857.736	30192.25
857.982	30265.25
858.228	30086.25
858.474	29885.25
858.72	29667.25
858.966	29566.25
859.212	29160.25
859.458	28886.25
859.703	28616.25
859.949	28375.25
860.195	28276.25
860.44	28084.25
860.686	27962.25
860.931	27853.25
861.177	27660.25
861.422	27641.25
861.667	27573.25
861.913	27581.25
862.158	27623.25
862.403	27682.25
862.648	27764.25
862.893	27588.25
863.138	27672.25
863.384	27542.25
863.629	27594.25
863.873	27542.25
864.118	27413.25
864.363	27353.25
864.608	27244.25
864.853	27175.25
865.098	26992.25
865.342	26872.25
865.587	26696.25
865.832	26715.25
866.076	26617.25
866.321	26564.25
866.565	26471.25
866.81	26253.25
867.054	26262.25
867.298	26280.25
867.543	25966.25
867.787	25983.25
868.031	26004.25
868.275	25898.25
868.519	25752.25
868.764	25748.25
869.008	25586.25
869.252	25606.25
869.496	25501.25
869.739	25419.25
869.983	25518.25
870.227	25464.25
870.471	25393.25
870.715	25491.25
870.958	25593.25
871.202	25409.25
871.446	25571.25
871.689	25491.25
871.933	25599.25
872.176	25497.25
872.42	25453.25
872.663	25390.25
872.906	25298.25
873.15	25083.25
873.393	24988.25
873.636	25060.25
873.879	24788.25
874.122	24580.25
874.366	24125.25
874.609	24092.25
874.852	23844.25
875.095	23804.25
875.337	23613.25
875.58	23522.25
875.823	23535.25
876.066	23398.25
876.309	23254.25
876.551	23217.25
876.794	23054.25
877.037	23077.25
877.279	22961.25
877.522	23114.25
877.764	23062.25
878.007	22969.25
878.249	22980.25
878.491	22821.25
878.734	22826.25
878.976	22817.25
879.218	22639.25
879.46	22589.25
879.702	22403.25
879.945	22183.25
880.187	22043.25
880.429	21916.25
880.671	21843.25
880.912	21757.25
881.154	21703.25
881.396	21561.25
881.638	21666.25
881.88	21461.25
882.121	21487.25
882.363	21365.25
882.605	21401.25
882.846	21424.25
883.088	21357.25
883.329	21268.25
883.571	21155.25
883.812	21175.25
884.053	21479.25
884.295	21698.25
884.536	21994.25
884.777	21692.25
885.018	21628.25
885.259	21552.25
885.5	21460.25
885.742	21686.25
885.982	21490.25
886.223	21172.25
886.464	21128.25
886.705	20937.25
886.946	20935.25
887.187	20536.25
887.428	20426.25
887.668	20145.25
887.909	19817.25
888.15	19742.25
888.39	19696.25
888.631	19587.25
888.871	19317.25
889.111	19168.25
889.352	19081.25
889.592	18830.25
889.833	18715.25
890.073	18737.25
890.313	18641.25
890.553	18440.25
890.793	18301.25
891.033	18264.25
891.273	18123.25
891.513	18028.25
891.753	18137.25
891.993	18039.25
892.233	18050.25
892.473	18261.25
892.713	18081.25
892.952	18094.25
893.192	18198.25
893.432	18044.25
893.671	17987.25
893.911	17923.25
894.15	17871.25
894.39	17731.25
894.629	17615.25
894.869	17585.25
895.108	17367.25
895.347	17322.25
895.587	17157.25
895.826	17221.25
896.065	17151.25
896.304	17102.25
896.543	17065.25
896.782	16979.25
897.021	17021.25
897.26	16928.25
897.499	16853.25
897.738	16793.25
897.977	16757.25
898.216	16599.25
898.454	16488.25
898.693	16362.25
898.932	16318.25
899.17	16234.25
899.409	16210.25
899.647	16090.25
899.886	15967.25
900.124	16173.25
900.363	16048.25
900.601	15977.25
900.839	16144.25
901.078	16102.25
901.316	16141.25
901.554	16152.25
901.792	16164.25
902.03	16176.25
902.268	16223.25
902.506	16081.25
902.744	15983.25
902.982	15864.25
903.22	15652.25
903.458	15554.25
903.695	15340.25
903.933	15180.25
904.171	14876.25
904.409	14747.25
904.646	14553.25
904.884	14436.25
905.121	14253.25
905.359	14172.25
905.596	13970.25
905.833	13939.25
906.071	13833.25
906.308	13799.25
906.545	13736.25
906.783	13660.25
907.02	13671.25
907.257	13588.25
907.494	13572.25
907.731	13592.25
907.968	13498.25
908.205	13330.25
908.442	13316.25
908.679	13215.25
908.915	13138.25
909.152	12999.25
909.389	12860.25
909.626	12779.25
909.862	12758.25
910.099	12665.25
910.335	12647.25
910.572	12517.25
910.808	12558.25
911.045	12495.25
911.281	12369.25
911.518	12366.25
911.754	12320.25
911.99	12248.25
912.226	12179.25
912.463	12069.25
912.699	11966.25
912.935	11890.25
913.171	11820.25
913.407	11677.25
913.643	11584.25
913.879	11483.25
914.114	11420.25
914.35	11263.25
914.586	11174.25
914.822	11098.25
915.057	11060.25
915.293	10835.25
915.529	10823.25
915.764	10913.25
916	10853.25
916.235	10788.25
916.471	10770.25
916.706	10617.25
916.941	10674.25
917.177	10722.25
917.412	10660.25
917.647	10642.25
917.882	10578.25
918.117	10673.25
918.352	10514.25
918.588	10592.25
918.823	10442.25
919.057	10390.25
919.292	10158.25
919.527	10204.25
919.762	10002.25
919.997	10027.25
920.232	9822.25
920.466	9801.25
920.701	9618.25
920.935	9618.25
921.17	9613.25
921.405	9465.25
921.639	9495.25
921.873	9360.25
922.108	9410.25
922.342	9453.25
922.576	9327.25
922.811	9269.25
923.045	9251.25
923.279	9288.25
923.513	9117.25
923.747	9076.25
923.981	9075.25
924.215	9020.25
924.449	8920.25
924.683	8867.25
924.917	8808.25
925.151	8737.25
925.385	8806.25
925.618	8705.25
925.852	8689.25
926.086	8599.25
926.319	8598.25
926.553	8648.25
926.786	8682.25
927.02	8580.25
927.253	8618.25
927.486	8633.25
927.72	8563.25
927.953	8588.25
928.186	8514.25
928.42	8531.25
928.653	8332.25
928.886	8290.25
929.119	8393.25
929.352	8299.25
929.585	8238.25
929.818	8178.25
930.051	8173.25
930.284	8055.25
930.516	7927.25
930.749	7882.25
930.982	7909.25
931.215	7862.25
931.447	7711.25
931.68	7797.25
931.912	7782.25
932.145	7747.25
932.377	7674.25
932.61	7856.25
932.842	7624.25
933.074	7701.25
933.307	7698.25
933.539	7702.25
933.771	7728.25
934.003	7619.25
934.236	7684.25
934.468	7718.25
934.7	7632.25
934.932	7684.25
935.164	7508.25
935.395	7524.25
935.627	7483.25
935.859	7490.25
936.091	7383.25
936.323	7466.25
936.554	7426.25
936.786	7348.25
937.017	7327.25
937.249	7313.25
937.481	7207.25
937.712	7292.25
937.943	7229.25
938.175	7240.25
938.406	7151.25
938.637	7269.25
938.869	7129.25
939.1	7191.25
939.331	7117.25
939.562	7118.25
939.793	7078.25
940.024	7067.25
940.255	7053.25
940.486	6984.25
940.717	6899.25
940.948	6896.25
941.179	6880.25
941.409	6860.25
941.64	6808.25
941.871	6899.25
942.102	6837.25
942.332	6808.25
942.563	6887.25
942.793	6847.25
943.024	6802.25
943.254	6747.25
943.484	6825.25
943.715	6843.25
943.945	6767.25
944.175	6724.25
944.405	6713.25
944.636	6696.25
944.866	6681.25
945.096	6766.25
945.326	6623.25
945.556	6649.25
945.786	6682.25
946.016	6604.25
946.245	6514.25
946.475	6496.25
946.705	6472.25
946.935	6377.25
947.164	6395.25
947.394	6306.25
947.624	6282.25
947.853	6331.25
948.083	6248.25
948.312	6208.25
948.542	6131.25
948.771	6124.25
949	6147.25
949.23	6083.25
949.459	6123.25
949.688	6175.25
949.917	6049.25
950.146	6098.25
950.375	6138.25
950.604	6002.25
950.833	6098.25
951.062	6035.25
951.291	6017.25
951.52	5991.25
951.749	5970.25
951.978	5915.25
952.206	5899.25
952.435	5858.25
952.664	5925.25
952.892	5844.25
953.121	5881.25
953.349	5822.25
953.578	5761.25
953.806	5740.25
954.035	5651.25
954.263	5699.25
954.491	5674.25
954.719	5668.25
954.948	5632.25
955.176	5635.25
955.404	5499.25
955.632	5555.25
955.86	5517.25
956.088	5463.25
956.316	5493.25
956.544	5505.25
956.772	5346.25
956.999	5345.25
957.227	5387.25
957.455	5337.25
957.683	5272.25
957.91	5230.25
958.138	5169.25
958.365	5202.25
958.593	5146.25
958.82	5105.25
959.048	5159.25
959.275	5122.25
959.502	5104.25
959.73	5074.25
959.957	5062.25
960.184	5086.25
960.411	5020.25
960.638	5103.25
960.865	5084.25
961.092	5059.25
961.319	4922.25
961.546	5023.25
961.773	5037.25
962	5049.25
962.227	4978.25
962.454	4955.25
962.68	4907.25
962.907	4967.25
963.134	4835.25
963.36	4843.25
963.587	4830.25
963.813	4789.25
964.04	4824.25
964.266	4723.25
964.493	4790.25
964.719	4739.25
964.945	4692.25
965.171	4640.25
965.398	4610.25
965.624	4606.25
965.85	4544.25
966.076	4549.25
966.302	4535.25
966.528	4485.25
966.754	4559.25
966.98	4512.25
967.206	4491.25
967.431	4397.25
967.657	4448.25
967.883	4431.25
968.109	4388.25
968.334	4326.25
968.56	4312.25
968.785	4318.25
969.011	4306.25
969.236	4347.25
969.462	4277.25
969.687	4251.25
969.912	4271.25
970.138	4318.25
970.363	4198.25
970.588	4209.25
970.813	4232.25
971.038	4148.25
971.263	4188.25
971.488	4181.25
971.713	4150.25
971.938	4115.25
972.163	4037.25
972.388	4071.25
972.613	4044.25
972.838	4050.25
973.062	4007.25
973.287	3977.25
973.512	3933.25
973.736	3990.25
973.961	3913.25
974.185	3856.25
974.41	3909.25
974.634	3800.25
974.858	3803.25
975.083	3822.25
975.307	3904.25
975.531	3749.25
975.755	3696.25
975.98	3738.25
976.204	3628.25
976.428	3617.25
976.652	3641.25
976.876	3623.25
977.1	3610.25
977.324	3585.25
977.547	3634.25
977.771	3610.25
977.995	3534.25
978.219	3456.25
978.442	3618.25
978.666	3585.25
978.89	3486.25
979.113	3535.25
979.337	3458.25
979.56	3450.25
979.783	3530.25
980.007	3436.25
980.23	3441.25
980.453	3405.25
980.677	3400.25
980.9	3385.25
981.123	3314.25
981.346	3397.25
981.569	3367.25
981.792	3338.25
982.015	3282.25
982.238	3260.25
982.461	3265.25
982.684	3225.25
982.907	3191.25
983.129	3148.25
983.352	3208.25
983.575	3158.25
983.797	3202.25
984.02	3124.25
984.242	3120.25
984.465	3089.25
984.687	3129.25
984.91	3132.25
985.132	3084.25
985.354	3070.25
985.577	3071.25
985.799	3035.25
986.021	2950.25
986.243	2959.25
986.465	2985.25
986.687	3021.25
986.909	3036.25
987.131	3004.25
987.353	2953.25
987.575	2962.25
987.797	2907.25
988.019	2845.25
988.241	2918.25
988.462	2830.25
988.684	2863.25
988.906	2954.25
989.127	2948.25
989.349	2790.25
989.57	2861.25
989.792	2868.25
990.013	2886.25
990.234	2879.25
990.456	2864.25
990.677	2818.25
990.898	2797.25
991.119	2798.25
991.341	2790.25
991.562	2738.25
991.783	2746.25
992.004	2662.25
992.225	2644.25
992.446	2698.25
992.667	2617.25
992.887	2703.25
993.108	2581.25
993.329	2657.25
993.55	2637.25
993.77	2564.25
993.991	2533.25
994.212	2604.25
994.432	2549.25
994.653	2538.25
994.873	2559.25
995.093	2440.25
995.314	2472.25
995.534	2518.25
995.754	2531.25
995.975	2569.25
996.195	2431.25
996.415	2483.25
996.635	2454.25
996.855	2469.25
997.075	2424.25
997.295	2462.25
997.515	2397.25
997.735	2452.25
997.955	2391.25
998.174	2328.25
998.394	2371.25
998.614	2377.25
998.834	2336.25
999.053	2421.25
999.273	2367.25
999.492	2415.25
999.712	2363.25
999.931	2318.25
1000.151	2361.25
1000.37	2322.25
1000.589	2366.25
1000.809	2279.25
1001.028	2379.25
1001.247	2324.25
1001.466	2218.25
1001.685	2339.25
1001.904	2246.25
1002.123	2241.25
1002.342	2229.25
1002.561	2180.25
1002.78	2222.25
1002.999	2266.25
1003.218	2204.25
1003.436	2161.25
1003.655	2196.25
1003.874	2151.25
1004.092	2184.25
1004.311	2197.25
1004.53	2134.25
1004.748	2213.25
1004.966	2130.25
1005.185	2189.25
1005.403	2178.25
1005.622	2139.25
1005.84	2204.25
1006.058	2105.25
1006.276	2107.25
1006.494	2579.25
1006.712	2101.25
1006.931	2179.25
1007.149	2086.25
1007.367	2115.25
1007.584	2110.25
1007.802	2159.25
1008.02	2095.25
1008.238	2202.25
1008.456	2165.25
1008.673	2049.25
1008.891	2154.25
1009.109	2108.25
1009.326	2171.25
1009.544	2220.25
1009.761	2134.25
1009.979	2223.25
1010.196	2263.25
1010.413	2315.25
1010.631	2416.25
1010.848	2451.25
1011.065	2429.25
1011.282	2394.25
1011.5	2398.25
1011.717	2446.25
1011.934	2382.25
1012.151	2365.25
1012.368	2369.25
1012.585	2297.25
1012.801	2366.25
1013.018	2302.25
1013.235	2320.25
1013.452	2287.25
1013.669	2348.25
1013.885	2308.25
1014.102	2346.25
1014.318	2321.25
1014.535	2266.25
1014.751	2277.25
1014.968	2317.25
1015.184	2307.25
1015.401	2196.25
1015.617	2221.25
1015.833	2166.25
1016.049	2169.25
1016.266	2118.25
1016.482	2098.25
1016.698	2049.25
1016.914	2112.25
1017.13	2055.25
1017.346	2009.25
1017.562	2082.25
1017.778	2017.25
1017.993	1990.25
1018.209	2050.25
1018.425	2031.25
1018.641	1975.25
1018.856	1936.25
1019.072	1969.25
1019.288	2036.25
1019.503	1970.25
1019.719	1885.25
1019.934	1869.25
1020.149	1969.25
1020.365	1915.25
1020.58	1813.25
1020.795	1880.25
1021.011	1784.25
1021.226	1762.25
1021.441	1768.25
1021.656	1689.25
1021.871	1640.25
1022.086	1640.25
1022.301	1599.25
1022.516	1594.25
1022.731	1647.25
1022.946	1536.25
1023.16	1532.25
1023.375	1495.25
1023.59	1475.25
1023.804	1423.25
1024.019	1523.25
1024.234	1404.25
1024.448	1422.25
1024.663	1330.25
1024.877	1337.25
1025.092	1372.25
1025.306	1365.25
1025.52	1242.25
1025.734	1328.25
1025.949	1230.25
1026.163	1191.25
1026.377	1147.25
1026.591	1163.25
1026.805	1096.25
1027.019	1105.25
1027.233	1087.25
1027.447	1006.25
1027.661	1076.25
1027.875	1028.25
1028.088	1033.25
1028.302	950.25
1028.516	950.25
1028.73	943.25
1028.943	915.25
1029.157	834.25
1029.37	801.25
1029.584	-3.75
1029.797	0.25
1030.011	-0.75
1030.224	2.25
