Data from QEP037381__154__15-49-09-884.txt Node

Date: Fri Dec 16 15:49:09 EST 2022
User: dcclab
Spectrometer: QEP03738
Trigger mode: 4
Integration Time (sec): 1.000000E1
Scans to average: 1
Electric dark correction enabled: true
Nonlinearity correction enabled: false
Boxcar width: 0
XAxis mode: Wavelengths
Number of Pixels in Spectrum: 1044
>>>>>Begin Spectral Data<<<<<
784.041	11.75
784.3	1.75
784.558	-5.25
784.817	-2.25
785.075	112964.75
785.334	19844.75
785.592	9556.75
785.851	6640.75
786.109	4946.75
786.368	3823.75
786.626	3107.75
786.884	2544.75
787.143	2143.75
787.401	1765.75
787.659	1572.75
787.917	1362.75
788.175	1217.75
788.433	1056.75
788.691	929.75
788.949	878.75
789.207	827.75
789.465	732.75
789.723	696.75
789.98	639.75
790.238	687.75
790.496	625.75
790.753	595.75
791.011	634.75
791.268	575.75
791.526	554.75
791.783	564.75
792.041	552.75
792.298	472.75
792.556	532.75
792.813	509.75
793.07	476.75
793.327	463.75
793.584	565.75
793.841	467.75
794.099	495.75
794.356	548.75
794.613	451.75
794.869	492.75
795.126	460.75
795.383	438.75
795.64	442.75
795.897	410.75
796.153	461.75
796.41	449.75
796.667	432.75
796.923	433.75
797.18	438.75
797.436	475.75
797.693	429.75
797.949	477.75
798.206	509.75
798.462	417.75
798.718	485.75
798.974	468.75
799.231	498.75
799.487	511.75
799.743	505.75
799.999	535.75
800.255	527.75
800.511	524.75
800.767	568.75
801.023	553.75
801.279	596.75
801.534	620.75
801.79	692.75
802.046	706.75
802.302	874.75
802.557	1011.75
802.813	1252.75
803.068	1546.75
803.324	2164.75
803.579	2954.75
803.835	4113.75
804.09	5658.75
804.345	7328.75
804.601	9337.75
804.856	11282.75
805.111	13056.75
805.366	14498.75
805.621	15421.75
805.876	16053.75
806.131	16570.75
806.386	16821.75
806.641	17001.75
806.896	17331.75
807.151	17701.75
807.406	17967.75
807.661	18254.75
807.915	18493.75
808.17	18703.75
808.425	18920.75
808.679	19009.75
808.934	19373.75
809.188	19521.75
809.443	19667.75
809.697	19877.75
809.951	20044.75
810.206	20317.75
810.46	20334.75
810.714	20478.75
810.968	20766.75
811.223	20881.75
811.477	20991.75
811.731	21299.75
811.985	21344.75
812.239	21472.75
812.493	21427.75
812.747	21480.75
813	21615.75
813.254	21749.75
813.508	21869.75
813.762	21880.75
814.015	21948.75
814.269	22170.75
814.522	22184.75
814.776	22398.75
815.03	22801.75
815.283	23075.75
815.536	23375.75
815.79	23699.75
816.043	24132.75
816.296	24385.75
816.55	24676.75
816.803	24922.75
817.056	25280.75
817.309	25415.75
817.562	25625.75
817.815	25961.75
818.068	25874.75
818.321	26301.75
818.574	26505.75
818.827	26836.75
819.079	27225.75
819.332	27643.75
819.585	27902.75
819.838	28149.75
820.09	28406.75
820.343	28748.75
820.595	28697.75
820.848	28783.75
821.1	29138.75
821.353	29039.75
821.605	28938.75
821.857	28971.75
822.11	28780.75
822.362	28825.75
822.614	28680.75
822.866	28616.75
823.118	28785.75
823.37	28767.75
823.622	28793.75
823.874	28918.75
824.126	29100.75
824.378	29102.75
824.63	29104.75
824.882	29176.75
825.134	29115.75
825.385	29172.75
825.637	28976.75
825.888	28917.75
826.14	28862.75
826.392	28746.75
826.643	28484.75
826.895	28426.75
827.146	28298.75
827.397	28353.75
827.649	28368.75
827.9	28314.75
828.151	28176.75
828.402	28302.75
828.653	28474.75
828.905	28480.75
829.156	28689.75
829.407	28548.75
829.658	28426.75
829.909	28577.75
830.159	28554.75
830.41	28452.75
830.661	28186.75
830.912	27981.75
831.162	27871.75
831.413	27748.75
831.664	27848.75
831.914	27818.75
832.165	27747.75
832.415	27658.75
832.666	27682.75
832.916	27867.75
833.167	27787.75
833.417	27747.75
833.667	27634.75
833.917	27472.75
834.168	27374.75
834.418	27359.75
834.668	27317.75
834.918	27144.75
835.168	26950.75
835.418	26877.75
835.668	26681.75
835.918	26757.75
836.167	26573.75
836.417	26593.75
836.667	26576.75
836.917	26538.75
837.166	26384.75
837.416	26499.75
837.666	26428.75
837.915	26377.75
838.165	26424.75
838.414	26357.75
838.663	26116.75
838.913	26197.75
839.162	26087.75
839.411	25968.75
839.661	25857.75
839.91	25864.75
840.159	25777.75
840.408	25812.75
840.657	25801.75
840.906	25835.75
841.155	25800.75
841.404	25691.75
841.653	25755.75
841.902	25704.75
842.15	25832.75
842.399	25820.75
842.648	25746.75
842.897	25621.75
843.145	25487.75
843.394	25384.75
843.642	25209.75
843.891	25046.75
844.139	24955.75
844.388	24791.75
844.636	24657.75
844.884	24670.75
845.133	24685.75
845.381	24522.75
845.629	24630.75
845.877	24522.75
846.125	24511.75
846.373	24536.75
846.621	24267.75
846.869	24291.75
847.117	24095.75
847.365	23942.75
847.613	23925.75
847.861	23771.75
848.108	23797.75
848.356	23779.75
848.604	23615.75
848.851	23628.75
849.099	23660.75
849.346	23729.75
849.594	23789.75
849.841	23862.75
850.089	23964.75
850.336	23820.75
850.583	23829.75
850.831	23838.75
851.078	23553.75
851.325	23541.75
851.572	23558.75
851.819	23302.75
852.066	23053.75
852.313	22637.75
852.56	22569.75
852.807	22342.75
853.054	22314.75
853.301	22375.75
853.548	22217.75
853.794	22414.75
854.041	22499.75
854.288	22554.75
854.534	22797.75
854.781	22814.75
855.028	22611.75
855.274	22602.75
855.52	22399.75
855.767	22257.75
856.013	22387.75
856.26	22616.75
856.506	22193.75
856.752	22102.75
856.998	22028.75
857.244	22127.75
857.49	22201.75
857.736	22215.75
857.982	22220.75
858.228	22175.75
858.474	21954.75
858.72	21878.75
858.966	21731.75
859.212	21541.75
859.458	21266.75
859.703	21034.75
859.949	20816.75
860.195	20688.75
860.44	20529.75
860.686	20534.75
860.931	20590.75
861.177	20286.75
861.422	20423.75
861.667	20191.75
861.913	20171.75
862.158	20285.75
862.403	20324.75
862.648	20321.75
862.893	20273.75
863.138	20266.75
863.384	20213.75
863.629	20200.75
863.873	20140.75
864.118	20021.75
864.363	19971.75
864.608	19862.75
864.853	19952.75
865.098	19678.75
865.342	19757.75
865.587	19534.75
865.832	19594.75
866.076	19440.75
866.321	19358.75
866.565	19321.75
866.81	19209.75
867.054	19229.75
867.298	19011.75
867.543	19133.75
867.787	19084.75
868.031	19023.75
868.275	18934.75
868.519	18992.75
868.764	18858.75
869.008	18820.75
869.252	18804.75
869.496	18737.75
869.739	18653.75
869.983	18730.75
870.227	18649.75
870.471	18617.75
870.715	18618.75
870.958	18657.75
871.202	18713.75
871.446	18759.75
871.689	18759.75
871.933	18792.75
872.176	18725.75
872.42	18687.75
872.663	18596.75
872.906	18699.75
873.15	18600.75
873.393	18409.75
873.636	18448.75
873.879	18250.75
874.122	18108.75
874.366	17827.75
874.609	17663.75
874.852	17526.75
875.095	17357.75
875.337	17357.75
875.58	17202.75
875.823	17268.75
876.066	17201.75
876.309	17097.75
876.551	16931.75
876.794	16872.75
877.037	16893.75
877.279	16739.75
877.522	16841.75
877.764	16839.75
878.007	16851.75
878.249	16862.75
878.491	16685.75
878.734	16734.75
878.976	16622.75
879.218	16523.75
879.46	16438.75
879.702	16395.75
879.945	16221.75
880.187	16070.75
880.429	16003.75
880.671	15867.75
880.912	15808.75
881.154	15802.75
881.396	15690.75
881.638	15708.75
881.88	15760.75
882.121	15696.75
882.363	15707.75
882.605	15615.75
882.846	15544.75
883.088	15606.75
883.329	15495.75
883.571	15602.75
883.812	15643.75
884.053	15870.75
884.295	16055.75
884.536	16289.75
884.777	16124.75
885.018	16140.75
885.259	16056.75
885.5	15851.75
885.742	16128.75
885.982	15806.75
886.223	15694.75
886.464	15610.75
886.705	15395.75
886.946	15375.75
887.187	15063.75
887.428	14968.75
887.668	14705.75
887.909	14566.75
888.15	14275.75
888.39	14376.75
888.631	14210.75
888.871	14101.75
889.111	13974.75
889.352	13909.75
889.592	13729.75
889.833	13662.75
890.073	13597.75
890.313	13583.75
890.553	13379.75
890.793	13344.75
891.033	13289.75
891.273	13177.75
891.513	13180.75
891.753	13174.75
891.993	13096.75
892.233	13156.75
892.473	13266.75
892.713	13209.75
892.952	13146.75
893.192	13183.75
893.432	13108.75
893.671	13093.75
893.911	13019.75
894.15	12861.75
894.39	12763.75
894.629	12821.75
894.869	12729.75
895.108	12675.75
895.347	12533.75
895.587	12541.75
895.826	12486.75
896.065	12417.75
896.304	12481.75
896.543	12432.75
896.782	12364.75
897.021	12392.75
897.26	12336.75
897.499	12350.75
897.738	12372.75
897.977	12149.75
898.216	12097.75
898.454	11973.75
898.693	11867.75
898.932	11848.75
899.17	11777.75
899.409	11769.75
899.647	11717.75
899.886	11758.75
900.124	11747.75
900.363	11675.75
900.601	11812.75
900.839	11771.75
901.078	11712.75
901.316	11811.75
901.554	11786.75
901.792	11846.75
902.03	11869.75
902.268	11806.75
902.506	11880.75
902.744	11709.75
902.982	11717.75
903.22	11390.75
903.458	11344.75
903.695	11203.75
903.933	11073.75
904.171	10937.75
904.409	10672.75
904.646	10646.75
904.884	10459.75
905.121	10412.75
905.359	10248.75
905.596	10195.75
905.833	10076.75
906.071	10040.75
906.308	10044.75
906.545	9964.75
906.783	9871.75
907.02	9900.75
907.257	9898.75
907.494	9774.75
907.731	9807.75
907.968	9736.75
908.205	9613.75
908.442	9588.75
908.679	9587.75
908.915	9477.75
909.152	9428.75
909.389	9318.75
909.626	9303.75
909.862	9211.75
910.099	9179.75
910.335	9184.75
910.572	9060.75
910.808	9095.75
911.045	9007.75
911.281	8989.75
911.518	8989.75
911.754	8886.75
911.99	8884.75
912.226	8787.75
912.463	8737.75
912.699	8725.75
912.935	8570.75
913.171	8489.75
913.407	8400.75
913.643	8402.75
913.879	8291.75
914.114	8243.75
914.35	8135.75
914.586	8087.75
914.822	7984.75
915.057	8048.75
915.293	7887.75
915.529	7795.75
915.764	7921.75
916	7842.75
916.235	7766.75
916.471	7850.75
916.706	7739.75
916.941	7784.75
917.177	7654.75
917.412	7670.75
917.647	7759.75
917.882	7641.75
918.117	7711.75
918.352	7670.75
918.588	7677.75
918.823	7595.75
919.057	7490.75
919.292	7370.75
919.527	7315.75
919.762	7263.75
919.997	7267.75
920.232	7113.75
920.466	7086.75
920.701	6914.75
920.935	6978.75
921.17	6917.75
921.405	6879.75
921.639	6943.75
921.873	6812.75
922.108	6842.75
922.342	6833.75
922.576	6729.75
922.811	6668.75
923.045	6728.75
923.279	6759.75
923.513	6569.75
923.747	6608.75
923.981	6530.75
924.215	6518.75
924.449	6457.75
924.683	6383.75
924.917	6355.75
925.151	6364.75
925.385	6427.75
925.618	6288.75
925.852	6302.75
926.086	6242.75
926.319	6216.75
926.553	6272.75
926.786	6270.75
927.02	6242.75
927.253	6283.75
927.486	6218.75
927.72	6138.75
927.953	6186.75
928.186	6150.75
928.42	6132.75
928.653	6129.75
928.886	6027.75
929.119	6086.75
929.352	6045.75
929.585	6036.75
929.818	5927.75
930.051	5919.75
930.284	5854.75
930.516	5761.75
930.749	5768.75
930.982	5748.75
931.215	5745.75
931.447	5645.75
931.68	5629.75
931.912	5615.75
932.145	5530.75
932.377	5582.75
932.61	5767.75
932.842	5520.75
933.074	5613.75
933.307	5545.75
933.539	5710.75
933.771	5640.75
934.003	5579.75
934.236	5642.75
934.468	5626.75
934.7	5498.75
934.932	5530.75
935.164	5527.75
935.395	5489.75
935.627	5469.75
935.859	5478.75
936.091	5400.75
936.323	5483.75
936.554	5371.75
936.786	5384.75
937.017	5347.75
937.249	5310.75
937.481	5211.75
937.712	5266.75
937.943	5286.75
938.175	5283.75
938.406	5267.75
938.637	5313.75
938.869	5187.75
939.1	5201.75
939.331	5188.75
939.562	5171.75
939.793	5174.75
940.024	5183.75
940.255	5176.75
940.486	5053.75
940.717	5066.75
940.948	5091.75
941.179	4971.75
941.409	5033.75
941.64	5016.75
941.871	4965.75
942.102	4974.75
942.332	5015.75
942.563	5011.75
942.793	4963.75
943.024	4942.75
943.254	4932.75
943.484	4989.75
943.715	4927.75
943.945	4970.75
944.175	4889.75
944.405	4850.75
944.636	4878.75
944.866	4901.75
945.096	4945.75
945.326	4799.75
945.556	4871.75
945.786	4875.75
946.016	4774.75
946.245	4699.75
946.475	4697.75
946.705	4674.75
946.935	4673.75
947.164	4646.75
947.394	4538.75
947.624	4615.75
947.853	4586.75
948.083	4572.75
948.312	4539.75
948.542	4480.75
948.771	4459.75
949	4472.75
949.23	4432.75
949.459	4450.75
949.688	4573.75
949.917	4385.75
950.146	4456.75
950.375	4508.75
950.604	4393.75
950.833	4473.75
951.062	4473.75
951.291	4399.75
951.52	4311.75
951.749	4353.75
951.978	4315.75
952.206	4309.75
952.435	4315.75
952.664	4309.75
952.892	4312.75
953.121	4260.75
953.349	4330.75
953.578	4235.75
953.806	4229.75
954.035	4167.75
954.263	4181.75
954.491	4082.75
954.719	4164.75
954.948	4106.75
955.176	4087.75
955.404	3999.75
955.632	4059.75
955.86	4040.75
956.088	4059.75
956.316	4022.75
956.544	4055.75
956.772	3951.75
956.999	3892.75
957.227	4011.75
957.455	3902.75
957.683	3943.75
957.91	3836.75
958.138	3832.75
958.365	3748.75
958.593	3798.75
958.82	3737.75
959.048	3800.75
959.275	3734.75
959.502	3755.75
959.73	3705.75
959.957	3739.75
960.184	3747.75
960.411	3718.75
960.638	3760.75
960.865	3674.75
961.092	3740.75
961.319	3662.75
961.546	3713.75
961.773	3719.75
962	3669.75
962.227	3743.75
962.454	3639.75
962.68	3642.75
962.907	3636.75
963.134	3549.75
963.36	3602.75
963.587	3574.75
963.813	3517.75
964.04	3501.75
964.266	3450.75
964.493	3538.75
964.719	3503.75
964.945	3488.75
965.171	3409.75
965.398	3392.75
965.624	3403.75
965.85	3338.75
966.076	3331.75
966.302	3361.75
966.528	3377.75
966.754	3341.75
966.98	3334.75
967.206	3299.75
967.431	3229.75
967.657	3308.75
967.883	3257.75
968.109	3320.75
968.334	3209.75
968.56	3193.75
968.785	3239.75
969.011	3133.75
969.236	3200.75
969.462	3193.75
969.687	3192.75
969.912	3150.75
970.138	3198.75
970.363	3142.75
970.588	3164.75
970.813	3110.75
971.038	3059.75
971.263	3071.75
971.488	3121.75
971.713	3140.75
971.938	3099.75
972.163	3001.75
972.388	3016.75
972.613	3034.75
972.838	3020.75
973.062	2960.75
973.287	2983.75
973.512	2910.75
973.736	2915.75
973.961	2877.75
974.185	2907.75
974.41	2911.75
974.634	2800.75
974.858	2816.75
975.083	2851.75
975.307	2867.75
975.531	2806.75
975.755	2738.75
975.98	2755.75
976.204	2704.75
976.428	2683.75
976.652	2700.75
976.876	2675.75
977.1	2649.75
977.324	2685.75
977.547	2678.75
977.771	2693.75
977.995	2674.75
978.219	2639.75
978.442	2700.75
978.666	2626.75
978.89	2625.75
979.113	2657.75
979.337	2661.75
979.56	2575.75
979.783	2666.75
980.007	2527.75
980.23	2571.75
980.453	2519.75
980.677	2568.75
980.9	2563.75
981.123	2430.75
981.346	2538.75
981.569	2507.75
981.792	2510.75
982.015	2426.75
982.238	2440.75
982.461	2467.75
982.684	2428.75
982.907	2370.75
983.129	2406.75
983.352	2414.75
983.575	2419.75
983.797	2403.75
984.02	2348.75
984.242	2360.75
984.465	2340.75
984.687	2368.75
984.91	2400.75
985.132	2312.75
985.354	2357.75
985.577	2304.75
985.799	2293.75
986.021	2235.75
986.243	2280.75
986.465	2252.75
986.687	2290.75
986.909	2342.75
987.131	2277.75
987.353	2211.75
987.575	2247.75
987.797	2168.75
988.019	2148.75
988.241	2182.75
988.462	2170.75
988.684	2241.75
988.906	2221.75
989.127	2289.75
989.349	2126.75
989.57	2184.75
989.792	2182.75
990.013	2208.75
990.234	2211.75
990.456	2218.75
990.677	2198.75
990.898	2138.75
991.119	2138.75
991.341	2167.75
991.562	2075.75
991.783	2133.75
992.004	2048.75
992.225	2028.75
992.446	2084.75
992.667	1997.75
992.887	2069.75
993.108	1957.75
993.329	2109.75
993.55	2024.75
993.77	1964.75
993.991	1975.75
994.212	2035.75
994.432	1987.75
994.653	1975.75
994.873	1963.75
995.093	1889.75
995.314	1918.75
995.534	1974.75
995.754	1951.75
995.975	2004.75
996.195	1867.75
996.415	1954.75
996.635	1949.75
996.855	1920.75
997.075	1882.75
997.295	1894.75
997.515	1869.75
997.735	1932.75
997.955	1898.75
998.174	1867.75
998.394	1838.75
998.614	1883.75
998.834	1842.75
999.053	1909.75
999.273	1863.75
999.492	1904.75
999.712	1859.75
999.931	1810.75
1000.151	1867.75
1000.37	1814.75
1000.589	1861.75
1000.809	1808.75
1001.028	1913.75
1001.247	1881.75
1001.466	1711.75
1001.685	1845.75
1001.904	1790.75
1002.123	1786.75
1002.342	1801.75
1002.561	1752.75
1002.78	1772.75
1002.999	1835.75
1003.218	1770.75
1003.436	1744.75
1003.655	1794.75
1003.874	1718.75
1004.092	1740.75
1004.311	1778.75
1004.53	1745.75
1004.748	1828.75
1004.966	1711.75
1005.185	1772.75
1005.403	1744.75
1005.622	1744.75
1005.84	1807.75
1006.058	1690.75
1006.276	1705.75
1006.494	2231.75
1006.712	1726.75
1006.931	1764.75
1007.149	1665.75
1007.367	1679.75
1007.584	1750.75
1007.802	1771.75
1008.02	1704.75
1008.238	1816.75
1008.456	1780.75
1008.673	1681.75
1008.891	1779.75
1009.109	1738.75
1009.326	1791.75
1009.544	1887.75
1009.761	1786.75
1009.979	1860.75
1010.196	1915.75
1010.413	1993.75
1010.631	2041.75
1010.848	2102.75
1011.065	2106.75
1011.282	2062.75
1011.5	2007.75
1011.717	2121.75
1011.934	2056.75
1012.151	2044.75
1012.368	2046.75
1012.585	1971.75
1012.801	2024.75
1013.018	1980.75
1013.235	1980.75
1013.452	1997.75
1013.669	1972.75
1013.885	1987.75
1014.102	2021.75
1014.318	2000.75
1014.535	1979.75
1014.751	1977.75
1014.968	1962.75
1015.184	1989.75
1015.401	1889.75
1015.617	1951.75
1015.833	1859.75
1016.049	1885.75
1016.266	1826.75
1016.482	1841.75
1016.698	1747.75
1016.914	1795.75
1017.13	1752.75
1017.346	1752.75
1017.562	1836.75
1017.778	1724.75
1017.993	1692.75
1018.209	1754.75
1018.425	1737.75
1018.641	1692.75
1018.856	1657.75
1019.072	1703.75
1019.288	1772.75
1019.503	1687.75
1019.719	1623.75
1019.934	1621.75
1020.149	1683.75
1020.365	1624.75
1020.58	1583.75
1020.795	1608.75
1021.011	1541.75
1021.226	1532.75
1021.441	1546.75
1021.656	1483.75
1021.871	1389.75
1022.086	1382.75
1022.301	1404.75
1022.516	1363.75
1022.731	1397.75
1022.946	1314.75
1023.16	1322.75
1023.375	1282.75
1023.59	1231.75
1023.804	1214.75
1024.019	1301.75
1024.234	1171.75
1024.448	1190.75
1024.663	1120.75
1024.877	1127.75
1025.092	1162.75
1025.306	1141.75
1025.52	1045.75
1025.734	1129.75
1025.949	1041.75
1026.163	1007.75
1026.377	962.75
1026.591	1023.75
1026.805	928.75
1027.019	924.75
1027.233	885.75
1027.447	830.75
1027.661	932.75
1027.875	865.75
1028.088	872.75
1028.302	793.75
1028.516	772.75
1028.73	784.75
1028.943	753.75
1029.157	717.75
1029.37	684.75
1029.584	0.75
1029.797	-0.25
1030.011	-6.25
1030.224	-0.25
