Data from QEP037381__241__16-03-39-895.txt Node

Date: Fri Dec 16 16:03:39 EST 2022
User: dcclab
Spectrometer: QEP03738
Trigger mode: 4
Integration Time (sec): 1.000000E1
Scans to average: 1
Electric dark correction enabled: true
Nonlinearity correction enabled: false
Boxcar width: 0
XAxis mode: Wavelengths
Number of Pixels in Spectrum: 1044
>>>>>Begin Spectral Data<<<<<
784.041	13.25
784.3	-0.75
784.558	-1.75
784.817	-3.75
785.075	118810.25
785.334	20244.25
785.592	9335.25
785.851	6420.25
786.109	4861.25
786.368	3751.25
786.626	2989.25
786.884	2478.25
787.143	2077.25
787.401	1732.25
787.659	1562.25
787.917	1322.25
788.175	1213.25
788.433	1046.25
788.691	925.25
788.949	854.25
789.207	847.25
789.465	730.25
789.723	693.25
789.98	638.25
790.238	668.25
790.496	621.25
790.753	584.25
791.011	647.25
791.268	564.25
791.526	555.25
791.783	573.25
792.041	541.25
792.298	472.25
792.556	527.25
792.813	502.25
793.07	495.25
793.327	470.25
793.584	547.25
793.841	469.25
794.099	495.25
794.356	552.25
794.613	443.25
794.869	500.25
795.126	435.25
795.383	427.25
795.64	444.25
795.897	403.25
796.153	459.25
796.41	456.25
796.667	422.25
796.923	435.25
797.18	451.25
797.436	460.25
797.693	418.25
797.949	492.25
798.206	502.25
798.462	430.25
798.718	475.25
798.974	463.25
799.231	484.25
799.487	494.25
799.743	499.25
799.999	535.25
800.255	530.25
800.511	499.25
800.767	553.25
801.023	538.25
801.279	578.25
801.534	625.25
801.79	669.25
802.046	696.25
802.302	848.25
802.557	969.25
802.813	1218.25
803.068	1523.25
803.324	2046.25
803.579	2820.25
803.835	3863.25
804.09	5295.25
804.345	7010.25
804.601	8769.25
804.856	10652.25
805.111	12324.25
805.366	13401.25
805.621	14449.25
805.876	15017.25
806.131	15447.25
806.386	15784.25
806.641	16004.25
806.896	16215.25
807.151	16512.25
807.406	16778.25
807.661	17114.25
807.915	17317.25
808.17	17623.25
808.425	17754.25
808.679	17915.25
808.934	18163.25
809.188	18410.25
809.443	18503.25
809.697	18673.25
809.951	18831.25
810.206	18959.25
810.46	19156.25
810.714	19311.25
810.968	19540.25
811.223	19661.25
811.477	19741.25
811.731	20047.25
811.985	20098.25
812.239	20055.25
812.493	20257.25
812.747	20276.25
813	20186.25
813.254	20433.25
813.508	20638.25
813.762	20570.25
814.015	20674.25
814.269	20831.25
814.522	20920.25
814.776	21196.25
815.03	21479.25
815.283	21715.25
815.536	21978.25
815.79	22366.25
816.043	22702.25
816.296	22970.25
816.55	23340.25
816.803	23485.25
817.056	23833.25
817.309	24006.25
817.562	24210.25
817.815	24466.25
818.068	24590.25
818.321	24921.25
818.574	25218.25
818.827	25484.25
819.079	25643.25
819.332	26219.25
819.585	26402.25
819.838	26868.25
820.09	26926.25
820.343	27210.25
820.595	27143.25
820.848	27435.25
821.1	27483.25
821.353	27571.25
821.605	27540.25
821.857	27512.25
822.11	27350.25
822.362	27292.25
822.614	27205.25
822.866	27322.25
823.118	27212.25
823.37	27478.25
823.622	27324.25
823.874	27557.25
824.126	27590.25
824.378	27503.25
824.63	27674.25
824.882	27728.25
825.134	27788.25
825.385	27622.25
825.637	27521.25
825.888	27409.25
826.14	27365.25
826.392	27265.25
826.643	27198.25
826.895	26965.25
827.146	26897.25
827.397	26916.25
827.649	26904.25
827.9	26865.25
828.151	26719.25
828.402	26914.25
828.653	26905.25
828.905	27018.25
829.156	27096.25
829.407	27014.25
829.658	27043.25
829.909	27217.25
830.159	27095.25
830.41	26929.25
830.661	26847.25
830.912	26583.25
831.162	26559.25
831.413	26451.25
831.664	26435.25
831.914	26394.25
832.165	26290.25
832.415	26274.25
832.666	26377.25
832.916	26272.25
833.167	26267.25
833.417	26353.25
833.667	26255.25
833.917	26079.25
834.168	26200.25
834.418	26085.25
834.668	25868.25
834.918	25772.25
835.168	25625.25
835.418	25541.25
835.668	25490.25
835.918	25371.25
836.167	25247.25
836.417	25255.25
836.667	25190.25
836.917	25145.25
837.166	25134.25
837.416	25106.25
837.666	25137.25
837.915	24996.25
838.165	25086.25
838.414	24946.25
838.663	24913.25
838.913	24892.25
839.162	24773.25
839.411	24822.25
839.661	24622.25
839.91	24593.25
840.159	24548.25
840.408	24637.25
840.657	24441.25
840.906	24590.25
841.155	24447.25
841.404	24475.25
841.653	24470.25
841.902	24507.25
842.15	24618.25
842.399	24550.25
842.648	24333.25
842.897	24257.25
843.145	24228.25
843.394	24079.25
843.642	23930.25
843.891	23879.25
844.139	23710.25
844.388	23487.25
844.636	23386.25
844.884	23450.25
845.133	23381.25
845.381	23322.25
845.629	23429.25
845.877	23250.25
846.125	23342.25
846.373	23275.25
846.621	23040.25
846.869	23065.25
847.117	22888.25
847.365	22813.25
847.613	22702.25
847.861	22626.25
848.108	22614.25
848.356	22519.25
848.604	22382.25
848.851	22515.25
849.099	22433.25
849.346	22586.25
849.594	22584.25
849.841	22701.25
850.089	22845.25
850.336	22721.25
850.583	22703.25
850.831	22521.25
851.078	22407.25
851.325	22404.25
851.572	22438.25
851.819	22319.25
852.066	21795.25
852.313	21502.25
852.56	21459.25
852.807	21364.25
853.054	21255.25
853.301	21115.25
853.548	21224.25
853.794	21381.25
854.041	21479.25
854.288	21461.25
854.534	21621.25
854.781	21635.25
855.028	21427.25
855.274	21577.25
855.52	21256.25
855.767	21270.25
856.013	21277.25
856.26	21598.25
856.506	20945.25
856.752	20857.25
856.998	20999.25
857.244	20969.25
857.49	21146.25
857.736	21145.25
857.982	21096.25
858.228	21015.25
858.474	20834.25
858.72	20765.25
858.966	20588.25
859.212	20377.25
859.458	20255.25
859.703	19954.25
859.949	19834.25
860.195	19555.25
860.44	19553.25
860.686	19531.25
860.931	19430.25
861.177	19329.25
861.422	19283.25
861.667	19152.25
861.913	19226.25
862.158	19243.25
862.403	19216.25
862.648	19286.25
862.893	19352.25
863.138	19241.25
863.384	19198.25
863.629	19127.25
863.873	19151.25
864.118	19022.25
864.363	19032.25
864.608	18906.25
864.853	18907.25
865.098	18687.25
865.342	18682.25
865.587	18592.25
865.832	18581.25
866.076	18545.25
866.321	18335.25
866.565	18408.25
866.81	18221.25
867.054	18291.25
867.298	18216.25
867.543	18190.25
867.787	18190.25
868.031	18116.25
868.275	18030.25
868.519	18018.25
868.764	18062.25
869.008	17933.25
869.252	17888.25
869.496	17852.25
869.739	17813.25
869.983	17847.25
870.227	17765.25
870.471	17872.25
870.715	17807.25
870.958	17813.25
871.202	17929.25
871.446	17949.25
871.689	17839.25
871.933	17834.25
872.176	17800.25
872.42	17847.25
872.663	17732.25
872.906	17664.25
873.15	17650.25
873.393	17515.25
873.636	17515.25
873.879	17319.25
874.122	17220.25
874.366	16983.25
874.609	16849.25
874.852	16798.25
875.095	16575.25
875.337	16495.25
875.58	16494.25
875.823	16438.25
876.066	16411.25
876.309	16286.25
876.551	16149.25
876.794	16050.25
877.037	16122.25
877.279	15948.25
877.522	16011.25
877.764	16075.25
878.007	16113.25
878.249	16006.25
878.491	15906.25
878.734	15937.25
878.976	15918.25
879.218	15800.25
879.46	15726.25
879.702	15583.25
879.945	15528.25
880.187	15277.25
880.429	15209.25
880.671	15170.25
880.912	15170.25
881.154	15020.25
881.396	14984.25
881.638	15021.25
881.88	15074.25
882.121	14941.25
882.363	14869.25
882.605	14818.25
882.846	14853.25
883.088	14849.25
883.329	14800.25
883.571	14690.25
883.812	14879.25
884.053	15153.25
884.295	15400.25
884.536	15561.25
884.777	15442.25
885.018	15385.25
885.259	15305.25
885.5	15133.25
885.742	15250.25
885.982	15023.25
886.223	15009.25
886.464	14903.25
886.705	14733.25
886.946	14628.25
887.187	14452.25
887.428	14305.25
887.668	13960.25
887.909	13846.25
888.15	13683.25
888.39	13625.25
888.631	13609.25
888.871	13438.25
889.111	13306.25
889.352	13202.25
889.592	13169.25
889.833	13093.25
890.073	12875.25
890.313	12892.25
890.553	12828.25
890.793	12715.25
891.033	12677.25
891.273	12517.25
891.513	12568.25
891.753	12566.25
891.993	12491.25
892.233	12577.25
892.473	12601.25
892.713	12487.25
892.952	12550.25
893.192	12481.25
893.432	12543.25
893.671	12545.25
893.911	12373.25
894.15	12428.25
894.39	12211.25
894.629	12144.25
894.869	12178.25
895.108	12039.25
895.347	11904.25
895.587	12011.25
895.826	11907.25
896.065	11824.25
896.304	11867.25
896.543	11814.25
896.782	11843.25
897.021	11840.25
897.26	11712.25
897.499	11739.25
897.738	11776.25
897.977	11614.25
898.216	11499.25
898.454	11437.25
898.693	11442.25
898.932	11374.25
899.17	11230.25
899.409	11261.25
899.647	11272.25
899.886	11204.25
900.124	11178.25
900.363	11155.25
900.601	11182.25
900.839	11120.25
901.078	11164.25
901.316	11272.25
901.554	11282.25
901.792	11408.25
902.03	11366.25
902.268	11329.25
902.506	11295.25
902.744	11176.25
902.982	11114.25
903.22	10928.25
903.458	10821.25
903.695	10733.25
903.933	10572.25
904.171	10434.25
904.409	10208.25
904.646	10161.25
904.884	9949.25
905.121	9880.25
905.359	9771.25
905.596	9737.25
905.833	9595.25
906.071	9504.25
906.308	9569.25
906.545	9517.25
906.783	9397.25
907.02	9398.25
907.257	9298.25
907.494	9370.25
907.731	9328.25
907.968	9277.25
908.205	9237.25
908.442	9218.25
908.679	9192.25
908.915	9087.25
909.152	8997.25
909.389	8889.25
909.626	8844.25
909.862	8760.25
910.099	8732.25
910.335	8774.25
910.572	8682.25
910.808	8653.25
911.045	8702.25
911.281	8574.25
911.518	8599.25
911.754	8508.25
911.99	8418.25
912.226	8399.25
912.463	8253.25
912.699	8247.25
912.935	8150.25
913.171	8165.25
913.407	8080.25
913.643	8019.25
913.879	7921.25
914.114	7877.25
914.35	7810.25
914.586	7686.25
914.822	7649.25
915.057	7660.25
915.293	7504.25
915.529	7432.25
915.764	7587.25
916	7528.25
916.235	7499.25
916.471	7506.25
916.706	7406.25
916.941	7475.25
917.177	7357.25
917.412	7462.25
917.647	7328.25
917.882	7337.25
918.117	7412.25
918.352	7292.25
918.588	7337.25
918.823	7119.25
919.057	7101.25
919.292	7001.25
919.527	7080.25
919.762	6912.25
919.997	6900.25
920.232	6845.25
920.466	6836.25
920.701	6687.25
920.935	6623.25
921.17	6603.25
921.405	6549.25
921.639	6589.25
921.873	6580.25
922.108	6506.25
922.342	6540.25
922.576	6451.25
922.811	6405.25
923.045	6371.25
923.279	6401.25
923.513	6302.25
923.747	6361.25
923.981	6295.25
924.215	6153.25
924.449	6200.25
924.683	6084.25
924.917	6115.25
925.151	6094.25
925.385	6108.25
925.618	6094.25
925.852	6039.25
926.086	5938.25
926.319	6015.25
926.553	5988.25
926.786	5987.25
927.02	5982.25
927.253	6012.25
927.486	6001.25
927.72	5882.25
927.953	5958.25
928.186	5874.25
928.42	5932.25
928.653	5860.25
928.886	5723.25
929.119	5812.25
929.352	5764.25
929.585	5721.25
929.818	5672.25
930.051	5653.25
930.284	5614.25
930.516	5496.25
930.749	5496.25
930.982	5534.25
931.215	5544.25
931.447	5397.25
931.68	5388.25
931.912	5388.25
932.145	5378.25
932.377	5358.25
932.61	5496.25
932.842	5359.25
933.074	5405.25
933.307	5331.25
933.539	5379.25
933.771	5352.25
934.003	5356.25
934.236	5378.25
934.468	5380.25
934.7	5297.25
934.932	5309.25
935.164	5248.25
935.395	5246.25
935.627	5232.25
935.859	5207.25
936.091	5168.25
936.323	5183.25
936.554	5217.25
936.786	5107.25
937.017	5028.25
937.249	5106.25
937.481	5028.25
937.712	5069.25
937.943	5059.25
938.175	5031.25
938.406	4986.25
938.637	5065.25
938.869	4956.25
939.1	5056.25
939.331	4948.25
939.562	4936.25
939.793	4980.25
940.024	4964.25
940.255	4999.25
940.486	4835.25
940.717	4886.25
940.948	4807.25
941.179	4776.25
941.409	4799.25
941.64	4778.25
941.871	4778.25
942.102	4725.25
942.332	4722.25
942.563	4820.25
942.793	4725.25
943.024	4713.25
943.254	4763.25
943.484	4765.25
943.715	4834.25
943.945	4739.25
944.175	4656.25
944.405	4643.25
944.636	4651.25
944.866	4707.25
945.096	4710.25
945.326	4658.25
945.556	4706.25
945.786	4708.25
946.016	4580.25
946.245	4527.25
946.475	4543.25
946.705	4475.25
946.935	4530.25
947.164	4490.25
947.394	4432.25
947.624	4398.25
947.853	4433.25
948.083	4341.25
948.312	4338.25
948.542	4322.25
948.771	4313.25
949	4290.25
949.23	4285.25
949.459	4278.25
949.688	4351.25
949.917	4326.25
950.146	4311.25
950.375	4334.25
950.604	4142.25
950.833	4349.25
951.062	4305.25
951.291	4207.25
951.52	4204.25
951.749	4197.25
951.978	4162.25
952.206	4148.25
952.435	4114.25
952.664	4186.25
952.892	4124.25
953.121	4062.25
953.349	4117.25
953.578	4149.25
953.806	4048.25
954.035	3965.25
954.263	4026.25
954.491	3942.25
954.719	4003.25
954.948	3984.25
955.176	3908.25
955.404	3812.25
955.632	3884.25
955.86	3906.25
956.088	3878.25
956.316	3895.25
956.544	3890.25
956.772	3751.25
956.999	3778.25
957.227	3855.25
957.455	3778.25
957.683	3738.25
957.91	3673.25
958.138	3711.25
958.365	3684.25
958.593	3633.25
958.82	3642.25
959.048	3692.25
959.275	3645.25
959.502	3623.25
959.73	3590.25
959.957	3614.25
960.184	3602.25
960.411	3598.25
960.638	3608.25
960.865	3585.25
961.092	3617.25
961.319	3465.25
961.546	3584.25
961.773	3554.25
962	3557.25
962.227	3570.25
962.454	3546.25
962.68	3497.25
962.907	3487.25
963.134	3443.25
963.36	3472.25
963.587	3486.25
963.813	3409.25
964.04	3408.25
964.266	3308.25
964.493	3419.25
964.719	3395.25
964.945	3352.25
965.171	3244.25
965.398	3274.25
965.624	3360.25
965.85	3243.25
966.076	3193.25
966.302	3271.25
966.528	3238.25
966.754	3233.25
966.98	3207.25
967.206	3152.25
967.431	3133.25
967.657	3219.25
967.883	3158.25
968.109	3144.25
968.334	3116.25
968.56	3084.25
968.785	3113.25
969.011	3068.25
969.236	3113.25
969.462	3064.25
969.687	3079.25
969.912	3109.25
970.138	3131.25
970.363	3024.25
970.588	3037.25
970.813	2976.25
971.038	2972.25
971.263	3011.25
971.488	3032.25
971.713	3043.25
971.938	3009.25
972.163	2923.25
972.388	2926.25
972.613	2898.25
972.838	2930.25
973.062	2903.25
973.287	2883.25
973.512	2825.25
973.736	2846.25
973.961	2819.25
974.185	2808.25
974.41	2853.25
974.634	2719.25
974.858	2755.25
975.083	2755.25
975.307	2807.25
975.531	2721.25
975.755	2644.25
975.98	2700.25
976.204	2632.25
976.428	2601.25
976.652	2596.25
976.876	2566.25
977.1	2626.25
977.324	2557.25
977.547	2611.25
977.771	2630.25
977.995	2576.25
978.219	2518.25
978.442	2604.25
978.666	2554.25
978.89	2542.25
979.113	2537.25
979.337	2551.25
979.56	2485.25
979.783	2599.25
980.007	2457.25
980.23	2515.25
980.453	2461.25
980.677	2483.25
980.9	2481.25
981.123	2413.25
981.346	2482.25
981.569	2447.25
981.792	2471.25
982.015	2420.25
982.238	2358.25
982.461	2373.25
982.684	2362.25
982.907	2343.25
983.129	2299.25
983.352	2361.25
983.575	2327.25
983.797	2315.25
984.02	2278.25
984.242	2287.25
984.465	2281.25
984.687	2304.25
984.91	2338.25
985.132	2228.25
985.354	2309.25
985.577	2278.25
985.799	2242.25
986.021	2187.25
986.243	2216.25
986.465	2214.25
986.687	2224.25
986.909	2267.25
987.131	2193.25
987.353	2175.25
987.575	2177.25
987.797	2166.25
988.019	2111.25
988.241	2166.25
988.462	2100.25
988.684	2148.25
988.906	2182.25
989.127	2197.25
989.349	2077.25
989.57	2100.25
989.792	2150.25
990.013	2108.25
990.234	2168.25
990.456	2138.25
990.677	2143.25
990.898	2068.25
991.119	2097.25
991.341	2095.25
991.562	2032.25
991.783	2055.25
992.004	1979.25
992.225	1958.25
992.446	2038.25
992.667	1957.25
992.887	2035.25
993.108	1917.25
993.329	2047.25
993.55	2009.25
993.77	1916.25
993.991	1917.25
994.212	1967.25
994.432	1956.25
994.653	1938.25
994.873	1910.25
995.093	1810.25
995.314	1834.25
995.534	1964.25
995.754	1903.25
995.975	1930.25
996.195	1819.25
996.415	1885.25
996.635	1859.25
996.855	1914.25
997.075	1868.25
997.295	1861.25
997.515	1829.25
997.735	1868.25
997.955	1826.25
998.174	1831.25
998.394	1820.25
998.614	1859.25
998.834	1805.25
999.053	1862.25
999.273	1838.25
999.492	1883.25
999.712	1820.25
999.931	1794.25
1000.151	1815.25
1000.37	1767.25
1000.589	1844.25
1000.809	1773.25
1001.028	1881.25
1001.247	1794.25
1001.466	1704.25
1001.685	1836.25
1001.904	1782.25
1002.123	1760.25
1002.342	1771.25
1002.561	1684.25
1002.78	1703.25
1002.999	1786.25
1003.218	1734.25
1003.436	1685.25
1003.655	1728.25
1003.874	1691.25
1004.092	1692.25
1004.311	1743.25
1004.53	1691.25
1004.748	1760.25
1004.966	1708.25
1005.185	1716.25
1005.403	1727.25
1005.622	1708.25
1005.84	1768.25
1006.058	1676.25
1006.276	1707.25
1006.494	2187.25
1006.712	1672.25
1006.931	1744.25
1007.149	1639.25
1007.367	1651.25
1007.584	1706.25
1007.802	1740.25
1008.02	1654.25
1008.238	1776.25
1008.456	1744.25
1008.673	1650.25
1008.891	1752.25
1009.109	1726.25
1009.326	1778.25
1009.544	1849.25
1009.761	1749.25
1009.979	1849.25
1010.196	1887.25
1010.413	1968.25
1010.631	2000.25
1010.848	2066.25
1011.065	2072.25
1011.282	2023.25
1011.5	1957.25
1011.717	2056.25
1011.934	1994.25
1012.151	2017.25
1012.368	2007.25
1012.585	1961.25
1012.801	1976.25
1013.018	1955.25
1013.235	1956.25
1013.452	1969.25
1013.669	1972.25
1013.885	1934.25
1014.102	1991.25
1014.318	1960.25
1014.535	1908.25
1014.751	1941.25
1014.968	1941.25
1015.184	1935.25
1015.401	1883.25
1015.617	1878.25
1015.833	1830.25
1016.049	1839.25
1016.266	1800.25
1016.482	1770.25
1016.698	1740.25
1016.914	1773.25
1017.13	1734.25
1017.346	1717.25
1017.562	1760.25
1017.778	1726.25
1017.993	1674.25
1018.209	1751.25
1018.425	1724.25
1018.641	1652.25
1018.856	1646.25
1019.072	1692.25
1019.288	1719.25
1019.503	1686.25
1019.719	1614.25
1019.934	1600.25
1020.149	1679.25
1020.365	1624.25
1020.58	1569.25
1020.795	1620.25
1021.011	1538.25
1021.226	1502.25
1021.441	1511.25
1021.656	1430.25
1021.871	1375.25
1022.086	1370.25
1022.301	1340.25
1022.516	1353.25
1022.731	1374.25
1022.946	1295.25
1023.16	1270.25
1023.375	1259.25
1023.59	1248.25
1023.804	1189.25
1024.019	1285.25
1024.234	1142.25
1024.448	1182.25
1024.663	1115.25
1024.877	1156.25
1025.092	1116.25
1025.306	1141.25
1025.52	1036.25
1025.734	1129.25
1025.949	1034.25
1026.163	1002.25
1026.377	923.25
1026.591	1009.25
1026.805	926.25
1027.019	932.25
1027.233	876.25
1027.447	825.25
1027.661	921.25
1027.875	877.25
1028.088	852.25
1028.302	775.25
1028.516	790.25
1028.73	787.25
1028.943	779.25
1029.157	713.25
1029.37	669.25
1029.584	-0.75
1029.797	-0.75
1030.011	-5.75
1030.224	0.25
