Data from QEP037381__140__15-46-49-882.txt Node

Date: Fri Dec 16 15:46:49 EST 2022
User: dcclab
Spectrometer: QEP03738
Trigger mode: 4
Integration Time (sec): 1.000000E1
Scans to average: 1
Electric dark correction enabled: true
Nonlinearity correction enabled: false
Boxcar width: 0
XAxis mode: Wavelengths
Number of Pixels in Spectrum: 1044
>>>>>Begin Spectral Data<<<<<
784.041	9.12
784.3	0.12
784.558	-0.88
784.817	-4.88
785.075	113241.12
785.334	19438.12
785.592	9093.12
785.851	6317.12
786.109	4754.12
786.368	3703.12
786.626	3012.12
786.884	2475.12
787.143	2077.12
787.401	1710.12
787.659	1573.12
787.917	1349.12
788.175	1234.12
788.433	1068.12
788.691	981.12
788.949	897.12
789.207	861.12
789.465	740.12
789.723	717.12
789.98	669.12
790.238	693.12
790.496	633.12
790.753	622.12
791.011	669.12
791.268	611.12
791.526	586.12
791.783	595.12
792.041	578.12
792.298	491.12
792.556	540.12
792.813	534.12
793.07	524.12
793.327	501.12
793.584	587.12
793.841	506.12
794.099	516.12
794.356	568.12
794.613	477.12
794.869	517.12
795.126	490.12
795.383	459.12
795.64	491.12
795.897	429.12
796.153	501.12
796.41	482.12
796.667	469.12
796.923	477.12
797.18	468.12
797.436	494.12
797.693	483.12
797.949	526.12
798.206	573.12
798.462	472.12
798.718	543.12
798.974	517.12
799.231	583.12
799.487	565.12
799.743	572.12
799.999	595.12
800.255	595.12
800.511	613.12
800.767	660.12
801.023	670.12
801.279	709.12
801.534	767.12
801.79	847.12
802.046	923.12
802.302	1125.12
802.557	1359.12
802.813	1704.12
803.068	2188.12
803.324	3088.12
803.579	4365.12
803.835	6156.12
804.09	8534.12
804.345	11230.12
804.601	14213.12
804.856	17171.12
805.111	19827.12
805.366	21931.12
805.621	23431.12
805.876	24557.12
806.131	25336.12
806.386	25777.12
806.641	26199.12
806.896	26803.12
807.151	27061.12
807.406	27700.12
807.661	28089.12
807.915	28518.12
808.17	28993.12
808.425	29433.12
808.679	29495.12
808.934	29896.12
809.188	30220.12
809.443	30508.12
809.697	30906.12
809.951	31016.12
810.206	31319.12
810.46	31563.12
810.714	31915.12
810.968	32226.12
811.223	32390.12
811.477	32778.12
811.731	33127.12
811.985	33253.12
812.239	33201.12
812.493	33553.12
812.747	33637.12
813	33725.12
813.254	33843.12
813.508	34054.12
813.762	34228.12
814.015	34239.12
814.269	34508.12
814.522	34784.12
814.776	35263.12
815.03	35763.12
815.283	36226.12
815.536	36745.12
815.79	37334.12
816.043	37793.12
816.296	38337.12
816.55	38819.12
816.803	39244.12
817.056	39704.12
817.309	40263.12
817.562	40424.12
817.815	40801.12
818.068	41273.12
818.321	41565.12
818.574	41995.12
818.827	42624.12
819.079	43054.12
819.332	43790.12
819.585	44384.12
819.838	44921.12
820.09	45156.12
820.343	45603.12
820.595	45611.12
820.848	46100.12
821.1	46046.12
821.353	46101.12
821.605	46073.12
821.857	46175.12
822.11	46038.12
822.362	45774.12
822.614	45721.12
822.866	45610.12
823.118	45870.12
823.37	45740.12
823.622	46075.12
823.874	46161.12
824.126	46374.12
824.378	46363.12
824.63	46505.12
824.882	46732.12
825.134	46656.12
825.385	46705.12
825.637	46521.12
825.888	46280.12
826.14	46345.12
826.392	46234.12
826.643	46006.12
826.895	45584.12
827.146	45505.12
827.397	45311.12
827.649	45439.12
827.9	45370.12
828.151	45302.12
828.402	45459.12
828.653	45763.12
828.905	45717.12
829.156	45830.12
829.407	45742.12
829.658	45860.12
829.909	45817.12
830.159	45739.12
830.41	45430.12
830.661	45218.12
830.912	44935.12
831.162	44864.12
831.413	44692.12
831.664	44800.12
831.914	44729.12
832.165	44564.12
832.415	44651.12
832.666	44659.12
832.916	44623.12
833.167	44549.12
833.417	44558.12
833.667	44344.12
833.917	44283.12
834.168	44117.12
834.418	43986.12
834.668	43759.12
834.918	43651.12
835.168	43410.12
835.418	43358.12
835.668	43130.12
835.918	43127.12
836.167	42987.12
836.417	42753.12
836.667	42870.12
836.917	42729.12
837.166	42645.12
837.416	42723.12
837.666	42611.12
837.915	42638.12
838.165	42438.12
838.414	42389.12
838.663	42202.12
838.913	42235.12
839.162	42087.12
839.411	41905.12
839.661	41681.12
839.91	41610.12
840.159	41414.12
840.408	41436.12
840.657	41478.12
840.906	41563.12
841.155	41434.12
841.404	41355.12
841.653	41505.12
841.902	41460.12
842.15	41444.12
842.399	41606.12
842.648	41483.12
842.897	41266.12
843.145	41018.12
843.394	40853.12
843.642	40528.12
843.891	40309.12
844.139	40090.12
844.388	39814.12
844.636	39782.12
844.884	39870.12
845.133	39687.12
845.381	39709.12
845.629	39692.12
845.877	39551.12
846.125	39421.12
846.373	39344.12
846.621	39106.12
846.869	38972.12
847.117	38875.12
847.365	38641.12
847.613	38429.12
847.861	38296.12
848.108	38120.12
848.356	38162.12
848.604	38112.12
848.851	37955.12
849.099	38146.12
849.346	37978.12
849.594	38334.12
849.841	38440.12
850.089	38619.12
850.336	38393.12
850.583	38356.12
850.831	38281.12
851.078	37959.12
851.325	37849.12
851.572	37750.12
851.819	37466.12
852.066	36973.12
852.313	36567.12
852.56	36297.12
852.807	36059.12
853.054	35893.12
853.301	35779.12
853.548	35758.12
853.794	36066.12
854.041	36106.12
854.288	36373.12
854.534	36515.12
854.781	36422.12
855.028	36261.12
855.274	36295.12
855.52	36029.12
855.767	35811.12
856.013	35760.12
856.26	35956.12
856.506	35345.12
856.752	35441.12
856.998	35229.12
857.244	35428.12
857.49	35531.12
857.736	35613.12
857.982	35575.12
858.228	35501.12
858.474	35305.12
858.72	34918.12
858.966	34732.12
859.212	34326.12
859.458	33937.12
859.703	33764.12
859.949	33386.12
860.195	33211.12
860.44	32905.12
860.686	32796.12
860.931	32926.12
861.177	32582.12
861.422	32368.12
861.667	32313.12
861.913	32329.12
862.158	32296.12
862.403	32516.12
862.648	32539.12
862.893	32505.12
863.138	32492.12
863.384	32467.12
863.629	32440.12
863.873	32292.12
864.118	32178.12
864.363	32017.12
864.608	31957.12
864.853	31764.12
865.098	31645.12
865.342	31448.12
865.587	31255.12
865.832	31240.12
866.076	31167.12
866.321	31178.12
866.565	30905.12
866.81	30704.12
867.054	30672.12
867.298	30507.12
867.543	30407.12
867.787	30487.12
868.031	30339.12
868.275	30271.12
868.519	30069.12
868.764	30188.12
869.008	29930.12
869.252	29880.12
869.496	29715.12
869.739	29665.12
869.983	29558.12
870.227	29611.12
870.471	29474.12
870.715	29706.12
870.958	29540.12
871.202	29646.12
871.446	29635.12
871.689	29704.12
871.933	29682.12
872.176	29625.12
872.42	29597.12
872.663	29392.12
872.906	29401.12
873.15	29209.12
873.393	28989.12
873.636	28994.12
873.879	28742.12
874.122	28476.12
874.366	28011.12
874.609	27841.12
874.852	27654.12
875.095	27555.12
875.337	27519.12
875.58	27252.12
875.823	27208.12
876.066	27063.12
876.309	27072.12
876.551	26877.12
876.794	26680.12
877.037	26690.12
877.279	26517.12
877.522	26622.12
877.764	26685.12
878.007	26500.12
878.249	26484.12
878.491	26459.12
878.734	26438.12
878.976	26347.12
879.218	26261.12
879.46	26034.12
879.702	25795.12
879.945	25608.12
880.187	25416.12
880.429	25291.12
880.671	25185.12
880.912	24977.12
881.154	24914.12
881.396	24763.12
881.638	24783.12
881.88	24837.12
882.121	24752.12
882.363	24620.12
882.605	24651.12
882.846	24546.12
883.088	24486.12
883.329	24295.12
883.571	24352.12
883.812	24363.12
884.053	24655.12
884.295	24872.12
884.536	25078.12
884.777	24927.12
885.018	24684.12
885.259	24606.12
885.5	24446.12
885.742	24721.12
885.982	24488.12
886.223	24302.12
886.464	24133.12
886.705	23994.12
886.946	23753.12
887.187	23571.12
887.428	23277.12
887.668	23034.12
887.909	22682.12
888.15	22647.12
888.39	22458.12
888.631	22364.12
888.871	22216.12
889.111	21962.12
889.352	21859.12
889.592	21571.12
889.833	21481.12
890.073	21299.12
890.313	21245.12
890.553	21045.12
890.793	20901.12
891.033	20898.12
891.273	20793.12
891.513	20615.12
891.753	20589.12
891.993	20499.12
892.233	20630.12
892.473	20725.12
892.713	20587.12
892.952	20561.12
893.192	20607.12
893.432	20566.12
893.671	20551.12
893.911	20366.12
894.15	20247.12
894.39	20038.12
894.629	20017.12
894.869	19917.12
895.108	19756.12
895.347	19589.12
895.587	19582.12
895.826	19562.12
896.065	19467.12
896.304	19470.12
896.543	19404.12
896.782	19309.12
897.021	19278.12
897.26	19169.12
897.499	19140.12
897.738	18976.12
897.977	18883.12
898.216	18759.12
898.454	18576.12
898.693	18442.12
898.932	18387.12
899.17	18272.12
899.409	18174.12
899.647	18258.12
899.886	18121.12
900.124	18143.12
900.363	18049.12
900.601	18024.12
900.839	18014.12
901.078	18018.12
901.316	18029.12
901.554	18071.12
901.792	18101.12
902.03	18148.12
902.268	18085.12
902.506	18053.12
902.744	17935.12
902.982	17885.12
903.22	17563.12
903.458	17508.12
903.695	17275.12
903.933	17078.12
904.171	16750.12
904.409	16599.12
904.646	16412.12
904.884	16074.12
905.121	15988.12
905.359	15761.12
905.596	15708.12
905.833	15565.12
906.071	15339.12
906.308	15457.12
906.545	15371.12
906.783	15268.12
907.02	15210.12
907.257	15276.12
907.494	15235.12
907.731	15160.12
907.968	14989.12
908.205	14935.12
908.442	14884.12
908.679	14833.12
908.915	14683.12
909.152	14549.12
909.389	14350.12
909.626	14335.12
909.862	14248.12
910.099	14164.12
910.335	14148.12
910.572	14058.12
910.808	14015.12
911.045	13974.12
911.281	13817.12
911.518	13862.12
911.754	13737.12
911.99	13586.12
912.226	13563.12
912.463	13453.12
912.699	13312.12
912.935	13160.12
913.171	13092.12
913.407	12963.12
913.643	12946.12
913.879	12794.12
914.114	12689.12
914.35	12539.12
914.586	12341.12
914.822	12255.12
915.057	12307.12
915.293	12092.12
915.529	12014.12
915.764	12079.12
916	11997.12
916.235	12085.12
916.471	11971.12
916.706	11785.12
916.941	11921.12
917.177	11889.12
917.412	11877.12
917.647	11884.12
917.882	11718.12
918.117	11745.12
918.352	11719.12
918.588	11749.12
918.823	11557.12
919.057	11416.12
919.292	11350.12
919.527	11219.12
919.762	11088.12
919.997	11024.12
920.232	10863.12
920.466	10798.12
920.701	10605.12
920.935	10541.12
921.17	10541.12
921.405	10445.12
921.639	10451.12
921.873	10403.12
922.108	10404.12
922.342	10374.12
922.576	10197.12
922.811	10188.12
923.045	10177.12
923.279	10185.12
923.513	10043.12
923.747	10040.12
923.981	9896.12
924.215	9890.12
924.449	9751.12
924.683	9701.12
924.917	9664.12
925.151	9624.12
925.385	9537.12
925.618	9567.12
925.852	9573.12
926.086	9422.12
926.319	9494.12
926.553	9453.12
926.786	9467.12
927.02	9385.12
927.253	9415.12
927.486	9433.12
927.72	9342.12
927.953	9390.12
928.186	9363.12
928.42	9271.12
928.653	9279.12
928.886	9154.12
929.119	9258.12
929.352	9070.12
929.585	8962.12
929.818	8920.12
930.051	8927.12
930.284	8803.12
930.516	8714.12
930.749	8666.12
930.982	8596.12
931.215	8590.12
931.447	8424.12
931.68	8468.12
931.912	8514.12
932.145	8465.12
932.377	8425.12
932.61	8597.12
932.842	8391.12
933.074	8429.12
933.307	8327.12
933.539	8419.12
933.771	8399.12
934.003	8321.12
934.236	8408.12
934.468	8449.12
934.7	8295.12
934.932	8327.12
935.164	8267.12
935.395	8197.12
935.627	8231.12
935.859	8202.12
936.091	8031.12
936.323	8080.12
936.554	8108.12
936.786	8008.12
937.017	7932.12
937.249	7941.12
937.481	7858.12
937.712	7929.12
937.943	7837.12
938.175	7890.12
938.406	7820.12
938.637	7918.12
938.869	7793.12
939.1	7747.12
939.331	7737.12
939.562	7754.12
939.793	7701.12
940.024	7705.12
940.255	7605.12
940.486	7585.12
940.717	7566.12
940.948	7494.12
941.179	7435.12
941.409	7464.12
941.64	7404.12
941.871	7420.12
942.102	7423.12
942.332	7396.12
942.563	7408.12
942.793	7405.12
943.024	7356.12
943.254	7360.12
943.484	7398.12
943.715	7417.12
943.945	7297.12
944.175	7307.12
944.405	7281.12
944.636	7252.12
944.866	7289.12
945.096	7264.12
945.326	7166.12
945.556	7193.12
945.786	7213.12
946.016	7087.12
946.245	7078.12
946.475	6991.12
946.705	6919.12
946.935	6873.12
947.164	6890.12
947.394	6831.12
947.624	6817.12
947.853	6789.12
948.083	6765.12
948.312	6707.12
948.542	6647.12
948.771	6620.12
949	6617.12
949.23	6596.12
949.459	6582.12
949.688	6690.12
949.917	6575.12
950.146	6599.12
950.375	6629.12
950.604	6518.12
950.833	6569.12
951.062	6579.12
951.291	6530.12
951.52	6470.12
951.749	6463.12
951.978	6385.12
952.206	6325.12
952.435	6369.12
952.664	6395.12
952.892	6354.12
953.121	6312.12
953.349	6305.12
953.578	6284.12
953.806	6192.12
954.035	6175.12
954.263	6166.12
954.491	6100.12
954.719	6100.12
954.948	6077.12
955.176	6032.12
955.404	5946.12
955.632	6022.12
955.86	5953.12
956.088	5965.12
956.316	5896.12
956.544	5892.12
956.772	5817.12
956.999	5751.12
957.227	5861.12
957.455	5721.12
957.683	5672.12
957.91	5657.12
958.138	5622.12
958.365	5584.12
958.593	5558.12
958.82	5486.12
959.048	5559.12
959.275	5520.12
959.502	5430.12
959.73	5430.12
959.957	5448.12
960.184	5482.12
960.411	5416.12
960.638	5473.12
960.865	5422.12
961.092	5446.12
961.319	5259.12
961.546	5408.12
961.773	5422.12
962	5363.12
962.227	5417.12
962.454	5305.12
962.68	5240.12
962.907	5317.12
963.134	5219.12
963.36	5199.12
963.587	5261.12
963.813	5085.12
964.04	5175.12
964.266	4978.12
964.493	5094.12
964.719	5042.12
964.945	5024.12
965.171	4969.12
965.398	4975.12
965.624	4958.12
965.85	4852.12
966.076	4831.12
966.302	4893.12
966.528	4794.12
966.754	4826.12
966.98	4767.12
967.206	4833.12
967.431	4691.12
967.657	4779.12
967.883	4760.12
968.109	4717.12
968.334	4628.12
968.56	4676.12
968.785	4666.12
969.011	4565.12
969.236	4629.12
969.462	4583.12
969.687	4564.12
969.912	4670.12
970.138	4637.12
970.363	4522.12
970.588	4530.12
970.813	4457.12
971.038	4447.12
971.263	4464.12
971.488	4428.12
971.713	4457.12
971.938	4410.12
972.163	4346.12
972.388	4327.12
972.613	4283.12
972.838	4327.12
973.062	4301.12
973.287	4300.12
973.512	4189.12
973.736	4262.12
973.961	4181.12
974.185	4171.12
974.41	4179.12
974.634	4058.12
974.858	4054.12
975.083	4102.12
975.307	4088.12
975.531	3984.12
975.755	3925.12
975.98	3969.12
976.204	3876.12
976.428	3889.12
976.652	3845.12
976.876	3835.12
977.1	3831.12
977.324	3758.12
977.547	3800.12
977.771	3794.12
977.995	3746.12
978.219	3695.12
978.442	3813.12
978.666	3792.12
978.89	3780.12
979.113	3735.12
979.337	3720.12
979.56	3662.12
979.783	3779.12
980.007	3624.12
980.23	3660.12
980.453	3601.12
980.677	3619.12
980.9	3588.12
981.123	3519.12
981.346	3565.12
981.569	3552.12
981.792	3546.12
982.015	3485.12
982.238	3464.12
982.461	3444.12
982.684	3446.12
982.907	3387.12
983.129	3360.12
983.352	3420.12
983.575	3374.12
983.797	3369.12
984.02	3309.12
984.242	3321.12
984.465	3324.12
984.687	3326.12
984.91	3341.12
985.132	3275.12
985.354	3282.12
985.577	3228.12
985.799	3211.12
986.021	3161.12
986.243	3150.12
986.465	3180.12
986.687	3201.12
986.909	3202.12
987.131	3124.12
987.353	3061.12
987.575	3164.12
987.797	3049.12
988.019	2978.12
988.241	3033.12
988.462	2986.12
988.684	3067.12
988.906	3113.12
989.127	3095.12
989.349	2976.12
989.57	2988.12
989.792	3044.12
990.013	3060.12
990.234	3028.12
990.456	3043.12
990.677	3007.12
990.898	2952.12
991.119	2912.12
991.341	2967.12
991.562	2915.12
991.783	2879.12
992.004	2861.12
992.225	2811.12
992.446	2850.12
992.667	2740.12
992.887	2802.12
993.108	2718.12
993.329	2817.12
993.55	2778.12
993.77	2662.12
993.991	2693.12
994.212	2721.12
994.432	2660.12
994.653	2715.12
994.873	2711.12
995.093	2569.12
995.314	2601.12
995.534	2655.12
995.754	2673.12
995.975	2706.12
996.195	2543.12
996.415	2606.12
996.635	2593.12
996.855	2598.12
997.075	2541.12
997.295	2535.12
997.515	2528.12
997.735	2573.12
997.955	2515.12
998.174	2545.12
998.394	2478.12
998.614	2527.12
998.834	2483.12
999.053	2550.12
999.273	2497.12
999.492	2533.12
999.712	2496.12
999.931	2435.12
1000.151	2458.12
1000.37	2436.12
1000.589	2486.12
1000.809	2390.12
1001.028	2506.12
1001.247	2414.12
1001.466	2295.12
1001.685	2445.12
1001.904	2347.12
1002.123	2340.12
1002.342	2355.12
1002.561	2290.12
1002.78	2300.12
1002.999	2337.12
1003.218	2293.12
1003.436	2259.12
1003.655	2281.12
1003.874	2238.12
1004.092	2268.12
1004.311	2271.12
1004.53	2257.12
1004.748	2307.12
1004.966	2223.12
1005.185	2256.12
1005.403	2259.12
1005.622	2234.12
1005.84	2315.12
1006.058	2204.12
1006.276	2197.12
1006.494	2685.12
1006.712	2222.12
1006.931	2247.12
1007.149	2159.12
1007.367	2198.12
1007.584	2215.12
1007.802	2238.12
1008.02	2172.12
1008.238	2276.12
1008.456	2269.12
1008.673	2100.12
1008.891	2259.12
1009.109	2167.12
1009.326	2277.12
1009.544	2349.12
1009.761	2239.12
1009.979	2355.12
1010.196	2362.12
1010.413	2470.12
1010.631	2500.12
1010.848	2591.12
1011.065	2567.12
1011.282	2484.12
1011.5	2467.12
1011.717	2562.12
1011.934	2520.12
1012.151	2523.12
1012.368	2473.12
1012.585	2442.12
1012.801	2480.12
1013.018	2447.12
1013.235	2408.12
1013.452	2406.12
1013.669	2424.12
1013.885	2393.12
1014.102	2482.12
1014.318	2451.12
1014.535	2408.12
1014.751	2413.12
1014.968	2401.12
1015.184	2417.12
1015.401	2316.12
1015.617	2305.12
1015.833	2227.12
1016.049	2272.12
1016.266	2206.12
1016.482	2260.12
1016.698	2167.12
1016.914	2224.12
1017.13	2177.12
1017.346	2126.12
1017.562	2152.12
1017.778	2127.12
1017.993	2055.12
1018.209	2139.12
1018.425	2096.12
1018.641	2065.12
1018.856	2034.12
1019.072	2072.12
1019.288	2094.12
1019.503	2089.12
1019.719	1973.12
1019.934	1953.12
1020.149	2039.12
1020.365	2028.12
1020.58	1901.12
1020.795	1948.12
1021.011	1859.12
1021.226	1816.12
1021.441	1863.12
1021.656	1784.12
1021.871	1733.12
1022.086	1693.12
1022.301	1699.12
1022.516	1663.12
1022.731	1691.12
1022.946	1579.12
1023.16	1574.12
1023.375	1551.12
1023.59	1527.12
1023.804	1485.12
1024.019	1568.12
1024.234	1444.12
1024.448	1467.12
1024.663	1401.12
1024.877	1394.12
1025.092	1381.12
1025.306	1388.12
1025.52	1285.12
1025.734	1363.12
1025.949	1267.12
1026.163	1254.12
1026.377	1144.12
1026.591	1214.12
1026.805	1125.12
1027.019	1108.12
1027.233	1092.12
1027.447	1056.12
1027.661	1100.12
1027.875	1055.12
1028.088	1059.12
1028.302	969.12
1028.516	970.12
1028.73	937.12
1028.943	935.12
1029.157	876.12
1029.37	832.12
1029.584	-1.88
1029.797	0.12
1030.011	1.12
1030.224	-2.88
