Data from QEP037381__229__16-01-39-894.txt Node

Date: Fri Dec 16 16:01:39 EST 2022
User: dcclab
Spectrometer: QEP03738
Trigger mode: 4
Integration Time (sec): 1.000000E1
Scans to average: 1
Electric dark correction enabled: true
Nonlinearity correction enabled: false
Boxcar width: 0
XAxis mode: Wavelengths
Number of Pixels in Spectrum: 1044
>>>>>Begin Spectral Data<<<<<
784.041	10.25
784.3	2.25
784.558	2.25
784.817	-1.75
785.075	108104.25
785.334	18861.25
785.592	8882.25
785.851	6157.25
786.109	4594.25
786.368	3605.25
786.626	2878.25
786.884	2366.25
787.143	1970.25
787.401	1655.25
787.659	1494.25
787.917	1267.25
788.175	1160.25
788.433	999.25
788.691	911.25
788.949	850.25
789.207	811.25
789.465	700.25
789.723	670.25
789.98	611.25
790.238	640.25
790.496	619.25
790.753	576.25
791.011	638.25
791.268	566.25
791.526	542.25
791.783	560.25
792.041	529.25
792.298	452.25
792.556	525.25
792.813	504.25
793.07	494.25
793.327	473.25
793.584	555.25
793.841	463.25
794.099	497.25
794.356	542.25
794.613	447.25
794.869	484.25
795.126	451.25
795.383	424.25
795.64	444.25
795.897	406.25
796.153	458.25
796.41	436.25
796.667	423.25
796.923	433.25
797.18	460.25
797.436	459.25
797.693	429.25
797.949	503.25
798.206	511.25
798.462	418.25
798.718	491.25
798.974	453.25
799.231	500.25
799.487	474.25
799.743	488.25
799.999	528.25
800.255	532.25
800.511	512.25
800.767	564.25
801.023	544.25
801.279	586.25
801.534	610.25
801.79	674.25
802.046	705.25
802.302	862.25
802.557	1002.25
802.813	1226.25
803.068	1544.25
803.324	2146.25
803.579	2882.25
803.835	3999.25
804.09	5450.25
804.345	7113.25
804.601	8978.25
804.856	10884.25
805.111	12635.25
805.366	13887.25
805.621	14908.25
805.876	15510.25
806.131	15885.25
806.386	16216.25
806.641	16460.25
806.896	16838.25
807.151	17054.25
807.406	17237.25
807.661	17561.25
807.915	17887.25
808.17	18221.25
808.425	18355.25
808.679	18562.25
808.934	18838.25
809.188	18968.25
809.443	19016.25
809.697	19317.25
809.951	19425.25
810.206	19540.25
810.46	19761.25
810.714	19934.25
810.968	20211.25
811.223	20239.25
811.477	20434.25
811.731	20605.25
811.985	20778.25
812.239	20687.25
812.493	20888.25
812.747	21033.25
813	21029.25
813.254	21202.25
813.508	21247.25
813.762	21366.25
814.015	21443.25
814.269	21558.25
814.522	21712.25
814.776	22046.25
815.03	22250.25
815.283	22487.25
815.536	22940.25
815.79	23251.25
816.043	23491.25
816.296	23745.25
816.55	24104.25
816.803	24303.25
817.056	24696.25
817.309	24941.25
817.562	25106.25
817.815	25283.25
818.068	25537.25
818.321	25755.25
818.574	26067.25
818.827	26357.25
819.079	26653.25
819.332	27207.25
819.585	27494.25
819.838	27832.25
820.09	28021.25
820.343	28169.25
820.595	28233.25
820.848	28403.25
821.1	28508.25
821.353	28557.25
821.605	28442.25
821.857	28637.25
822.11	28343.25
822.362	28397.25
822.614	28364.25
822.866	28243.25
823.118	28182.25
823.37	28487.25
823.622	28470.25
823.874	28564.25
824.126	28624.25
824.378	28656.25
824.63	28721.25
824.882	28782.25
825.134	28710.25
825.385	28586.25
825.637	28565.25
825.888	28531.25
826.14	28472.25
826.392	28406.25
826.643	28087.25
826.895	28185.25
827.146	27987.25
827.397	27814.25
827.649	28005.25
827.9	27874.25
828.151	27865.25
828.402	27939.25
828.653	27998.25
828.905	28098.25
829.156	28164.25
829.407	28205.25
829.658	28026.25
829.909	28070.25
830.159	28095.25
830.41	27992.25
830.661	27784.25
830.912	27647.25
831.162	27591.25
831.413	27590.25
831.664	27535.25
831.914	27458.25
832.165	27372.25
832.415	27385.25
832.666	27429.25
832.916	27494.25
833.167	27264.25
833.417	27327.25
833.667	27182.25
833.917	27081.25
834.168	27101.25
834.418	26871.25
834.668	26959.25
834.918	26719.25
835.168	26710.25
835.418	26383.25
835.668	26436.25
835.918	26383.25
836.167	26327.25
836.417	26246.25
836.667	26179.25
836.917	26099.25
837.166	26090.25
837.416	26087.25
837.666	26190.25
837.915	26029.25
838.165	26021.25
838.414	25831.25
838.663	25907.25
838.913	25881.25
839.162	25793.25
839.411	25734.25
839.661	25448.25
839.91	25557.25
840.159	25524.25
840.408	25487.25
840.657	25365.25
840.906	25465.25
841.155	25502.25
841.404	25480.25
841.653	25463.25
841.902	25364.25
842.15	25495.25
842.399	25413.25
842.648	25420.25
842.897	25260.25
843.145	24988.25
843.394	24966.25
843.642	24873.25
843.891	24712.25
844.139	24674.25
844.388	24462.25
844.636	24331.25
844.884	24354.25
845.133	24288.25
845.381	24289.25
845.629	24342.25
845.877	24193.25
846.125	24164.25
846.373	24084.25
846.621	23949.25
846.869	23855.25
847.117	23914.25
847.365	23748.25
847.613	23557.25
847.861	23527.25
848.108	23523.25
848.356	23430.25
848.604	23472.25
848.851	23322.25
849.099	23470.25
849.346	23470.25
849.594	23548.25
849.841	23531.25
850.089	23565.25
850.336	23470.25
850.583	23529.25
850.831	23395.25
851.078	23313.25
851.325	23287.25
851.572	23271.25
851.819	23004.25
852.066	22761.25
852.313	22396.25
852.56	22180.25
852.807	22073.25
853.054	22148.25
853.301	21986.25
853.548	21966.25
853.794	22134.25
854.041	22160.25
854.288	22249.25
854.534	22459.25
854.781	22452.25
855.028	22253.25
855.274	22349.25
855.52	22175.25
855.767	22031.25
856.013	22082.25
856.26	22323.25
856.506	21780.25
856.752	21817.25
856.998	21750.25
857.244	21808.25
857.49	21941.25
857.736	21986.25
857.982	21897.25
858.228	21922.25
858.474	21714.25
858.72	21529.25
858.966	21400.25
859.212	21237.25
859.458	20959.25
859.703	20785.25
859.949	20651.25
860.195	20418.25
860.44	20336.25
860.686	20191.25
860.931	20270.25
861.177	20038.25
861.422	20076.25
861.667	19957.25
861.913	19910.25
862.158	20047.25
862.403	20017.25
862.648	20105.25
862.893	20012.25
863.138	20013.25
863.384	19941.25
863.629	19985.25
863.873	19904.25
864.118	19873.25
864.363	19804.25
864.608	19741.25
864.853	19653.25
865.098	19492.25
865.342	19455.25
865.587	19295.25
865.832	19328.25
866.076	19246.25
866.321	19112.25
866.565	19103.25
866.81	18944.25
867.054	18965.25
867.298	18965.25
867.543	18802.25
867.787	18779.25
868.031	18841.25
868.275	18749.25
868.519	18766.25
868.764	18611.25
869.008	18594.25
869.252	18599.25
869.496	18554.25
869.739	18372.25
869.983	18481.25
870.227	18474.25
870.471	18496.25
870.715	18500.25
870.958	18480.25
871.202	18487.25
871.446	18452.25
871.689	18578.25
871.933	18507.25
872.176	18556.25
872.42	18524.25
872.663	18367.25
872.906	18316.25
873.15	18266.25
873.393	18224.25
873.636	18081.25
873.879	18017.25
874.122	17849.25
874.366	17503.25
874.609	17481.25
874.852	17328.25
875.095	17273.25
875.337	17170.25
875.58	17054.25
875.823	17042.25
876.066	17022.25
876.309	16947.25
876.551	16878.25
876.794	16656.25
877.037	16796.25
877.279	16695.25
877.522	16673.25
877.764	16619.25
878.007	16559.25
878.249	16582.25
878.491	16516.25
878.734	16587.25
878.976	16481.25
879.218	16439.25
879.46	16345.25
879.702	16223.25
879.945	16028.25
880.187	15937.25
880.429	15878.25
880.671	15724.25
880.912	15733.25
881.154	15608.25
881.396	15477.25
881.638	15554.25
881.88	15626.25
882.121	15581.25
882.363	15535.25
882.605	15590.25
882.846	15562.25
883.088	15467.25
883.329	15304.25
883.571	15413.25
883.812	15501.25
884.053	15694.25
884.295	15857.25
884.536	16025.25
884.777	15919.25
885.018	15846.25
885.259	15787.25
885.5	15651.25
885.742	15737.25
885.982	15575.25
886.223	15428.25
886.464	15346.25
886.705	15246.25
886.946	15150.25
887.187	14945.25
887.428	14825.25
887.668	14626.25
887.909	14331.25
888.15	14243.25
888.39	14153.25
888.631	14116.25
888.871	14008.25
889.111	13904.25
889.352	13777.25
889.592	13744.25
889.833	13642.25
890.073	13515.25
890.313	13474.25
890.553	13324.25
890.793	13308.25
891.033	13174.25
891.273	13112.25
891.513	13079.25
891.753	13184.25
891.993	13038.25
892.233	13151.25
892.473	13126.25
892.713	13095.25
892.952	13004.25
893.192	13096.25
893.432	13040.25
893.671	12995.25
893.911	12992.25
894.15	12859.25
894.39	12698.25
894.629	12670.25
894.869	12682.25
895.108	12591.25
895.347	12525.25
895.587	12486.25
895.826	12406.25
896.065	12362.25
896.304	12420.25
896.543	12376.25
896.782	12347.25
897.021	12288.25
897.26	12216.25
897.499	12298.25
897.738	12208.25
897.977	12125.25
898.216	12024.25
898.454	11906.25
898.693	11840.25
898.932	11866.25
899.17	11738.25
899.409	11805.25
899.647	11674.25
899.886	11629.25
900.124	11750.25
900.363	11674.25
900.601	11675.25
900.839	11682.25
901.078	11679.25
901.316	11681.25
901.554	11796.25
901.792	11729.25
902.03	11723.25
902.268	11839.25
902.506	11825.25
902.744	11575.25
902.982	11574.25
903.22	11349.25
903.458	11317.25
903.695	11110.25
903.933	11010.25
904.171	10832.25
904.409	10694.25
904.646	10621.25
904.884	10418.25
905.121	10337.25
905.359	10266.25
905.596	10161.25
905.833	10028.25
906.071	9953.25
906.308	10019.25
906.545	9889.25
906.783	9875.25
907.02	9833.25
907.257	9811.25
907.494	9838.25
907.731	9765.25
907.968	9739.25
908.205	9576.25
908.442	9564.25
908.679	9475.25
908.915	9418.25
909.152	9400.25
909.389	9230.25
909.626	9219.25
909.862	9187.25
910.099	9205.25
910.335	9167.25
910.572	9043.25
910.808	9068.25
911.045	8988.25
911.281	9021.25
911.518	8923.25
911.754	8903.25
911.99	8869.25
912.226	8743.25
912.463	8729.25
912.699	8601.25
912.935	8548.25
913.171	8537.25
913.407	8426.25
913.643	8403.25
913.879	8311.25
914.114	8249.25
914.35	8134.25
914.586	8103.25
914.822	7959.25
915.057	8034.25
915.293	7889.25
915.529	7775.25
915.764	7904.25
916	7900.25
916.235	7851.25
916.471	7795.25
916.706	7728.25
916.941	7746.25
917.177	7719.25
917.412	7700.25
917.647	7785.25
917.882	7721.25
918.117	7747.25
918.352	7628.25
918.588	7639.25
918.823	7577.25
919.057	7520.25
919.292	7363.25
919.527	7421.25
919.762	7237.25
919.997	7264.25
920.232	7118.25
920.466	7101.25
920.701	6931.25
920.935	6937.25
921.17	6912.25
921.405	6832.25
921.639	6905.25
921.873	6847.25
922.108	6825.25
922.342	6812.25
922.576	6691.25
922.811	6676.25
923.045	6730.25
923.279	6714.25
923.513	6552.25
923.747	6654.25
923.981	6638.25
924.215	6462.25
924.449	6455.25
924.683	6314.25
924.917	6391.25
925.151	6338.25
925.385	6439.25
925.618	6336.25
925.852	6310.25
926.086	6208.25
926.319	6286.25
926.553	6278.25
926.786	6282.25
927.02	6304.25
927.253	6256.25
927.486	6214.25
927.72	6238.25
927.953	6254.25
928.186	6122.25
928.42	6165.25
928.653	6134.25
928.886	6076.25
929.119	6161.25
929.352	6004.25
929.585	5974.25
929.818	5898.25
930.051	5927.25
930.284	5925.25
930.516	5722.25
930.749	5753.25
930.982	5780.25
931.215	5749.25
931.447	5682.25
931.68	5670.25
931.912	5646.25
932.145	5567.25
932.377	5666.25
932.61	5788.25
932.842	5524.25
933.074	5618.25
933.307	5551.25
933.539	5655.25
933.771	5645.25
934.003	5588.25
934.236	5693.25
934.468	5632.25
934.7	5541.25
934.932	5585.25
935.164	5517.25
935.395	5456.25
935.627	5470.25
935.859	5477.25
936.091	5354.25
936.323	5469.25
936.554	5418.25
936.786	5387.25
937.017	5308.25
937.249	5347.25
937.481	5295.25
937.712	5362.25
937.943	5337.25
938.175	5283.25
938.406	5264.25
938.637	5319.25
938.869	5150.25
939.1	5248.25
939.331	5183.25
939.562	5236.25
939.793	5173.25
940.024	5184.25
940.255	5207.25
940.486	5140.25
940.717	5086.25
940.948	5079.25
941.179	4997.25
941.409	5035.25
941.64	4974.25
941.871	4995.25
942.102	4944.25
942.332	4950.25
942.563	5046.25
942.793	4993.25
943.024	4961.25
943.254	4962.25
943.484	5010.25
943.715	4996.25
943.945	4991.25
944.175	4899.25
944.405	4858.25
944.636	4887.25
944.866	4905.25
945.096	4922.25
945.326	4796.25
945.556	4958.25
945.786	4905.25
946.016	4790.25
946.245	4751.25
946.475	4711.25
946.705	4709.25
946.935	4644.25
947.164	4663.25
947.394	4641.25
947.624	4633.25
947.853	4630.25
948.083	4626.25
948.312	4570.25
948.542	4499.25
948.771	4469.25
949	4454.25
949.23	4479.25
949.459	4529.25
949.688	4486.25
949.917	4483.25
950.146	4495.25
950.375	4486.25
950.604	4412.25
950.833	4469.25
951.062	4462.25
951.291	4417.25
951.52	4380.25
951.749	4433.25
951.978	4342.25
952.206	4344.25
952.435	4333.25
952.664	4355.25
952.892	4326.25
953.121	4331.25
953.349	4315.25
953.578	4283.25
953.806	4237.25
954.035	4190.25
954.263	4208.25
954.491	4162.25
954.719	4175.25
954.948	4161.25
955.176	4122.25
955.404	4016.25
955.632	4068.25
955.86	4038.25
956.088	4061.25
956.316	4072.25
956.544	4124.25
956.772	4006.25
956.999	3990.25
957.227	4030.25
957.455	3911.25
957.683	3924.25
957.91	3844.25
958.138	3874.25
958.365	3841.25
958.593	3852.25
958.82	3761.25
959.048	3896.25
959.275	3782.25
959.502	3819.25
959.73	3763.25
959.957	3812.25
960.184	3795.25
960.411	3660.25
960.638	3777.25
960.865	3709.25
961.092	3763.25
961.319	3648.25
961.546	3782.25
961.773	3765.25
962	3722.25
962.227	3715.25
962.454	3685.25
962.68	3652.25
962.907	3636.25
963.134	3600.25
963.36	3618.25
963.587	3638.25
963.813	3526.25
964.04	3586.25
964.266	3513.25
964.493	3574.25
964.719	3500.25
964.945	3521.25
965.171	3388.25
965.398	3483.25
965.624	3493.25
965.85	3409.25
966.076	3347.25
966.302	3396.25
966.528	3343.25
966.754	3383.25
966.98	3349.25
967.206	3374.25
967.431	3294.25
967.657	3374.25
967.883	3303.25
968.109	3351.25
968.334	3230.25
968.56	3226.25
968.785	3238.25
969.011	3191.25
969.236	3284.25
969.462	3197.25
969.687	3206.25
969.912	3215.25
970.138	3254.25
970.363	3164.25
970.588	3187.25
970.813	3105.25
971.038	3167.25
971.263	3141.25
971.488	3135.25
971.713	3159.25
971.938	3170.25
972.163	3026.25
972.388	3036.25
972.613	3024.25
972.838	3062.25
973.062	3032.25
973.287	2980.25
973.512	2948.25
973.736	2968.25
973.961	2979.25
974.185	2929.25
974.41	2955.25
974.634	2865.25
974.858	2861.25
975.083	2910.25
975.307	2912.25
975.531	2856.25
975.755	2789.25
975.98	2747.25
976.204	2680.25
976.428	2728.25
976.652	2721.25
976.876	2698.25
977.1	2725.25
977.324	2659.25
977.547	2722.25
977.771	2694.25
977.995	2666.25
978.219	2636.25
978.442	2729.25
978.666	2666.25
978.89	2604.25
979.113	2646.25
979.337	2642.25
979.56	2615.25
979.783	2688.25
980.007	2580.25
980.23	2620.25
980.453	2557.25
980.677	2628.25
980.9	2562.25
981.123	2504.25
981.346	2557.25
981.569	2523.25
981.792	2561.25
982.015	2484.25
982.238	2454.25
982.461	2474.25
982.684	2436.25
982.907	2421.25
983.129	2433.25
983.352	2469.25
983.575	2436.25
983.797	2458.25
984.02	2371.25
984.242	2363.25
984.465	2380.25
984.687	2419.25
984.91	2381.25
985.132	2358.25
985.354	2356.25
985.577	2335.25
985.799	2352.25
986.021	2226.25
986.243	2291.25
986.465	2292.25
986.687	2314.25
986.909	2386.25
987.131	2250.25
987.353	2251.25
987.575	2317.25
987.797	2226.25
988.019	2171.25
988.241	2240.25
988.462	2181.25
988.684	2252.25
988.906	2270.25
989.127	2263.25
989.349	2179.25
989.57	2195.25
989.792	2220.25
990.013	2229.25
990.234	2219.25
990.456	2243.25
990.677	2228.25
990.898	2168.25
991.119	2145.25
991.341	2177.25
991.562	2104.25
991.783	2164.25
992.004	2085.25
992.225	2042.25
992.446	2118.25
992.667	2013.25
992.887	2067.25
993.108	1994.25
993.329	2124.25
993.55	2054.25
993.77	1987.25
993.991	1974.25
994.212	2033.25
994.432	1990.25
994.653	1991.25
994.873	2005.25
995.093	1876.25
995.314	1925.25
995.534	1982.25
995.754	2019.25
995.975	2025.25
996.195	1900.25
996.415	1968.25
996.635	1944.25
996.855	1952.25
997.075	1902.25
997.295	1920.25
997.515	1879.25
997.735	1969.25
997.955	1908.25
998.174	1894.25
998.394	1865.25
998.614	1918.25
998.834	1870.25
999.053	1947.25
999.273	1876.25
999.492	1937.25
999.712	1856.25
999.931	1858.25
1000.151	1914.25
1000.37	1853.25
1000.589	1887.25
1000.809	1782.25
1001.028	1920.25
1001.247	1884.25
1001.466	1717.25
1001.685	1895.25
1001.904	1810.25
1002.123	1813.25
1002.342	1803.25
1002.561	1754.25
1002.78	1746.25
1002.999	1840.25
1003.218	1773.25
1003.436	1741.25
1003.655	1786.25
1003.874	1737.25
1004.092	1793.25
1004.311	1764.25
1004.53	1738.25
1004.748	1821.25
1004.966	1726.25
1005.185	1771.25
1005.403	1773.25
1005.622	1755.25
1005.84	1825.25
1006.058	1701.25
1006.276	1732.25
1006.494	2226.25
1006.712	1759.25
1006.931	1801.25
1007.149	1702.25
1007.367	1695.25
1007.584	1742.25
1007.802	1774.25
1008.02	1711.25
1008.238	1786.25
1008.456	1785.25
1008.673	1672.25
1008.891	1782.25
1009.109	1721.25
1009.326	1810.25
1009.544	1871.25
1009.761	1808.25
1009.979	1867.25
1010.196	1903.25
1010.413	1989.25
1010.631	2017.25
1010.848	2104.25
1011.065	2109.25
1011.282	2033.25
1011.5	1960.25
1011.717	2065.25
1011.934	2017.25
1012.151	2008.25
1012.368	2005.25
1012.585	1968.25
1012.801	2014.25
1013.018	1966.25
1013.235	1940.25
1013.452	1970.25
1013.669	1971.25
1013.885	1961.25
1014.102	2004.25
1014.318	1978.25
1014.535	1924.25
1014.751	1933.25
1014.968	1983.25
1015.184	1969.25
1015.401	1882.25
1015.617	1902.25
1015.833	1851.25
1016.049	1853.25
1016.266	1827.25
1016.482	1835.25
1016.698	1720.25
1016.914	1785.25
1017.13	1732.25
1017.346	1723.25
1017.562	1801.25
1017.778	1732.25
1017.993	1677.25
1018.209	1702.25
1018.425	1740.25
1018.641	1716.25
1018.856	1645.25
1019.072	1702.25
1019.288	1735.25
1019.503	1652.25
1019.719	1597.25
1019.934	1620.25
1020.149	1687.25
1020.365	1615.25
1020.58	1566.25
1020.795	1619.25
1021.011	1552.25
1021.226	1501.25
1021.441	1531.25
1021.656	1448.25
1021.871	1400.25
1022.086	1397.25
1022.301	1350.25
1022.516	1335.25
1022.731	1386.25
1022.946	1305.25
1023.16	1295.25
1023.375	1285.25
1023.59	1253.25
1023.804	1210.25
1024.019	1310.25
1024.234	1190.25
1024.448	1186.25
1024.663	1124.25
1024.877	1160.25
1025.092	1148.25
1025.306	1137.25
1025.52	1048.25
1025.734	1158.25
1025.949	1044.25
1026.163	1016.25
1026.377	961.25
1026.591	986.25
1026.805	946.25
1027.019	920.25
1027.233	889.25
1027.447	826.25
1027.661	931.25
1027.875	870.25
1028.088	877.25
1028.302	818.25
1028.516	788.25
1028.73	785.25
1028.943	778.25
1029.157	725.25
1029.37	691.25
1029.584	0.25
1029.797	-2.75
1030.011	-4.75
1030.224	-5.75
