Data from QEP037381__169__15-51-39-887.txt Node

Date: Fri Dec 16 15:51:39 EST 2022
User: dcclab
Spectrometer: QEP03738
Trigger mode: 4
Integration Time (sec): 1.000000E1
Scans to average: 1
Electric dark correction enabled: true
Nonlinearity correction enabled: false
Boxcar width: 0
XAxis mode: Wavelengths
Number of Pixels in Spectrum: 1044
>>>>>Begin Spectral Data<<<<<
784.041	12.88
784.3	2.88
784.558	-3.12
784.817	-4.12
785.075	112391.88
785.334	19390.88
785.592	9117.88
785.851	6329.88
786.109	4701.88
786.368	3656.88
786.626	2951.88
786.884	2425.88
787.143	2034.88
787.401	1678.88
787.659	1541.88
787.917	1308.88
788.175	1173.88
788.433	1039.88
788.691	951.88
788.949	869.88
789.207	826.88
789.465	714.88
789.723	680.88
789.98	608.88
790.238	652.88
790.496	639.88
790.753	592.88
791.011	645.88
791.268	571.88
791.526	531.88
791.783	595.88
792.041	544.88
792.298	465.88
792.556	524.88
792.813	504.88
793.07	477.88
793.327	478.88
793.584	555.88
793.841	483.88
794.099	486.88
794.356	548.88
794.613	447.88
794.869	471.88
795.126	448.88
795.383	434.88
795.64	453.88
795.897	411.88
796.153	462.88
796.41	448.88
796.667	441.88
796.923	443.88
797.18	449.88
797.436	473.88
797.693	424.88
797.949	493.88
798.206	512.88
798.462	432.88
798.718	489.88
798.974	449.88
799.231	518.88
799.487	500.88
799.743	524.88
799.999	538.88
800.255	540.88
800.511	523.88
800.767	579.88
801.023	543.88
801.279	598.88
801.534	650.88
801.79	708.88
802.046	727.88
802.302	895.88
802.557	1039.88
802.813	1314.88
803.068	1622.88
803.324	2262.88
803.579	3087.88
803.835	4287.88
804.09	5945.88
804.345	7714.88
804.601	9727.88
804.856	11746.88
805.111	13486.88
805.366	14868.88
805.621	15793.88
805.876	16595.88
806.131	16907.88
806.386	17285.88
806.641	17611.88
806.896	17898.88
807.151	18260.88
807.406	18446.88
807.661	18742.88
807.915	19072.88
808.17	19450.88
808.425	19605.88
808.679	19714.88
808.934	20077.88
809.188	20089.88
809.443	20326.88
809.697	20594.88
809.951	20779.88
810.206	20881.88
810.46	21254.88
810.714	21377.88
810.968	21521.88
811.223	21575.88
811.477	21909.88
811.731	22112.88
811.985	22139.88
812.239	22087.88
812.493	22226.88
812.747	22244.88
813	22308.88
813.254	22395.88
813.508	22644.88
813.762	22729.88
814.015	22675.88
814.269	22872.88
814.522	23131.88
814.776	23256.88
815.03	23629.88
815.283	24050.88
815.536	24424.88
815.79	24702.88
816.043	25080.88
816.296	25311.88
816.55	25552.88
816.803	25935.88
817.056	26220.88
817.309	26382.88
817.562	26688.88
817.815	27062.88
818.068	27143.88
818.321	27354.88
818.574	27674.88
818.827	27970.88
819.079	28314.88
819.332	28877.88
819.585	29091.88
819.838	29594.88
820.09	29685.88
820.343	29925.88
820.595	30010.88
820.848	30131.88
821.1	30304.88
821.353	30276.88
821.605	30347.88
821.857	30275.88
822.11	30085.88
822.362	30068.88
822.614	29936.88
822.866	30020.88
823.118	30019.88
823.37	30146.88
823.622	30222.88
823.874	30219.88
824.126	30423.88
824.378	30421.88
824.63	30466.88
824.882	30677.88
825.134	30462.88
825.385	30521.88
825.637	30385.88
825.888	30273.88
826.14	30197.88
826.392	29985.88
826.643	29779.88
826.895	29777.88
827.146	29603.88
827.397	29547.88
827.649	29708.88
827.9	29557.88
828.151	29528.88
828.402	29752.88
828.653	29735.88
828.905	29849.88
829.156	29920.88
829.407	29763.88
829.658	29865.88
829.909	29883.88
830.159	29869.88
830.41	29551.88
830.661	29541.88
830.912	29307.88
831.162	29087.88
831.413	29099.88
831.664	29117.88
831.914	29049.88
832.165	28998.88
832.415	29082.88
832.666	28907.88
832.916	29066.88
833.167	28933.88
833.417	28901.88
833.667	28903.88
833.917	28720.88
834.168	28715.88
834.418	28630.88
834.668	28570.88
834.918	28172.88
835.168	28191.88
835.418	28120.88
835.668	27996.88
835.918	27979.88
836.167	27837.88
836.417	27873.88
836.667	27713.88
836.917	27725.88
837.166	27574.88
837.416	27852.88
837.666	27672.88
837.915	27527.88
838.165	27518.88
838.414	27433.88
838.663	27265.88
838.913	27263.88
839.162	27238.88
839.411	27275.88
839.661	26934.88
839.91	26985.88
840.159	26823.88
840.408	26917.88
840.657	26926.88
840.906	27054.88
841.155	26980.88
841.404	26848.88
841.653	26845.88
841.902	26863.88
842.15	27014.88
842.399	26994.88
842.648	26942.88
842.897	26779.88
843.145	26572.88
843.394	26378.88
843.642	26214.88
843.891	26211.88
844.139	25969.88
844.388	25883.88
844.636	25627.88
844.884	25733.88
845.133	25627.88
845.381	25693.88
845.629	25686.88
845.877	25607.88
846.125	25563.88
846.373	25399.88
846.621	25361.88
846.869	25285.88
847.117	25180.88
847.365	25085.88
847.613	24911.88
847.861	24827.88
848.108	24700.88
848.356	24802.88
848.604	24639.88
848.851	24567.88
849.099	24726.88
849.346	24600.88
849.594	24820.88
849.841	24898.88
850.089	24801.88
850.336	24856.88
850.583	24898.88
850.831	24729.88
851.078	24587.88
851.325	24483.88
851.572	24562.88
851.819	24267.88
852.066	23959.88
852.313	23566.88
852.56	23309.88
852.807	23294.88
853.054	23330.88
853.301	23148.88
853.548	23199.88
853.794	23372.88
854.041	23408.88
854.288	23387.88
854.534	23658.88
854.781	23607.88
855.028	23425.88
855.274	23553.88
855.52	23441.88
855.767	23264.88
856.013	23330.88
856.26	23516.88
856.506	23027.88
856.752	22966.88
856.998	22915.88
857.244	22941.88
857.49	23127.88
857.736	23082.88
857.982	23165.88
858.228	23086.88
858.474	22954.88
858.72	22737.88
858.966	22512.88
859.212	22311.88
859.458	22047.88
859.703	21822.88
859.949	21551.88
860.195	21522.88
860.44	21351.88
860.686	21152.88
860.931	21325.88
861.177	21131.88
861.422	21103.88
861.667	20919.88
861.913	20936.88
862.158	21088.88
862.403	21112.88
862.648	21113.88
862.893	21083.88
863.138	21070.88
863.384	20963.88
863.629	20898.88
863.873	20976.88
864.118	20786.88
864.363	20646.88
864.608	20649.88
864.853	20594.88
865.098	20552.88
865.342	20332.88
865.587	20169.88
865.832	20285.88
866.076	20217.88
866.321	20042.88
866.565	20036.88
866.81	19891.88
867.054	19825.88
867.298	19791.88
867.543	19742.88
867.787	19715.88
868.031	19670.88
868.275	19700.88
868.519	19631.88
868.764	19514.88
869.008	19472.88
869.252	19376.88
869.496	19392.88
869.739	19267.88
869.983	19267.88
870.227	19252.88
870.471	19285.88
870.715	19239.88
870.958	19363.88
871.202	19344.88
871.446	19502.88
871.689	19419.88
871.933	19369.88
872.176	19410.88
872.42	19247.88
872.663	19244.88
872.906	19125.88
873.15	19265.88
873.393	19151.88
873.636	19091.88
873.879	18875.88
874.122	18628.88
874.366	18457.88
874.609	18303.88
874.852	18086.88
875.095	18021.88
875.337	17843.88
875.58	17765.88
875.823	17771.88
876.066	17742.88
876.309	17741.88
876.551	17512.88
876.794	17412.88
877.037	17488.88
877.279	17407.88
877.522	17426.88
877.764	17431.88
878.007	17352.88
878.249	17245.88
878.491	17199.88
878.734	17308.88
878.976	17211.88
879.218	17059.88
879.46	17137.88
879.702	16886.88
879.945	16705.88
880.187	16543.88
880.429	16520.88
880.671	16428.88
880.912	16320.88
881.154	16258.88
881.396	16156.88
881.638	16162.88
881.88	16212.88
882.121	16280.88
882.363	16127.88
882.605	16116.88
882.846	16084.88
883.088	16111.88
883.329	16039.88
883.571	16007.88
883.812	16090.88
884.053	16322.88
884.295	16586.88
884.536	16824.88
884.777	16664.88
885.018	16493.88
885.259	16505.88
885.5	16291.88
885.742	16470.88
885.982	16238.88
886.223	16185.88
886.464	16032.88
886.705	15926.88
886.946	15778.88
887.187	15506.88
887.428	15377.88
887.668	15192.88
887.909	14933.88
888.15	14736.88
888.39	14725.88
888.631	14604.88
888.871	14468.88
889.111	14464.88
889.352	14326.88
889.592	14171.88
889.833	14004.88
890.073	13944.88
890.313	13953.88
890.553	13796.88
890.793	13785.88
891.033	13718.88
891.273	13550.88
891.513	13576.88
891.753	13530.88
891.993	13477.88
892.233	13561.88
892.473	13595.88
892.713	13590.88
892.952	13478.88
893.192	13548.88
893.432	13495.88
893.671	13437.88
893.911	13432.88
894.15	13341.88
894.39	13233.88
894.629	13126.88
894.869	13094.88
895.108	12955.88
895.347	12893.88
895.587	12898.88
895.826	12770.88
896.065	12808.88
896.304	12839.88
896.543	12781.88
896.782	12717.88
897.021	12670.88
897.26	12723.88
897.499	12664.88
897.738	12617.88
897.977	12478.88
898.216	12425.88
898.454	12324.88
898.693	12178.88
898.932	12205.88
899.17	12144.88
899.409	12075.88
899.647	12080.88
899.886	12020.88
900.124	12127.88
900.363	12009.88
900.601	12030.88
900.839	12014.88
901.078	12007.88
901.316	12038.88
901.554	12159.88
901.792	12142.88
902.03	12141.88
902.268	12141.88
902.506	12152.88
902.744	12018.88
902.982	12022.88
903.22	11800.88
903.458	11687.88
903.695	11519.88
903.933	11332.88
904.171	11229.88
904.409	10959.88
904.646	10889.88
904.884	10719.88
905.121	10728.88
905.359	10439.88
905.596	10347.88
905.833	10238.88
906.071	10259.88
906.308	10263.88
906.545	10243.88
906.783	10115.88
907.02	10120.88
907.257	10112.88
907.494	10050.88
907.731	10099.88
907.968	9975.88
908.205	9908.88
908.442	9881.88
908.679	9789.88
908.915	9765.88
909.152	9707.88
909.389	9552.88
909.626	9501.88
909.862	9452.88
910.099	9451.88
910.335	9421.88
910.572	9279.88
910.808	9334.88
911.045	9293.88
911.281	9173.88
911.518	9288.88
911.754	9096.88
911.99	9096.88
912.226	9015.88
912.463	8871.88
912.699	8851.88
912.935	8809.88
913.171	8751.88
913.407	8639.88
913.643	8625.88
913.879	8507.88
914.114	8432.88
914.35	8374.88
914.586	8291.88
914.822	8264.88
915.057	8237.88
915.293	8055.88
915.529	8045.88
915.764	8096.88
916	8018.88
916.235	8022.88
916.471	8033.88
916.706	7852.88
916.941	7949.88
917.177	7940.88
917.412	7948.88
917.647	7925.88
917.882	7808.88
918.117	7888.88
918.352	7805.88
918.588	7855.88
918.823	7688.88
919.057	7648.88
919.292	7473.88
919.527	7588.88
919.762	7484.88
919.997	7400.88
920.232	7266.88
920.466	7238.88
920.701	7068.88
920.935	7138.88
921.17	7083.88
921.405	7065.88
921.639	7002.88
921.873	6997.88
922.108	6944.88
922.342	6888.88
922.576	6843.88
922.811	6850.88
923.045	6801.88
923.279	6879.88
923.513	6709.88
923.747	6786.88
923.981	6639.88
924.215	6621.88
924.449	6549.88
924.683	6549.88
924.917	6467.88
925.151	6498.88
925.385	6504.88
925.618	6501.88
925.852	6482.88
926.086	6329.88
926.319	6467.88
926.553	6430.88
926.786	6368.88
927.02	6376.88
927.253	6386.88
927.486	6400.88
927.72	6313.88
927.953	6330.88
928.186	6278.88
928.42	6293.88
928.653	6218.88
928.886	6161.88
929.119	6226.88
929.352	6129.88
929.585	6129.88
929.818	6010.88
930.051	6024.88
930.284	5969.88
930.516	5894.88
930.749	5793.88
930.982	5862.88
931.215	5841.88
931.447	5736.88
931.68	5728.88
931.912	5694.88
932.145	5717.88
932.377	5758.88
932.61	5879.88
932.842	5675.88
933.074	5721.88
933.307	5625.88
933.539	5807.88
933.771	5714.88
934.003	5659.88
934.236	5748.88
934.468	5758.88
934.7	5626.88
934.932	5701.88
935.164	5560.88
935.395	5583.88
935.627	5587.88
935.859	5594.88
936.091	5548.88
936.323	5539.88
936.554	5577.88
936.786	5477.88
937.017	5413.88
937.249	5447.88
937.481	5385.88
937.712	5405.88
937.943	5358.88
938.175	5359.88
938.406	5364.88
938.637	5400.88
938.869	5314.88
939.1	5342.88
939.331	5327.88
939.562	5313.88
939.793	5245.88
940.024	5283.88
940.255	5252.88
940.486	5182.88
940.717	5170.88
940.948	5179.88
941.179	5121.88
941.409	5130.88
941.64	5111.88
941.871	5116.88
942.102	5087.88
942.332	5081.88
942.563	5115.88
942.793	5055.88
943.024	5022.88
943.254	5059.88
943.484	5069.88
943.715	5062.88
943.945	5055.88
944.175	4975.88
944.405	4976.88
944.636	4947.88
944.866	5031.88
945.096	5004.88
945.326	4888.88
945.556	4938.88
945.786	4952.88
946.016	4880.88
946.245	4806.88
946.475	4780.88
946.705	4783.88
946.935	4748.88
947.164	4730.88
947.394	4669.88
947.624	4686.88
947.853	4716.88
948.083	4665.88
948.312	4664.88
948.542	4536.88
948.771	4563.88
949	4553.88
949.23	4502.88
949.459	4562.88
949.688	4605.88
949.917	4559.88
950.146	4564.88
950.375	4573.88
950.604	4488.88
950.833	4542.88
951.062	4552.88
951.291	4501.88
951.52	4465.88
951.749	4429.88
951.978	4414.88
952.206	4386.88
952.435	4375.88
952.664	4443.88
952.892	4398.88
953.121	4351.88
953.349	4369.88
953.578	4378.88
953.806	4313.88
954.035	4219.88
954.263	4267.88
954.491	4208.88
954.719	4251.88
954.948	4181.88
955.176	4177.88
955.404	4109.88
955.632	4140.88
955.86	4101.88
956.088	4118.88
956.316	4128.88
956.544	4071.88
956.772	4018.88
956.999	3984.88
957.227	4075.88
957.455	3950.88
957.683	3932.88
957.91	3916.88
958.138	3897.88
958.365	3901.88
958.593	3906.88
958.82	3830.88
959.048	3865.88
959.275	3825.88
959.502	3783.88
959.73	3738.88
959.957	3792.88
960.184	3842.88
960.411	3765.88
960.638	3790.88
960.865	3755.88
961.092	3762.88
961.319	3709.88
961.546	3756.88
961.773	3768.88
962	3700.88
962.227	3776.88
962.454	3715.88
962.68	3706.88
962.907	3718.88
963.134	3651.88
963.36	3622.88
963.587	3658.88
963.813	3586.88
964.04	3602.88
964.266	3490.88
964.493	3619.88
964.719	3569.88
964.945	3541.88
965.171	3419.88
965.398	3458.88
965.624	3479.88
965.85	3381.88
966.076	3424.88
966.302	3454.88
966.528	3370.88
966.754	3389.88
966.98	3395.88
967.206	3371.88
967.431	3279.88
967.657	3338.88
967.883	3320.88
968.109	3338.88
968.334	3263.88
968.56	3229.88
968.785	3242.88
969.011	3238.88
969.236	3311.88
969.462	3267.88
969.687	3198.88
969.912	3228.88
970.138	3280.88
970.363	3175.88
970.588	3225.88
970.813	3193.88
971.038	3140.88
971.263	3162.88
971.488	3145.88
971.713	3200.88
971.938	3134.88
972.163	3049.88
972.388	3086.88
972.613	3029.88
972.838	3091.88
973.062	3062.88
973.287	3055.88
973.512	2972.88
973.736	2992.88
973.961	2985.88
974.185	2947.88
974.41	2929.88
974.634	2867.88
974.858	2858.88
975.083	2903.88
975.307	2933.88
975.531	2818.88
975.755	2804.88
975.98	2832.88
976.204	2762.88
976.428	2741.88
976.652	2748.88
976.876	2684.88
977.1	2738.88
977.324	2729.88
977.547	2736.88
977.771	2800.88
977.995	2711.88
978.219	2661.88
978.442	2766.88
978.666	2703.88
978.89	2710.88
979.113	2660.88
979.337	2611.88
979.56	2631.88
979.783	2703.88
980.007	2596.88
980.23	2634.88
980.453	2599.88
980.677	2645.88
980.9	2594.88
981.123	2498.88
981.346	2598.88
981.569	2564.88
981.792	2568.88
982.015	2519.88
982.238	2489.88
982.461	2504.88
982.684	2482.88
982.907	2409.88
983.129	2411.88
983.352	2473.88
983.575	2411.88
983.797	2448.88
984.02	2376.88
984.242	2363.88
984.465	2373.88
984.687	2401.88
984.91	2442.88
985.132	2365.88
985.354	2416.88
985.577	2378.88
985.799	2351.88
986.021	2290.88
986.243	2292.88
986.465	2306.88
986.687	2346.88
986.909	2381.88
987.131	2313.88
987.353	2254.88
987.575	2269.88
987.797	2234.88
988.019	2192.88
988.241	2228.88
988.462	2227.88
988.684	2271.88
988.906	2288.88
989.127	2292.88
989.349	2184.88
989.57	2212.88
989.792	2233.88
990.013	2243.88
990.234	2244.88
990.456	2257.88
990.677	2226.88
990.898	2190.88
991.119	2160.88
991.341	2193.88
991.562	2122.88
991.783	2171.88
992.004	2121.88
992.225	2076.88
992.446	2114.88
992.667	2033.88
992.887	2106.88
993.108	1983.88
993.329	2111.88
993.55	2063.88
993.77	2005.88
993.991	1997.88
994.212	1994.88
994.432	1989.88
994.653	2015.88
994.873	1976.88
995.093	1898.88
995.314	1937.88
995.534	1985.88
995.754	2003.88
995.975	2041.88
996.195	1894.88
996.415	1963.88
996.635	1913.88
996.855	1948.88
997.075	1920.88
997.295	1927.88
997.515	1894.88
997.735	1959.88
997.955	1894.88
998.174	1905.88
998.394	1880.88
998.614	1914.88
998.834	1902.88
999.053	1955.88
999.273	1879.88
999.492	1965.88
999.712	1902.88
999.931	1838.88
1000.151	1878.88
1000.37	1861.88
1000.589	1913.88
1000.809	1860.88
1001.028	1940.88
1001.247	1884.88
1001.466	1753.88
1001.685	1884.88
1001.904	1836.88
1002.123	1813.88
1002.342	1814.88
1002.561	1782.88
1002.78	1761.88
1002.999	1847.88
1003.218	1793.88
1003.436	1757.88
1003.655	1779.88
1003.874	1752.88
1004.092	1757.88
1004.311	1773.88
1004.53	1750.88
1004.748	1803.88
1004.966	1728.88
1005.185	1806.88
1005.403	1764.88
1005.622	1750.88
1005.84	1843.88
1006.058	1729.88
1006.276	1734.88
1006.494	2238.88
1006.712	1717.88
1006.931	1806.88
1007.149	1712.88
1007.367	1703.88
1007.584	1760.88
1007.802	1768.88
1008.02	1709.88
1008.238	1820.88
1008.456	1820.88
1008.673	1712.88
1008.891	1805.88
1009.109	1775.88
1009.326	1802.88
1009.544	1902.88
1009.761	1825.88
1009.979	1930.88
1010.196	1901.88
1010.413	2033.88
1010.631	2088.88
1010.848	2091.88
1011.065	2144.88
1011.282	2100.88
1011.5	2037.88
1011.717	2136.88
1011.934	2069.88
1012.151	2097.88
1012.368	2071.88
1012.585	2000.88
1012.801	2064.88
1013.018	2005.88
1013.235	2011.88
1013.452	2042.88
1013.669	2023.88
1013.885	2026.88
1014.102	2067.88
1014.318	2008.88
1014.535	1962.88
1014.751	2040.88
1014.968	1972.88
1015.184	2055.88
1015.401	1930.88
1015.617	1948.88
1015.833	1871.88
1016.049	1923.88
1016.266	1880.88
1016.482	1891.88
1016.698	1800.88
1016.914	1840.88
1017.13	1778.88
1017.346	1752.88
1017.562	1849.88
1017.778	1768.88
1017.993	1700.88
1018.209	1802.88
1018.425	1760.88
1018.641	1678.88
1018.856	1685.88
1019.072	1736.88
1019.288	1753.88
1019.503	1732.88
1019.719	1628.88
1019.934	1649.88
1020.149	1715.88
1020.365	1674.88
1020.58	1622.88
1020.795	1657.88
1021.011	1560.88
1021.226	1546.88
1021.441	1583.88
1021.656	1501.88
1021.871	1428.88
1022.086	1401.88
1022.301	1404.88
1022.516	1404.88
1022.731	1424.88
1022.946	1357.88
1023.16	1306.88
1023.375	1297.88
1023.59	1248.88
1023.804	1216.88
1024.019	1326.88
1024.234	1181.88
1024.448	1198.88
1024.663	1164.88
1024.877	1147.88
1025.092	1166.88
1025.306	1169.88
1025.52	1065.88
1025.734	1154.88
1025.949	1078.88
1026.163	1040.88
1026.377	964.88
1026.591	1028.88
1026.805	937.88
1027.019	936.88
1027.233	895.88
1027.447	857.88
1027.661	941.88
1027.875	882.88
1028.088	898.88
1028.302	802.88
1028.516	806.88
1028.73	788.88
1028.943	764.88
1029.157	723.88
1029.37	681.88
1029.584	-3.12
1029.797	-4.12
1030.011	0.88
1030.224	-2.12
