Data from QEP037381__172__15-52-09-887.txt Node

Date: Fri Dec 16 15:52:09 EST 2022
User: dcclab
Spectrometer: QEP03738
Trigger mode: 4
Integration Time (sec): 1.000000E1
Scans to average: 1
Electric dark correction enabled: true
Nonlinearity correction enabled: false
Boxcar width: 0
XAxis mode: Wavelengths
Number of Pixels in Spectrum: 1044
>>>>>Begin Spectral Data<<<<<
784.041	9.38
784.3	0.38
784.558	-1.62
784.817	-2.62
785.075	111206.38
785.334	19321.38
785.592	9059.38
785.851	6334.38
786.109	4773.38
786.368	3690.38
786.626	2988.38
786.884	2437.38
787.143	2050.38
787.401	1721.38
787.659	1544.38
787.917	1309.38
788.175	1197.38
788.433	1046.38
788.691	946.38
788.949	868.38
789.207	829.38
789.465	730.38
789.723	678.38
789.98	639.38
790.238	681.38
790.496	625.38
790.753	600.38
791.011	655.38
791.268	570.38
791.526	586.38
791.783	576.38
792.041	556.38
792.298	460.38
792.556	524.38
792.813	499.38
793.07	475.38
793.327	477.38
793.584	551.38
793.841	477.38
794.099	484.38
794.356	556.38
794.613	437.38
794.869	487.38
795.126	456.38
795.383	437.38
795.64	435.38
795.897	412.38
796.153	445.38
796.41	437.38
796.667	409.38
796.923	435.38
797.18	435.38
797.436	458.38
797.693	436.38
797.949	482.38
798.206	494.38
798.462	427.38
798.718	484.38
798.974	473.38
799.231	513.38
799.487	481.38
799.743	498.38
799.999	538.38
800.255	525.38
800.511	512.38
800.767	542.38
801.023	556.38
801.279	588.38
801.534	627.38
801.79	686.38
802.046	704.38
802.302	868.38
802.557	969.38
802.813	1221.38
803.068	1511.38
803.324	2095.38
803.579	2850.38
803.835	3945.38
804.09	5477.38
804.345	7128.38
804.601	8997.38
804.856	10882.38
805.111	12488.38
805.366	13814.38
805.621	14705.38
805.876	15455.38
806.131	15870.38
806.386	16065.38
806.641	16394.38
806.896	16666.38
807.151	16938.38
807.406	17171.38
807.661	17445.38
807.915	17715.38
808.17	18008.38
808.425	18169.38
808.679	18303.38
808.934	18671.38
809.188	18654.38
809.443	18874.38
809.697	19054.38
809.951	19257.38
810.206	19376.38
810.46	19526.38
810.714	19728.38
810.968	19879.38
811.223	20079.38
811.477	20139.38
811.731	20294.38
811.985	20382.38
812.239	20399.38
812.493	20583.38
812.747	20613.38
813	20761.38
813.254	20830.38
813.508	20894.38
813.762	20985.38
814.015	21079.38
814.269	21135.38
814.522	21377.38
814.776	21575.38
815.03	21877.38
815.283	22093.38
815.536	22448.38
815.79	22816.38
816.043	23109.38
816.296	23350.38
816.55	23621.38
816.803	23960.38
817.056	24167.38
817.309	24417.38
817.562	24602.38
817.815	24867.38
818.068	25015.38
818.321	25153.38
818.574	25464.38
818.827	25786.38
819.079	26148.38
819.332	26539.38
819.585	26815.38
819.838	27238.38
820.09	27225.38
820.343	27478.38
820.595	27514.38
820.848	27742.38
821.1	27855.38
821.353	27801.38
821.605	27766.38
821.857	27891.38
822.11	27658.38
822.362	27615.38
822.614	27527.38
822.866	27552.38
823.118	27514.38
823.37	27657.38
823.622	27645.38
823.874	27884.38
824.126	27969.38
824.378	27807.38
824.63	28038.38
824.882	28025.38
825.134	27894.38
825.385	27996.38
825.637	27944.38
825.888	27735.38
826.14	27722.38
826.392	27597.38
826.643	27463.38
826.895	27325.38
827.146	27162.38
827.397	27215.38
827.649	27238.38
827.9	27007.38
828.151	27135.38
828.402	27256.38
828.653	27269.38
828.905	27338.38
829.156	27366.38
829.407	27322.38
829.658	27331.38
829.909	27285.38
830.159	27369.38
830.41	27225.38
830.661	27039.38
830.912	26867.38
831.162	26748.38
831.413	26759.38
831.664	26815.38
831.914	26632.38
832.165	26643.38
832.415	26530.38
832.666	26712.38
832.916	26636.38
833.167	26620.38
833.417	26557.38
833.667	26409.38
833.917	26366.38
834.168	26335.38
834.418	26288.38
834.668	26123.38
834.918	26013.38
835.168	25856.38
835.418	25819.38
835.668	25630.38
835.918	25625.38
836.167	25549.38
836.417	25497.38
836.667	25470.38
836.917	25385.38
837.166	25396.38
837.416	25387.38
837.666	25389.38
837.915	25400.38
838.165	25294.38
838.414	25155.38
838.663	25117.38
838.913	25123.38
839.162	25083.38
839.411	25110.38
839.661	24867.38
839.91	24883.38
840.159	24714.38
840.408	24743.38
840.657	24818.38
840.906	24675.38
841.155	24699.38
841.404	24623.38
841.653	24737.38
841.902	24686.38
842.15	24820.38
842.399	24894.38
842.648	24737.38
842.897	24633.38
843.145	24433.38
843.394	24333.38
843.642	24038.38
843.891	23974.38
844.139	23835.38
844.388	23740.38
844.636	23584.38
844.884	23598.38
845.133	23624.38
845.381	23611.38
845.629	23592.38
845.877	23418.38
846.125	23505.38
846.373	23539.38
846.621	23363.38
846.869	23167.38
847.117	23184.38
847.365	22980.38
847.613	22923.38
847.861	22885.38
848.108	22935.38
848.356	22724.38
848.604	22654.38
848.851	22598.38
849.099	22695.38
849.346	22702.38
849.594	22735.38
849.841	22883.38
850.089	22833.38
850.336	22794.38
850.583	22836.38
850.831	22683.38
851.078	22597.38
851.325	22544.38
851.572	22615.38
851.819	22344.38
852.066	22049.38
852.313	21753.38
852.56	21594.38
852.807	21384.38
853.054	21457.38
853.301	21319.38
853.548	21403.38
853.794	21612.38
854.041	21457.38
854.288	21683.38
854.534	21824.38
854.781	21827.38
855.028	21663.38
855.274	21660.38
855.52	21436.38
855.767	21389.38
856.013	21469.38
856.26	21730.38
856.506	21205.38
856.752	21073.38
856.998	21214.38
857.244	21221.38
857.49	21352.38
857.736	21324.38
857.982	21403.38
858.228	21179.38
858.474	21075.38
858.72	20906.38
858.966	20701.38
859.212	20604.38
859.458	20400.38
859.703	20146.38
859.949	19895.38
860.195	19837.38
860.44	19802.38
860.686	19623.38
860.931	19589.38
861.177	19475.38
861.422	19443.38
861.667	19340.38
861.913	19258.38
862.158	19375.38
862.403	19392.38
862.648	19461.38
862.893	19452.38
863.138	19430.38
863.384	19394.38
863.629	19306.38
863.873	19280.38
864.118	19263.38
864.363	19093.38
864.608	19090.38
864.853	18950.38
865.098	18902.38
865.342	18836.38
865.587	18661.38
865.832	18661.38
866.076	18652.38
866.321	18606.38
866.565	18484.38
866.81	18420.38
867.054	18380.38
867.298	18380.38
867.543	18278.38
867.787	18258.38
868.031	18249.38
868.275	18121.38
868.519	18045.38
868.764	18104.38
869.008	18137.38
869.252	17999.38
869.496	17911.38
869.739	17818.38
869.983	17950.38
870.227	17872.38
870.471	17851.38
870.715	18021.38
870.958	18000.38
871.202	18011.38
871.446	18099.38
871.689	18001.38
871.933	18000.38
872.176	18005.38
872.42	17980.38
872.663	17875.38
872.906	17923.38
873.15	17793.38
873.393	17805.38
873.636	17756.38
873.879	17533.38
874.122	17378.38
874.366	17200.38
874.609	16981.38
874.852	16836.38
875.095	16731.38
875.337	16688.38
875.58	16565.38
875.823	16513.38
876.066	16542.38
876.309	16386.38
876.551	16384.38
876.794	16203.38
877.037	16280.38
877.279	16160.38
877.522	16136.38
877.764	16211.38
878.007	16015.38
878.249	16054.38
878.491	16049.38
878.734	16047.38
878.976	15900.38
879.218	15850.38
879.46	15800.38
879.702	15691.38
879.945	15567.38
880.187	15474.38
880.429	15352.38
880.671	15227.38
880.912	15124.38
881.154	15165.38
881.396	15030.38
881.638	15070.38
881.88	15187.38
882.121	14978.38
882.363	15039.38
882.605	15051.38
882.846	14997.38
883.088	14895.38
883.329	14934.38
883.571	14809.38
883.812	15039.38
884.053	15280.38
884.295	15543.38
884.536	15672.38
884.777	15606.38
885.018	15462.38
885.259	15459.38
885.5	15274.38
885.742	15570.38
885.982	15163.38
886.223	14988.38
886.464	15076.38
886.705	14868.38
886.946	14788.38
887.187	14459.38
887.428	14366.38
887.668	14036.38
887.909	13949.38
888.15	13729.38
888.39	13709.38
888.631	13628.38
888.871	13430.38
889.111	13362.38
889.352	13322.38
889.592	13176.38
889.833	13130.38
890.073	12932.38
890.313	12984.38
890.553	12782.38
890.793	12755.38
891.033	12745.38
891.273	12674.38
891.513	12609.38
891.753	12582.38
891.993	12572.38
892.233	12575.38
892.473	12596.38
892.713	12653.38
892.952	12579.38
893.192	12650.38
893.432	12505.38
893.671	12542.38
893.911	12472.38
894.15	12396.38
894.39	12338.38
894.629	12261.38
894.869	12167.38
895.108	12162.38
895.347	12059.38
895.587	12003.38
895.826	11937.38
896.065	11942.38
896.304	11996.38
896.543	11938.38
896.782	11883.38
897.021	11826.38
897.26	11890.38
897.499	11873.38
897.738	11821.38
897.977	11685.38
898.216	11554.38
898.454	11546.38
898.693	11451.38
898.932	11388.38
899.17	11321.38
899.409	11330.38
899.647	11310.38
899.886	11289.38
900.124	11276.38
900.363	11284.38
900.601	11353.38
900.839	11340.38
901.078	11358.38
901.316	11374.38
901.554	11361.38
901.792	11454.38
902.03	11407.38
902.268	11481.38
902.506	11396.38
902.744	11336.38
902.982	11281.38
903.22	11074.38
903.458	10930.38
903.695	10853.38
903.933	10680.38
904.171	10409.38
904.409	10330.38
904.646	10253.38
904.884	10004.38
905.121	9985.38
905.359	9821.38
905.596	9761.38
905.833	9639.38
906.071	9674.38
906.308	9574.38
906.545	9535.38
906.783	9507.38
907.02	9535.38
907.257	9426.38
907.494	9473.38
907.731	9383.38
907.968	9382.38
908.205	9285.38
908.442	9263.38
908.679	9191.38
908.915	9088.38
909.152	9045.38
909.389	8900.38
909.626	8875.38
909.862	8777.38
910.099	8835.38
910.335	8782.38
910.572	8707.38
910.808	8722.38
911.045	8613.38
911.281	8611.38
911.518	8596.38
911.754	8482.38
911.99	8542.38
912.226	8419.38
912.463	8335.38
912.699	8297.38
912.935	8215.38
913.171	8124.38
913.407	8065.38
913.643	8091.38
913.879	8006.38
914.114	7967.38
914.35	7808.38
914.586	7800.38
914.822	7626.38
915.057	7727.38
915.293	7546.38
915.529	7491.38
915.764	7615.38
916	7535.38
916.235	7510.38
916.471	7478.38
916.706	7420.38
916.941	7392.38
917.177	7411.38
917.412	7390.38
917.647	7446.38
917.882	7348.38
918.117	7411.38
918.352	7303.38
918.588	7312.38
918.823	7241.38
919.057	7188.38
919.292	7047.38
919.527	7114.38
919.762	7005.38
919.997	6987.38
920.232	6850.38
920.466	6805.38
920.701	6702.38
920.935	6699.38
921.17	6652.38
921.405	6592.38
921.639	6592.38
921.873	6551.38
922.108	6586.38
922.342	6535.38
922.576	6440.38
922.811	6403.38
923.045	6525.38
923.279	6461.38
923.513	6266.38
923.747	6348.38
923.981	6287.38
924.215	6131.38
924.449	6222.38
924.683	6134.38
924.917	6145.38
925.151	6058.38
925.385	6136.38
925.618	6070.38
925.852	6051.38
926.086	5941.38
926.319	6040.38
926.553	5998.38
926.786	5999.38
927.02	5949.38
927.253	6043.38
927.486	5990.38
927.72	5822.38
927.953	5956.38
928.186	5902.38
928.42	5925.38
928.653	5863.38
928.886	5868.38
929.119	5843.38
929.352	5789.38
929.585	5800.38
929.818	5702.38
930.051	5649.38
930.284	5627.38
930.516	5575.38
930.749	5532.38
930.982	5561.38
931.215	5471.38
931.447	5396.38
931.68	5410.38
931.912	5400.38
932.145	5358.38
932.377	5395.38
932.61	5519.38
932.842	5331.38
933.074	5367.38
933.307	5379.38
933.539	5384.38
933.771	5401.38
934.003	5350.38
934.236	5395.38
934.468	5371.38
934.7	5307.38
934.932	5383.38
935.164	5262.38
935.395	5317.38
935.627	5235.38
935.859	5288.38
936.091	5192.38
936.323	5202.38
936.554	5185.38
936.786	5161.38
937.017	5074.38
937.249	5127.38
937.481	5054.38
937.712	5101.38
937.943	5053.38
938.175	5025.38
938.406	5054.38
938.637	5092.38
938.869	4949.38
939.1	5039.38
939.331	4978.38
939.562	5004.38
939.793	4967.38
940.024	5010.38
940.255	4917.38
940.486	4864.38
940.717	4892.38
940.948	4810.38
941.179	4784.38
941.409	4807.38
941.64	4754.38
941.871	4784.38
942.102	4752.38
942.332	4751.38
942.563	4788.38
942.793	4780.38
943.024	4701.38
943.254	4733.38
943.484	4769.38
943.715	4777.38
943.945	4757.38
944.175	4655.38
944.405	4708.38
944.636	4703.38
944.866	4679.38
945.096	4739.38
945.326	4591.38
945.556	4679.38
945.786	4624.38
946.016	4625.38
946.245	4526.38
946.475	4501.38
946.705	4537.38
946.935	4456.38
947.164	4472.38
947.394	4453.38
947.624	4432.38
947.853	4445.38
948.083	4368.38
948.312	4403.38
948.542	4284.38
948.771	4264.38
949	4269.38
949.23	4283.38
949.459	4249.38
949.688	4348.38
949.917	4320.38
950.146	4330.38
950.375	4309.38
950.604	4187.38
950.833	4287.38
951.062	4268.38
951.291	4221.38
951.52	4181.38
951.749	4165.38
951.978	4199.38
952.206	4155.38
952.435	4103.38
952.664	4167.38
952.892	4140.38
953.121	4115.38
953.349	4108.38
953.578	4096.38
953.806	4041.38
954.035	3992.38
954.263	4039.38
954.491	3966.38
954.719	4037.38
954.948	3954.38
955.176	3927.38
955.404	3839.38
955.632	3904.38
955.86	3864.38
956.088	3857.38
956.316	3859.38
956.544	3862.38
956.772	3796.38
956.999	3770.38
957.227	3859.38
957.455	3747.38
957.683	3758.38
957.91	3732.38
958.138	3665.38
958.365	3677.38
958.593	3628.38
958.82	3577.38
959.048	3686.38
959.275	3633.38
959.502	3575.38
959.73	3573.38
959.957	3560.38
960.184	3606.38
960.411	3521.38
960.638	3636.38
960.865	3559.38
961.092	3577.38
961.319	3490.38
961.546	3571.38
961.773	3589.38
962	3542.38
962.227	3567.38
962.454	3510.38
962.68	3462.38
962.907	3482.38
963.134	3403.38
963.36	3438.38
963.587	3470.38
963.813	3426.38
964.04	3417.38
964.266	3344.38
964.493	3439.38
964.719	3370.38
964.945	3363.38
965.171	3253.38
965.398	3325.38
965.624	3311.38
965.85	3230.38
966.076	3187.38
966.302	3218.38
966.528	3226.38
966.754	3185.38
966.98	3216.38
967.206	3169.38
967.431	3120.38
967.657	3217.38
967.883	3185.38
968.109	3140.38
968.334	3137.38
968.56	3101.38
968.785	3095.38
969.011	3047.38
969.236	3102.38
969.462	3008.38
969.687	3046.38
969.912	3057.38
970.138	3123.38
970.363	3013.38
970.588	3037.38
970.813	3023.38
971.038	2983.38
971.263	3017.38
971.488	3007.38
971.713	3015.38
971.938	2991.38
972.163	2930.38
972.388	2913.38
972.613	2905.38
972.838	2911.38
973.062	2887.38
973.287	2892.38
973.512	2806.38
973.736	2891.38
973.961	2821.38
974.185	2806.38
974.41	2823.38
974.634	2688.38
974.858	2729.38
975.083	2767.38
975.307	2775.38
975.531	2722.38
975.755	2649.38
975.98	2666.38
976.204	2566.38
976.428	2575.38
976.652	2582.38
976.876	2566.38
977.1	2591.38
977.324	2528.38
977.547	2586.38
977.771	2585.38
977.995	2577.38
978.219	2497.38
978.442	2621.38
978.666	2557.38
978.89	2567.38
979.113	2531.38
979.337	2566.38
979.56	2474.38
979.783	2552.38
980.007	2468.38
980.23	2454.38
980.453	2450.38
980.677	2509.38
980.9	2468.38
981.123	2357.38
981.346	2469.38
981.569	2423.38
981.792	2452.38
982.015	2546.38
982.238	2386.38
982.461	2375.38
982.684	2330.38
982.907	2340.38
983.129	2319.38
983.352	2368.38
983.575	2336.38
983.797	2301.38
984.02	2274.38
984.242	2240.38
984.465	2274.38
984.687	2310.38
984.91	2329.38
985.132	2283.38
985.354	2277.38
985.577	2260.38
985.799	2250.38
986.021	2192.38
986.243	2157.38
986.465	2177.38
986.687	2230.38
986.909	2260.38
987.131	2195.38
987.353	2130.38
987.575	2212.38
987.797	2173.38
988.019	2086.38
988.241	2128.38
988.462	2100.38
988.684	2159.38
988.906	2190.38
989.127	2172.38
989.349	2058.38
989.57	2088.38
989.792	2151.38
990.013	2141.38
990.234	2118.38
990.456	2165.38
990.677	2149.38
990.898	2094.38
991.119	2075.38
991.341	2090.38
991.562	2036.38
991.783	2079.38
992.004	1993.38
992.225	1976.38
992.446	2023.38
992.667	1950.38
992.887	2018.38
993.108	1906.38
993.329	2037.38
993.55	1961.38
993.77	1895.38
993.991	1911.38
994.212	1937.38
994.432	1916.38
994.653	1931.38
994.873	1945.38
995.093	1794.38
995.314	1841.38
995.534	1915.38
995.754	1944.38
995.975	1920.38
996.195	1846.38
996.415	1888.38
996.635	1843.38
996.855	1868.38
997.075	1872.38
997.295	1847.38
997.515	1822.38
997.735	1878.38
997.955	1834.38
998.174	1838.38
998.394	1798.38
998.614	1850.38
998.834	1811.38
999.053	1850.38
999.273	1807.38
999.492	1883.38
999.712	1826.38
999.931	1793.38
1000.151	1809.38
1000.37	1776.38
1000.589	1839.38
1000.809	1764.38
1001.028	1841.38
1001.247	1816.38
1001.466	1674.38
1001.685	1833.38
1001.904	1757.38
1002.123	1747.38
1002.342	1738.38
1002.561	1727.38
1002.78	1724.38
1002.999	1791.38
1003.218	1692.38
1003.436	1661.38
1003.655	1744.38
1003.874	1698.38
1004.092	1694.38
1004.311	1766.38
1004.53	1691.38
1004.748	1776.38
1004.966	1696.38
1005.185	1743.38
1005.403	1713.38
1005.622	1712.38
1005.84	1760.38
1006.058	1657.38
1006.276	1678.38
1006.494	2178.38
1006.712	1668.38
1006.931	1780.38
1007.149	1651.38
1007.367	1646.38
1007.584	1723.38
1007.802	1725.38
1008.02	1684.38
1008.238	1788.38
1008.456	1761.38
1008.673	1622.38
1008.891	1765.38
1009.109	1723.38
1009.326	1780.38
1009.544	1845.38
1009.761	1790.38
1009.979	1887.38
1010.196	1849.38
1010.413	1989.38
1010.631	2032.38
1010.848	2077.38
1011.065	2074.38
1011.282	2042.38
1011.5	1978.38
1011.717	2074.38
1011.934	2030.38
1012.151	2057.38
1012.368	2028.38
1012.585	1983.38
1012.801	2020.38
1013.018	1973.38
1013.235	1952.38
1013.452	2006.38
1013.669	1986.38
1013.885	1972.38
1014.102	2025.38
1014.318	2000.38
1014.535	1961.38
1014.751	1985.38
1014.968	1969.38
1015.184	1982.38
1015.401	1936.38
1015.617	1953.38
1015.833	1881.38
1016.049	1891.38
1016.266	1849.38
1016.482	1864.38
1016.698	1799.38
1016.914	1845.38
1017.13	1746.38
1017.346	1750.38
1017.562	1829.38
1017.778	1730.38
1017.993	1730.38
1018.209	1769.38
1018.425	1757.38
1018.641	1709.38
1018.856	1707.38
1019.072	1719.38
1019.288	1760.38
1019.503	1701.38
1019.719	1644.38
1019.934	1639.38
1020.149	1730.38
1020.365	1628.38
1020.58	1574.38
1020.795	1655.38
1021.011	1564.38
1021.226	1541.38
1021.441	1558.38
1021.656	1452.38
1021.871	1405.38
1022.086	1403.38
1022.301	1396.38
1022.516	1362.38
1022.731	1394.38
1022.946	1352.38
1023.16	1309.38
1023.375	1287.38
1023.59	1263.38
1023.804	1224.38
1024.019	1295.38
1024.234	1180.38
1024.448	1218.38
1024.663	1139.38
1024.877	1143.38
1025.092	1161.38
1025.306	1166.38
1025.52	1061.38
1025.734	1136.38
1025.949	1039.38
1026.163	1015.38
1026.377	956.38
1026.591	1025.38
1026.805	929.38
1027.019	933.38
1027.233	883.38
1027.447	832.38
1027.661	948.38
1027.875	889.38
1028.088	877.38
1028.302	804.38
1028.516	791.38
1028.73	788.38
1028.943	771.38
1029.157	725.38
1029.37	680.38
1029.584	-2.62
1029.797	-0.62
1030.011	-0.62
1030.224	-1.62
