Data from QEP037381__195__15-55-59-890.txt Node

Date: Fri Dec 16 15:55:59 EST 2022
User: dcclab
Spectrometer: QEP03738
Trigger mode: 4
Integration Time (sec): 1.000000E1
Scans to average: 1
Electric dark correction enabled: true
Nonlinearity correction enabled: false
Boxcar width: 0
XAxis mode: Wavelengths
Number of Pixels in Spectrum: 1044
>>>>>Begin Spectral Data<<<<<
784.041	7.62
784.3	-1.38
784.558	-0.38
784.817	-0.38
785.075	113508.62
785.334	19528.62
785.592	9127.62
785.851	6287.62
786.109	4747.62
786.368	3665.62
786.626	2966.62
786.884	2442.62
787.143	2068.62
787.401	1688.62
787.659	1509.62
787.917	1316.62
788.175	1193.62
788.433	1032.62
788.691	920.62
788.949	869.62
789.207	819.62
789.465	725.62
789.723	680.62
789.98	638.62
790.238	672.62
790.496	634.62
790.753	585.62
791.011	643.62
791.268	567.62
791.526	566.62
791.783	552.62
792.041	551.62
792.298	456.62
792.556	522.62
792.813	498.62
793.07	492.62
793.327	473.62
793.584	563.62
793.841	468.62
794.099	505.62
794.356	536.62
794.613	443.62
794.869	480.62
795.126	441.62
795.383	418.62
795.64	442.62
795.897	406.62
796.153	463.62
796.41	443.62
796.667	438.62
796.923	442.62
797.18	434.62
797.436	466.62
797.693	422.62
797.949	473.62
798.206	511.62
798.462	412.62
798.718	477.62
798.974	477.62
799.231	498.62
799.487	489.62
799.743	491.62
799.999	518.62
800.255	525.62
800.511	504.62
800.767	539.62
801.023	540.62
801.279	576.62
801.534	607.62
801.79	669.62
802.046	698.62
802.302	853.62
802.557	956.62
802.813	1187.62
803.068	1454.62
803.324	2030.62
803.579	2738.62
803.835	3775.62
804.09	5287.62
804.345	6831.62
804.601	8648.62
804.856	10469.62
805.111	11917.62
805.366	13268.62
805.621	14139.62
805.876	14861.62
806.131	15151.62
806.386	15472.62
806.641	15629.62
806.896	15864.62
807.151	16152.62
807.406	16549.62
807.661	16752.62
807.915	16948.62
808.17	17275.62
808.425	17383.62
808.679	17560.62
808.934	17792.62
809.188	17895.62
809.443	18086.62
809.697	18286.62
809.951	18354.62
810.206	18472.62
810.46	18714.62
810.714	18920.62
810.968	19052.62
811.223	19094.62
811.477	19171.62
811.731	19412.62
811.985	19487.62
812.239	19509.62
812.493	19611.62
812.747	19651.62
813	19716.62
813.254	19833.62
813.508	20002.62
813.762	20094.62
814.015	20036.62
814.269	20258.62
814.522	20497.62
814.776	20650.62
815.03	20889.62
815.283	21181.62
815.536	21279.62
815.79	21855.62
816.043	22120.62
816.296	22406.62
816.55	22572.62
816.803	22777.62
817.056	23162.62
817.309	23255.62
817.562	23527.62
817.815	23737.62
818.068	23837.62
818.321	24026.62
818.574	24287.62
818.827	24613.62
819.079	24939.62
819.332	25415.62
819.585	25555.62
819.838	25943.62
820.09	25922.62
820.343	26255.62
820.595	26217.62
820.848	26553.62
821.1	26587.62
821.353	26455.62
821.605	26489.62
821.857	26539.62
822.11	26362.62
822.362	26322.62
822.614	26224.62
822.866	26313.62
823.118	26251.62
823.37	26379.62
823.622	26345.62
823.874	26507.62
824.126	26491.62
824.378	26626.62
824.63	26648.62
824.882	26737.62
825.134	26596.62
825.385	26621.62
825.637	26570.62
825.888	26479.62
826.14	26365.62
826.392	26281.62
826.643	26105.62
826.895	26019.62
827.146	25922.62
827.397	25834.62
827.649	25850.62
827.9	25954.62
828.151	25900.62
828.402	25922.62
828.653	26075.62
828.905	26096.62
829.156	26119.62
829.407	26099.62
829.658	25951.62
829.909	26153.62
830.159	26117.62
830.41	26039.62
830.661	25778.62
830.912	25601.62
831.162	25518.62
831.413	25471.62
831.664	25498.62
831.914	25441.62
832.165	25469.62
832.415	25402.62
832.666	25343.62
832.916	25477.62
833.167	25349.62
833.417	25363.62
833.667	25201.62
833.917	25144.62
834.168	25010.62
834.418	25002.62
834.668	24887.62
834.918	24784.62
835.168	24721.62
835.418	24451.62
835.668	24470.62
835.918	24394.62
836.167	24405.62
836.417	24292.62
836.667	24167.62
836.917	24247.62
837.166	24201.62
837.416	24343.62
837.666	24241.62
837.915	24117.62
838.165	24097.62
838.414	23850.62
838.663	23898.62
838.913	23952.62
839.162	23776.62
839.411	23817.62
839.661	23698.62
839.91	23650.62
840.159	23606.62
840.408	23572.62
840.657	23606.62
840.906	23576.62
841.155	23565.62
841.404	23534.62
841.653	23462.62
841.902	23602.62
842.15	23621.62
842.399	23559.62
842.648	23551.62
842.897	23446.62
843.145	23246.62
843.394	23064.62
843.642	22965.62
843.891	22897.62
844.139	22730.62
844.388	22552.62
844.636	22461.62
844.884	22421.62
845.133	22427.62
845.381	22489.62
845.629	22366.62
845.877	22388.62
846.125	22246.62
846.373	22203.62
846.621	22204.62
846.869	22111.62
847.117	21991.62
847.365	21880.62
847.613	21861.62
847.861	21665.62
848.108	21647.62
848.356	21636.62
848.604	21518.62
848.851	21550.62
849.099	21544.62
849.346	21638.62
849.594	21660.62
849.841	21759.62
850.089	21775.62
850.336	21687.62
850.583	21745.62
850.831	21633.62
851.078	21477.62
851.325	21501.62
851.572	21571.62
851.819	21297.62
852.066	20978.62
852.313	20753.62
852.56	20428.62
852.807	20497.62
853.054	20311.62
853.301	20377.62
853.548	20462.62
853.794	20387.62
854.041	20472.62
854.288	20614.62
854.534	20738.62
854.781	20687.62
855.028	20647.62
855.274	20486.62
855.52	20420.62
855.767	20301.62
856.013	20391.62
856.26	20699.62
856.506	20156.62
856.752	20045.62
856.998	20102.62
857.244	20138.62
857.49	20326.62
857.736	20264.62
857.982	20333.62
858.228	20219.62
858.474	20084.62
858.72	19804.62
858.966	19746.62
859.212	19574.62
859.458	19266.62
859.703	19176.62
859.949	18967.62
860.195	18854.62
860.44	18862.62
860.686	18730.62
860.931	18782.62
861.177	18475.62
861.422	18533.62
861.667	18450.62
861.913	18346.62
862.158	18383.62
862.403	18389.62
862.648	18417.62
862.893	18410.62
863.138	18392.62
863.384	18376.62
863.629	18378.62
863.873	18360.62
864.118	18209.62
864.363	18142.62
864.608	18042.62
864.853	18052.62
865.098	17892.62
865.342	17863.62
865.587	17702.62
865.832	17790.62
866.076	17666.62
866.321	17667.62
866.565	17563.62
866.81	17499.62
867.054	17420.62
867.298	17313.62
867.543	17311.62
867.787	17426.62
868.031	17283.62
868.275	17241.62
868.519	17106.62
868.764	17193.62
869.008	17152.62
869.252	17030.62
869.496	16998.62
869.739	16950.62
869.983	16980.62
870.227	16931.62
870.471	16920.62
870.715	16988.62
870.958	17004.62
871.202	16963.62
871.446	16989.62
871.689	17009.62
871.933	16990.62
872.176	16977.62
872.42	16917.62
872.663	16906.62
872.906	16903.62
873.15	16838.62
873.393	16724.62
873.636	16795.62
873.879	16675.62
874.122	16436.62
874.366	16215.62
874.609	16100.62
874.852	15917.62
875.095	15868.62
875.337	15840.62
875.58	15638.62
875.823	15671.62
876.066	15688.62
876.309	15670.62
876.551	15421.62
876.794	15280.62
877.037	15303.62
877.279	15305.62
877.522	15311.62
877.764	15311.62
878.007	15242.62
878.249	15274.62
878.491	15196.62
878.734	15106.62
878.976	15024.62
879.218	14966.62
879.46	14923.62
879.702	14912.62
879.945	14679.62
880.187	14602.62
880.429	14597.62
880.671	14310.62
880.912	14278.62
881.154	14281.62
881.396	14191.62
881.638	14193.62
881.88	14234.62
882.121	14174.62
882.363	14195.62
882.605	14205.62
882.846	14099.62
883.088	14144.62
883.329	14084.62
883.571	14051.62
883.812	14263.62
884.053	14394.62
884.295	14669.62
884.536	14875.62
884.777	14713.62
885.018	14739.62
885.259	14571.62
885.5	14496.62
885.742	14702.62
885.982	14357.62
886.223	14235.62
886.464	14091.62
886.705	13976.62
886.946	13921.62
887.187	13594.62
887.428	13557.62
887.668	13282.62
887.909	13123.62
888.15	13018.62
888.39	12915.62
888.631	12914.62
888.871	12736.62
889.111	12652.62
889.352	12619.62
889.592	12393.62
889.833	12393.62
890.073	12294.62
890.313	12266.62
890.553	12151.62
890.793	12083.62
891.033	11953.62
891.273	11864.62
891.513	11807.62
891.753	11968.62
891.993	11815.62
892.233	11834.62
892.473	11984.62
892.713	11854.62
892.952	11869.62
893.192	11906.62
893.432	11809.62
893.671	11853.62
893.911	11800.62
894.15	11723.62
894.39	11558.62
894.629	11490.62
894.869	11506.62
895.108	11396.62
895.347	11304.62
895.587	11352.62
895.826	11286.62
896.065	11238.62
896.304	11262.62
896.543	11305.62
896.782	11220.62
897.021	11171.62
897.26	11125.62
897.499	11193.62
897.738	11070.62
897.977	10996.62
898.216	10984.62
898.454	10782.62
898.693	10794.62
898.932	10801.62
899.17	10616.62
899.409	10594.62
899.647	10628.62
899.886	10591.62
900.124	10571.62
900.363	10534.62
900.601	10555.62
900.839	10645.62
901.078	10598.62
901.316	10669.62
901.554	10671.62
901.792	10728.62
902.03	10687.62
902.268	10725.62
902.506	10647.62
902.744	10554.62
902.982	10631.62
903.22	10405.62
903.458	10224.62
903.695	10078.62
903.933	10012.62
904.171	9813.62
904.409	9689.62
904.646	9579.62
904.884	9392.62
905.121	9380.62
905.359	9239.62
905.596	9215.62
905.833	9072.62
906.071	9058.62
906.308	9117.62
906.545	8955.62
906.783	8992.62
907.02	8915.62
907.257	8871.62
907.494	8891.62
907.731	8898.62
907.968	8803.62
908.205	8716.62
908.442	8700.62
908.679	8641.62
908.915	8579.62
909.152	8448.62
909.389	8367.62
909.626	8336.62
909.862	8328.62
910.099	8252.62
910.335	8248.62
910.572	8148.62
910.808	8164.62
911.045	8099.62
911.281	8082.62
911.518	8090.62
911.754	8022.62
911.99	7998.62
912.226	7910.62
912.463	7824.62
912.699	7741.62
912.935	7746.62
913.171	7714.62
913.407	7560.62
913.643	7583.62
913.879	7519.62
914.114	7484.62
914.35	7292.62
914.586	7290.62
914.822	7212.62
915.057	7183.62
915.293	7069.62
915.529	7036.62
915.764	7090.62
916	7135.62
916.235	7002.62
916.471	7073.62
916.706	7010.62
916.941	7045.62
917.177	7000.62
917.412	6947.62
917.647	7016.62
917.882	6932.62
918.117	6960.62
918.352	6890.62
918.588	6913.62
918.823	6796.62
919.057	6729.62
919.292	6618.62
919.527	6668.62
919.762	6567.62
919.997	6518.62
920.232	6370.62
920.466	6435.62
920.701	6279.62
920.935	6288.62
921.17	6247.62
921.405	6154.62
921.639	6273.62
921.873	6162.62
922.108	6160.62
922.342	6179.62
922.576	6022.62
922.811	6034.62
923.045	6089.62
923.279	6085.62
923.513	5913.62
923.747	5940.62
923.981	5869.62
924.215	5887.62
924.449	5814.62
924.683	5792.62
924.917	5750.62
925.151	5719.62
925.385	5826.62
925.618	5741.62
925.852	5685.62
926.086	5571.62
926.319	5690.62
926.553	5653.62
926.786	5621.62
927.02	5632.62
927.253	5671.62
927.486	5572.62
927.72	5521.62
927.953	5590.62
928.186	5562.62
928.42	5592.62
928.653	5450.62
928.886	5439.62
929.119	5486.62
929.352	5412.62
929.585	5403.62
929.818	5286.62
930.051	5301.62
930.284	5293.62
930.516	5191.62
930.749	5195.62
930.982	5197.62
931.215	5153.62
931.447	5065.62
931.68	5092.62
931.912	5037.62
932.145	5042.62
932.377	5109.62
932.61	5200.62
932.842	5048.62
933.074	5090.62
933.307	5038.62
933.539	5070.62
933.771	5082.62
934.003	5028.62
934.236	5053.62
934.468	5089.62
934.7	4970.62
934.932	5023.62
935.164	4961.62
935.395	4932.62
935.627	4958.62
935.859	4919.62
936.091	4884.62
936.323	4913.62
936.554	4889.62
936.786	4852.62
937.017	4791.62
937.249	4779.62
937.481	4752.62
937.712	4846.62
937.943	4742.62
938.175	4734.62
938.406	4754.62
938.637	4795.62
938.869	4688.62
939.1	4749.62
939.331	4669.62
939.562	4686.62
939.793	4660.62
940.024	4678.62
940.255	4650.62
940.486	4602.62
940.717	4622.62
940.948	4544.62
941.179	4462.62
941.409	4518.62
941.64	4505.62
941.871	4525.62
942.102	4452.62
942.332	4463.62
942.563	4505.62
942.793	4485.62
943.024	4427.62
943.254	4497.62
943.484	4481.62
943.715	4531.62
943.945	4475.62
944.175	4391.62
944.405	4371.62
944.636	4365.62
944.866	4414.62
945.096	4441.62
945.326	4340.62
945.556	4411.62
945.786	4362.62
946.016	4302.62
946.245	4308.62
946.475	4247.62
946.705	4249.62
946.935	4228.62
947.164	4196.62
947.394	4178.62
947.624	4133.62
947.853	4218.62
948.083	4117.62
948.312	4061.62
948.542	4034.62
948.771	4020.62
949	4074.62
949.23	4050.62
949.459	4025.62
949.688	4138.62
949.917	4024.62
950.146	4037.62
950.375	4073.62
950.604	3969.62
950.833	4056.62
951.062	4036.62
951.291	3945.62
951.52	3961.62
951.749	3990.62
951.978	3923.62
952.206	3911.62
952.435	3881.62
952.664	3922.62
952.892	3895.62
953.121	3884.62
953.349	3864.62
953.578	3863.62
953.806	3754.62
954.035	3769.62
954.263	3777.62
954.491	3701.62
954.719	3787.62
954.948	3713.62
955.176	3712.62
955.404	3615.62
955.632	3674.62
955.86	3651.62
956.088	3668.62
956.316	3609.62
956.544	3639.62
956.772	3564.62
956.999	3520.62
957.227	3625.62
957.455	3529.62
957.683	3564.62
957.91	3477.62
958.138	3455.62
958.365	3465.62
958.593	3433.62
958.82	3350.62
959.048	3460.62
959.275	3411.62
959.502	3398.62
959.73	3371.62
959.957	3387.62
960.184	3444.62
960.411	3360.62
960.638	3402.62
960.865	3370.62
961.092	3358.62
961.319	3269.62
961.546	3353.62
961.773	3372.62
962	3296.62
962.227	3353.62
962.454	3274.62
962.68	3301.62
962.907	3293.62
963.134	3246.62
963.36	3233.62
963.587	3264.62
963.813	3191.62
964.04	3189.62
964.266	3125.62
964.493	3220.62
964.719	3147.62
964.945	3193.62
965.171	3079.62
965.398	3100.62
965.624	3138.62
965.85	3047.62
966.076	3043.62
966.302	3088.62
966.528	3011.62
966.754	3028.62
966.98	3016.62
967.206	3004.62
967.431	2959.62
967.657	3020.62
967.883	2990.62
968.109	2991.62
968.334	2928.62
968.56	2907.62
968.785	2931.62
969.011	2901.62
969.236	2929.62
969.462	2842.62
969.687	2897.62
969.912	2892.62
970.138	2927.62
970.363	2800.62
970.588	2868.62
970.813	2848.62
971.038	2793.62
971.263	2868.62
971.488	2826.62
971.713	2879.62
971.938	2836.62
972.163	2723.62
972.388	2756.62
972.613	2700.62
972.838	2762.62
973.062	2713.62
973.287	2717.62
973.512	2622.62
973.736	2664.62
973.961	2674.62
974.185	2622.62
974.41	2658.62
974.634	2546.62
974.858	2571.62
975.083	2600.62
975.307	2651.62
975.531	2543.62
975.755	2535.62
975.98	2523.62
976.204	2466.62
976.428	2445.62
976.652	2433.62
976.876	2433.62
977.1	2465.62
977.324	2389.62
977.547	2466.62
977.771	2431.62
977.995	2391.62
978.219	2353.62
978.442	2489.62
978.666	2414.62
978.89	2405.62
979.113	2393.62
979.337	2374.62
979.56	2365.62
979.783	2453.62
980.007	2313.62
980.23	2317.62
980.453	2288.62
980.677	2333.62
980.9	2349.62
981.123	2253.62
981.346	2339.62
981.569	2299.62
981.792	2313.62
982.015	2273.62
982.238	2246.62
982.461	2256.62
982.684	2219.62
982.907	2172.62
983.129	2165.62
983.352	2226.62
983.575	2218.62
983.797	2185.62
984.02	2152.62
984.242	2183.62
984.465	2170.62
984.687	2189.62
984.91	2177.62
985.132	2186.62
985.354	2191.62
985.577	2130.62
985.799	2113.62
986.021	2058.62
986.243	2066.62
986.465	2093.62
986.687	2154.62
986.909	2136.62
987.131	2085.62
987.353	2040.62
987.575	2073.62
987.797	2054.62
988.019	1987.62
988.241	2028.62
988.462	2004.62
988.684	2056.62
988.906	2039.62
989.127	2065.62
989.349	1942.62
989.57	1981.62
989.792	2048.62
990.013	2006.62
990.234	2045.62
990.456	2049.62
990.677	2039.62
990.898	1954.62
991.119	1971.62
991.341	2016.62
991.562	1922.62
991.783	1993.62
992.004	1871.62
992.225	1891.62
992.446	1920.62
992.667	1848.62
992.887	1918.62
993.108	1814.62
993.329	1952.62
993.55	1876.62
993.77	1818.62
993.991	1810.62
994.212	1839.62
994.432	1823.62
994.653	1826.62
994.873	1816.62
995.093	1721.62
995.314	1793.62
995.534	1817.62
995.754	1817.62
995.975	1859.62
996.195	1731.62
996.415	1831.62
996.635	1789.62
996.855	1801.62
997.075	1766.62
997.295	1762.62
997.515	1734.62
997.735	1784.62
997.955	1747.62
998.174	1742.62
998.394	1729.62
998.614	1760.62
998.834	1728.62
999.053	1792.62
999.273	1757.62
999.492	1812.62
999.712	1750.62
999.931	1677.62
1000.151	1712.62
1000.37	1698.62
1000.589	1760.62
1000.809	1678.62
1001.028	1779.62
1001.247	1726.62
1001.466	1595.62
1001.685	1730.62
1001.904	1698.62
1002.123	1661.62
1002.342	1681.62
1002.561	1625.62
1002.78	1660.62
1002.999	1694.62
1003.218	1651.62
1003.436	1617.62
1003.655	1671.62
1003.874	1605.62
1004.092	1622.62
1004.311	1668.62
1004.53	1637.62
1004.748	1683.62
1004.966	1581.62
1005.185	1672.62
1005.403	1643.62
1005.622	1624.62
1005.84	1697.62
1006.058	1591.62
1006.276	1615.62
1006.494	2104.62
1006.712	1608.62
1006.931	1685.62
1007.149	1593.62
1007.367	1580.62
1007.584	1639.62
1007.802	1674.62
1008.02	1604.62
1008.238	1683.62
1008.456	1702.62
1008.673	1575.62
1008.891	1704.62
1009.109	1660.62
1009.326	1694.62
1009.544	1767.62
1009.761	1704.62
1009.979	1820.62
1010.196	1842.62
1010.413	1891.62
1010.631	1941.62
1010.848	2036.62
1011.065	2011.62
1011.282	1961.62
1011.5	1923.62
1011.717	2003.62
1011.934	1970.62
1012.151	1979.62
1012.368	1919.62
1012.585	1896.62
1012.801	1937.62
1013.018	1903.62
1013.235	1902.62
1013.452	1910.62
1013.669	1906.62
1013.885	1923.62
1014.102	1932.62
1014.318	1930.62
1014.535	1879.62
1014.751	1912.62
1014.968	1893.62
1015.184	1932.62
1015.401	1824.62
1015.617	1825.62
1015.833	1775.62
1016.049	1755.62
1016.266	1761.62
1016.482	1768.62
1016.698	1696.62
1016.914	1744.62
1017.13	1697.62
1017.346	1681.62
1017.562	1744.62
1017.778	1686.62
1017.993	1660.62
1018.209	1692.62
1018.425	1659.62
1018.641	1604.62
1018.856	1603.62
1019.072	1654.62
1019.288	1678.62
1019.503	1623.62
1019.719	1571.62
1019.934	1538.62
1020.149	1635.62
1020.365	1573.62
1020.58	1533.62
1020.795	1546.62
1021.011	1484.62
1021.226	1479.62
1021.441	1491.62
1021.656	1359.62
1021.871	1323.62
1022.086	1331.62
1022.301	1316.62
1022.516	1313.62
1022.731	1350.62
1022.946	1290.62
1023.16	1264.62
1023.375	1248.62
1023.59	1206.62
1023.804	1179.62
1024.019	1229.62
1024.234	1119.62
1024.448	1140.62
1024.663	1072.62
1024.877	1077.62
1025.092	1129.62
1025.306	1097.62
1025.52	986.62
1025.734	1106.62
1025.949	1006.62
1026.163	973.62
1026.377	916.62
1026.591	972.62
1026.805	885.62
1027.019	883.62
1027.233	829.62
1027.447	796.62
1027.661	889.62
1027.875	831.62
1028.088	834.62
1028.302	760.62
1028.516	761.62
1028.73	763.62
1028.943	738.62
1029.157	702.62
1029.37	658.62
1029.584	-2.38
1029.797	-3.38
1030.011	3.62
1030.224	-3.38
