Data from QEP037381__194__15-55-49-890.txt Node

Date: Fri Dec 16 15:55:49 EST 2022
User: dcclab
Spectrometer: QEP03738
Trigger mode: 4
Integration Time (sec): 1.000000E1
Scans to average: 1
Electric dark correction enabled: true
Nonlinearity correction enabled: false
Boxcar width: 0
XAxis mode: Wavelengths
Number of Pixels in Spectrum: 1044
>>>>>Begin Spectral Data<<<<<
784.041	14.5
784.3	1.5
784.558	-4.5
784.817	-5.5
785.075	109921.5
785.334	19417.5
785.592	9286.5
785.851	6357.5
786.109	4804.5
786.368	3753.5
786.626	3006.5
786.884	2493.5
787.143	2124.5
787.401	1750.5
787.659	1536.5
787.917	1341.5
788.175	1196.5
788.433	1061.5
788.691	952.5
788.949	895.5
789.207	813.5
789.465	718.5
789.723	702.5
789.98	657.5
790.238	652.5
790.496	609.5
790.753	604.5
791.011	634.5
791.268	571.5
791.526	567.5
791.783	561.5
792.041	555.5
792.298	467.5
792.556	541.5
792.813	494.5
793.07	477.5
793.327	458.5
793.584	538.5
793.841	475.5
794.099	496.5
794.356	540.5
794.613	457.5
794.869	481.5
795.126	445.5
795.383	429.5
795.64	438.5
795.897	406.5
796.153	467.5
796.41	442.5
796.667	436.5
796.923	431.5
797.18	438.5
797.436	467.5
797.693	441.5
797.949	492.5
798.206	519.5
798.462	425.5
798.718	481.5
798.974	460.5
799.231	510.5
799.487	497.5
799.743	493.5
799.999	521.5
800.255	517.5
800.511	524.5
800.767	562.5
801.023	551.5
801.279	572.5
801.534	617.5
801.79	693.5
802.046	711.5
802.302	854.5
802.557	977.5
802.813	1216.5
803.068	1562.5
803.324	2124.5
803.579	2888.5
803.835	4040.5
804.09	5498.5
804.345	7243.5
804.601	9097.5
804.856	10925.5
805.111	12694.5
805.366	14004.5
805.621	14954.5
805.876	15592.5
806.131	15936.5
806.386	16332.5
806.641	16518.5
806.896	16786.5
807.151	17058.5
807.406	17378.5
807.661	17728.5
807.915	17893.5
808.17	18218.5
808.425	18413.5
808.679	18524.5
808.934	18754.5
809.188	18906.5
809.443	19085.5
809.697	19236.5
809.951	19403.5
810.206	19575.5
810.46	19807.5
810.714	19898.5
810.968	20182.5
811.223	20177.5
811.477	20512.5
811.731	20534.5
811.985	20683.5
812.239	20758.5
812.493	20846.5
812.747	20955.5
813	20949.5
813.254	21040.5
813.508	21189.5
813.762	21277.5
814.015	21324.5
814.269	21493.5
814.522	21604.5
814.776	21882.5
815.03	22046.5
815.283	22404.5
815.536	22762.5
815.79	23017.5
816.043	23317.5
816.296	23672.5
816.55	23992.5
816.803	24243.5
817.056	24442.5
817.309	24641.5
817.562	24905.5
817.815	25141.5
818.068	25261.5
818.321	25513.5
818.574	25719.5
818.827	26155.5
819.079	26356.5
819.332	26865.5
819.585	27235.5
819.838	27512.5
820.09	27464.5
820.343	27799.5
820.595	27872.5
820.848	28169.5
821.1	28264.5
821.353	28269.5
821.605	28302.5
821.857	28160.5
822.11	28086.5
822.362	27966.5
822.614	27955.5
822.866	27878.5
823.118	27847.5
823.37	28063.5
823.622	28097.5
823.874	28195.5
824.126	28311.5
824.378	28324.5
824.63	28398.5
824.882	28356.5
825.134	28392.5
825.385	28352.5
825.637	28140.5
825.888	28330.5
826.14	28184.5
826.392	27961.5
826.643	27882.5
826.895	27853.5
827.146	27520.5
827.397	27498.5
827.649	27640.5
827.9	27554.5
828.151	27410.5
828.402	27556.5
828.653	27598.5
828.905	27795.5
829.156	27858.5
829.407	27680.5
829.658	27695.5
829.909	27712.5
830.159	27750.5
830.41	27722.5
830.661	27349.5
830.912	27278.5
831.162	27165.5
831.413	27187.5
831.664	27117.5
831.914	27035.5
832.165	27139.5
832.415	26931.5
832.666	27032.5
832.916	27144.5
833.167	26956.5
833.417	26975.5
833.667	26789.5
833.917	26774.5
834.168	26715.5
834.418	26606.5
834.668	26477.5
834.918	26443.5
835.168	26243.5
835.418	26133.5
835.668	26123.5
835.918	26018.5
836.167	26002.5
836.417	26007.5
836.667	25876.5
836.917	25829.5
837.166	25776.5
837.416	25794.5
837.666	25738.5
837.915	25777.5
838.165	25661.5
838.414	25600.5
838.663	25473.5
838.913	25601.5
839.162	25341.5
839.411	25383.5
839.661	25311.5
839.91	25239.5
840.159	25253.5
840.408	25206.5
840.657	25158.5
840.906	25193.5
841.155	25093.5
841.404	25070.5
841.653	25091.5
841.902	25021.5
842.15	25109.5
842.399	25172.5
842.648	25017.5
842.897	24907.5
843.145	24807.5
843.394	24587.5
843.642	24548.5
843.891	24316.5
844.139	24269.5
844.388	24172.5
844.636	24029.5
844.884	23973.5
845.133	24010.5
845.381	23919.5
845.629	23987.5
845.877	23760.5
846.125	23876.5
846.373	23790.5
846.621	23694.5
846.869	23648.5
847.117	23418.5
847.365	23278.5
847.613	23272.5
847.861	23196.5
848.108	23119.5
848.356	23025.5
848.604	23004.5
848.851	22995.5
849.099	23049.5
849.346	23081.5
849.594	23226.5
849.841	23370.5
850.089	23286.5
850.336	23262.5
850.583	23223.5
850.831	23136.5
851.078	23004.5
851.325	22847.5
851.572	23002.5
851.819	22755.5
852.066	22357.5
852.313	22048.5
852.56	21911.5
852.807	21845.5
853.054	21688.5
853.301	21686.5
853.548	21697.5
853.794	21840.5
854.041	21840.5
854.288	21890.5
854.534	22136.5
854.781	22018.5
855.028	22149.5
855.274	22004.5
855.52	21899.5
855.767	21846.5
856.013	21883.5
856.26	22090.5
856.506	21535.5
856.752	21500.5
856.998	21534.5
857.244	21534.5
857.49	21728.5
857.736	21781.5
857.982	21657.5
858.228	21709.5
858.474	21472.5
858.72	21201.5
858.966	21113.5
859.212	20884.5
859.458	20740.5
859.703	20439.5
859.949	20279.5
860.195	20121.5
860.44	20079.5
860.686	19984.5
860.931	19976.5
861.177	19784.5
861.422	19813.5
861.667	19733.5
861.913	19716.5
862.158	19662.5
862.403	19709.5
862.648	19742.5
862.893	19742.5
863.138	19726.5
863.384	19665.5
863.629	19712.5
863.873	19671.5
864.118	19581.5
864.363	19540.5
864.608	19414.5
864.853	19403.5
865.098	19160.5
865.342	19201.5
865.587	19168.5
865.832	19026.5
866.076	18998.5
866.321	18900.5
866.565	18729.5
866.81	18653.5
867.054	18715.5
867.298	18608.5
867.543	18688.5
867.787	18585.5
868.031	18443.5
868.275	18382.5
868.519	18451.5
868.764	18468.5
869.008	18274.5
869.252	18366.5
869.496	18166.5
869.739	18179.5
869.983	18255.5
870.227	18242.5
870.471	18178.5
870.715	18205.5
870.958	18303.5
871.202	18296.5
871.446	18385.5
871.689	18260.5
871.933	18223.5
872.176	18360.5
872.42	18220.5
872.663	18155.5
872.906	18163.5
873.15	18018.5
873.393	18049.5
873.636	17975.5
873.879	17847.5
874.122	17652.5
874.366	17393.5
874.609	17226.5
874.852	17137.5
875.095	16973.5
875.337	16971.5
875.58	16763.5
875.823	16755.5
876.066	16785.5
876.309	16764.5
876.551	16586.5
876.794	16482.5
877.037	16463.5
877.279	16346.5
877.522	16415.5
877.764	16428.5
878.007	16339.5
878.249	16422.5
878.491	16329.5
878.734	16364.5
878.976	16240.5
879.218	16145.5
879.46	16124.5
879.702	15859.5
879.945	15831.5
880.187	15661.5
880.429	15636.5
880.671	15566.5
880.912	15499.5
881.154	15466.5
881.396	15366.5
881.638	15364.5
881.88	15298.5
882.121	15335.5
882.363	15257.5
882.605	15362.5
882.846	15233.5
883.088	15175.5
883.329	15138.5
883.571	15140.5
883.812	15270.5
884.053	15555.5
884.295	15839.5
884.536	15924.5
884.777	15900.5
885.018	15625.5
885.259	15586.5
885.5	15508.5
885.742	15796.5
885.982	15482.5
886.223	15306.5
886.464	15253.5
886.705	15151.5
886.946	15031.5
887.187	14732.5
887.428	14713.5
887.668	14417.5
887.909	14102.5
888.15	14041.5
888.39	13955.5
888.631	13926.5
888.871	13762.5
889.111	13610.5
889.352	13526.5
889.592	13467.5
889.833	13321.5
890.073	13257.5
890.313	13285.5
890.553	13045.5
890.793	13102.5
891.033	12976.5
891.273	12945.5
891.513	12940.5
891.753	12891.5
891.993	12840.5
892.233	12771.5
892.473	12918.5
892.713	12853.5
892.952	12829.5
893.192	12884.5
893.432	12800.5
893.671	12807.5
893.911	12713.5
894.15	12560.5
894.39	12513.5
894.629	12436.5
894.869	12431.5
895.108	12351.5
895.347	12289.5
895.587	12318.5
895.826	12195.5
896.065	12115.5
896.304	12179.5
896.543	12235.5
896.782	12029.5
897.021	12100.5
897.26	12025.5
897.499	12067.5
897.738	12028.5
897.977	11922.5
898.216	11859.5
898.454	11764.5
898.693	11607.5
898.932	11651.5
899.17	11519.5
899.409	11550.5
899.647	11509.5
899.886	11421.5
900.124	11384.5
900.363	11372.5
900.601	11442.5
900.839	11477.5
901.078	11404.5
901.316	11464.5
901.554	11554.5
901.792	11625.5
902.03	11543.5
902.268	11578.5
902.506	11634.5
902.744	11506.5
902.982	11513.5
903.22	11258.5
903.458	11178.5
903.695	10952.5
903.933	10824.5
904.171	10613.5
904.409	10458.5
904.646	10401.5
904.884	10220.5
905.121	10119.5
905.359	9967.5
905.596	10010.5
905.833	9844.5
906.071	9786.5
906.308	9798.5
906.545	9758.5
906.783	9767.5
907.02	9683.5
907.257	9577.5
907.494	9673.5
907.731	9607.5
907.968	9623.5
908.205	9492.5
908.442	9443.5
908.679	9432.5
908.915	9283.5
909.152	9281.5
909.389	9146.5
909.626	9079.5
909.862	9036.5
910.099	8985.5
910.335	9031.5
910.572	8904.5
910.808	8886.5
911.045	8876.5
911.281	8841.5
911.518	8765.5
911.754	8728.5
911.99	8676.5
912.226	8646.5
912.463	8498.5
912.699	8455.5
912.935	8427.5
913.171	8369.5
913.407	8283.5
913.643	8271.5
913.879	8156.5
914.114	8088.5
914.35	8045.5
914.586	8007.5
914.822	7948.5
915.057	7914.5
915.293	7748.5
915.529	7754.5
915.764	7784.5
916	7699.5
916.235	7686.5
916.471	7701.5
916.706	7602.5
916.941	7555.5
917.177	7564.5
917.412	7581.5
917.647	7631.5
917.882	7560.5
918.117	7573.5
918.352	7573.5
918.588	7539.5
918.823	7424.5
919.057	7349.5
919.292	7195.5
919.527	7279.5
919.762	7110.5
919.997	7164.5
920.232	6948.5
920.466	6964.5
920.701	6891.5
920.935	6843.5
921.17	6772.5
921.405	6776.5
921.639	6858.5
921.873	6710.5
922.108	6716.5
922.342	6698.5
922.576	6618.5
922.811	6594.5
923.045	6612.5
923.279	6617.5
923.513	6466.5
923.747	6540.5
923.981	6429.5
924.215	6399.5
924.449	6349.5
924.683	6283.5
924.917	6268.5
925.151	6276.5
925.385	6267.5
925.618	6182.5
925.852	6222.5
926.086	6105.5
926.319	6186.5
926.553	6202.5
926.786	6156.5
927.02	6142.5
927.253	6230.5
927.486	6127.5
927.72	6067.5
927.953	6156.5
928.186	6035.5
928.42	6102.5
928.653	5998.5
928.886	6018.5
929.119	6008.5
929.352	5941.5
929.585	5882.5
929.818	5813.5
930.051	5800.5
930.284	5785.5
930.516	5712.5
930.749	5609.5
930.982	5711.5
931.215	5667.5
931.447	5556.5
931.68	5553.5
931.912	5573.5
932.145	5515.5
932.377	5564.5
932.61	5682.5
932.842	5470.5
933.074	5507.5
933.307	5495.5
933.539	5560.5
933.771	5530.5
934.003	5455.5
934.236	5585.5
934.468	5560.5
934.7	5463.5
934.932	5494.5
935.164	5458.5
935.395	5413.5
935.627	5350.5
935.859	5369.5
936.091	5317.5
936.323	5370.5
936.554	5355.5
936.786	5297.5
937.017	5187.5
937.249	5264.5
937.481	5177.5
937.712	5270.5
937.943	5204.5
938.175	5199.5
938.406	5180.5
938.637	5208.5
938.869	5047.5
939.1	5152.5
939.331	5095.5
939.562	5132.5
939.793	5128.5
940.024	5108.5
940.255	5069.5
940.486	5039.5
940.717	5016.5
940.948	5023.5
941.179	4937.5
941.409	4951.5
941.64	4886.5
941.871	4932.5
942.102	4885.5
942.332	4910.5
942.563	4963.5
942.793	5012.5
943.024	4845.5
943.254	4924.5
943.484	4956.5
943.715	4925.5
943.945	4902.5
944.175	4814.5
944.405	4787.5
944.636	4810.5
944.866	4885.5
945.096	4858.5
945.326	4764.5
945.556	4849.5
945.786	4845.5
946.016	4749.5
946.245	4694.5
946.475	4642.5
946.705	4618.5
946.935	4646.5
947.164	4570.5
947.394	4527.5
947.624	4542.5
947.853	4572.5
948.083	4533.5
948.312	4475.5
948.542	4422.5
948.771	4378.5
949	4390.5
949.23	4412.5
949.459	4419.5
949.688	4516.5
949.917	4367.5
950.146	4446.5
950.375	4438.5
950.604	4338.5
950.833	4379.5
951.062	4425.5
951.291	4378.5
951.52	4364.5
951.749	4337.5
951.978	4274.5
952.206	4331.5
952.435	4260.5
952.664	4274.5
952.892	4283.5
953.121	4235.5
953.349	4236.5
953.578	4216.5
953.806	4190.5
954.035	4101.5
954.263	4150.5
954.491	4108.5
954.719	4105.5
954.948	4066.5
955.176	4057.5
955.404	3991.5
955.632	4037.5
955.86	4014.5
956.088	3994.5
956.316	3979.5
956.544	3992.5
956.772	3919.5
956.999	3919.5
957.227	3982.5
957.455	3864.5
957.683	3842.5
957.91	3808.5
958.138	3770.5
958.365	3832.5
958.593	3732.5
958.82	3698.5
959.048	3749.5
959.275	3733.5
959.502	3719.5
959.73	3673.5
959.957	3720.5
960.184	3792.5
960.411	3655.5
960.638	3707.5
960.865	3634.5
961.092	3657.5
961.319	3574.5
961.546	3689.5
961.773	3690.5
962	3629.5
962.227	3662.5
962.454	3612.5
962.68	3601.5
962.907	3610.5
963.134	3595.5
963.36	3544.5
963.587	3577.5
963.813	3505.5
964.04	3533.5
964.266	3431.5
964.493	3509.5
964.719	3512.5
964.945	3493.5
965.171	3367.5
965.398	3420.5
965.624	3395.5
965.85	3302.5
966.076	3384.5
966.302	3385.5
966.528	3336.5
966.754	3335.5
966.98	3283.5
967.206	3299.5
967.431	3212.5
967.657	3268.5
967.883	3293.5
968.109	3272.5
968.334	3207.5
968.56	3208.5
968.785	3207.5
969.011	3175.5
969.236	3233.5
969.462	3136.5
969.687	3164.5
969.912	3193.5
970.138	3219.5
970.363	3069.5
970.588	3141.5
970.813	3102.5
971.038	3082.5
971.263	3114.5
971.488	3090.5
971.713	3125.5
971.938	3106.5
972.163	2984.5
972.388	3009.5
972.613	3006.5
972.838	2968.5
973.062	2957.5
973.287	2941.5
973.512	2897.5
973.736	2937.5
973.961	2907.5
974.185	2887.5
974.41	2904.5
974.634	2855.5
974.858	2837.5
975.083	2853.5
975.307	2850.5
975.531	2783.5
975.755	2731.5
975.98	2746.5
976.204	2656.5
976.428	2696.5
976.652	2683.5
976.876	2670.5
977.1	2677.5
977.324	2688.5
977.547	2705.5
977.771	2690.5
977.995	2638.5
978.219	2578.5
978.442	2724.5
978.666	2649.5
978.89	2635.5
979.113	2611.5
979.337	2600.5
979.56	2569.5
979.783	2647.5
980.007	2564.5
980.23	2550.5
980.453	2525.5
980.677	2570.5
980.9	2530.5
981.123	2484.5
981.346	2534.5
981.569	2523.5
981.792	2516.5
982.015	2486.5
982.238	2421.5
982.461	2427.5
982.684	2415.5
982.907	2381.5
983.129	2371.5
983.352	2422.5
983.575	2413.5
983.797	2384.5
984.02	2366.5
984.242	2352.5
984.465	2308.5
984.687	2353.5
984.91	2391.5
985.132	2348.5
985.354	2382.5
985.577	2287.5
985.799	2300.5
986.021	2221.5
986.243	2251.5
986.465	2239.5
986.687	2324.5
986.909	2314.5
987.131	2271.5
987.353	2245.5
987.575	2268.5
987.797	2211.5
988.019	2122.5
988.241	2210.5
988.462	2171.5
988.684	2238.5
988.906	2245.5
989.127	2265.5
989.349	2144.5
989.57	2191.5
989.792	2216.5
990.013	2201.5
990.234	2237.5
990.456	2220.5
990.677	2184.5
990.898	2166.5
991.119	2155.5
991.341	2144.5
991.562	2067.5
991.783	2129.5
992.004	2031.5
992.225	2014.5
992.446	2076.5
992.667	2002.5
992.887	2087.5
993.108	1972.5
993.329	2079.5
993.55	2032.5
993.77	1959.5
993.991	1964.5
994.212	2022.5
994.432	1995.5
994.653	1973.5
994.873	1996.5
995.093	1858.5
995.314	1886.5
995.534	1970.5
995.754	1984.5
995.975	2012.5
996.195	1869.5
996.415	1944.5
996.635	1916.5
996.855	1942.5
997.075	1873.5
997.295	1885.5
997.515	1878.5
997.735	1914.5
997.955	1873.5
998.174	1865.5
998.394	1839.5
998.614	1884.5
998.834	1837.5
999.053	1919.5
999.273	1896.5
999.492	1931.5
999.712	1856.5
999.931	1820.5
1000.151	1878.5
1000.37	1840.5
1000.589	1890.5
1000.809	1804.5
1001.028	1880.5
1001.247	1854.5
1001.466	1738.5
1001.685	1852.5
1001.904	1810.5
1002.123	1793.5
1002.342	1783.5
1002.561	1716.5
1002.78	1742.5
1002.999	1829.5
1003.218	1762.5
1003.436	1751.5
1003.655	1782.5
1003.874	1716.5
1004.092	1732.5
1004.311	1796.5
1004.53	1752.5
1004.748	1806.5
1004.966	1710.5
1005.185	1770.5
1005.403	1777.5
1005.622	1735.5
1005.84	1819.5
1006.058	1699.5
1006.276	1714.5
1006.494	2221.5
1006.712	1713.5
1006.931	1739.5
1007.149	1706.5
1007.367	1700.5
1007.584	1736.5
1007.802	1757.5
1008.02	1727.5
1008.238	1824.5
1008.456	1817.5
1008.673	1675.5
1008.891	1758.5
1009.109	1735.5
1009.326	1808.5
1009.544	1911.5
1009.761	1782.5
1009.979	1902.5
1010.196	1887.5
1010.413	2003.5
1010.631	2082.5
1010.848	2114.5
1011.065	2139.5
1011.282	2046.5
1011.5	1989.5
1011.717	2125.5
1011.934	2042.5
1012.151	2067.5
1012.368	2039.5
1012.585	2020.5
1012.801	2046.5
1013.018	2010.5
1013.235	1985.5
1013.452	1990.5
1013.669	2014.5
1013.885	2011.5
1014.102	2048.5
1014.318	2004.5
1014.535	2007.5
1014.751	2007.5
1014.968	1972.5
1015.184	2012.5
1015.401	1905.5
1015.617	1948.5
1015.833	1883.5
1016.049	1879.5
1016.266	1869.5
1016.482	1862.5
1016.698	1788.5
1016.914	1843.5
1017.13	1802.5
1017.346	1735.5
1017.562	1808.5
1017.778	1731.5
1017.993	1730.5
1018.209	1736.5
1018.425	1721.5
1018.641	1710.5
1018.856	1685.5
1019.072	1701.5
1019.288	1733.5
1019.503	1710.5
1019.719	1612.5
1019.934	1621.5
1020.149	1696.5
1020.365	1645.5
1020.58	1584.5
1020.795	1617.5
1021.011	1583.5
1021.226	1534.5
1021.441	1555.5
1021.656	1436.5
1021.871	1408.5
1022.086	1395.5
1022.301	1373.5
1022.516	1354.5
1022.731	1409.5
1022.946	1309.5
1023.16	1310.5
1023.375	1267.5
1023.59	1249.5
1023.804	1195.5
1024.019	1295.5
1024.234	1183.5
1024.448	1210.5
1024.663	1124.5
1024.877	1142.5
1025.092	1150.5
1025.306	1175.5
1025.52	1070.5
1025.734	1130.5
1025.949	1058.5
1026.163	1031.5
1026.377	950.5
1026.591	996.5
1026.805	938.5
1027.019	931.5
1027.233	884.5
1027.447	853.5
1027.661	927.5
1027.875	879.5
1028.088	869.5
1028.302	807.5
1028.516	793.5
1028.73	776.5
1028.943	751.5
1029.157	719.5
1029.37	675.5
1029.584	-1.5
1029.797	-0.5
1030.011	-2.5
1030.224	-1.5
