Data from QEP037381__167__15-51-19-886.txt Node

Date: Fri Dec 16 15:51:19 EST 2022
User: dcclab
Spectrometer: QEP03738
Trigger mode: 4
Integration Time (sec): 1.000000E1
Scans to average: 1
Electric dark correction enabled: true
Nonlinearity correction enabled: false
Boxcar width: 0
XAxis mode: Wavelengths
Number of Pixels in Spectrum: 1044
>>>>>Begin Spectral Data<<<<<
784.041	12.5
784.3	-0.5
784.558	-4.5
784.817	-3.5
785.075	110566.5
785.334	19344.5
785.592	9097.5
785.851	6278.5
786.109	4775.5
786.368	3679.5
786.626	2987.5
786.884	2472.5
787.143	2077.5
787.401	1716.5
787.659	1511.5
787.917	1312.5
788.175	1203.5
788.433	1039.5
788.691	938.5
788.949	873.5
789.207	830.5
789.465	709.5
789.723	688.5
789.98	641.5
790.238	669.5
790.496	622.5
790.753	590.5
791.011	645.5
791.268	570.5
791.526	545.5
791.783	562.5
792.041	540.5
792.298	467.5
792.556	514.5
792.813	509.5
793.07	472.5
793.327	461.5
793.584	537.5
793.841	473.5
794.099	471.5
794.356	551.5
794.613	450.5
794.869	478.5
795.126	434.5
795.383	428.5
795.64	461.5
795.897	407.5
796.153	452.5
796.41	436.5
796.667	414.5
796.923	435.5
797.18	440.5
797.436	465.5
797.693	426.5
797.949	472.5
798.206	497.5
798.462	423.5
798.718	484.5
798.974	462.5
799.231	512.5
799.487	478.5
799.743	499.5
799.999	513.5
800.255	532.5
800.511	502.5
800.767	539.5
801.023	538.5
801.279	572.5
801.534	602.5
801.79	656.5
802.046	697.5
802.302	820.5
802.557	960.5
802.813	1179.5
803.068	1483.5
803.324	2035.5
803.579	2747.5
803.835	3769.5
804.09	5197.5
804.345	6799.5
804.601	8491.5
804.856	10209.5
805.111	11820.5
805.366	12866.5
805.621	13777.5
805.876	14372.5
806.131	14780.5
806.386	15142.5
806.641	15208.5
806.896	15532.5
807.151	15878.5
807.406	16025.5
807.661	16342.5
807.915	16589.5
808.17	16810.5
808.425	17090.5
808.679	17233.5
808.934	17401.5
809.188	17383.5
809.443	17669.5
809.697	17929.5
809.951	18011.5
810.206	18116.5
810.46	18278.5
810.714	18514.5
810.968	18739.5
811.223	18760.5
811.477	18940.5
811.731	19224.5
811.985	19178.5
812.239	19167.5
812.493	19340.5
812.747	19507.5
813	19513.5
813.254	19655.5
813.508	19602.5
813.762	19736.5
814.015	19790.5
814.269	19988.5
814.522	20129.5
814.776	20355.5
815.03	20554.5
815.283	20825.5
815.536	21122.5
815.79	21549.5
816.043	21846.5
816.296	22062.5
816.55	22326.5
816.803	22562.5
817.056	22833.5
817.309	22945.5
817.562	23161.5
817.815	23384.5
818.068	23562.5
818.321	23715.5
818.574	23972.5
818.827	24388.5
819.079	24609.5
819.332	25140.5
819.585	25440.5
819.838	25697.5
820.09	25737.5
820.343	26009.5
820.595	26077.5
820.848	26258.5
821.1	26268.5
821.353	26366.5
821.605	26347.5
821.857	26386.5
822.11	26167.5
822.362	26146.5
822.614	26005.5
822.866	26162.5
823.118	26164.5
823.37	26201.5
823.622	26354.5
823.874	26298.5
824.126	26542.5
824.378	26442.5
824.63	26536.5
824.882	26488.5
825.134	26568.5
825.385	26476.5
825.637	26496.5
825.888	26435.5
826.14	26223.5
826.392	26143.5
826.643	26056.5
826.895	26005.5
827.146	25881.5
827.397	25784.5
827.649	25819.5
827.9	25795.5
828.151	25879.5
828.402	25777.5
828.653	25878.5
828.905	25986.5
829.156	26092.5
829.407	26011.5
829.658	25962.5
829.909	26085.5
830.159	26096.5
830.41	25865.5
830.661	25684.5
830.912	25435.5
831.162	25524.5
831.413	25382.5
831.664	25441.5
831.914	25339.5
832.165	25302.5
832.415	25348.5
832.666	25278.5
832.916	25292.5
833.167	25286.5
833.417	25310.5
833.667	25299.5
833.917	25152.5
834.168	24955.5
834.418	25044.5
834.668	24781.5
834.918	24765.5
835.168	24662.5
835.418	24551.5
835.668	24506.5
835.918	24511.5
836.167	24241.5
836.417	24271.5
836.667	24292.5
836.917	24171.5
837.166	24182.5
837.416	24239.5
837.666	24092.5
837.915	24236.5
838.165	24121.5
838.414	24029.5
838.663	23856.5
838.913	23943.5
839.162	23763.5
839.411	23933.5
839.661	23618.5
839.91	23752.5
840.159	23650.5
840.408	23668.5
840.657	23654.5
840.906	23665.5
841.155	23613.5
841.404	23579.5
841.653	23533.5
841.902	23550.5
842.15	23546.5
842.399	23624.5
842.648	23568.5
842.897	23554.5
843.145	23395.5
843.394	23159.5
843.642	23031.5
843.891	22945.5
844.139	22831.5
844.388	22724.5
844.636	22516.5
844.884	22508.5
845.133	22349.5
845.381	22451.5
845.629	22526.5
845.877	22542.5
846.125	22482.5
846.373	22471.5
846.621	22315.5
846.869	22221.5
847.117	22095.5
847.365	22028.5
847.613	22017.5
847.861	21826.5
848.108	21793.5
848.356	21838.5
848.604	21748.5
848.851	21761.5
849.099	21719.5
849.346	21807.5
849.594	21802.5
849.841	21941.5
850.089	21927.5
850.336	21922.5
850.583	21935.5
850.831	21696.5
851.078	21619.5
851.325	21681.5
851.572	21571.5
851.819	21412.5
852.066	21147.5
852.313	20861.5
852.56	20699.5
852.807	20497.5
853.054	20553.5
853.301	20524.5
853.548	20528.5
853.794	20651.5
854.041	20689.5
854.288	20726.5
854.534	20969.5
854.781	20912.5
855.028	20788.5
855.274	20818.5
855.52	20591.5
855.767	20519.5
856.013	20650.5
856.26	20811.5
856.506	20298.5
856.752	20373.5
856.998	20346.5
857.244	20468.5
857.49	20518.5
857.736	20407.5
857.982	20480.5
858.228	20387.5
858.474	20209.5
858.72	20107.5
858.966	19893.5
859.212	19776.5
859.458	19442.5
859.703	19321.5
859.949	19123.5
860.195	19093.5
860.44	18983.5
860.686	18839.5
860.931	18885.5
861.177	18752.5
861.422	18754.5
861.667	18661.5
861.913	18631.5
862.158	18542.5
862.403	18668.5
862.648	18722.5
862.893	18663.5
863.138	18678.5
863.384	18608.5
863.629	18600.5
863.873	18481.5
864.118	18459.5
864.363	18402.5
864.608	18410.5
864.853	18338.5
865.098	18185.5
865.342	18138.5
865.587	18004.5
865.832	18097.5
866.076	17974.5
866.321	17933.5
866.565	17821.5
866.81	17667.5
867.054	17724.5
867.298	17651.5
867.543	17592.5
867.787	17620.5
868.031	17650.5
868.275	17491.5
868.519	17453.5
868.764	17361.5
869.008	17414.5
869.252	17336.5
869.496	17278.5
869.739	17303.5
869.983	17185.5
870.227	17263.5
870.471	17111.5
870.715	17323.5
870.958	17302.5
871.202	17307.5
871.446	17432.5
871.689	17403.5
871.933	17410.5
872.176	17241.5
872.42	17268.5
872.663	17254.5
872.906	17244.5
873.15	17144.5
873.393	17002.5
873.636	17059.5
873.879	16906.5
874.122	16776.5
874.366	16544.5
874.609	16402.5
874.852	16257.5
875.095	16229.5
875.337	16054.5
875.58	15945.5
875.823	16083.5
876.066	15904.5
876.309	16032.5
876.551	15748.5
876.794	15643.5
877.037	15646.5
877.279	15587.5
877.522	15607.5
877.764	15657.5
878.007	15557.5
878.249	15598.5
878.491	15496.5
878.734	15553.5
878.976	15562.5
879.218	15329.5
879.46	15320.5
879.702	15155.5
879.945	15099.5
880.187	14879.5
880.429	14835.5
880.671	14694.5
880.912	14706.5
881.154	14647.5
881.396	14521.5
881.638	14605.5
881.88	14587.5
882.121	14552.5
882.363	14567.5
882.605	14553.5
882.846	14483.5
883.088	14513.5
883.329	14438.5
883.571	14380.5
883.812	14442.5
884.053	14815.5
884.295	15032.5
884.536	15203.5
884.777	15109.5
885.018	14953.5
885.259	14895.5
885.5	14812.5
885.742	15055.5
885.982	14782.5
886.223	14669.5
886.464	14534.5
886.705	14345.5
886.946	14260.5
887.187	14062.5
887.428	13955.5
887.668	13729.5
887.909	13563.5
888.15	13350.5
888.39	13300.5
888.631	13249.5
888.871	13092.5
889.111	12997.5
889.352	13001.5
889.592	12811.5
889.833	12809.5
890.073	12644.5
890.313	12658.5
890.553	12464.5
890.793	12427.5
891.033	12432.5
891.273	12279.5
891.513	12314.5
891.753	12288.5
891.993	12283.5
892.233	12312.5
892.473	12360.5
892.713	12259.5
892.952	12259.5
893.192	12319.5
893.432	12223.5
893.671	12275.5
893.911	12153.5
894.15	12132.5
894.39	11957.5
894.629	12022.5
894.869	11859.5
895.108	11781.5
895.347	11766.5
895.587	11653.5
895.826	11683.5
896.065	11654.5
896.304	11706.5
896.543	11679.5
896.782	11584.5
897.021	11629.5
897.26	11562.5
897.499	11587.5
897.738	11582.5
897.977	11478.5
898.216	11322.5
898.454	11311.5
898.693	11149.5
898.932	11186.5
899.17	11031.5
899.409	11052.5
899.647	10980.5
899.886	11001.5
900.124	11030.5
900.363	10943.5
900.601	11033.5
900.839	10976.5
901.078	11031.5
901.316	11110.5
901.554	11162.5
901.792	11108.5
902.03	11102.5
902.268	11084.5
902.506	11089.5
902.744	11013.5
902.982	10966.5
903.22	10852.5
903.458	10684.5
903.695	10513.5
903.933	10461.5
904.171	10219.5
904.409	10123.5
904.646	9992.5
904.884	9880.5
905.121	9784.5
905.359	9646.5
905.596	9561.5
905.833	9420.5
906.071	9415.5
906.308	9405.5
906.545	9377.5
906.783	9299.5
907.02	9303.5
907.257	9253.5
907.494	9235.5
907.731	9173.5
907.968	9213.5
908.205	9139.5
908.442	9111.5
908.679	9022.5
908.915	9003.5
909.152	8928.5
909.389	8801.5
909.626	8732.5
909.862	8680.5
910.099	8595.5
910.335	8704.5
910.572	8534.5
910.808	8582.5
911.045	8490.5
911.281	8456.5
911.518	8498.5
911.754	8411.5
911.99	8379.5
912.226	8322.5
912.463	8252.5
912.699	8132.5
912.935	8132.5
913.171	7934.5
913.407	7891.5
913.643	7982.5
913.879	7866.5
914.114	7785.5
914.35	7716.5
914.586	7670.5
914.822	7530.5
915.057	7641.5
915.293	7401.5
915.529	7402.5
915.764	7458.5
916	7432.5
916.235	7391.5
916.471	7398.5
916.706	7280.5
916.941	7343.5
917.177	7355.5
917.412	7346.5
917.647	7328.5
917.882	7192.5
918.117	7273.5
918.352	7220.5
918.588	7229.5
918.823	7151.5
919.057	7148.5
919.292	6940.5
919.527	7016.5
919.762	6809.5
919.997	6857.5
920.232	6732.5
920.466	6757.5
920.701	6582.5
920.935	6619.5
921.17	6578.5
921.405	6471.5
921.639	6554.5
921.873	6519.5
922.108	6474.5
922.342	6458.5
922.576	6378.5
922.811	6309.5
923.045	6393.5
923.279	6401.5
923.513	6211.5
923.747	6294.5
923.981	6230.5
924.215	6119.5
924.449	6161.5
924.683	6099.5
924.917	6043.5
925.151	6011.5
925.385	6055.5
925.618	5999.5
925.852	5995.5
926.086	5910.5
926.319	5968.5
926.553	5979.5
926.786	5933.5
927.02	5900.5
927.253	5979.5
927.486	5963.5
927.72	5854.5
927.953	5892.5
928.186	5888.5
928.42	5868.5
928.653	5783.5
928.886	5748.5
929.119	5783.5
929.352	5724.5
929.585	5735.5
929.818	5637.5
930.051	5628.5
930.284	5583.5
930.516	5480.5
930.749	5448.5
930.982	5411.5
931.215	5421.5
931.447	5377.5
931.68	5388.5
931.912	5327.5
932.145	5339.5
932.377	5356.5
932.61	5505.5
932.842	5309.5
933.074	5377.5
933.307	5307.5
933.539	5392.5
933.771	5375.5
934.003	5304.5
934.236	5376.5
934.468	5372.5
934.7	5227.5
934.932	5290.5
935.164	5232.5
935.395	5216.5
935.627	5222.5
935.859	5253.5
936.091	5134.5
936.323	5223.5
936.554	5193.5
936.786	5107.5
937.017	5058.5
937.249	5089.5
937.481	5011.5
937.712	5085.5
937.943	5012.5
938.175	5045.5
938.406	4994.5
938.637	5075.5
938.869	4970.5
939.1	4995.5
939.331	4934.5
939.562	5016.5
939.793	4948.5
940.024	4942.5
940.255	4916.5
940.486	4847.5
940.717	4853.5
940.948	4853.5
941.179	4726.5
941.409	4772.5
941.64	4785.5
941.871	4756.5
942.102	4764.5
942.332	4782.5
942.563	4824.5
942.793	4754.5
943.024	4732.5
943.254	4758.5
943.484	4763.5
943.715	4795.5
943.945	4766.5
944.175	4648.5
944.405	4666.5
944.636	4674.5
944.866	4656.5
945.096	4687.5
945.326	4637.5
945.556	4617.5
945.786	4660.5
946.016	4562.5
946.245	4549.5
946.475	4532.5
946.705	4501.5
946.935	4465.5
947.164	4440.5
947.394	4412.5
947.624	4419.5
947.853	4513.5
948.083	4418.5
948.312	4386.5
948.542	4276.5
948.771	4266.5
949	4233.5
949.23	4248.5
949.459	4317.5
949.688	4347.5
949.917	4216.5
950.146	4320.5
950.375	4328.5
950.604	4193.5
950.833	4302.5
951.062	4267.5
951.291	4219.5
951.52	4176.5
951.749	4227.5
951.978	4122.5
952.206	4147.5
952.435	4159.5
952.664	4167.5
952.892	4114.5
953.121	4123.5
953.349	4177.5
953.578	4097.5
953.806	4127.5
954.035	3966.5
954.263	4019.5
954.491	3991.5
954.719	4025.5
954.948	3942.5
955.176	3963.5
955.404	3843.5
955.632	3926.5
955.86	3920.5
956.088	3922.5
956.316	3888.5
956.544	3916.5
956.772	3782.5
956.999	3781.5
957.227	3880.5
957.455	3792.5
957.683	3776.5
957.91	3712.5
958.138	3700.5
958.365	3621.5
958.593	3671.5
958.82	3635.5
959.048	3688.5
959.275	3652.5
959.502	3617.5
959.73	3620.5
959.957	3603.5
960.184	3625.5
960.411	3573.5
960.638	3608.5
960.865	3578.5
961.092	3596.5
961.319	3538.5
961.546	3592.5
961.773	3571.5
962	3509.5
962.227	3571.5
962.454	3538.5
962.68	3498.5
962.907	3508.5
963.134	3457.5
963.36	3464.5
963.587	3504.5
963.813	3405.5
964.04	3444.5
964.266	3350.5
964.493	3419.5
964.719	3396.5
964.945	3406.5
965.171	3272.5
965.398	3340.5
965.624	3321.5
965.85	3206.5
966.076	3228.5
966.302	3282.5
966.528	3259.5
966.754	3247.5
966.98	3248.5
967.206	3229.5
967.431	3154.5
967.657	3215.5
967.883	3232.5
968.109	3201.5
968.334	3148.5
968.56	3088.5
968.785	3123.5
969.011	3052.5
969.236	3109.5
969.462	3040.5
969.687	3045.5
969.912	3130.5
970.138	3131.5
970.363	3042.5
970.588	3084.5
970.813	3034.5
971.038	3021.5
971.263	3003.5
971.488	3002.5
971.713	3043.5
971.938	2995.5
972.163	2903.5
972.388	2947.5
972.613	2913.5
972.838	2929.5
973.062	2913.5
973.287	2884.5
973.512	2820.5
973.736	2850.5
973.961	2829.5
974.185	2807.5
974.41	2859.5
974.634	2742.5
974.858	2744.5
975.083	2772.5
975.307	2760.5
975.531	2720.5
975.755	2666.5
975.98	2714.5
976.204	2592.5
976.428	2626.5
976.652	2573.5
976.876	2611.5
977.1	2616.5
977.324	2570.5
977.547	2645.5
977.771	2611.5
977.995	2590.5
978.219	2546.5
978.442	2645.5
978.666	2572.5
978.89	2565.5
979.113	2573.5
979.337	2552.5
979.56	2501.5
979.783	2587.5
980.007	2486.5
980.23	2526.5
980.453	2468.5
980.677	2541.5
980.9	2479.5
981.123	2392.5
981.346	2484.5
981.569	2458.5
981.792	2426.5
982.015	2434.5
982.238	2374.5
982.461	2419.5
982.684	2329.5
982.907	2303.5
983.129	2333.5
983.352	2379.5
983.575	2372.5
983.797	2356.5
984.02	2302.5
984.242	2276.5
984.465	2297.5
984.687	2320.5
984.91	2313.5
985.132	2293.5
985.354	2313.5
985.577	2250.5
985.799	2256.5
986.021	2152.5
986.243	2202.5
986.465	2206.5
986.687	2224.5
986.909	2274.5
987.131	2205.5
987.353	2179.5
987.575	2178.5
987.797	2167.5
988.019	2098.5
988.241	2166.5
988.462	2124.5
988.684	2179.5
988.906	2210.5
989.127	2189.5
989.349	2083.5
989.57	2109.5
989.792	2168.5
990.013	2169.5
990.234	2158.5
990.456	2177.5
990.677	2138.5
990.898	2084.5
991.119	2069.5
991.341	2075.5
991.562	2074.5
991.783	2064.5
992.004	2021.5
992.225	1962.5
992.446	2031.5
992.667	1970.5
992.887	2058.5
993.108	1917.5
993.329	2051.5
993.55	1993.5
993.77	1913.5
993.991	1935.5
994.212	1976.5
994.432	1967.5
994.653	1942.5
994.873	1954.5
995.093	1809.5
995.314	1837.5
995.534	1943.5
995.754	1933.5
995.975	1947.5
996.195	1858.5
996.415	1892.5
996.635	1859.5
996.855	1888.5
997.075	1869.5
997.295	1854.5
997.515	1805.5
997.735	1880.5
997.955	1851.5
998.174	1846.5
998.394	1774.5
998.614	1855.5
998.834	1838.5
999.053	1865.5
999.273	1859.5
999.492	1874.5
999.712	1825.5
999.931	1790.5
1000.151	1831.5
1000.37	1761.5
1000.589	1838.5
1000.809	1771.5
1001.028	1885.5
1001.247	1802.5
1001.466	1726.5
1001.685	1838.5
1001.904	1759.5
1002.123	1750.5
1002.342	1746.5
1002.561	1714.5
1002.78	1776.5
1002.999	1810.5
1003.218	1713.5
1003.436	1713.5
1003.655	1750.5
1003.874	1708.5
1004.092	1714.5
1004.311	1740.5
1004.53	1712.5
1004.748	1767.5
1004.966	1687.5
1005.185	1741.5
1005.403	1763.5
1005.622	1704.5
1005.84	1744.5
1006.058	1687.5
1006.276	1716.5
1006.494	2187.5
1006.712	1695.5
1006.931	1757.5
1007.149	1669.5
1007.367	1664.5
1007.584	1699.5
1007.802	1750.5
1008.02	1662.5
1008.238	1800.5
1008.456	1769.5
1008.673	1626.5
1008.891	1753.5
1009.109	1720.5
1009.326	1760.5
1009.544	1857.5
1009.761	1744.5
1009.979	1873.5
1010.196	1879.5
1010.413	1978.5
1010.631	2048.5
1010.848	2090.5
1011.065	2082.5
1011.282	2042.5
1011.5	1972.5
1011.717	2076.5
1011.934	1988.5
1012.151	2055.5
1012.368	2024.5
1012.585	1948.5
1012.801	2005.5
1013.018	1974.5
1013.235	1934.5
1013.452	1932.5
1013.669	1987.5
1013.885	1965.5
1014.102	2007.5
1014.318	1983.5
1014.535	1932.5
1014.751	1956.5
1014.968	1935.5
1015.184	1981.5
1015.401	1863.5
1015.617	1886.5
1015.833	1831.5
1016.049	1829.5
1016.266	1814.5
1016.482	1822.5
1016.698	1745.5
1016.914	1796.5
1017.13	1733.5
1017.346	1729.5
1017.562	1768.5
1017.778	1713.5
1017.993	1657.5
1018.209	1747.5
1018.425	1739.5
1018.641	1688.5
1018.856	1652.5
1019.072	1692.5
1019.288	1719.5
1019.503	1675.5
1019.719	1588.5
1019.934	1621.5
1020.149	1662.5
1020.365	1633.5
1020.58	1557.5
1020.795	1613.5
1021.011	1539.5
1021.226	1502.5
1021.441	1517.5
1021.656	1434.5
1021.871	1352.5
1022.086	1339.5
1022.301	1366.5
1022.516	1348.5
1022.731	1365.5
1022.946	1315.5
1023.16	1288.5
1023.375	1255.5
1023.59	1237.5
1023.804	1179.5
1024.019	1288.5
1024.234	1152.5
1024.448	1203.5
1024.663	1121.5
1024.877	1118.5
1025.092	1159.5
1025.306	1137.5
1025.52	1037.5
1025.734	1113.5
1025.949	1029.5
1026.163	1017.5
1026.377	971.5
1026.591	1007.5
1026.805	917.5
1027.019	914.5
1027.233	881.5
1027.447	843.5
1027.661	924.5
1027.875	875.5
1028.088	885.5
1028.302	795.5
1028.516	786.5
1028.73	764.5
1028.943	768.5
1029.157	730.5
1029.37	681.5
1029.584	-3.5
1029.797	-0.5
1030.011	-0.5
1030.224	0.5
