Data from QEP037381__228__16-01-29-894.txt Node

Date: Fri Dec 16 16:01:29 EST 2022
User: dcclab
Spectrometer: QEP03738
Trigger mode: 4
Integration Time (sec): 1.000000E1
Scans to average: 1
Electric dark correction enabled: true
Nonlinearity correction enabled: false
Boxcar width: 0
XAxis mode: Wavelengths
Number of Pixels in Spectrum: 1044
>>>>>Begin Spectral Data<<<<<
784.041	15.12
784.3	3.12
784.558	-5.88
784.817	-5.88
785.075	110828.12
785.334	19277.12
785.592	9040.12
785.851	6263.12
786.109	4730.12
786.368	3624.12
786.626	2937.12
786.884	2451.12
787.143	2070.12
787.401	1704.12
787.659	1503.12
787.917	1289.12
788.175	1178.12
788.433	1025.12
788.691	960.12
788.949	838.12
789.207	811.12
789.465	721.12
789.723	682.12
789.98	612.12
790.238	638.12
790.496	612.12
790.753	600.12
791.011	632.12
791.268	571.12
791.526	544.12
791.783	544.12
792.041	533.12
792.298	473.12
792.556	514.12
792.813	492.12
793.07	480.12
793.327	470.12
793.584	541.12
793.841	466.12
794.099	487.12
794.356	556.12
794.613	438.12
794.869	473.12
795.126	435.12
795.383	417.12
795.64	441.12
795.897	397.12
796.153	459.12
796.41	430.12
796.667	422.12
796.923	436.12
797.18	438.12
797.436	442.12
797.693	423.12
797.949	463.12
798.206	513.12
798.462	416.12
798.718	478.12
798.974	469.12
799.231	497.12
799.487	494.12
799.743	487.12
799.999	516.12
800.255	526.12
800.511	511.12
800.767	554.12
801.023	528.12
801.279	593.12
801.534	611.12
801.79	665.12
802.046	686.12
802.302	858.12
802.557	940.12
802.813	1191.12
803.068	1457.12
803.324	2048.12
803.579	2752.12
803.835	3796.12
804.09	5216.12
804.345	6857.12
804.601	8628.12
804.856	10447.12
805.111	12155.12
805.366	13414.12
805.621	14422.12
805.876	15117.12
806.131	15409.12
806.386	15799.12
806.641	16033.12
806.896	16379.12
807.151	16675.12
807.406	16879.12
807.661	17175.12
807.915	17418.12
808.17	17762.12
808.425	17943.12
808.679	17997.12
808.934	18320.12
809.188	18438.12
809.443	18597.12
809.697	18860.12
809.951	18872.12
810.206	19075.12
810.46	19284.12
810.714	19425.12
810.968	19606.12
811.223	19705.12
811.477	19922.12
811.731	20088.12
811.985	20142.12
812.239	20176.12
812.493	20316.12
812.747	20373.12
813	20364.12
813.254	20383.12
813.508	20714.12
813.762	20729.12
814.015	20899.12
814.269	21020.12
814.522	21116.12
814.776	21309.12
815.03	21679.12
815.283	21873.12
815.536	22313.12
815.79	22619.12
816.043	22989.12
816.296	23226.12
816.55	23511.12
816.803	23780.12
817.056	23976.12
817.309	24217.12
817.562	24406.12
817.815	24747.12
818.068	24858.12
818.321	25037.12
818.574	25336.12
818.827	25680.12
819.079	25991.12
819.332	26482.12
819.585	26697.12
819.838	26909.12
820.09	27115.12
820.343	27346.12
820.595	27371.12
820.848	27595.12
821.1	27655.12
821.353	27809.12
821.605	27712.12
821.857	27676.12
822.11	27516.12
822.362	27451.12
822.614	27400.12
822.866	27312.12
823.118	27396.12
823.37	27516.12
823.622	27648.12
823.874	27600.12
824.126	27752.12
824.378	27714.12
824.63	27804.12
824.882	27837.12
825.134	27781.12
825.385	27953.12
825.637	27778.12
825.888	27642.12
826.14	27660.12
826.392	27557.12
826.643	27256.12
826.895	27226.12
827.146	27017.12
827.397	26997.12
827.649	26913.12
827.9	26964.12
828.151	27035.12
828.402	27075.12
828.653	27157.12
828.905	27183.12
829.156	27289.12
829.407	27162.12
829.658	27169.12
829.909	27304.12
830.159	27297.12
830.41	27129.12
830.661	26913.12
830.912	26633.12
831.162	26736.12
831.413	26546.12
831.664	26568.12
831.914	26570.12
832.165	26490.12
832.415	26602.12
832.666	26623.12
832.916	26525.12
833.167	26512.12
833.417	26390.12
833.667	26445.12
833.917	26251.12
834.168	26214.12
834.418	26337.12
834.668	25945.12
834.918	25928.12
835.168	25814.12
835.418	25722.12
835.668	25497.12
835.918	25528.12
836.167	25452.12
836.417	25383.12
836.667	25468.12
836.917	25393.12
837.166	25262.12
837.416	25281.12
837.666	25317.12
837.915	25154.12
838.165	25148.12
838.414	24918.12
838.663	25002.12
838.913	24995.12
839.162	24917.12
839.411	24847.12
839.661	24738.12
839.91	24622.12
840.159	24560.12
840.408	24630.12
840.657	24633.12
840.906	24511.12
841.155	24640.12
841.404	24517.12
841.653	24587.12
841.902	24571.12
842.15	24578.12
842.399	24609.12
842.648	24510.12
842.897	24518.12
843.145	24144.12
843.394	24163.12
843.642	23927.12
843.891	23848.12
844.139	23807.12
844.388	23642.12
844.636	23548.12
844.884	23498.12
845.133	23503.12
845.381	23450.12
845.629	23299.12
845.877	23393.12
846.125	23390.12
846.373	23364.12
846.621	23246.12
846.869	23162.12
847.117	22933.12
847.365	22866.12
847.613	22678.12
847.861	22678.12
848.108	22602.12
848.356	22633.12
848.604	22608.12
848.851	22504.12
849.099	22534.12
849.346	22537.12
849.594	22679.12
849.841	22720.12
850.089	22714.12
850.336	22623.12
850.583	22673.12
850.831	22469.12
851.078	22476.12
851.325	22443.12
851.572	22376.12
851.819	22313.12
852.066	21836.12
852.313	21598.12
852.56	21546.12
852.807	21288.12
853.054	21297.12
853.301	21182.12
853.548	21234.12
853.794	21373.12
854.041	21387.12
854.288	21504.12
854.534	21622.12
854.781	21664.12
855.028	21551.12
855.274	21489.12
855.52	21379.12
855.767	21233.12
856.013	21331.12
856.26	21668.12
856.506	21039.12
856.752	20987.12
856.998	21012.12
857.244	20924.12
857.49	21096.12
857.736	21047.12
857.982	21205.12
858.228	21039.12
858.474	20892.12
858.72	20767.12
858.966	20552.12
859.212	20345.12
859.458	20221.12
859.703	19955.12
859.949	19857.12
860.195	19764.12
860.44	19633.12
860.686	19474.12
860.931	19370.12
861.177	19306.12
861.422	19248.12
861.667	19192.12
861.913	19130.12
862.158	19124.12
862.403	19196.12
862.648	19262.12
862.893	19241.12
863.138	19277.12
863.384	19175.12
863.629	19242.12
863.873	19161.12
864.118	19018.12
864.363	18994.12
864.608	18962.12
864.853	18909.12
865.098	18728.12
865.342	18679.12
865.587	18537.12
865.832	18631.12
866.076	18526.12
866.321	18577.12
866.565	18300.12
866.81	18318.12
867.054	18206.12
867.298	18296.12
867.543	18160.12
867.787	18228.12
868.031	18037.12
868.275	17987.12
868.519	17956.12
868.764	17960.12
869.008	17923.12
869.252	17790.12
869.496	17772.12
869.739	17719.12
869.983	17775.12
870.227	17636.12
870.471	17638.12
870.715	17733.12
870.958	17767.12
871.202	17702.12
871.446	17886.12
871.689	17775.12
871.933	17737.12
872.176	17797.12
872.42	17731.12
872.663	17673.12
872.906	17668.12
873.15	17602.12
873.393	17523.12
873.636	17490.12
873.879	17255.12
874.122	17168.12
874.366	16939.12
874.609	16838.12
874.852	16685.12
875.095	16609.12
875.337	16394.12
875.58	16326.12
875.823	16352.12
876.066	16191.12
876.309	16261.12
876.551	16144.12
876.794	16037.12
877.037	16014.12
877.279	15970.12
877.522	15929.12
877.764	16016.12
878.007	15904.12
878.249	15941.12
878.491	15829.12
878.734	15829.12
878.976	15739.12
879.218	15633.12
879.46	15630.12
879.702	15482.12
879.945	15401.12
880.187	15251.12
880.429	15116.12
880.671	15049.12
880.912	15028.12
881.154	14985.12
881.396	14843.12
881.638	14922.12
881.88	14917.12
882.121	14830.12
882.363	14878.12
882.605	14859.12
882.846	14740.12
883.088	14775.12
883.329	14708.12
883.571	14641.12
883.812	14764.12
884.053	14984.12
884.295	15230.12
884.536	15412.12
884.777	15227.12
885.018	15140.12
885.259	15141.12
885.5	15060.12
885.742	15171.12
885.982	14948.12
886.223	14863.12
886.464	14694.12
886.705	14561.12
886.946	14503.12
887.187	14276.12
887.428	14204.12
887.668	13950.12
887.909	13739.12
888.15	13563.12
888.39	13586.12
888.631	13501.12
888.871	13384.12
889.111	13275.12
889.352	13152.12
889.592	13002.12
889.833	13020.12
890.073	12876.12
890.313	12893.12
890.553	12706.12
890.793	12685.12
891.033	12559.12
891.273	12574.12
891.513	12477.12
891.753	12495.12
891.993	12430.12
892.233	12476.12
892.473	12593.12
892.713	12531.12
892.952	12493.12
893.192	12514.12
893.432	12459.12
893.671	12423.12
893.911	12432.12
894.15	12368.12
894.39	12164.12
894.629	12103.12
894.869	12070.12
895.108	12046.12
895.347	11932.12
895.587	11914.12
895.826	11826.12
896.065	11715.12
896.304	11911.12
896.543	11803.12
896.782	11689.12
897.021	11775.12
897.26	11653.12
897.499	11687.12
897.738	11654.12
897.977	11615.12
898.216	11470.12
898.454	11316.12
898.693	11291.12
898.932	11286.12
899.17	11171.12
899.409	11169.12
899.647	11094.12
899.886	11051.12
900.124	11057.12
900.363	11051.12
900.601	11090.12
900.839	11127.12
901.078	11182.12
901.316	11185.12
901.554	11125.12
901.792	11279.12
902.03	11148.12
902.268	11163.12
902.506	11201.12
902.744	11107.12
902.982	11000.12
903.22	10829.12
903.458	10775.12
903.695	10607.12
903.933	10486.12
904.171	10344.12
904.409	10201.12
904.646	10015.12
904.884	9906.12
905.121	9875.12
905.359	9779.12
905.596	9640.12
905.833	9566.12
906.071	9534.12
906.308	9531.12
906.545	9474.12
906.783	9362.12
907.02	9329.12
907.257	9333.12
907.494	9280.12
907.731	9340.12
907.968	9317.12
908.205	9209.12
908.442	9205.12
908.679	9068.12
908.915	8983.12
909.152	8963.12
909.389	8841.12
909.626	8776.12
909.862	8784.12
910.099	8621.12
910.335	8725.12
910.572	8633.12
910.808	8576.12
911.045	8603.12
911.281	8505.12
911.518	8555.12
911.754	8379.12
911.99	8448.12
912.226	8384.12
912.463	8244.12
912.699	8202.12
912.935	8228.12
913.171	8070.12
913.407	7952.12
913.643	7989.12
913.879	7940.12
914.114	7784.12
914.35	7705.12
914.586	7723.12
914.822	7551.12
915.057	7668.12
915.293	7431.12
915.529	7401.12
915.764	7509.12
916	7473.12
916.235	7415.12
916.471	7414.12
916.706	7315.12
916.941	7300.12
917.177	7373.12
917.412	7393.12
917.647	7363.12
917.882	7289.12
918.117	7361.12
918.352	7266.12
918.588	7232.12
918.823	7175.12
919.057	7054.12
919.292	6993.12
919.527	7026.12
919.762	6880.12
919.997	6883.12
920.232	6748.12
920.466	6787.12
920.701	6599.12
920.935	6627.12
921.17	6517.12
921.405	6544.12
921.639	6515.12
921.873	6488.12
922.108	6419.12
922.342	6477.12
922.576	6405.12
922.811	6374.12
923.045	6357.12
923.279	6326.12
923.513	6244.12
923.747	6348.12
923.981	6230.12
924.215	6167.12
924.449	6182.12
924.683	6033.12
924.917	5987.12
925.151	6099.12
925.385	6097.12
925.618	6040.12
925.852	6019.12
926.086	5901.12
926.319	5924.12
926.553	5935.12
926.786	5930.12
927.02	5919.12
927.253	5960.12
927.486	5931.12
927.72	5903.12
927.953	5854.12
928.186	5829.12
928.42	5852.12
928.653	5823.12
928.886	5776.12
929.119	5759.12
929.352	5721.12
929.585	5695.12
929.818	5576.12
930.051	5606.12
930.284	5579.12
930.516	5482.12
930.749	5419.12
930.982	5446.12
931.215	5402.12
931.447	5350.12
931.68	5388.12
931.912	5329.12
932.145	5330.12
932.377	5341.12
932.61	5495.12
932.842	5249.12
933.074	5295.12
933.307	5284.12
933.539	5360.12
933.771	5356.12
934.003	5314.12
934.236	5334.12
934.468	5342.12
934.7	5254.12
934.932	5294.12
935.164	5267.12
935.395	5200.12
935.627	5195.12
935.859	5167.12
936.091	5116.12
936.323	5175.12
936.554	5131.12
936.786	5110.12
937.017	5056.12
937.249	5041.12
937.481	4996.12
937.712	5000.12
937.943	5038.12
938.175	4983.12
938.406	5007.12
938.637	5048.12
938.869	4917.12
939.1	4982.12
939.331	4942.12
939.562	4931.12
939.793	4915.12
940.024	4917.12
940.255	4865.12
940.486	4822.12
940.717	4823.12
940.948	4760.12
941.179	4709.12
941.409	4719.12
941.64	4753.12
941.871	4760.12
942.102	4746.12
942.332	4678.12
942.563	4778.12
942.793	4715.12
943.024	4691.12
943.254	4702.12
943.484	4794.12
943.715	4739.12
943.945	4707.12
944.175	4626.12
944.405	4636.12
944.636	4637.12
944.866	4633.12
945.096	4643.12
945.326	4570.12
945.556	4581.12
945.786	4665.12
946.016	4600.12
946.245	4484.12
946.475	4517.12
946.705	4468.12
946.935	4435.12
947.164	4429.12
947.394	4378.12
947.624	4356.12
947.853	4391.12
948.083	4382.12
948.312	4311.12
948.542	4225.12
948.771	4256.12
949	4255.12
949.23	4238.12
949.459	4260.12
949.688	4296.12
949.917	4231.12
950.146	4282.12
950.375	4238.12
950.604	4210.12
950.833	4270.12
951.062	4232.12
951.291	4192.12
951.52	4183.12
951.749	4175.12
951.978	4098.12
952.206	4098.12
952.435	4095.12
952.664	4108.12
952.892	4064.12
953.121	4083.12
953.349	4124.12
953.578	4089.12
953.806	4035.12
954.035	3940.12
954.263	3988.12
954.491	3938.12
954.719	3968.12
954.948	3923.12
955.176	3896.12
955.404	3822.12
955.632	3845.12
955.86	3858.12
956.088	3832.12
956.316	3851.12
956.544	3863.12
956.772	3764.12
956.999	3745.12
957.227	3792.12
957.455	3701.12
957.683	3678.12
957.91	3629.12
958.138	3610.12
958.365	3628.12
958.593	3607.12
958.82	3549.12
959.048	3625.12
959.275	3589.12
959.502	3548.12
959.73	3526.12
959.957	3560.12
960.184	3562.12
960.411	3490.12
960.638	3555.12
960.865	3533.12
961.092	3556.12
961.319	3447.12
961.546	3582.12
961.773	3557.12
962	3494.12
962.227	3534.12
962.454	3460.12
962.68	3407.12
962.907	3464.12
963.134	3408.12
963.36	3387.12
963.587	3452.12
963.813	3354.12
964.04	3354.12
964.266	3310.12
964.493	3355.12
964.719	3321.12
964.945	3326.12
965.171	3199.12
965.398	3274.12
965.624	3301.12
965.85	3182.12
966.076	3191.12
966.302	3216.12
966.528	3190.12
966.754	3208.12
966.98	3158.12
967.206	3171.12
967.431	3064.12
967.657	3150.12
967.883	3148.12
968.109	3137.12
968.334	3079.12
968.56	3049.12
968.785	3082.12
969.011	3013.12
969.236	3069.12
969.462	3024.12
969.687	2994.12
969.912	3071.12
970.138	3057.12
970.363	3005.12
970.588	2978.12
970.813	2976.12
971.038	2983.12
971.263	2957.12
971.488	2963.12
971.713	3048.12
971.938	2981.12
972.163	2869.12
972.388	2906.12
972.613	2849.12
972.838	2904.12
973.062	2859.12
973.287	2854.12
973.512	2763.12
973.736	2816.12
973.961	2791.12
974.185	2732.12
974.41	2781.12
974.634	2710.12
974.858	2718.12
975.083	2713.12
975.307	2736.12
975.531	2673.12
975.755	2596.12
975.98	2609.12
976.204	2595.12
976.428	2596.12
976.652	2602.12
976.876	2527.12
977.1	2595.12
977.324	2539.12
977.547	2587.12
977.771	2573.12
977.995	2551.12
978.219	2507.12
978.442	2611.12
978.666	2545.12
978.89	2471.12
979.113	2529.12
979.337	2503.12
979.56	2461.12
979.783	2563.12
980.007	2441.12
980.23	2461.12
980.453	2454.12
980.677	2478.12
980.9	2435.12
981.123	2346.12
981.346	2458.12
981.569	2419.12
981.792	2431.12
982.015	2358.12
982.238	2322.12
982.461	2374.12
982.684	2318.12
982.907	2292.12
983.129	2275.12
983.352	2322.12
983.575	2329.12
983.797	2277.12
984.02	2265.12
984.242	2249.12
984.465	2203.12
984.687	2267.12
984.91	2261.12
985.132	2228.12
985.354	2250.12
985.577	2224.12
985.799	2229.12
986.021	2113.12
986.243	2153.12
986.465	2154.12
986.687	2176.12
986.909	2237.12
987.131	2160.12
987.353	2125.12
987.575	2177.12
987.797	2137.12
988.019	2048.12
988.241	2098.12
988.462	2093.12
988.684	2177.12
988.906	2166.12
989.127	2143.12
989.349	2021.12
989.57	2085.12
989.792	2101.12
990.013	2101.12
990.234	2107.12
990.456	2163.12
990.677	2086.12
990.898	2045.12
991.119	2050.12
991.341	2087.12
991.562	2025.12
991.783	2059.12
992.004	1957.12
992.225	1925.12
992.446	1999.12
992.667	1953.12
992.887	1994.12
993.108	1872.12
993.329	2028.12
993.55	1950.12
993.77	1860.12
993.991	1887.12
994.212	1916.12
994.432	1897.12
994.653	1921.12
994.873	1917.12
995.093	1791.12
995.314	1849.12
995.534	1902.12
995.754	1905.12
995.975	1929.12
996.195	1832.12
996.415	1888.12
996.635	1822.12
996.855	1861.12
997.075	1821.12
997.295	1826.12
997.515	1793.12
997.735	1847.12
997.955	1801.12
998.174	1797.12
998.394	1789.12
998.614	1837.12
998.834	1781.12
999.053	1848.12
999.273	1837.12
999.492	1858.12
999.712	1785.12
999.931	1749.12
1000.151	1774.12
1000.37	1767.12
1000.589	1820.12
1000.809	1754.12
1001.028	1854.12
1001.247	1786.12
1001.466	1670.12
1001.685	1831.12
1001.904	1767.12
1002.123	1726.12
1002.342	1742.12
1002.561	1646.12
1002.78	1708.12
1002.999	1730.12
1003.218	1728.12
1003.436	1675.12
1003.655	1758.12
1003.874	1673.12
1004.092	1687.12
1004.311	1709.12
1004.53	1692.12
1004.748	1763.12
1004.966	1653.12
1005.185	1722.12
1005.403	1688.12
1005.622	1670.12
1005.84	1737.12
1006.058	1656.12
1006.276	1687.12
1006.494	2154.12
1006.712	1643.12
1006.931	1719.12
1007.149	1626.12
1007.367	1635.12
1007.584	1672.12
1007.802	1710.12
1008.02	1668.12
1008.238	1742.12
1008.456	1750.12
1008.673	1578.12
1008.891	1733.12
1009.109	1644.12
1009.326	1729.12
1009.544	1841.12
1009.761	1750.12
1009.979	1801.12
1010.196	1797.12
1010.413	1926.12
1010.631	1949.12
1010.848	1987.12
1011.065	2024.12
1011.282	1979.12
1011.5	1883.12
1011.717	1984.12
1011.934	1960.12
1012.151	1967.12
1012.368	1918.12
1012.585	1884.12
1012.801	1905.12
1013.018	1894.12
1013.235	1857.12
1013.452	1891.12
1013.669	1899.12
1013.885	1883.12
1014.102	1917.12
1014.318	1859.12
1014.535	1832.12
1014.751	1897.12
1014.968	1873.12
1015.184	1898.12
1015.401	1798.12
1015.617	1807.12
1015.833	1779.12
1016.049	1778.12
1016.266	1750.12
1016.482	1773.12
1016.698	1669.12
1016.914	1736.12
1017.13	1667.12
1017.346	1677.12
1017.562	1718.12
1017.778	1665.12
1017.993	1614.12
1018.209	1677.12
1018.425	1674.12
1018.641	1624.12
1018.856	1599.12
1019.072	1618.12
1019.288	1665.12
1019.503	1626.12
1019.719	1566.12
1019.934	1573.12
1020.149	1609.12
1020.365	1567.12
1020.58	1543.12
1020.795	1554.12
1021.011	1481.12
1021.226	1468.12
1021.441	1481.12
1021.656	1376.12
1021.871	1313.12
1022.086	1338.12
1022.301	1324.12
1022.516	1304.12
1022.731	1361.12
1022.946	1261.12
1023.16	1233.12
1023.375	1234.12
1023.59	1207.12
1023.804	1147.12
1024.019	1260.12
1024.234	1112.12
1024.448	1172.12
1024.663	1099.12
1024.877	1097.12
1025.092	1114.12
1025.306	1107.12
1025.52	1017.12
1025.734	1092.12
1025.949	989.12
1026.163	985.12
1026.377	944.12
1026.591	987.12
1026.805	885.12
1027.019	887.12
1027.233	871.12
1027.447	812.12
1027.661	911.12
1027.875	842.12
1028.088	845.12
1028.302	780.12
1028.516	774.12
1028.73	766.12
1028.943	769.12
1029.157	697.12
1029.37	665.12
1029.584	-1.88
1029.797	-2.88
1030.011	-0.88
1030.224	-0.88
