Data from QEP037381__126__15-44-29-881.txt Node

Date: Fri Dec 16 15:44:29 EST 2022
User: dcclab
Spectrometer: QEP03738
Trigger mode: 4
Integration Time (sec): 1.000000E1
Scans to average: 1
Electric dark correction enabled: true
Nonlinearity correction enabled: false
Boxcar width: 0
XAxis mode: Wavelengths
Number of Pixels in Spectrum: 1044
>>>>>Begin Spectral Data<<<<<
784.041	11.5
784.3	-0.5
784.558	-2.5
784.817	-2.5
785.075	111368.5
785.334	19304.5
785.592	9008.5
785.851	6244.5
786.109	4745.5
786.368	3688.5
786.626	2934.5
786.884	2431.5
787.143	2036.5
787.401	1673.5
787.659	1485.5
787.917	1288.5
788.175	1186.5
788.433	1046.5
788.691	949.5
788.949	882.5
789.207	807.5
789.465	716.5
789.723	694.5
789.98	631.5
790.238	678.5
790.496	625.5
790.753	585.5
791.011	658.5
791.268	586.5
791.526	562.5
791.783	573.5
792.041	560.5
792.298	477.5
792.556	540.5
792.813	536.5
793.07	489.5
793.327	483.5
793.584	555.5
793.841	472.5
794.099	504.5
794.356	541.5
794.613	453.5
794.869	497.5
795.126	462.5
795.383	446.5
795.64	457.5
795.897	418.5
796.153	468.5
796.41	470.5
796.667	442.5
796.923	452.5
797.18	452.5
797.436	477.5
797.693	440.5
797.949	507.5
798.206	522.5
798.462	450.5
798.718	491.5
798.974	465.5
799.231	512.5
799.487	508.5
799.743	535.5
799.999	567.5
800.255	566.5
800.511	548.5
800.767	588.5
801.023	594.5
801.279	623.5
801.534	679.5
801.79	732.5
802.046	751.5
802.302	949.5
802.557	1081.5
802.813	1358.5
803.068	1715.5
803.324	2389.5
803.579	3311.5
803.835	4571.5
804.09	6274.5
804.345	8280.5
804.601	10421.5
804.856	12609.5
805.111	14538.5
805.366	16023.5
805.621	17175.5
805.876	17980.5
806.131	18448.5
806.386	18844.5
806.641	19108.5
806.896	19378.5
807.151	19784.5
807.406	20134.5
807.661	20435.5
807.915	20857.5
808.17	21156.5
808.425	21411.5
808.679	21588.5
808.934	21789.5
809.188	21808.5
809.443	22184.5
809.697	22531.5
809.951	22536.5
810.206	22800.5
810.46	22994.5
810.714	23289.5
810.968	23493.5
811.223	23556.5
811.477	23761.5
811.731	23950.5
811.985	24159.5
812.239	24093.5
812.493	24311.5
812.747	24415.5
813	24462.5
813.254	24546.5
813.508	24719.5
813.762	24781.5
814.015	24880.5
814.269	25123.5
814.522	25281.5
814.776	25626.5
815.03	25925.5
815.283	26121.5
815.536	26504.5
815.79	26955.5
816.043	27444.5
816.296	27644.5
816.55	27986.5
816.803	28366.5
817.056	28730.5
817.309	29065.5
817.562	29217.5
817.815	29468.5
818.068	29771.5
818.321	30007.5
818.574	30277.5
818.827	30703.5
819.079	31010.5
819.332	31540.5
819.585	31929.5
819.838	32232.5
820.09	32529.5
820.343	32777.5
820.595	32935.5
820.848	33205.5
821.1	33266.5
821.353	33221.5
821.605	33177.5
821.857	33205.5
822.11	33008.5
822.362	33149.5
822.614	32968.5
822.866	32990.5
823.118	32844.5
823.37	33125.5
823.622	33199.5
823.874	33169.5
824.126	33262.5
824.378	33412.5
824.63	33486.5
824.882	33534.5
825.134	33416.5
825.385	33412.5
825.637	33274.5
825.888	33182.5
826.14	33122.5
826.392	33111.5
826.643	32894.5
826.895	32789.5
827.146	32613.5
827.397	32502.5
827.649	32605.5
827.9	32537.5
828.151	32471.5
828.402	32556.5
828.653	32665.5
828.905	32719.5
829.156	32866.5
829.407	32835.5
829.658	32750.5
829.909	32889.5
830.159	32792.5
830.41	32583.5
830.661	32372.5
830.912	32205.5
831.162	32199.5
831.413	32001.5
831.664	32064.5
831.914	32041.5
832.165	31945.5
832.415	32022.5
832.666	31948.5
832.916	32081.5
833.167	31874.5
833.417	31886.5
833.667	31738.5
833.917	31753.5
834.168	31568.5
834.418	31536.5
834.668	31302.5
834.918	31174.5
835.168	30987.5
835.418	31011.5
835.668	30850.5
835.918	30819.5
836.167	30729.5
836.417	30686.5
836.667	30728.5
836.917	30552.5
837.166	30557.5
837.416	30538.5
837.666	30517.5
837.915	30480.5
838.165	30266.5
838.414	30179.5
838.663	29956.5
838.913	30115.5
839.162	30043.5
839.411	30031.5
839.661	29820.5
839.91	29817.5
840.159	29688.5
840.408	29664.5
840.657	29719.5
840.906	29752.5
841.155	29685.5
841.404	29523.5
841.653	29696.5
841.902	29770.5
842.15	29834.5
842.399	29734.5
842.648	29639.5
842.897	29638.5
843.145	29380.5
843.394	29185.5
843.642	29121.5
843.891	28878.5
844.139	28630.5
844.388	28607.5
844.636	28423.5
844.884	28424.5
845.133	28329.5
845.381	28257.5
845.629	28361.5
845.877	28173.5
846.125	28277.5
846.373	28141.5
846.621	28103.5
846.869	28034.5
847.117	27846.5
847.365	27531.5
847.613	27526.5
847.861	27468.5
848.108	27390.5
848.356	27322.5
848.604	27264.5
848.851	27233.5
849.099	27344.5
849.346	27369.5
849.594	27446.5
849.841	27501.5
850.089	27627.5
850.336	27493.5
850.583	27504.5
850.831	27336.5
851.078	27170.5
851.325	27198.5
851.572	27115.5
851.819	26933.5
852.066	26425.5
852.313	26156.5
852.56	25941.5
852.807	25963.5
853.054	25683.5
853.301	25672.5
853.548	25752.5
853.794	25886.5
854.041	25945.5
854.288	25905.5
854.534	26199.5
854.781	26161.5
855.028	26021.5
855.274	25948.5
855.52	25809.5
855.767	25658.5
856.013	25672.5
856.26	26009.5
856.506	25534.5
856.752	25354.5
856.998	25278.5
857.244	25500.5
857.49	25536.5
857.736	25543.5
857.982	25677.5
858.228	25532.5
858.474	25354.5
858.72	25197.5
858.966	24929.5
859.212	24650.5
859.458	24426.5
859.703	24217.5
859.949	23765.5
860.195	23797.5
860.44	23749.5
860.686	23630.5
860.931	23636.5
861.177	23369.5
861.422	23351.5
861.667	23263.5
861.913	23239.5
862.158	23325.5
862.403	23378.5
862.648	23322.5
862.893	23464.5
863.138	23385.5
863.384	23252.5
863.629	23303.5
863.873	23280.5
864.118	23111.5
864.363	23051.5
864.608	22965.5
864.853	22967.5
865.098	22818.5
865.342	22620.5
865.587	22610.5
865.832	22605.5
866.076	22596.5
866.321	22426.5
866.565	22365.5
866.81	22143.5
867.054	22147.5
867.298	21986.5
867.543	21937.5
867.787	21983.5
868.031	21905.5
868.275	21813.5
868.519	21785.5
868.764	21879.5
869.008	21735.5
869.252	21627.5
869.496	21541.5
869.739	21542.5
869.983	21462.5
870.227	21646.5
870.471	21495.5
870.715	21540.5
870.958	21532.5
871.202	21609.5
871.446	21619.5
871.689	21529.5
871.933	21688.5
872.176	21606.5
872.42	21469.5
872.663	21383.5
872.906	21495.5
873.15	21335.5
873.393	21251.5
873.636	21216.5
873.879	21060.5
874.122	20762.5
874.366	20551.5
874.609	20348.5
874.852	20178.5
875.095	20124.5
875.337	20027.5
875.58	19880.5
875.823	19961.5
876.066	19849.5
876.309	19724.5
876.551	19575.5
876.794	19438.5
877.037	19605.5
877.279	19417.5
877.522	19361.5
877.764	19415.5
878.007	19369.5
878.249	19313.5
878.491	19258.5
878.734	19195.5
878.976	19203.5
879.218	19046.5
879.46	18926.5
879.702	18842.5
879.945	18703.5
880.187	18491.5
880.429	18445.5
880.671	18402.5
880.912	18329.5
881.154	18237.5
881.396	18069.5
881.638	18115.5
881.88	18216.5
882.121	18024.5
882.363	18072.5
882.605	18000.5
882.846	18023.5
883.088	17973.5
883.329	17846.5
883.571	17956.5
883.812	17945.5
884.053	18278.5
884.295	18461.5
884.536	18634.5
884.777	18460.5
885.018	18435.5
885.259	18268.5
885.5	18157.5
885.742	18576.5
885.982	18056.5
886.223	18015.5
886.464	17938.5
886.705	17771.5
886.946	17702.5
887.187	17343.5
887.428	17237.5
887.668	16994.5
887.909	16738.5
888.15	16565.5
888.39	16495.5
888.631	16476.5
888.871	16340.5
889.111	16131.5
889.352	16144.5
889.592	15888.5
889.833	15793.5
890.073	15734.5
890.313	15728.5
890.553	15461.5
890.793	15397.5
891.033	15384.5
891.273	15312.5
891.513	15273.5
891.753	15211.5
891.993	15178.5
892.233	15244.5
892.473	15290.5
892.713	15212.5
892.952	15163.5
893.192	15236.5
893.432	15129.5
893.671	15120.5
893.911	14976.5
894.15	14941.5
894.39	14831.5
894.629	14847.5
894.869	14703.5
895.108	14618.5
895.347	14489.5
895.587	14455.5
895.826	14504.5
896.065	14476.5
896.304	14510.5
896.543	14435.5
896.782	14307.5
897.021	14270.5
897.26	14252.5
897.499	14223.5
897.738	14169.5
897.977	14055.5
898.216	14069.5
898.454	13895.5
898.693	13785.5
898.932	13702.5
899.17	13672.5
899.409	13562.5
899.647	13508.5
899.886	13526.5
900.124	13569.5
900.363	13569.5
900.601	13604.5
900.839	13569.5
901.078	13581.5
901.316	13671.5
901.554	13671.5
901.792	13714.5
902.03	13734.5
902.268	13714.5
902.506	13652.5
902.744	13468.5
902.982	13502.5
903.22	13191.5
903.458	13093.5
903.695	12913.5
903.933	12779.5
904.171	12554.5
904.409	12438.5
904.646	12326.5
904.884	12125.5
905.121	11990.5
905.359	11832.5
905.596	11770.5
905.833	11561.5
906.071	11511.5
906.308	11580.5
906.545	11514.5
906.783	11553.5
907.02	11452.5
907.257	11303.5
907.494	11440.5
907.731	11351.5
907.968	11262.5
908.205	11188.5
908.442	11080.5
908.679	11053.5
908.915	10967.5
909.152	10879.5
909.389	10706.5
909.626	10709.5
909.862	10531.5
910.099	10591.5
910.335	10549.5
910.572	10507.5
910.808	10504.5
911.045	10505.5
911.281	10348.5
911.518	10415.5
911.754	10245.5
911.99	10219.5
912.226	10219.5
912.463	10041.5
912.699	9998.5
912.935	9913.5
913.171	9884.5
913.407	9760.5
913.643	9679.5
913.879	9713.5
914.114	9542.5
914.35	9437.5
914.586	9373.5
914.822	9217.5
915.057	9303.5
915.293	9056.5
915.529	9073.5
915.764	9108.5
916	9093.5
916.235	9021.5
916.471	9002.5
916.706	9008.5
916.941	8943.5
917.177	8912.5
917.412	8941.5
917.647	8993.5
917.882	8929.5
918.117	8881.5
918.352	8804.5
918.588	8839.5
918.823	8721.5
919.057	8604.5
919.292	8514.5
919.527	8597.5
919.762	8342.5
919.997	8391.5
920.232	8227.5
920.466	8266.5
920.701	8114.5
920.935	8065.5
921.17	8005.5
921.405	7929.5
921.639	7963.5
921.873	7904.5
922.108	7855.5
922.342	7887.5
922.576	7730.5
922.811	7776.5
923.045	7737.5
923.279	7728.5
923.513	7553.5
923.747	7580.5
923.981	7504.5
924.215	7503.5
924.449	7443.5
924.683	7402.5
924.917	7350.5
925.151	7340.5
925.385	7323.5
925.618	7285.5
925.852	7282.5
926.086	7213.5
926.319	7215.5
926.553	7208.5
926.786	7256.5
927.02	7174.5
927.253	7185.5
927.486	7133.5
927.72	7170.5
927.953	7310.5
928.186	7070.5
928.42	7097.5
928.653	6974.5
928.886	6982.5
929.119	7033.5
929.352	6941.5
929.585	6850.5
929.818	6786.5
930.051	6840.5
930.284	6760.5
930.516	6696.5
930.749	6573.5
930.982	6597.5
931.215	6601.5
931.447	6426.5
931.68	6500.5
931.912	6502.5
932.145	6475.5
932.377	6488.5
932.61	6585.5
932.842	6386.5
933.074	6447.5
933.307	6386.5
933.539	6450.5
933.771	6450.5
934.003	6386.5
934.236	6470.5
934.468	6474.5
934.7	6350.5
934.932	6390.5
935.164	6334.5
935.395	6277.5
935.627	6288.5
935.859	6298.5
936.091	6134.5
936.323	6180.5
936.554	6227.5
936.786	6156.5
937.017	6096.5
937.249	6090.5
937.481	6023.5
937.712	6068.5
937.943	6047.5
938.175	6039.5
938.406	5998.5
938.637	6047.5
938.869	6004.5
939.1	6000.5
939.331	5952.5
939.562	5959.5
939.793	5948.5
940.024	5936.5
940.255	5941.5
940.486	5830.5
940.717	5843.5
940.948	5796.5
941.179	5762.5
941.409	5727.5
941.64	5714.5
941.871	5762.5
942.102	5691.5
942.332	5685.5
942.563	5694.5
942.793	5735.5
943.024	5658.5
943.254	5641.5
943.484	5721.5
943.715	5734.5
943.945	5701.5
944.175	5587.5
944.405	5561.5
944.636	5603.5
944.866	5657.5
945.096	5616.5
945.326	5500.5
945.556	5631.5
945.786	5581.5
946.016	5450.5
946.245	5396.5
946.475	5374.5
946.705	5371.5
946.935	5361.5
947.164	5314.5
947.394	5236.5
947.624	5231.5
947.853	5334.5
948.083	5233.5
948.312	5176.5
948.542	5177.5
948.771	5144.5
949	5101.5
949.23	5115.5
949.459	5183.5
949.688	5189.5
949.917	5090.5
950.146	5067.5
950.375	5214.5
950.604	5044.5
950.833	5101.5
951.062	5068.5
951.291	5077.5
951.52	4962.5
951.749	5039.5
951.978	4961.5
952.206	4921.5
952.435	4897.5
952.664	4955.5
952.892	4908.5
953.121	4859.5
953.349	4912.5
953.578	4878.5
953.806	4837.5
954.035	4743.5
954.263	4750.5
954.491	4678.5
954.719	4736.5
954.948	4671.5
955.176	4679.5
955.404	4582.5
955.632	4613.5
955.86	4609.5
956.088	4572.5
956.316	4639.5
956.544	4589.5
956.772	4498.5
956.999	4492.5
957.227	4554.5
957.455	4400.5
957.683	4472.5
957.91	4342.5
958.138	4371.5
958.365	4364.5
958.593	4310.5
958.82	4280.5
959.048	4337.5
959.275	4308.5
959.502	4303.5
959.73	4264.5
959.957	4240.5
960.184	4281.5
960.411	4214.5
960.638	4256.5
960.865	4238.5
961.092	4226.5
961.319	4134.5
961.546	4232.5
961.773	4232.5
962	4141.5
962.227	4234.5
962.454	4165.5
962.68	4142.5
962.907	4148.5
963.134	4068.5
963.36	4050.5
963.587	4078.5
963.813	4038.5
964.04	4015.5
964.266	3943.5
964.493	3987.5
964.719	3966.5
964.945	3980.5
965.171	3824.5
965.398	3874.5
965.624	3891.5
965.85	3791.5
966.076	3811.5
966.302	3821.5
966.528	3732.5
966.754	3777.5
966.98	3776.5
967.206	3758.5
967.431	3674.5
967.657	3744.5
967.883	3716.5
968.109	3694.5
968.334	3701.5
968.56	3670.5
968.785	3646.5
969.011	3591.5
969.236	3653.5
969.462	3585.5
969.687	3615.5
969.912	3605.5
970.138	3615.5
970.363	3504.5
970.588	3593.5
970.813	3553.5
971.038	3497.5
971.263	3517.5
971.488	3498.5
971.713	3512.5
971.938	3528.5
972.163	3420.5
972.388	3460.5
972.613	3371.5
972.838	3386.5
973.062	3339.5
973.287	3424.5
973.512	3267.5
973.736	3323.5
973.961	3293.5
974.185	3286.5
974.41	3333.5
974.634	3169.5
974.858	3195.5
975.083	3245.5
975.307	3216.5
975.531	3153.5
975.755	3117.5
975.98	3098.5
976.204	3036.5
976.428	3051.5
976.652	3035.5
976.876	3031.5
977.1	3035.5
977.324	3020.5
977.547	3028.5
977.771	3035.5
977.995	3005.5
978.219	2938.5
978.442	3056.5
978.666	3009.5
978.89	2955.5
979.113	2962.5
979.337	2959.5
979.56	2870.5
979.783	2945.5
980.007	2872.5
980.23	2905.5
980.453	2865.5
980.677	2908.5
980.9	2866.5
981.123	2777.5
981.346	2853.5
981.569	2815.5
981.792	2861.5
982.015	2776.5
982.238	2767.5
982.461	2757.5
982.684	2676.5
982.907	2708.5
983.129	2659.5
983.352	2756.5
983.575	2699.5
983.797	2688.5
984.02	2613.5
984.242	2680.5
984.465	2641.5
984.687	2637.5
984.91	2656.5
985.132	2607.5
985.354	2642.5
985.577	2575.5
985.799	2587.5
986.021	2513.5
986.243	2496.5
986.465	2534.5
986.687	2546.5
986.909	2641.5
987.131	2540.5
987.353	2501.5
987.575	2503.5
987.797	2482.5
988.019	2393.5
988.241	2475.5
988.462	2438.5
988.684	2496.5
988.906	2522.5
989.127	2523.5
989.349	2389.5
989.57	2438.5
989.792	2467.5
990.013	2429.5
990.234	2450.5
990.456	2462.5
990.677	2449.5
990.898	2358.5
991.119	2347.5
991.341	2415.5
991.562	2323.5
991.783	2386.5
992.004	2279.5
992.225	2314.5
992.446	2317.5
992.667	2249.5
992.887	2293.5
993.108	2181.5
993.329	2365.5
993.55	2246.5
993.77	2183.5
993.991	2196.5
994.212	2187.5
994.432	2226.5
994.653	2194.5
994.873	2213.5
995.093	2075.5
995.314	2131.5
995.534	2186.5
995.754	2162.5
995.975	2194.5
996.195	2108.5
996.415	2131.5
996.635	2092.5
996.855	2146.5
997.075	2085.5
997.295	2064.5
997.515	2086.5
997.735	2104.5
997.955	2070.5
998.174	2065.5
998.394	2006.5
998.614	2111.5
998.834	2038.5
999.053	2117.5
999.273	2048.5
999.492	2114.5
999.712	2058.5
999.931	2008.5
1000.151	2061.5
1000.37	2011.5
1000.589	2048.5
1000.809	1966.5
1001.028	2100.5
1001.247	2008.5
1001.466	1904.5
1001.685	2052.5
1001.904	1955.5
1002.123	1956.5
1002.342	1967.5
1002.561	1897.5
1002.78	1922.5
1002.999	1980.5
1003.218	1949.5
1003.436	1908.5
1003.655	1948.5
1003.874	1873.5
1004.092	1898.5
1004.311	1932.5
1004.53	1885.5
1004.748	1966.5
1004.966	1845.5
1005.185	1895.5
1005.403	1935.5
1005.622	1840.5
1005.84	1939.5
1006.058	1858.5
1006.276	1872.5
1006.494	2369.5
1006.712	1857.5
1006.931	1922.5
1007.149	1853.5
1007.367	1840.5
1007.584	1875.5
1007.802	1867.5
1008.02	1874.5
1008.238	1940.5
1008.456	1956.5
1008.673	1793.5
1008.891	1909.5
1009.109	1889.5
1009.326	1917.5
1009.544	2025.5
1009.761	1939.5
1009.979	2046.5
1010.196	2061.5
1010.413	2115.5
1010.631	2238.5
1010.848	2234.5
1011.065	2263.5
1011.282	2182.5
1011.5	2135.5
1011.717	2261.5
1011.934	2164.5
1012.151	2191.5
1012.368	2179.5
1012.585	2141.5
1012.801	2174.5
1013.018	2140.5
1013.235	2114.5
1013.452	2121.5
1013.669	2136.5
1013.885	2126.5
1014.102	2152.5
1014.318	2154.5
1014.535	2076.5
1014.751	2121.5
1014.968	2101.5
1015.184	2152.5
1015.401	2056.5
1015.617	2058.5
1015.833	1996.5
1016.049	2008.5
1016.266	1985.5
1016.482	2022.5
1016.698	1901.5
1016.914	1928.5
1017.13	1907.5
1017.346	1879.5
1017.562	1927.5
1017.778	1857.5
1017.993	1837.5
1018.209	1893.5
1018.425	1867.5
1018.641	1844.5
1018.856	1804.5
1019.072	1845.5
1019.288	1888.5
1019.503	1822.5
1019.719	1737.5
1019.934	1731.5
1020.149	1810.5
1020.365	1743.5
1020.58	1715.5
1020.795	1773.5
1021.011	1670.5
1021.226	1636.5
1021.441	1677.5
1021.656	1543.5
1021.871	1507.5
1022.086	1495.5
1022.301	1516.5
1022.516	1476.5
1022.731	1502.5
1022.946	1425.5
1023.16	1399.5
1023.375	1390.5
1023.59	1349.5
1023.804	1302.5
1024.019	1419.5
1024.234	1275.5
1024.448	1306.5
1024.663	1223.5
1024.877	1234.5
1025.092	1236.5
1025.306	1247.5
1025.52	1156.5
1025.734	1231.5
1025.949	1147.5
1026.163	1086.5
1026.377	1038.5
1026.591	1090.5
1026.805	1027.5
1027.019	1010.5
1027.233	971.5
1027.447	910.5
1027.661	1008.5
1027.875	972.5
1028.088	937.5
1028.302	867.5
1028.516	850.5
1028.73	849.5
1028.943	836.5
1029.157	782.5
1029.37	760.5
1029.584	0.5
1029.797	-4.5
1030.011	0.5
1030.224	-2.5
