Data from QEP037381__212__15-58-49-892.txt Node

Date: Fri Dec 16 15:58:49 EST 2022
User: dcclab
Spectrometer: QEP03738
Trigger mode: 4
Integration Time (sec): 1.000000E1
Scans to average: 1
Electric dark correction enabled: true
Nonlinearity correction enabled: false
Boxcar width: 0
XAxis mode: Wavelengths
Number of Pixels in Spectrum: 1044
>>>>>Begin Spectral Data<<<<<
784.041	10.5
784.3	-0.5
784.558	-3.5
784.817	-1.5
785.075	110632.5
785.334	19495.5
785.592	9186.5
785.851	6347.5
786.109	4742.5
786.368	3702.5
786.626	2993.5
786.884	2486.5
787.143	2068.5
787.401	1718.5
787.659	1523.5
787.917	1287.5
788.175	1171.5
788.433	1038.5
788.691	922.5
788.949	874.5
789.207	810.5
789.465	697.5
789.723	687.5
789.98	616.5
790.238	675.5
790.496	615.5
790.753	584.5
791.011	640.5
791.268	570.5
791.526	557.5
791.783	554.5
792.041	555.5
792.298	473.5
792.556	525.5
792.813	501.5
793.07	497.5
793.327	469.5
793.584	552.5
793.841	470.5
794.099	494.5
794.356	559.5
794.613	451.5
794.869	480.5
795.126	439.5
795.383	419.5
795.64	444.5
795.897	396.5
796.153	452.5
796.41	443.5
796.667	438.5
796.923	441.5
797.18	455.5
797.436	452.5
797.693	440.5
797.949	490.5
798.206	506.5
798.462	434.5
798.718	478.5
798.974	449.5
799.231	509.5
799.487	509.5
799.743	516.5
799.999	528.5
800.255	543.5
800.511	516.5
800.767	565.5
801.023	558.5
801.279	584.5
801.534	636.5
801.79	670.5
802.046	725.5
802.302	871.5
802.557	986.5
802.813	1221.5
803.068	1549.5
803.324	2108.5
803.579	2923.5
803.835	4019.5
804.09	5538.5
804.345	7348.5
804.601	9191.5
804.856	11133.5
805.111	12916.5
805.366	14194.5
805.621	15264.5
805.876	15880.5
806.131	16318.5
806.386	16614.5
806.641	16922.5
806.896	17201.5
807.151	17547.5
807.406	17793.5
807.661	18039.5
807.915	18343.5
808.17	18652.5
808.425	18821.5
808.679	19003.5
808.934	19228.5
809.188	19345.5
809.443	19504.5
809.697	19826.5
809.951	19920.5
810.206	20072.5
810.46	20254.5
810.714	20335.5
810.968	20738.5
811.223	20799.5
811.477	20935.5
811.731	21151.5
811.985	21287.5
812.239	21375.5
812.493	21388.5
812.747	21337.5
813	21429.5
813.254	21609.5
813.508	21754.5
813.762	21799.5
814.015	21761.5
814.269	21996.5
814.522	22195.5
814.776	22455.5
815.03	22761.5
815.283	22959.5
815.536	23479.5
815.79	23687.5
816.043	24061.5
816.296	24399.5
816.55	24559.5
816.803	24846.5
817.056	25308.5
817.309	25415.5
817.562	25658.5
817.815	25914.5
818.068	25998.5
818.321	26268.5
818.574	26722.5
818.827	26797.5
819.079	27158.5
819.332	27741.5
819.585	28055.5
819.838	28371.5
820.09	28457.5
820.343	28710.5
820.595	28896.5
820.848	29039.5
821.1	29090.5
821.353	29182.5
821.605	29111.5
821.857	29045.5
822.11	28916.5
822.362	28830.5
822.614	28687.5
822.866	28747.5
823.118	28747.5
823.37	28827.5
823.622	29002.5
823.874	28967.5
824.126	29188.5
824.378	29102.5
824.63	29259.5
824.882	29357.5
825.134	29243.5
825.385	29185.5
825.637	29119.5
825.888	29004.5
826.14	28838.5
826.392	28891.5
826.643	28645.5
826.895	28696.5
827.146	28439.5
827.397	28361.5
827.649	28542.5
827.9	28488.5
828.151	28332.5
828.402	28391.5
828.653	28572.5
828.905	28485.5
829.156	28723.5
829.407	28526.5
829.658	28675.5
829.909	28680.5
830.159	28582.5
830.41	28403.5
830.661	28240.5
830.912	28026.5
831.162	27894.5
831.413	27863.5
831.664	27946.5
831.914	27815.5
832.165	27716.5
832.415	27888.5
832.666	27866.5
832.916	27911.5
833.167	27660.5
833.417	27823.5
833.667	27581.5
833.917	27451.5
834.168	27349.5
834.418	27380.5
834.668	27215.5
834.918	27034.5
835.168	27103.5
835.418	26871.5
835.668	26727.5
835.918	26801.5
836.167	26665.5
836.417	26620.5
836.667	26605.5
836.917	26596.5
837.166	26511.5
837.416	26509.5
837.666	26402.5
837.915	26404.5
838.165	26384.5
838.414	26330.5
838.663	26260.5
838.913	26307.5
839.162	25978.5
839.411	26002.5
839.661	25869.5
839.91	25799.5
840.159	25719.5
840.408	25809.5
840.657	25892.5
840.906	25804.5
841.155	25743.5
841.404	25675.5
841.653	25747.5
841.902	25716.5
842.15	25756.5
842.399	25742.5
842.648	25627.5
842.897	25592.5
843.145	25450.5
843.394	25274.5
843.642	25168.5
843.891	25004.5
844.139	24908.5
844.388	24730.5
844.636	24675.5
844.884	24574.5
845.133	24601.5
845.381	24552.5
845.629	24566.5
845.877	24449.5
846.125	24454.5
846.373	24389.5
846.621	24279.5
846.869	24198.5
847.117	24138.5
847.365	23967.5
847.613	23926.5
847.861	23800.5
848.108	23726.5
848.356	23720.5
848.604	23620.5
848.851	23616.5
849.099	23587.5
849.346	23683.5
849.594	23795.5
849.841	23801.5
850.089	23801.5
850.336	23829.5
850.583	23827.5
850.831	23665.5
851.078	23501.5
851.325	23507.5
851.572	23568.5
851.819	23344.5
852.066	22910.5
852.313	22582.5
852.56	22488.5
852.807	22336.5
853.054	22215.5
853.301	22289.5
853.548	22194.5
853.794	22446.5
854.041	22431.5
854.288	22413.5
854.534	22683.5
854.781	22576.5
855.028	22563.5
855.274	22429.5
855.52	22304.5
855.767	22252.5
856.013	22323.5
856.26	22531.5
856.506	22062.5
856.752	21890.5
856.998	21927.5
857.244	21948.5
857.49	21999.5
857.736	22209.5
857.982	22107.5
858.228	22018.5
858.474	21792.5
858.72	21744.5
858.966	21550.5
859.212	21374.5
859.458	21102.5
859.703	20825.5
859.949	20738.5
860.195	20583.5
860.44	20383.5
860.686	20328.5
860.931	20349.5
861.177	20239.5
861.422	20261.5
861.667	20077.5
861.913	20029.5
862.158	20014.5
862.403	20217.5
862.648	20134.5
862.893	20240.5
863.138	20171.5
863.384	20115.5
863.629	20118.5
863.873	19976.5
864.118	19996.5
864.363	19813.5
864.608	19891.5
864.853	19799.5
865.098	19632.5
865.342	19602.5
865.587	19375.5
865.832	19418.5
866.076	19380.5
866.321	19265.5
866.565	19126.5
866.81	19069.5
867.054	19114.5
867.298	19042.5
867.543	19010.5
867.787	18989.5
868.031	18825.5
868.275	18802.5
868.519	18848.5
868.764	18764.5
869.008	18701.5
869.252	18637.5
869.496	18559.5
869.739	18496.5
869.983	18508.5
870.227	18518.5
870.471	18479.5
870.715	18529.5
870.958	18541.5
871.202	18542.5
871.446	18641.5
871.689	18666.5
871.933	18622.5
872.176	18614.5
872.42	18532.5
872.663	18490.5
872.906	18409.5
873.15	18372.5
873.393	18342.5
873.636	18306.5
873.879	18071.5
874.122	17867.5
874.366	17703.5
874.609	17481.5
874.852	17293.5
875.095	17378.5
875.337	17228.5
875.58	17080.5
875.823	17127.5
876.066	17010.5
876.309	17092.5
876.551	16864.5
876.794	16764.5
877.037	16765.5
877.279	16609.5
877.522	16696.5
877.764	16710.5
878.007	16651.5
878.249	16543.5
878.491	16584.5
878.734	16668.5
878.976	16496.5
879.218	16438.5
879.46	16358.5
879.702	16244.5
879.945	16154.5
880.187	15966.5
880.429	15875.5
880.671	15796.5
880.912	15768.5
881.154	15633.5
881.396	15591.5
881.638	15614.5
881.88	15624.5
882.121	15484.5
882.363	15555.5
882.605	15553.5
882.846	15440.5
883.088	15364.5
883.329	15437.5
883.571	15347.5
883.812	15388.5
884.053	15763.5
884.295	15908.5
884.536	16192.5
884.777	16035.5
885.018	15938.5
885.259	15814.5
885.5	15762.5
885.742	15870.5
885.982	15662.5
886.223	15449.5
886.464	15414.5
886.705	15209.5
886.946	15117.5
887.187	14944.5
887.428	14794.5
887.668	14584.5
887.909	14356.5
888.15	14232.5
888.39	14177.5
888.631	14099.5
888.871	13957.5
889.111	13834.5
889.352	13838.5
889.592	13672.5
889.833	13602.5
890.073	13435.5
890.313	13372.5
890.553	13313.5
890.793	13150.5
891.033	13144.5
891.273	12999.5
891.513	13098.5
891.753	13089.5
891.993	13035.5
892.233	13022.5
892.473	13094.5
892.713	13064.5
892.952	13040.5
893.192	13099.5
893.432	13029.5
893.671	12998.5
893.911	12872.5
894.15	12770.5
894.39	12632.5
894.629	12634.5
894.869	12600.5
895.108	12439.5
895.347	12423.5
895.587	12464.5
895.826	12343.5
896.065	12336.5
896.304	12351.5
896.543	12382.5
896.782	12270.5
897.021	12192.5
897.26	12214.5
897.499	12224.5
897.738	12196.5
897.977	12052.5
898.216	11913.5
898.454	11914.5
898.693	11745.5
898.932	11781.5
899.17	11692.5
899.409	11679.5
899.647	11665.5
899.886	11595.5
900.124	11681.5
900.363	11474.5
900.601	11598.5
900.839	11651.5
901.078	11561.5
901.316	11648.5
901.554	11699.5
901.792	11749.5
902.03	11625.5
902.268	11710.5
902.506	11669.5
902.744	11622.5
902.982	11538.5
903.22	11301.5
903.458	11262.5
903.695	11079.5
903.933	10942.5
904.171	10720.5
904.409	10563.5
904.646	10508.5
904.884	10264.5
905.121	10191.5
905.359	10091.5
905.596	9976.5
905.833	9969.5
906.071	9916.5
906.308	9935.5
906.545	9826.5
906.783	9810.5
907.02	9801.5
907.257	9726.5
907.494	9727.5
907.731	9654.5
907.968	9572.5
908.205	9596.5
908.442	9436.5
908.679	9475.5
908.915	9365.5
909.152	9264.5
909.389	9194.5
909.626	9161.5
909.862	9090.5
910.099	9093.5
910.335	9138.5
910.572	8949.5
910.808	8957.5
911.045	8923.5
911.281	8843.5
911.518	8867.5
911.754	8785.5
911.99	8731.5
912.226	8666.5
912.463	8609.5
912.699	8581.5
912.935	8489.5
913.171	8381.5
913.407	8265.5
913.643	8329.5
913.879	8234.5
914.114	8149.5
914.35	8031.5
914.586	7953.5
914.822	7866.5
915.057	7923.5
915.293	7758.5
915.529	7720.5
915.764	7783.5
916	7752.5
916.235	7734.5
916.471	7723.5
916.706	7685.5
916.941	7631.5
917.177	7562.5
917.412	7692.5
917.647	7642.5
917.882	7568.5
918.117	7651.5
918.352	7546.5
918.588	7617.5
918.823	7460.5
919.057	7383.5
919.292	7220.5
919.527	7319.5
919.762	7172.5
919.997	7138.5
920.232	7014.5
920.466	7002.5
920.701	6906.5
920.935	6849.5
921.17	6818.5
921.405	6701.5
921.639	6826.5
921.873	6734.5
922.108	6714.5
922.342	6715.5
922.576	6643.5
922.811	6621.5
923.045	6614.5
923.279	6605.5
923.513	6465.5
923.747	6542.5
923.981	6462.5
924.215	6409.5
924.449	6380.5
924.683	6299.5
924.917	6316.5
925.151	6265.5
925.385	6264.5
925.618	6275.5
925.852	6194.5
926.086	6143.5
926.319	6185.5
926.553	6208.5
926.786	6158.5
927.02	6173.5
927.253	6193.5
927.486	6154.5
927.72	6078.5
927.953	6106.5
928.186	6053.5
928.42	6093.5
928.653	6007.5
928.886	5988.5
929.119	6015.5
929.352	5916.5
929.585	5885.5
929.818	5829.5
930.051	5783.5
930.284	5836.5
930.516	5686.5
930.749	5705.5
930.982	5692.5
931.215	5665.5
931.447	5555.5
931.68	5593.5
931.912	5519.5
932.145	5532.5
932.377	5535.5
932.61	5630.5
932.842	5535.5
933.074	5520.5
933.307	5503.5
933.539	5538.5
933.771	5535.5
934.003	5445.5
934.236	5569.5
934.468	5605.5
934.7	5461.5
934.932	5508.5
935.164	5373.5
935.395	5362.5
935.627	5398.5
935.859	5351.5
936.091	5279.5
936.323	5331.5
936.554	5360.5
936.786	5237.5
937.017	5237.5
937.249	5218.5
937.481	5175.5
937.712	5236.5
937.943	5159.5
938.175	5145.5
938.406	5189.5
938.637	5207.5
938.869	5113.5
939.1	5153.5
939.331	5097.5
939.562	5126.5
939.793	5140.5
940.024	5085.5
940.255	5072.5
940.486	5074.5
940.717	4968.5
940.948	4997.5
941.179	4913.5
941.409	4931.5
941.64	4941.5
941.871	4945.5
942.102	4881.5
942.332	4916.5
942.563	4927.5
942.793	4953.5
943.024	4838.5
943.254	4884.5
943.484	4922.5
943.715	4929.5
943.945	4868.5
944.175	4798.5
944.405	4768.5
944.636	4819.5
944.866	4856.5
945.096	4823.5
945.326	4763.5
945.556	4789.5
945.786	4770.5
946.016	4725.5
946.245	4693.5
946.475	4636.5
946.705	4656.5
946.935	4605.5
947.164	4594.5
947.394	4521.5
947.624	4541.5
947.853	4586.5
948.083	4539.5
948.312	4434.5
948.542	4420.5
948.771	4354.5
949	4441.5
949.23	4437.5
949.459	4410.5
949.688	4461.5
949.917	4400.5
950.146	4427.5
950.375	4484.5
950.604	4342.5
950.833	4392.5
951.062	4405.5
951.291	4291.5
951.52	4297.5
951.749	4276.5
951.978	4253.5
952.206	4237.5
952.435	4200.5
952.664	4271.5
952.892	4242.5
953.121	4209.5
953.349	4257.5
953.578	4191.5
953.806	4153.5
954.035	4108.5
954.263	4102.5
954.491	4034.5
954.719	4097.5
954.948	4039.5
955.176	4026.5
955.404	3954.5
955.632	4009.5
955.86	3958.5
956.088	3988.5
956.316	3976.5
956.544	3985.5
956.772	3945.5
956.999	3866.5
957.227	3940.5
957.455	3833.5
957.683	3831.5
957.91	3853.5
958.138	3775.5
958.365	3809.5
958.593	3755.5
958.82	3729.5
959.048	3761.5
959.275	3758.5
959.502	3693.5
959.73	3659.5
959.957	3696.5
960.184	3737.5
960.411	3626.5
960.638	3713.5
960.865	3643.5
961.092	3712.5
961.319	3591.5
961.546	3658.5
961.773	3663.5
962	3638.5
962.227	3649.5
962.454	3633.5
962.68	3578.5
962.907	3604.5
963.134	3491.5
963.36	3526.5
963.587	3544.5
963.813	3455.5
964.04	3507.5
964.266	3384.5
964.493	3507.5
964.719	3458.5
964.945	3436.5
965.171	3310.5
965.398	3367.5
965.624	3413.5
965.85	3337.5
966.076	3297.5
966.302	3321.5
966.528	3330.5
966.754	3319.5
966.98	3287.5
967.206	3275.5
967.431	3199.5
967.657	3254.5
967.883	3272.5
968.109	3252.5
968.334	3169.5
968.56	3171.5
968.785	3169.5
969.011	3121.5
969.236	3163.5
969.462	3133.5
969.687	3138.5
969.912	3156.5
970.138	3186.5
970.363	3071.5
970.588	3123.5
970.813	3067.5
971.038	3040.5
971.263	3095.5
971.488	3090.5
971.713	3091.5
971.938	3058.5
972.163	2949.5
972.388	2999.5
972.613	2974.5
972.838	2962.5
973.062	2955.5
973.287	2931.5
973.512	2901.5
973.736	2884.5
973.961	2888.5
974.185	2855.5
974.41	2880.5
974.634	2800.5
974.858	2794.5
975.083	2866.5
975.307	2848.5
975.531	2767.5
975.755	2703.5
975.98	2726.5
976.204	2657.5
976.428	2675.5
976.652	2632.5
976.876	2632.5
977.1	2679.5
977.324	2616.5
977.547	2678.5
977.771	2647.5
977.995	2625.5
978.219	2599.5
978.442	2662.5
978.666	2629.5
978.89	2593.5
979.113	2594.5
979.337	2606.5
979.56	2583.5
979.783	2639.5
980.007	2532.5
980.23	2548.5
980.453	2519.5
980.677	2565.5
980.9	2491.5
981.123	2464.5
981.346	2530.5
981.569	2488.5
981.792	2513.5
982.015	2481.5
982.238	2422.5
982.461	2445.5
982.684	2372.5
982.907	2379.5
983.129	2381.5
983.352	2425.5
983.575	2388.5
983.797	2348.5
984.02	2330.5
984.242	2344.5
984.465	2315.5
984.687	2362.5
984.91	2380.5
985.132	2315.5
985.354	2319.5
985.577	2284.5
985.799	2238.5
986.021	2203.5
986.243	2237.5
986.465	2214.5
986.687	2279.5
986.909	2294.5
987.131	2243.5
987.353	2198.5
987.575	2252.5
987.797	2190.5
988.019	2162.5
988.241	2160.5
988.462	2149.5
988.684	2210.5
988.906	2215.5
989.127	2279.5
989.349	2142.5
989.57	2187.5
989.792	2223.5
990.013	2194.5
990.234	2167.5
990.456	2185.5
990.677	2181.5
990.898	2132.5
991.119	2109.5
991.341	2108.5
991.562	2034.5
991.783	2108.5
992.004	2042.5
992.225	2005.5
992.446	2087.5
992.667	1975.5
992.887	2061.5
993.108	1954.5
993.329	2069.5
993.55	2006.5
993.77	1929.5
993.991	1917.5
994.212	1973.5
994.432	1962.5
994.653	2004.5
994.873	1940.5
995.093	1835.5
995.314	1902.5
995.534	1944.5
995.754	1960.5
995.975	1990.5
996.195	1873.5
996.415	1930.5
996.635	1896.5
996.855	1876.5
997.075	1902.5
997.295	1842.5
997.515	1853.5
997.735	1933.5
997.955	1875.5
998.174	1889.5
998.394	1826.5
998.614	1913.5
998.834	1837.5
999.053	1885.5
999.273	1873.5
999.492	1918.5
999.712	1860.5
999.931	1799.5
1000.151	1837.5
1000.37	1817.5
1000.589	1879.5
1000.809	1768.5
1001.028	1880.5
1001.247	1826.5
1001.466	1710.5
1001.685	1825.5
1001.904	1777.5
1002.123	1808.5
1002.342	1789.5
1002.561	1747.5
1002.78	1740.5
1002.999	1809.5
1003.218	1762.5
1003.436	1722.5
1003.655	1796.5
1003.874	1721.5
1004.092	1718.5
1004.311	1769.5
1004.53	1707.5
1004.748	1806.5
1004.966	1725.5
1005.185	1789.5
1005.403	1740.5
1005.622	1714.5
1005.84	1792.5
1006.058	1691.5
1006.276	1683.5
1006.494	2231.5
1006.712	1711.5
1006.931	1777.5
1007.149	1682.5
1007.367	1661.5
1007.584	1722.5
1007.802	1728.5
1008.02	1729.5
1008.238	1803.5
1008.456	1783.5
1008.673	1634.5
1008.891	1767.5
1009.109	1695.5
1009.326	1776.5
1009.544	1875.5
1009.761	1779.5
1009.979	1885.5
1010.196	1883.5
1010.413	2003.5
1010.631	2024.5
1010.848	2105.5
1011.065	2093.5
1011.282	2043.5
1011.5	1998.5
1011.717	2044.5
1011.934	2005.5
1012.151	2035.5
1012.368	2009.5
1012.585	1943.5
1012.801	2010.5
1013.018	2014.5
1013.235	1965.5
1013.452	1959.5
1013.669	1974.5
1013.885	1977.5
1014.102	1996.5
1014.318	1971.5
1014.535	1925.5
1014.751	1981.5
1014.968	1948.5
1015.184	1962.5
1015.401	1889.5
1015.617	1897.5
1015.833	1839.5
1016.049	1848.5
1016.266	1848.5
1016.482	1840.5
1016.698	1774.5
1016.914	1793.5
1017.13	1775.5
1017.346	1732.5
1017.562	1815.5
1017.778	1726.5
1017.993	1705.5
1018.209	1760.5
1018.425	1748.5
1018.641	1692.5
1018.856	1657.5
1019.072	1686.5
1019.288	1736.5
1019.503	1676.5
1019.719	1587.5
1019.934	1649.5
1020.149	1701.5
1020.365	1623.5
1020.58	1562.5
1020.795	1622.5
1021.011	1549.5
1021.226	1515.5
1021.441	1522.5
1021.656	1442.5
1021.871	1394.5
1022.086	1382.5
1022.301	1375.5
1022.516	1358.5
1022.731	1378.5
1022.946	1313.5
1023.16	1305.5
1023.375	1257.5
1023.59	1253.5
1023.804	1200.5
1024.019	1289.5
1024.234	1168.5
1024.448	1199.5
1024.663	1113.5
1024.877	1132.5
1025.092	1154.5
1025.306	1157.5
1025.52	1048.5
1025.734	1124.5
1025.949	1051.5
1026.163	1022.5
1026.377	958.5
1026.591	999.5
1026.805	927.5
1027.019	924.5
1027.233	882.5
1027.447	835.5
1027.661	930.5
1027.875	867.5
1028.088	880.5
1028.302	790.5
1028.516	803.5
1028.73	785.5
1028.943	773.5
1029.157	719.5
1029.37	686.5
1029.584	-4.5
1029.797	-1.5
1030.011	-0.5
1030.224	1.5
