Data from QEP037381__205__15-57-39-891.txt Node

Date: Fri Dec 16 15:57:39 EST 2022
User: dcclab
Spectrometer: QEP03738
Trigger mode: 4
Integration Time (sec): 1.000000E1
Scans to average: 1
Electric dark correction enabled: true
Nonlinearity correction enabled: false
Boxcar width: 0
XAxis mode: Wavelengths
Number of Pixels in Spectrum: 1044
>>>>>Begin Spectral Data<<<<<
784.041	12.25
784.3	-1.75
784.558	-1.75
784.817	-3.75
785.075	115291.25
785.334	20026.25
785.592	9457.25
785.851	6546.25
786.109	5005.25
786.368	3789.25
786.626	3075.25
786.884	2524.25
787.143	2106.25
787.401	1776.25
787.659	1562.25
787.917	1315.25
788.175	1202.25
788.433	1081.25
788.691	933.25
788.949	883.25
789.207	831.25
789.465	723.25
789.723	696.25
789.98	652.25
790.238	665.25
790.496	641.25
790.753	606.25
791.011	652.25
791.268	574.25
791.526	556.25
791.783	575.25
792.041	543.25
792.298	480.25
792.556	535.25
792.813	519.25
793.07	494.25
793.327	459.25
793.584	549.25
793.841	470.25
794.099	503.25
794.356	541.25
794.613	456.25
794.869	490.25
795.126	450.25
795.383	421.25
795.64	443.25
795.897	406.25
796.153	461.25
796.41	450.25
796.667	447.25
796.923	444.25
797.18	447.25
797.436	460.25
797.693	439.25
797.949	483.25
798.206	512.25
798.462	429.25
798.718	487.25
798.974	458.25
799.231	506.25
799.487	496.25
799.743	515.25
799.999	515.25
800.255	532.25
800.511	510.25
800.767	552.25
801.023	555.25
801.279	592.25
801.534	630.25
801.79	690.25
802.046	708.25
802.302	864.25
802.557	995.25
802.813	1208.25
803.068	1506.25
803.324	2088.25
803.579	2852.25
803.835	3960.25
804.09	5484.25
804.345	7168.25
804.601	9063.25
804.856	10995.25
805.111	12645.25
805.366	14036.25
805.621	14914.25
805.876	15643.25
806.131	16128.25
806.386	16363.25
806.641	16644.25
806.896	16866.25
807.151	17227.25
807.406	17444.25
807.661	17847.25
807.915	18092.25
808.17	18417.25
808.425	18588.25
808.679	18733.25
808.934	18934.25
809.188	18977.25
809.443	19297.25
809.697	19515.25
809.951	19573.25
810.206	19715.25
810.46	19847.25
810.714	20083.25
810.968	20300.25
811.223	20365.25
811.477	20610.25
811.731	20697.25
811.985	20894.25
812.239	20858.25
812.493	21047.25
812.747	21104.25
813	21088.25
813.254	21125.25
813.508	21317.25
813.762	21351.25
814.015	21480.25
814.269	21530.25
814.522	21863.25
814.776	22034.25
815.03	22264.25
815.283	22641.25
815.536	22916.25
815.79	23226.25
816.043	23592.25
816.296	23736.25
816.55	24106.25
816.803	24360.25
817.056	24684.25
817.309	24966.25
817.562	25102.25
817.815	25292.25
818.068	25476.25
818.321	25804.25
818.574	26037.25
818.827	26361.25
819.079	26728.25
819.332	27059.25
819.585	27369.25
819.838	27727.25
820.09	27850.25
820.343	28036.25
820.595	28179.25
820.848	28311.25
821.1	28371.25
821.353	28470.25
821.605	28381.25
821.857	28483.25
822.11	28313.25
822.362	28113.25
822.614	28117.25
822.866	28260.25
823.118	28212.25
823.37	28310.25
823.622	28414.25
823.874	28524.25
824.126	28602.25
824.378	28597.25
824.63	28609.25
824.882	28748.25
825.134	28622.25
825.385	28585.25
825.637	28473.25
825.888	28283.25
826.14	28214.25
826.392	28237.25
826.643	27948.25
826.895	27968.25
827.146	27919.25
827.397	27829.25
827.649	27845.25
827.9	27757.25
828.151	27753.25
828.402	27912.25
828.653	27936.25
828.905	28044.25
829.156	28071.25
829.407	28060.25
829.658	28011.25
829.909	28174.25
830.159	27975.25
830.41	27886.25
830.661	27730.25
830.912	27517.25
831.162	27427.25
831.413	27387.25
831.664	27453.25
831.914	27272.25
832.165	27231.25
832.415	27233.25
832.666	27173.25
832.916	27250.25
833.167	27124.25
833.417	27158.25
833.667	27140.25
833.917	26993.25
834.168	26902.25
834.418	26862.25
834.668	26754.25
834.918	26614.25
835.168	26540.25
835.418	26361.25
835.668	26343.25
835.918	26244.25
836.167	26179.25
836.417	26103.25
836.667	26183.25
836.917	26073.25
837.166	26068.25
837.416	26086.25
837.666	26113.25
837.915	25974.25
838.165	25903.25
838.414	25784.25
838.663	25632.25
838.913	25683.25
839.162	25652.25
839.411	25620.25
839.661	25492.25
839.91	25502.25
840.159	25409.25
840.408	25436.25
840.657	25387.25
840.906	25415.25
841.155	25360.25
841.404	25356.25
841.653	25330.25
841.902	25328.25
842.15	25414.25
842.399	25425.25
842.648	25390.25
842.897	25305.25
843.145	25086.25
843.394	24953.25
843.642	24795.25
843.891	24730.25
844.139	24540.25
844.388	24365.25
844.636	24137.25
844.884	24233.25
845.133	24160.25
845.381	24214.25
845.629	24297.25
845.877	24279.25
846.125	24038.25
846.373	24144.25
846.621	23977.25
846.869	23827.25
847.117	23737.25
847.365	23577.25
847.613	23515.25
847.861	23447.25
848.108	23371.25
848.356	23344.25
848.604	23164.25
848.851	23273.25
849.099	23251.25
849.346	23433.25
849.594	23431.25
849.841	23571.25
850.089	23527.25
850.336	23574.25
850.583	23472.25
850.831	23390.25
851.078	23149.25
851.325	23227.25
851.572	23300.25
851.819	22963.25
852.066	22589.25
852.313	22295.25
852.56	22111.25
852.807	22106.25
853.054	21978.25
853.301	21972.25
853.548	22063.25
853.794	22034.25
854.041	22225.25
854.288	22233.25
854.534	22439.25
854.781	22396.25
855.028	22250.25
855.274	22321.25
855.52	22062.25
855.767	22041.25
856.013	22137.25
856.26	22196.25
856.506	21849.25
856.752	21777.25
856.998	21798.25
857.244	21752.25
857.49	21946.25
857.736	22005.25
857.982	21907.25
858.228	21889.25
858.474	21614.25
858.72	21585.25
858.966	21463.25
859.212	21209.25
859.458	20936.25
859.703	20809.25
859.949	20515.25
860.195	20367.25
860.44	20364.25
860.686	20282.25
860.931	20201.25
861.177	20026.25
861.422	20078.25
861.667	19988.25
861.913	19954.25
862.158	19915.25
862.403	19975.25
862.648	19968.25
862.893	19966.25
863.138	19876.25
863.384	19844.25
863.629	19923.25
863.873	19855.25
864.118	19835.25
864.363	19646.25
864.608	19707.25
864.853	19529.25
865.098	19400.25
865.342	19364.25
865.587	19274.25
865.832	19185.25
866.076	19228.25
866.321	19198.25
866.565	19056.25
866.81	18930.25
867.054	18965.25
867.298	18874.25
867.543	18748.25
867.787	18825.25
868.031	18775.25
868.275	18644.25
868.519	18586.25
868.764	18555.25
869.008	18584.25
869.252	18528.25
869.496	18482.25
869.739	18406.25
869.983	18405.25
870.227	18402.25
870.471	18410.25
870.715	18455.25
870.958	18474.25
871.202	18503.25
871.446	18507.25
871.689	18396.25
871.933	18577.25
872.176	18522.25
872.42	18438.25
872.663	18436.25
872.906	18335.25
873.15	18374.25
873.393	18165.25
873.636	18334.25
873.879	18088.25
874.122	17836.25
874.366	17578.25
874.609	17508.25
874.852	17290.25
875.095	17224.25
875.337	17086.25
875.58	17027.25
875.823	16965.25
876.066	16975.25
876.309	16898.25
876.551	16795.25
876.794	16705.25
877.037	16589.25
877.279	16639.25
877.522	16653.25
877.764	16704.25
878.007	16566.25
878.249	16525.25
878.491	16446.25
878.734	16514.25
878.976	16523.25
879.218	16334.25
879.46	16276.25
879.702	16133.25
879.945	16018.25
880.187	15880.25
880.429	15710.25
880.671	15623.25
880.912	15637.25
881.154	15643.25
881.396	15455.25
881.638	15566.25
881.88	15487.25
882.121	15448.25
882.363	15476.25
882.605	15424.25
882.846	15472.25
883.088	15333.25
883.329	15300.25
883.571	15336.25
883.812	15469.25
884.053	15733.25
884.295	15968.25
884.536	16206.25
884.777	16008.25
885.018	15923.25
885.259	15818.25
885.5	15633.25
885.742	15914.25
885.982	15765.25
886.223	15592.25
886.464	15399.25
886.705	15269.25
886.946	15122.25
887.187	14838.25
887.428	14765.25
887.668	14527.25
887.909	14391.25
888.15	14180.25
888.39	14208.25
888.631	14051.25
888.871	13929.25
889.111	13843.25
889.352	13782.25
889.592	13626.25
889.833	13485.25
890.073	13393.25
890.313	13444.25
890.553	13210.25
890.793	13134.25
891.033	13150.25
891.273	12975.25
891.513	13055.25
891.753	13099.25
891.993	12888.25
892.233	12923.25
892.473	13112.25
892.713	13029.25
892.952	12938.25
893.192	12987.25
893.432	12972.25
893.671	12975.25
893.911	12827.25
894.15	12799.25
894.39	12689.25
894.629	12667.25
894.869	12601.25
895.108	12507.25
895.347	12382.25
895.587	12409.25
895.826	12346.25
896.065	12291.25
896.304	12261.25
896.543	12326.25
896.782	12204.25
897.021	12197.25
897.26	12219.25
897.499	12187.25
897.738	12142.25
897.977	12012.25
898.216	11954.25
898.454	11867.25
898.693	11741.25
898.932	11809.25
899.17	11724.25
899.409	11654.25
899.647	11621.25
899.886	11596.25
900.124	11627.25
900.363	11559.25
900.601	11568.25
900.839	11623.25
901.078	11655.25
901.316	11641.25
901.554	11655.25
901.792	11675.25
902.03	11650.25
902.268	11662.25
902.506	11685.25
902.744	11604.25
902.982	11602.25
903.22	11381.25
903.458	11238.25
903.695	11130.25
903.933	10945.25
904.171	10713.25
904.409	10650.25
904.646	10487.25
904.884	10302.25
905.121	10291.25
905.359	10119.25
905.596	10081.25
905.833	10018.25
906.071	9901.25
906.308	9953.25
906.545	9875.25
906.783	9758.25
907.02	9829.25
907.257	9797.25
907.494	9793.25
907.731	9704.25
907.968	9681.25
908.205	9627.25
908.442	9520.25
908.679	9537.25
908.915	9456.25
909.152	9360.25
909.389	9168.25
909.626	9222.25
909.862	9082.25
910.099	9070.25
910.335	9034.25
910.572	8974.25
910.808	8967.25
911.045	8944.25
911.281	8889.25
911.518	8968.25
911.754	8814.25
911.99	8739.25
912.226	8708.25
912.463	8616.25
912.699	8604.25
912.935	8532.25
913.171	8397.25
913.407	8362.25
913.643	8363.25
913.879	8231.25
914.114	8179.25
914.35	8032.25
914.586	8021.25
914.822	7973.25
915.057	7953.25
915.293	7768.25
915.529	7783.25
915.764	7820.25
916	7787.25
916.235	7713.25
916.471	7773.25
916.706	7666.25
916.941	7687.25
917.177	7541.25
917.412	7703.25
917.647	7625.25
917.882	7607.25
918.117	7642.25
918.352	7569.25
918.588	7647.25
918.823	7489.25
919.057	7420.25
919.292	7270.25
919.527	7286.25
919.762	7216.25
919.997	7190.25
920.232	7039.25
920.466	7062.25
920.701	6857.25
920.935	6935.25
921.17	6801.25
921.405	6811.25
921.639	6829.25
921.873	6774.25
922.108	6772.25
922.342	6762.25
922.576	6662.25
922.811	6678.25
923.045	6706.25
923.279	6644.25
923.513	6500.25
923.747	6599.25
923.981	6514.25
924.215	6392.25
924.449	6356.25
924.683	6318.25
924.917	6339.25
925.151	6266.25
925.385	6349.25
925.618	6267.25
925.852	6247.25
926.086	6171.25
926.319	6260.25
926.553	6226.25
926.786	6174.25
927.02	6170.25
927.253	6180.25
927.486	6181.25
927.72	6110.25
927.953	6133.25
928.186	6117.25
928.42	6079.25
928.653	6000.25
928.886	6011.25
929.119	6001.25
929.352	5934.25
929.585	5960.25
929.818	5886.25
930.051	5894.25
930.284	5843.25
930.516	5671.25
930.749	5726.25
930.982	5718.25
931.215	5643.25
931.447	5558.25
931.68	5601.25
931.912	5554.25
932.145	5551.25
932.377	5583.25
932.61	5682.25
932.842	5530.25
933.074	5546.25
933.307	5521.25
933.539	5587.25
933.771	5589.25
934.003	5510.25
934.236	5546.25
934.468	5628.25
934.7	5490.25
934.932	5515.25
935.164	5415.25
935.395	5425.25
935.627	5466.25
935.859	5413.25
936.091	5352.25
936.323	5367.25
936.554	5342.25
936.786	5312.25
937.017	5244.25
937.249	5301.25
937.481	5211.25
937.712	5247.25
937.943	5229.25
938.175	5213.25
938.406	5216.25
938.637	5208.25
938.869	5181.25
939.1	5197.25
939.331	5172.25
939.562	5168.25
939.793	5105.25
940.024	5154.25
940.255	5138.25
940.486	5071.25
940.717	5052.25
940.948	4993.25
941.179	4932.25
941.409	4974.25
941.64	4887.25
941.871	4963.25
942.102	4956.25
942.332	4928.25
942.563	4949.25
942.793	4926.25
943.024	4927.25
943.254	4954.25
943.484	4936.25
943.715	5002.25
943.945	4991.25
944.175	4888.25
944.405	4813.25
944.636	4899.25
944.866	4918.25
945.096	4889.25
945.326	4814.25
945.556	4833.25
945.786	4864.25
946.016	4802.25
946.245	4689.25
946.475	4688.25
946.705	4654.25
946.935	4664.25
947.164	4642.25
947.394	4569.25
947.624	4572.25
947.853	4637.25
948.083	4507.25
948.312	4534.25
948.542	4470.25
948.771	4438.25
949	4483.25
949.23	4439.25
949.459	4481.25
949.688	4475.25
949.917	4443.25
950.146	4463.25
950.375	4458.25
950.604	4408.25
950.833	4456.25
951.062	4421.25
951.291	4401.25
951.52	4323.25
951.749	4387.25
951.978	4341.25
952.206	4348.25
952.435	4316.25
952.664	4343.25
952.892	4325.25
953.121	4219.25
953.349	4287.25
953.578	4211.25
953.806	4230.25
954.035	4126.25
954.263	4157.25
954.491	4092.25
954.719	4176.25
954.948	4090.25
955.176	4055.25
955.404	3991.25
955.632	4045.25
955.86	4056.25
956.088	3980.25
956.316	4039.25
956.544	3990.25
956.772	3986.25
956.999	3916.25
957.227	3957.25
957.455	3870.25
957.683	3871.25
957.91	3842.25
958.138	3832.25
958.365	3828.25
958.593	3805.25
958.82	3730.25
959.048	3811.25
959.275	3729.25
959.502	3720.25
959.73	3703.25
959.957	3739.25
960.184	3752.25
960.411	3706.25
960.638	3774.25
960.865	3683.25
961.092	3722.25
961.319	3658.25
961.546	3691.25
961.773	3717.25
962	3675.25
962.227	3772.25
962.454	3650.25
962.68	3672.25
962.907	3616.25
963.134	3548.25
963.36	3561.25
963.587	3565.25
963.813	3475.25
964.04	3576.25
964.266	3460.25
964.493	3560.25
964.719	3482.25
964.945	3446.25
965.171	3373.25
965.398	3404.25
965.624	3394.25
965.85	3339.25
966.076	3412.25
966.302	3402.25
966.528	3295.25
966.754	3372.25
966.98	3352.25
967.206	3290.25
967.431	3198.25
967.657	3337.25
967.883	3313.25
968.109	3316.25
968.334	3243.25
968.56	3219.25
968.785	3201.25
969.011	3192.25
969.236	3277.25
969.462	3130.25
969.687	3184.25
969.912	3180.25
970.138	3197.25
970.363	3137.25
970.588	3130.25
970.813	3142.25
971.038	3084.25
971.263	3115.25
971.488	3138.25
971.713	3153.25
971.938	3105.25
972.163	3016.25
972.388	3040.25
972.613	3015.25
972.838	3006.25
973.062	2973.25
973.287	2987.25
973.512	2897.25
973.736	2934.25
973.961	2910.25
974.185	2914.25
974.41	2929.25
974.634	2881.25
974.858	2835.25
975.083	2825.25
975.307	2863.25
975.531	2854.25
975.755	2715.25
975.98	2762.25
976.204	2719.25
976.428	2715.25
976.652	2684.25
976.876	2651.25
977.1	2707.25
977.324	2673.25
977.547	2696.25
977.771	2728.25
977.995	2659.25
978.219	2632.25
978.442	2704.25
978.666	2651.25
978.89	2652.25
979.113	2632.25
979.337	2633.25
979.56	2577.25
979.783	2668.25
980.007	2555.25
980.23	2581.25
980.453	2537.25
980.677	2565.25
980.9	2541.25
981.123	2433.25
981.346	2547.25
981.569	2490.25
981.792	2565.25
982.015	2512.25
982.238	2464.25
982.461	2468.25
982.684	2440.25
982.907	2405.25
983.129	2407.25
983.352	2450.25
983.575	2406.25
983.797	2418.25
984.02	2334.25
984.242	2345.25
984.465	2344.25
984.687	2365.25
984.91	2408.25
985.132	2344.25
985.354	2341.25
985.577	2305.25
985.799	2317.25
986.021	2229.25
986.243	2262.25
986.465	2254.25
986.687	2288.25
986.909	2336.25
987.131	2266.25
987.353	2205.25
987.575	2270.25
987.797	2227.25
988.019	2164.25
988.241	2236.25
988.462	2184.25
988.684	2229.25
988.906	2257.25
989.127	2301.25
989.349	2151.25
989.57	2201.25
989.792	2209.25
990.013	2211.25
990.234	2212.25
990.456	2233.25
990.677	2205.25
990.898	2140.25
991.119	2186.25
991.341	2145.25
991.562	2107.25
991.783	2148.25
992.004	2071.25
992.225	2017.25
992.446	2119.25
992.667	2027.25
992.887	2070.25
993.108	1990.25
993.329	2092.25
993.55	2040.25
993.77	1965.25
993.991	1984.25
994.212	2007.25
994.432	1967.25
994.653	1995.25
994.873	1991.25
995.093	1884.25
995.314	1904.25
995.534	1955.25
995.754	2008.25
995.975	2013.25
996.195	1889.25
996.415	1937.25
996.635	1933.25
996.855	1940.25
997.075	1911.25
997.295	1898.25
997.515	1867.25
997.735	1932.25
997.955	1923.25
998.174	1916.25
998.394	1860.25
998.614	1912.25
998.834	1859.25
999.053	1930.25
999.273	1905.25
999.492	1928.25
999.712	1892.25
999.931	1820.25
1000.151	1871.25
1000.37	1843.25
1000.589	1888.25
1000.809	1822.25
1001.028	1885.25
1001.247	1866.25
1001.466	1720.25
1001.685	1860.25
1001.904	1821.25
1002.123	1793.25
1002.342	1796.25
1002.561	1780.25
1002.78	1762.25
1002.999	1805.25
1003.218	1757.25
1003.436	1721.25
1003.655	1805.25
1003.874	1730.25
1004.092	1743.25
1004.311	1797.25
1004.53	1729.25
1004.748	1794.25
1004.966	1702.25
1005.185	1767.25
1005.403	1761.25
1005.622	1751.25
1005.84	1818.25
1006.058	1705.25
1006.276	1717.25
1006.494	2209.25
1006.712	1726.25
1006.931	1772.25
1007.149	1678.25
1007.367	1695.25
1007.584	1745.25
1007.802	1772.25
1008.02	1743.25
1008.238	1851.25
1008.456	1835.25
1008.673	1667.25
1008.891	1777.25
1009.109	1742.25
1009.326	1794.25
1009.544	1914.25
1009.761	1790.25
1009.979	1893.25
1010.196	1939.25
1010.413	2040.25
1010.631	2096.25
1010.848	2124.25
1011.065	2147.25
1011.282	2097.25
1011.5	2054.25
1011.717	2131.25
1011.934	2097.25
1012.151	2085.25
1012.368	2060.25
1012.585	2028.25
1012.801	2082.25
1013.018	2029.25
1013.235	2003.25
1013.452	2038.25
1013.669	2035.25
1013.885	2030.25
1014.102	2076.25
1014.318	2046.25
1014.535	2000.25
1014.751	2041.25
1014.968	2026.25
1015.184	2033.25
1015.401	1965.25
1015.617	1961.25
1015.833	1919.25
1016.049	1885.25
1016.266	1867.25
1016.482	1881.25
1016.698	1813.25
1016.914	1843.25
1017.13	1793.25
1017.346	1754.25
1017.562	1826.25
1017.778	1792.25
1017.993	1718.25
1018.209	1791.25
1018.425	1743.25
1018.641	1727.25
1018.856	1714.25
1019.072	1723.25
1019.288	1775.25
1019.503	1735.25
1019.719	1660.25
1019.934	1640.25
1020.149	1739.25
1020.365	1658.25
1020.58	1572.25
1020.795	1618.25
1021.011	1573.25
1021.226	1532.25
1021.441	1542.25
1021.656	1459.25
1021.871	1431.25
1022.086	1376.25
1022.301	1383.25
1022.516	1374.25
1022.731	1435.25
1022.946	1353.25
1023.16	1309.25
1023.375	1269.25
1023.59	1258.25
1023.804	1227.25
1024.019	1319.25
1024.234	1176.25
1024.448	1221.25
1024.663	1135.25
1024.877	1146.25
1025.092	1168.25
1025.306	1151.25
1025.52	1043.25
1025.734	1127.25
1025.949	1046.25
1026.163	1040.25
1026.377	954.25
1026.591	1006.25
1026.805	953.25
1027.019	939.25
1027.233	904.25
1027.447	850.25
1027.661	944.25
1027.875	895.25
1028.088	881.25
1028.302	821.25
1028.516	784.25
1028.73	798.25
1028.943	788.25
1029.157	718.25
1029.37	671.25
1029.584	-1.75
1029.797	-1.75
1030.011	-0.75
1030.224	-0.75
