Data from QEP037381__170__15-51-49-886.txt Node

Date: Fri Dec 16 15:51:49 EST 2022
User: dcclab
Spectrometer: QEP03738
Trigger mode: 4
Integration Time (sec): 1.000000E1
Scans to average: 1
Electric dark correction enabled: true
Nonlinearity correction enabled: false
Boxcar width: 0
XAxis mode: Wavelengths
Number of Pixels in Spectrum: 1044
>>>>>Begin Spectral Data<<<<<
784.041	13.62
784.3	0.62
784.558	-2.38
784.817	-0.38
785.075	113442.62
785.334	19623.62
785.592	9192.62
785.851	6373.62
786.109	4774.62
786.368	3669.62
786.626	2955.62
786.884	2452.62
787.143	2079.62
787.401	1705.62
787.659	1525.62
787.917	1278.62
788.175	1181.62
788.433	1044.62
788.691	934.62
788.949	844.62
789.207	802.62
789.465	712.62
789.723	677.62
789.98	636.62
790.238	668.62
790.496	618.62
790.753	597.62
791.011	620.62
791.268	558.62
791.526	540.62
791.783	585.62
792.041	547.62
792.298	472.62
792.556	530.62
792.813	495.62
793.07	494.62
793.327	466.62
793.584	553.62
793.841	481.62
794.099	486.62
794.356	536.62
794.613	453.62
794.869	486.62
795.126	434.62
795.383	451.62
795.64	456.62
795.897	407.62
796.153	483.62
796.41	448.62
796.667	436.62
796.923	449.62
797.18	442.62
797.436	494.62
797.693	433.62
797.949	480.62
798.206	519.62
798.462	434.62
798.718	500.62
798.974	475.62
799.231	527.62
799.487	516.62
799.743	511.62
799.999	552.62
800.255	533.62
800.511	534.62
800.767	570.62
801.023	563.62
801.279	621.62
801.534	657.62
801.79	696.62
802.046	764.62
802.302	917.62
802.557	1064.62
802.813	1343.62
803.068	1683.62
803.324	2303.62
803.579	3177.62
803.835	4424.62
804.09	6106.62
804.345	7951.62
804.601	10004.62
804.856	12149.62
805.111	13953.62
805.366	15336.62
805.621	16304.62
805.876	17269.62
806.131	17507.62
806.386	17847.62
806.641	18156.62
806.896	18436.62
807.151	18751.62
807.406	19035.62
807.661	19490.62
807.915	19629.62
808.17	19977.62
808.425	20217.62
808.679	20350.62
808.934	20637.62
809.188	20798.62
809.443	20979.62
809.697	21294.62
809.951	21377.62
810.206	21454.62
810.46	21804.62
810.714	21970.62
810.968	22212.62
811.223	22328.62
811.477	22476.62
811.731	22753.62
811.985	22801.62
812.239	22851.62
812.493	23011.62
812.747	23184.62
813	23067.62
813.254	23189.62
813.508	23416.62
813.762	23426.62
814.015	23446.62
814.269	23653.62
814.522	23880.62
814.776	24175.62
815.03	24437.62
815.283	24764.62
815.536	25083.62
815.79	25524.62
816.043	25822.62
816.296	26261.62
816.55	26400.62
816.803	26717.62
817.056	27031.62
817.309	27374.62
817.562	27565.62
817.815	27818.62
818.068	28003.62
818.321	28261.62
818.574	28653.62
818.827	28959.62
819.079	29205.62
819.332	29834.62
819.585	30133.62
819.838	30556.62
820.09	30573.62
820.343	30941.62
820.595	30832.62
820.848	31194.62
821.1	31377.62
821.353	31361.62
821.605	31278.62
821.857	31288.62
822.11	31113.62
822.362	31080.62
822.614	30979.62
822.866	31137.62
823.118	31025.62
823.37	31113.62
823.622	31149.62
823.874	31401.62
824.126	31277.62
824.378	31347.62
824.63	31416.62
824.882	31507.62
825.134	31442.62
825.385	31538.62
825.637	31413.62
825.888	31183.62
826.14	31137.62
826.392	31091.62
826.643	30894.62
826.895	30823.62
827.146	30687.62
827.397	30731.62
827.649	30693.62
827.9	30545.62
828.151	30466.62
828.402	30616.62
828.653	30662.62
828.905	30708.62
829.156	30918.62
829.407	30718.62
829.658	30829.62
829.909	30916.62
830.159	30841.62
830.41	30611.62
830.661	30430.62
830.912	30249.62
831.162	30237.62
831.413	30081.62
831.664	30042.62
831.914	30017.62
832.165	30019.62
832.415	30005.62
832.666	29931.62
832.916	29968.62
833.167	30057.62
833.417	29951.62
833.667	29775.62
833.917	29679.62
834.168	29688.62
834.418	29531.62
834.668	29413.62
834.918	29279.62
835.168	29100.62
835.418	29025.62
835.668	28927.62
835.918	28976.62
836.167	28707.62
836.417	28732.62
836.667	28635.62
836.917	28640.62
837.166	28533.62
837.416	28600.62
837.666	28574.62
837.915	28620.62
838.165	28413.62
838.414	28260.62
838.663	28258.62
838.913	28213.62
839.162	28100.62
839.411	28171.62
839.661	27995.62
839.91	27867.62
840.159	27800.62
840.408	27887.62
840.657	27864.62
840.906	27899.62
841.155	27822.62
841.404	27883.62
841.653	27723.62
841.902	27792.62
842.15	27856.62
842.399	27802.62
842.648	27850.62
842.897	27711.62
843.145	27606.62
843.394	27315.62
843.642	27224.62
843.891	27198.62
844.139	27008.62
844.388	26829.62
844.636	26707.62
844.884	26688.62
845.133	26583.62
845.381	26560.62
845.629	26603.62
845.877	26611.62
846.125	26360.62
846.373	26421.62
846.621	26154.62
846.869	26357.62
847.117	26056.62
847.365	25954.62
847.613	25858.62
847.861	25651.62
848.108	25694.62
848.356	25620.62
848.604	25358.62
848.851	25590.62
849.099	25589.62
849.346	25603.62
849.594	25718.62
849.841	25742.62
850.089	25767.62
850.336	25814.62
850.583	25801.62
850.831	25573.62
851.078	25440.62
851.325	25542.62
851.572	25460.62
851.819	25220.62
852.066	24878.62
852.313	24557.62
852.56	24327.62
852.807	24256.62
853.054	24141.62
853.301	24137.62
853.548	24052.62
853.794	24245.62
854.041	24247.62
854.288	24481.62
854.534	24527.62
854.781	24470.62
855.028	24379.62
855.274	24296.62
855.52	24164.62
855.767	24098.62
856.013	24167.62
856.26	24448.62
856.506	23857.62
856.752	23964.62
856.998	23859.62
857.244	23925.62
857.49	24064.62
857.736	24009.62
857.982	23999.62
858.228	23996.62
858.474	23849.62
858.72	23608.62
858.966	23405.62
859.212	23014.62
859.458	22899.62
859.703	22619.62
859.949	22395.62
860.195	22277.62
860.44	22194.62
860.686	22095.62
860.931	22058.62
861.177	21991.62
861.422	21863.62
861.667	21834.62
861.913	21784.62
862.158	21761.62
862.403	21827.62
862.648	21893.62
862.893	21879.62
863.138	22008.62
863.384	21804.62
863.629	21803.62
863.873	21859.62
864.118	21604.62
864.363	21570.62
864.608	21603.62
864.853	21366.62
865.098	21265.62
865.342	21216.62
865.587	21025.62
865.832	21092.62
866.076	20964.62
866.321	20986.62
866.565	20836.62
866.81	20800.62
867.054	20710.62
867.298	20609.62
867.543	20440.62
867.787	20594.62
868.031	20467.62
868.275	20395.62
868.519	20495.62
868.764	20331.62
869.008	20266.62
869.252	20387.62
869.496	20188.62
869.739	20096.62
869.983	20179.62
870.227	20096.62
870.471	20070.62
870.715	20216.62
870.958	20177.62
871.202	20233.62
871.446	20312.62
871.689	20249.62
871.933	20213.62
872.176	20159.62
872.42	20214.62
872.663	20079.62
872.906	20043.62
873.15	19996.62
873.393	19869.62
873.636	20042.62
873.879	19749.62
874.122	19579.62
874.366	19217.62
874.609	19067.62
874.852	18922.62
875.095	18765.62
875.337	18768.62
875.58	18604.62
875.823	18556.62
876.066	18585.62
876.309	18433.62
876.551	18415.62
876.794	18222.62
877.037	18298.62
877.279	18080.62
877.522	18150.62
877.764	18286.62
878.007	18127.62
878.249	18070.62
878.491	18088.62
878.734	18104.62
878.976	17970.62
879.218	17818.62
879.46	17768.62
879.702	17622.62
879.945	17465.62
880.187	17329.62
880.429	17194.62
880.671	17199.62
880.912	17091.62
881.154	17131.62
881.396	16919.62
881.638	16941.62
881.88	16906.62
882.121	16935.62
882.363	16934.62
882.605	16924.62
882.846	16873.62
883.088	16827.62
883.329	16783.62
883.571	16800.62
883.812	16931.62
884.053	17137.62
884.295	17484.62
884.536	17636.62
884.777	17548.62
885.018	17303.62
885.259	17339.62
885.5	17148.62
885.742	17431.62
885.982	17194.62
886.223	16947.62
886.464	16839.62
886.705	16655.62
886.946	16537.62
887.187	16190.62
887.428	16170.62
887.668	15935.62
887.909	15682.62
888.15	15497.62
888.39	15432.62
888.631	15298.62
888.871	15202.62
889.111	15071.62
889.352	14923.62
889.592	14805.62
889.833	14811.62
890.073	14680.62
890.313	14610.62
890.553	14494.62
890.793	14404.62
891.033	14315.62
891.273	14204.62
891.513	14170.62
891.753	14116.62
891.993	14150.62
892.233	14088.62
892.473	14358.62
892.713	14262.62
892.952	14120.62
893.192	14198.62
893.432	14112.62
893.671	14187.62
893.911	13984.62
894.15	14035.62
894.39	13801.62
894.629	13866.62
894.869	13717.62
895.108	13619.62
895.347	13487.62
895.587	13497.62
895.826	13476.62
896.065	13455.62
896.304	13424.62
896.543	13414.62
896.782	13292.62
897.021	13325.62
897.26	13272.62
897.499	13322.62
897.738	13289.62
897.977	13052.62
898.216	13029.62
898.454	12850.62
898.693	12812.62
898.932	12799.62
899.17	12733.62
899.409	12704.62
899.647	12674.62
899.886	12628.62
900.124	12726.62
900.363	12594.62
900.601	12664.62
900.839	12664.62
901.078	12689.62
901.316	12770.62
901.554	12786.62
901.792	12751.62
902.03	12812.62
902.268	12795.62
902.506	12760.62
902.744	12610.62
902.982	12632.62
903.22	12429.62
903.458	12301.62
903.695	12127.62
903.933	11965.62
904.171	11782.62
904.409	11556.62
904.646	11395.62
904.884	11262.62
905.121	11195.62
905.359	11000.62
905.596	10936.62
905.833	10837.62
906.071	10755.62
906.308	10780.62
906.545	10772.62
906.783	10630.62
907.02	10688.62
907.257	10569.62
907.494	10611.62
907.731	10575.62
907.968	10532.62
908.205	10413.62
908.442	10383.62
908.679	10335.62
908.915	10230.62
909.152	10160.62
909.389	10002.62
909.626	9982.62
909.862	9841.62
910.099	9845.62
910.335	9825.62
910.572	9722.62
910.808	9772.62
911.045	9671.62
911.281	9634.62
911.518	9708.62
911.754	9552.62
911.99	9570.62
912.226	9492.62
912.463	9380.62
912.699	9309.62
912.935	9208.62
913.171	9192.62
913.407	9106.62
913.643	9061.62
913.879	8984.62
914.114	8870.62
914.35	8748.62
914.586	8641.62
914.822	8632.62
915.057	8644.62
915.293	8439.62
915.529	8412.62
915.764	8490.62
916	8444.62
916.235	8434.62
916.471	8435.62
916.706	8374.62
916.941	8290.62
917.177	8324.62
917.412	8254.62
917.647	8326.62
917.882	8208.62
918.117	8233.62
918.352	8249.62
918.588	8226.62
918.823	8100.62
919.057	8007.62
919.292	7912.62
919.527	7963.62
919.762	7792.62
919.997	7745.62
920.232	7674.62
920.466	7644.62
920.701	7488.62
920.935	7500.62
921.17	7468.62
921.405	7380.62
921.639	7394.62
921.873	7310.62
922.108	7340.62
922.342	7322.62
922.576	7233.62
922.811	7296.62
923.045	7234.62
923.279	7231.62
923.513	7081.62
923.747	7097.62
923.981	7127.62
924.215	6989.62
924.449	7019.62
924.683	6842.62
924.917	6897.62
925.151	6809.62
925.385	6881.62
925.618	6809.62
925.852	6737.62
926.086	6722.62
926.319	6724.62
926.553	6730.62
926.786	6765.62
927.02	6673.62
927.253	6729.62
927.486	6703.62
927.72	6614.62
927.953	6661.62
928.186	6595.62
928.42	6644.62
928.653	6553.62
928.886	6476.62
929.119	6533.62
929.352	6500.62
929.585	6419.62
929.818	6340.62
930.051	6403.62
930.284	6308.62
930.516	6168.62
930.749	6107.62
930.982	6174.62
931.215	6130.62
931.447	6050.62
931.68	6011.62
931.912	6005.62
932.145	6021.62
932.377	6054.62
932.61	6183.62
932.842	5988.62
933.074	6074.62
933.307	5937.62
933.539	6065.62
933.771	6066.62
934.003	5986.62
934.236	6070.62
934.468	6111.62
934.7	5961.62
934.932	5954.62
935.164	5876.62
935.395	5878.62
935.627	5917.62
935.859	5841.62
936.091	5790.62
936.323	5834.62
936.554	5850.62
936.786	5774.62
937.017	5694.62
937.249	5713.62
937.481	5650.62
937.712	5736.62
937.943	5725.62
938.175	5626.62
938.406	5635.62
938.637	5657.62
938.869	5590.62
939.1	5607.62
939.331	5552.62
939.562	5538.62
939.793	5557.62
940.024	5556.62
940.255	5538.62
940.486	5418.62
940.717	5457.62
940.948	5382.62
941.179	5371.62
941.409	5366.62
941.64	5377.62
941.871	5407.62
942.102	5355.62
942.332	5287.62
942.563	5375.62
942.793	5302.62
943.024	5264.62
943.254	5346.62
943.484	5349.62
943.715	5349.62
943.945	5322.62
944.175	5290.62
944.405	5253.62
944.636	5212.62
944.866	5247.62
945.096	5220.62
945.326	5145.62
945.556	5193.62
945.786	5192.62
946.016	5149.62
946.245	5051.62
946.475	5061.62
946.705	5054.62
946.935	4994.62
947.164	5018.62
947.394	4967.62
947.624	4972.62
947.853	4945.62
948.083	4887.62
948.312	4871.62
948.542	4818.62
948.771	4796.62
949	4841.62
949.23	4782.62
949.459	4744.62
949.688	4865.62
949.917	4812.62
950.146	4806.62
950.375	4799.62
950.604	4745.62
950.833	4795.62
951.062	4776.62
951.291	4720.62
951.52	4698.62
951.749	4692.62
951.978	4642.62
952.206	4648.62
952.435	4565.62
952.664	4665.62
952.892	4664.62
953.121	4613.62
953.349	4596.62
953.578	4594.62
953.806	4517.62
954.035	4481.62
954.263	4491.62
954.491	4424.62
954.719	4440.62
954.948	4393.62
955.176	4363.62
955.404	4287.62
955.632	4341.62
955.86	4358.62
956.088	4332.62
956.316	4350.62
956.544	4299.62
956.772	4231.62
956.999	4205.62
957.227	4281.62
957.455	4178.62
957.683	4136.62
957.91	4132.62
958.138	4106.62
958.365	4070.62
958.593	4071.62
958.82	3980.62
959.048	4093.62
959.275	4012.62
959.502	4019.62
959.73	3981.62
959.957	4016.62
960.184	3977.62
960.411	3952.62
960.638	4025.62
960.865	3987.62
961.092	4050.62
961.319	3875.62
961.546	3963.62
961.773	3980.62
962	3937.62
962.227	3975.62
962.454	3941.62
962.68	3933.62
962.907	3893.62
963.134	3813.62
963.36	3854.62
963.587	3823.62
963.813	3744.62
964.04	3795.62
964.266	3705.62
964.493	3764.62
964.719	3710.62
964.945	3725.62
965.171	3580.62
965.398	3644.62
965.624	3678.62
965.85	3546.62
966.076	3576.62
966.302	3621.62
966.528	3567.62
966.754	3581.62
966.98	3605.62
967.206	3528.62
967.431	3508.62
967.657	3552.62
967.883	3522.62
968.109	3497.62
968.334	3431.62
968.56	3431.62
968.785	3498.62
969.011	3398.62
969.236	3450.62
969.462	3412.62
969.687	3451.62
969.912	3428.62
970.138	3434.62
970.363	3347.62
970.588	3330.62
970.813	3326.62
971.038	3298.62
971.263	3325.62
971.488	3310.62
971.713	3357.62
971.938	3370.62
972.163	3255.62
972.388	3233.62
972.613	3207.62
972.838	3240.62
973.062	3220.62
973.287	3213.62
973.512	3106.62
973.736	3149.62
973.961	3098.62
974.185	3089.62
974.41	3095.62
974.634	3054.62
974.858	3035.62
975.083	3051.62
975.307	3048.62
975.531	2973.62
975.755	2909.62
975.98	2967.62
976.204	2886.62
976.428	2870.62
976.652	2878.62
976.876	2839.62
977.1	2863.62
977.324	2822.62
977.547	2855.62
977.771	2900.62
977.995	2837.62
978.219	2826.62
978.442	2894.62
978.666	2823.62
978.89	2793.62
979.113	2797.62
979.337	2803.62
979.56	2744.62
979.783	2832.62
980.007	2693.62
980.23	2715.62
980.453	2685.62
980.677	2743.62
980.9	2713.62
981.123	2652.62
981.346	2702.62
981.569	2687.62
981.792	2689.62
982.015	2634.62
982.238	2615.62
982.461	2635.62
982.684	2578.62
982.907	2570.62
983.129	2521.62
983.352	2577.62
983.575	2544.62
983.797	2545.62
984.02	2476.62
984.242	2480.62
984.465	2490.62
984.687	2529.62
984.91	2546.62
985.132	2519.62
985.354	2510.62
985.577	2504.62
985.799	2454.62
986.021	2368.62
986.243	2411.62
986.465	2408.62
986.687	2460.62
986.909	2476.62
987.131	2424.62
987.353	2382.62
987.575	2402.62
987.797	2368.62
988.019	2329.62
988.241	2378.62
988.462	2323.62
988.684	2359.62
988.906	2395.62
989.127	2373.62
989.349	2254.62
989.57	2329.62
989.792	2353.62
990.013	2367.62
990.234	2350.62
990.456	2373.62
990.677	2323.62
990.898	2249.62
991.119	2269.62
991.341	2321.62
991.562	2248.62
991.783	2258.62
992.004	2216.62
992.225	2179.62
992.446	2224.62
992.667	2128.62
992.887	2209.62
993.108	2101.62
993.329	2228.62
993.55	2162.62
993.77	2070.62
993.991	2079.62
994.212	2115.62
994.432	2081.62
994.653	2089.62
994.873	2123.62
995.093	1998.62
995.314	2012.62
995.534	2108.62
995.754	2120.62
995.975	2108.62
996.195	1999.62
996.415	2077.62
996.635	2056.62
996.855	2046.62
997.075	2024.62
997.295	1997.62
997.515	1997.62
997.735	2019.62
997.955	1986.62
998.174	2006.62
998.394	1968.62
998.614	1999.62
998.834	1977.62
999.053	2007.62
999.273	1989.62
999.492	2052.62
999.712	1961.62
999.931	1902.62
1000.151	1969.62
1000.37	1966.62
1000.589	1979.62
1000.809	1866.62
1001.028	2011.62
1001.247	1958.62
1001.466	1830.62
1001.685	1954.62
1001.904	1885.62
1002.123	1881.62
1002.342	1884.62
1002.561	1855.62
1002.78	1876.62
1002.999	1912.62
1003.218	1828.62
1003.436	1802.62
1003.655	1870.62
1003.874	1808.62
1004.092	1810.62
1004.311	1855.62
1004.53	1815.62
1004.748	1872.62
1004.966	1824.62
1005.185	1848.62
1005.403	1854.62
1005.622	1848.62
1005.84	1897.62
1006.058	1799.62
1006.276	1845.62
1006.494	2294.62
1006.712	1831.62
1006.931	1882.62
1007.149	1787.62
1007.367	1768.62
1007.584	1815.62
1007.802	1845.62
1008.02	1806.62
1008.238	1867.62
1008.456	1908.62
1008.673	1772.62
1008.891	1893.62
1009.109	1829.62
1009.326	1903.62
1009.544	1999.62
1009.761	1894.62
1009.979	1990.62
1010.196	2029.62
1010.413	2138.62
1010.631	2184.62
1010.848	2224.62
1011.065	2236.62
1011.282	2191.62
1011.5	2151.62
1011.717	2246.62
1011.934	2187.62
1012.151	2224.62
1012.368	2175.62
1012.585	2135.62
1012.801	2169.62
1013.018	2143.62
1013.235	2132.62
1013.452	2151.62
1013.669	2094.62
1013.885	2120.62
1014.102	2180.62
1014.318	2142.62
1014.535	2095.62
1014.751	2123.62
1014.968	2130.62
1015.184	2136.62
1015.401	2030.62
1015.617	2047.62
1015.833	2018.62
1016.049	2026.62
1016.266	1973.62
1016.482	1969.62
1016.698	1914.62
1016.914	1972.62
1017.13	1865.62
1017.346	1882.62
1017.562	1936.62
1017.778	1865.62
1017.993	1825.62
1018.209	1868.62
1018.425	1853.62
1018.641	1841.62
1018.856	1793.62
1019.072	1848.62
1019.288	1847.62
1019.503	1836.62
1019.719	1717.62
1019.934	1738.62
1020.149	1817.62
1020.365	1776.62
1020.58	1683.62
1020.795	1746.62
1021.011	1658.62
1021.226	1637.62
1021.441	1628.62
1021.656	1564.62
1021.871	1478.62
1022.086	1472.62
1022.301	1484.62
1022.516	1448.62
1022.731	1490.62
1022.946	1416.62
1023.16	1403.62
1023.375	1338.62
1023.59	1328.62
1023.804	1308.62
1024.019	1376.62
1024.234	1249.62
1024.448	1287.62
1024.663	1205.62
1024.877	1196.62
1025.092	1234.62
1025.306	1214.62
1025.52	1114.62
1025.734	1202.62
1025.949	1099.62
1026.163	1066.62
1026.377	1005.62
1026.591	1044.62
1026.805	1004.62
1027.019	974.62
1027.233	932.62
1027.447	883.62
1027.661	986.62
1027.875	928.62
1028.088	930.62
1028.302	854.62
1028.516	839.62
1028.73	836.62
1028.943	814.62
1029.157	770.62
1029.37	699.62
1029.584	-3.38
1029.797	-3.38
1030.011	-2.38
1030.224	-2.38
