Data from QEP037381__165__15-50-59-887.txt Node

Date: Fri Dec 16 15:50:59 EST 2022
User: dcclab
Spectrometer: QEP03738
Trigger mode: 4
Integration Time (sec): 1.000000E1
Scans to average: 1
Electric dark correction enabled: true
Nonlinearity correction enabled: false
Boxcar width: 0
XAxis mode: Wavelengths
Number of Pixels in Spectrum: 1044
>>>>>Begin Spectral Data<<<<<
784.041	14.88
784.3	-0.12
784.558	-5.12
784.817	-4.12
785.075	109820.88
785.334	19372.88
785.592	9188.88
785.851	6370.88
786.109	4801.88
786.368	3692.88
786.626	2954.88
786.884	2450.88
787.143	2050.88
787.401	1722.88
787.659	1538.88
787.917	1324.88
788.175	1185.88
788.433	1041.88
788.691	943.88
788.949	856.88
789.207	829.88
789.465	719.88
789.723	683.88
789.98	636.88
790.238	666.88
790.496	620.88
790.753	595.88
791.011	650.88
791.268	570.88
791.526	543.88
791.783	572.88
792.041	553.88
792.298	463.88
792.556	516.88
792.813	512.88
793.07	493.88
793.327	472.88
793.584	544.88
793.841	474.88
794.099	497.88
794.356	529.88
794.613	449.88
794.869	482.88
795.126	448.88
795.383	432.88
795.64	456.88
795.897	393.88
796.153	453.88
796.41	446.88
796.667	431.88
796.923	442.88
797.18	447.88
797.436	476.88
797.693	423.88
797.949	478.88
798.206	513.88
798.462	426.88
798.718	478.88
798.974	465.88
799.231	501.88
799.487	485.88
799.743	512.88
799.999	533.88
800.255	527.88
800.511	516.88
800.767	558.88
801.023	561.88
801.279	608.88
801.534	638.88
801.79	684.88
802.046	716.88
802.302	872.88
802.557	984.88
802.813	1260.88
803.068	1541.88
803.324	2136.88
803.579	2946.88
803.835	4060.88
804.09	5586.88
804.345	7364.88
804.601	9305.88
804.856	11182.88
805.111	13059.88
805.366	14334.88
805.621	15299.88
805.876	16078.88
806.131	16490.88
806.386	16695.88
806.641	17105.88
806.896	17306.88
807.151	17703.88
807.406	17860.88
807.661	18120.88
807.915	18542.88
808.17	18754.88
808.425	18898.88
808.679	19072.88
808.934	19370.88
809.188	19468.88
809.443	19673.88
809.697	20054.88
809.951	20001.88
810.206	20308.88
810.46	20392.88
810.714	20609.88
810.968	20947.88
811.223	21013.88
811.477	21152.88
811.731	21302.88
811.985	21404.88
812.239	21513.88
812.493	21595.88
812.747	21612.88
813	21646.88
813.254	21781.88
813.508	21933.88
813.762	22002.88
814.015	21992.88
814.269	22177.88
814.522	22390.88
814.776	22654.88
815.03	22892.88
815.283	23220.88
815.536	23559.88
815.79	23847.88
816.043	24228.88
816.296	24501.88
816.55	24885.88
816.803	25068.88
817.056	25474.88
817.309	25611.88
817.562	25989.88
817.815	26155.88
818.068	26229.88
818.321	26628.88
818.574	26871.88
818.827	27270.88
819.079	27331.88
819.332	27892.88
819.585	28222.88
819.838	28591.88
820.09	28749.88
820.343	28988.88
820.595	28995.88
820.848	29286.88
821.1	29331.88
821.353	29417.88
821.605	29369.88
821.857	29386.88
822.11	29250.88
822.362	29192.88
822.614	28956.88
822.866	29004.88
823.118	29095.88
823.37	29197.88
823.622	29215.88
823.874	29273.88
824.126	29297.88
824.378	29346.88
824.63	29475.88
824.882	29518.88
825.134	29464.88
825.385	29415.88
825.637	29348.88
825.888	29234.88
826.14	29132.88
826.392	29017.88
826.643	28844.88
826.895	28724.88
827.146	28658.88
827.397	28561.88
827.649	28670.88
827.9	28574.88
828.151	28646.88
828.402	28666.88
828.653	28763.88
828.905	28865.88
829.156	28922.88
829.407	28800.88
829.658	28851.88
829.909	28863.88
830.159	28933.88
830.41	28630.88
830.661	28467.88
830.912	28284.88
831.162	28167.88
831.413	28244.88
831.664	28224.88
831.914	28049.88
832.165	28112.88
832.415	28040.88
832.666	28111.88
832.916	28179.88
833.167	28004.88
833.417	28083.88
833.667	27840.88
833.917	27823.88
834.168	27817.88
834.418	27654.88
834.668	27463.88
834.918	27403.88
835.168	27249.88
835.418	27192.88
835.668	27032.88
835.918	27047.88
836.167	26984.88
836.417	26891.88
836.667	26796.88
836.917	26819.88
837.166	26704.88
837.416	26821.88
837.666	26623.88
837.915	26652.88
838.165	26630.88
838.414	26490.88
838.663	26514.88
838.913	26504.88
839.162	26308.88
839.411	26327.88
839.661	26110.88
839.91	26020.88
840.159	26104.88
840.408	26003.88
840.657	26026.88
840.906	26007.88
841.155	26031.88
841.404	25957.88
841.653	25946.88
841.902	26084.88
842.15	26060.88
842.399	26066.88
842.648	25916.88
842.897	25910.88
843.145	25625.88
843.394	25559.88
843.642	25525.88
843.891	25338.88
844.139	25177.88
844.388	25022.88
844.636	24921.88
844.884	24824.88
845.133	24832.88
845.381	24809.88
845.629	24721.88
845.877	24729.88
846.125	24676.88
846.373	24667.88
846.621	24456.88
846.869	24456.88
847.117	24342.88
847.365	24231.88
847.613	24091.88
847.861	24034.88
848.108	24090.88
848.356	23831.88
848.604	23719.88
848.851	23875.88
849.099	23810.88
849.346	23908.88
849.594	24055.88
849.841	23972.88
850.089	24098.88
850.336	24053.88
850.583	23983.88
850.831	23895.88
851.078	23742.88
851.325	23722.88
851.572	23759.88
851.819	23534.88
852.066	23085.88
852.313	22808.88
852.56	22628.88
852.807	22581.88
853.054	22587.88
853.301	22472.88
853.548	22477.88
853.794	22632.88
854.041	22673.88
854.288	22854.88
854.534	22966.88
854.781	22949.88
855.028	22730.88
855.274	22854.88
855.52	22554.88
855.767	22521.88
856.013	22456.88
856.26	22833.88
856.506	22258.88
856.752	22207.88
856.998	22280.88
857.244	22293.88
857.49	22408.88
857.736	22353.88
857.982	22482.88
858.228	22243.88
858.474	22116.88
858.72	21996.88
858.966	21896.88
859.212	21535.88
859.458	21409.88
859.703	21209.88
859.949	20925.88
860.195	20883.88
860.44	20730.88
860.686	20672.88
860.931	20644.88
861.177	20490.88
861.422	20424.88
861.667	20327.88
861.913	20193.88
862.158	20349.88
862.403	20439.88
862.648	20332.88
862.893	20435.88
863.138	20405.88
863.384	20272.88
863.629	20295.88
863.873	20249.88
864.118	20187.88
864.363	20066.88
864.608	20016.88
864.853	19984.88
865.098	19871.88
865.342	19757.88
865.587	19612.88
865.832	19537.88
866.076	19580.88
866.321	19561.88
866.565	19498.88
866.81	19317.88
867.054	19297.88
867.298	19254.88
867.543	19232.88
867.787	19237.88
868.031	19045.88
868.275	19130.88
868.519	19078.88
868.764	19114.88
869.008	18902.88
869.252	18883.88
869.496	18811.88
869.739	18700.88
869.983	18824.88
870.227	18783.88
870.471	18757.88
870.715	18849.88
870.958	18852.88
871.202	18795.88
871.446	18843.88
871.689	18824.88
871.933	18802.88
872.176	18821.88
872.42	18796.88
872.663	18734.88
872.906	18677.88
873.15	18693.88
873.393	18556.88
873.636	18554.88
873.879	18369.88
874.122	18201.88
874.366	17862.88
874.609	17801.88
874.852	17580.88
875.095	17660.88
875.337	17477.88
875.58	17380.88
875.823	17371.88
876.066	17301.88
876.309	17193.88
876.551	17068.88
876.794	16921.88
877.037	16985.88
877.279	16838.88
877.522	16915.88
877.764	16944.88
878.007	16797.88
878.249	16855.88
878.491	16853.88
878.734	16833.88
878.976	16757.88
879.218	16587.88
879.46	16591.88
879.702	16498.88
879.945	16288.88
880.187	16121.88
880.429	16032.88
880.671	15982.88
880.912	16007.88
881.154	15876.88
881.396	15848.88
881.638	15877.88
881.88	15873.88
882.121	15752.88
882.363	15719.88
882.605	15746.88
882.846	15711.88
883.088	15709.88
883.329	15518.88
883.571	15582.88
883.812	15715.88
884.053	15912.88
884.295	16133.88
884.536	16417.88
884.777	16255.88
885.018	16222.88
885.259	16042.88
885.5	15923.88
885.742	16250.88
885.982	15889.88
886.223	15719.88
886.464	15770.88
886.705	15490.88
886.946	15501.88
887.187	15172.88
887.428	14997.88
887.668	14749.88
887.909	14596.88
888.15	14445.88
888.39	14308.88
888.631	14250.88
888.871	14162.88
889.111	14146.88
889.352	13996.88
889.592	13814.88
889.833	13719.88
890.073	13645.88
890.313	13652.88
890.553	13453.88
890.793	13519.88
891.033	13406.88
891.273	13312.88
891.513	13171.88
891.753	13214.88
891.993	13164.88
892.233	13238.88
892.473	13251.88
892.713	13258.88
892.952	13202.88
893.192	13182.88
893.432	13168.88
893.671	13149.88
893.911	13054.88
894.15	12978.88
894.39	12895.88
894.629	12868.88
894.869	12845.88
895.108	12701.88
895.347	12588.88
895.587	12617.88
895.826	12535.88
896.065	12493.88
896.304	12552.88
896.543	12494.88
896.782	12387.88
897.021	12372.88
897.26	12334.88
897.499	12343.88
897.738	12369.88
897.977	12163.88
898.216	12107.88
898.454	12020.88
898.693	11928.88
898.932	11866.88
899.17	11816.88
899.409	11794.88
899.647	11774.88
899.886	11705.88
900.124	11756.88
900.363	11673.88
900.601	11806.88
900.839	11748.88
901.078	11754.88
901.316	11746.88
901.554	11852.88
901.792	11848.88
902.03	11880.88
902.268	11828.88
902.506	11881.88
902.744	11666.88
902.982	11649.88
903.22	11454.88
903.458	11425.88
903.695	11213.88
903.933	11107.88
904.171	10852.88
904.409	10693.88
904.646	10614.88
904.884	10411.88
905.121	10393.88
905.359	10261.88
905.596	10205.88
905.833	10048.88
906.071	10000.88
906.308	10030.88
906.545	9923.88
906.783	9902.88
907.02	9892.88
907.257	9791.88
907.494	9861.88
907.731	9746.88
907.968	9728.88
908.205	9671.88
908.442	9632.88
908.679	9511.88
908.915	9488.88
909.152	9419.88
909.389	9299.88
909.626	9268.88
909.862	9224.88
910.099	9165.88
910.335	9120.88
910.572	8991.88
910.808	9054.88
911.045	8986.88
911.281	8993.88
911.518	8954.88
911.754	8872.88
911.99	8783.88
912.226	8806.88
912.463	8650.88
912.699	8621.88
912.935	8565.88
913.171	8496.88
913.407	8386.88
913.643	8404.88
913.879	8370.88
914.114	8169.88
914.35	8133.88
914.586	8050.88
914.822	7939.88
915.057	7971.88
915.293	7853.88
915.529	7848.88
915.764	7924.88
916	7818.88
916.235	7775.88
916.471	7828.88
916.706	7683.88
916.941	7742.88
917.177	7732.88
917.412	7751.88
917.647	7716.88
917.882	7651.88
918.117	7707.88
918.352	7639.88
918.588	7672.88
918.823	7593.88
919.057	7495.88
919.292	7320.88
919.527	7364.88
919.762	7132.88
919.997	7224.88
920.232	7098.88
920.466	7098.88
920.701	6925.88
920.935	6974.88
921.17	6851.88
921.405	6843.88
921.639	6865.88
921.873	6794.88
922.108	6845.88
922.342	6761.88
922.576	6725.88
922.811	6695.88
923.045	6737.88
923.279	6672.88
923.513	6560.88
923.747	6616.88
923.981	6510.88
924.215	6491.88
924.449	6515.88
924.683	6417.88
924.917	6371.88
925.151	6319.88
925.385	6395.88
925.618	6309.88
925.852	6232.88
926.086	6179.88
926.319	6222.88
926.553	6220.88
926.786	6231.88
927.02	6194.88
927.253	6211.88
927.486	6251.88
927.72	6067.88
927.953	6187.88
928.186	6144.88
928.42	6132.88
928.653	6056.88
928.886	6039.88
929.119	6061.88
929.352	6024.88
929.585	6009.88
929.818	5922.88
930.051	5889.88
930.284	5808.88
930.516	5669.88
930.749	5732.88
930.982	5749.88
931.215	5686.88
931.447	5634.88
931.68	5622.88
931.912	5555.88
932.145	5571.88
932.377	5596.88
932.61	5761.88
932.842	5467.88
933.074	5580.88
933.307	5546.88
933.539	5600.88
933.771	5583.88
934.003	5454.88
934.236	5596.88
934.468	5639.88
934.7	5523.88
934.932	5539.88
935.164	5458.88
935.395	5437.88
935.627	5478.88
935.859	5424.88
936.091	5367.88
936.323	5391.88
936.554	5413.88
936.786	5313.88
937.017	5258.88
937.249	5332.88
937.481	5218.88
937.712	5314.88
937.943	5291.88
938.175	5263.88
938.406	5237.88
938.637	5237.88
938.869	5170.88
939.1	5232.88
939.331	5142.88
939.562	5186.88
939.793	5198.88
940.024	5180.88
940.255	5153.88
940.486	5023.88
940.717	5061.88
940.948	4976.88
941.179	4984.88
941.409	4967.88
941.64	4988.88
941.871	4958.88
942.102	4970.88
942.332	4918.88
942.563	5009.88
942.793	4918.88
943.024	4918.88
943.254	4906.88
943.484	4980.88
943.715	5006.88
943.945	4913.88
944.175	4862.88
944.405	4828.88
944.636	4856.88
944.866	4907.88
945.096	4899.88
945.326	4767.88
945.556	4825.88
945.786	4894.88
946.016	4778.88
946.245	4741.88
946.475	4674.88
946.705	4681.88
946.935	4682.88
947.164	4661.88
947.394	4582.88
947.624	4567.88
947.853	4594.88
948.083	4571.88
948.312	4536.88
948.542	4430.88
948.771	4386.88
949	4468.88
949.23	4438.88
949.459	4468.88
949.688	4472.88
949.917	4405.88
950.146	4420.88
950.375	4506.88
950.604	4425.88
950.833	4441.88
951.062	4440.88
951.291	4373.88
951.52	4336.88
951.749	4384.88
951.978	4275.88
952.206	4276.88
952.435	4312.88
952.664	4262.88
952.892	4289.88
953.121	4253.88
953.349	4274.88
953.578	4271.88
953.806	4209.88
954.035	4090.88
954.263	4197.88
954.491	4137.88
954.719	4136.88
954.948	4051.88
955.176	4071.88
955.404	4033.88
955.632	4030.88
955.86	4035.88
956.088	4007.88
956.316	4018.88
956.544	4004.88
956.772	3952.88
956.999	3908.88
957.227	3996.88
957.455	3870.88
957.683	3911.88
957.91	3822.88
958.138	3831.88
958.365	3818.88
958.593	3757.88
958.82	3743.88
959.048	3820.88
959.275	3759.88
959.502	3750.88
959.73	3708.88
959.957	3707.88
960.184	3773.88
960.411	3667.88
960.638	3733.88
960.865	3706.88
961.092	3710.88
961.319	3627.88
961.546	3720.88
961.773	3724.88
962	3633.88
962.227	3683.88
962.454	3637.88
962.68	3606.88
962.907	3643.88
963.134	3569.88
963.36	3563.88
963.587	3551.88
963.813	3490.88
964.04	3512.88
964.266	3480.88
964.493	3509.88
964.719	3486.88
964.945	3472.88
965.171	3362.88
965.398	3392.88
965.624	3425.88
965.85	3368.88
966.076	3344.88
966.302	3373.88
966.528	3320.88
966.754	3348.88
966.98	3331.88
967.206	3306.88
967.431	3268.88
967.657	3327.88
967.883	3288.88
968.109	3288.88
968.334	3249.88
968.56	3217.88
968.785	3203.88
969.011	3199.88
969.236	3230.88
969.462	3170.88
969.687	3126.88
969.912	3196.88
970.138	3220.88
970.363	3105.88
970.588	3150.88
970.813	3109.88
971.038	3096.88
971.263	3111.88
971.488	3143.88
971.713	3089.88
971.938	3094.88
972.163	2986.88
972.388	3015.88
972.613	3014.88
972.838	3003.88
973.062	2973.88
973.287	2967.88
973.512	2925.88
973.736	2905.88
973.961	2930.88
974.185	2901.88
974.41	2936.88
974.634	2829.88
974.858	2830.88
975.083	2820.88
975.307	2867.88
975.531	2805.88
975.755	2753.88
975.98	2756.88
976.204	2711.88
976.428	2689.88
976.652	2695.88
976.876	2671.88
977.1	2679.88
977.324	2626.88
977.547	2698.88
977.771	2660.88
977.995	2675.88
978.219	2602.88
978.442	2731.88
978.666	2638.88
978.89	2605.88
979.113	2631.88
979.337	2639.88
979.56	2567.88
979.783	2670.88
980.007	2565.88
980.23	2540.88
980.453	2568.88
980.677	2566.88
980.9	2546.88
981.123	2454.88
981.346	2548.88
981.569	2504.88
981.792	2532.88
982.015	2498.88
982.238	2439.88
982.461	2459.88
982.684	2418.88
982.907	2400.88
983.129	2380.88
983.352	2434.88
983.575	2413.88
983.797	2395.88
984.02	2341.88
984.242	2354.88
984.465	2318.88
984.687	2373.88
984.91	2387.88
985.132	2340.88
985.354	2358.88
985.577	2306.88
985.799	2295.88
986.021	2220.88
986.243	2253.88
986.465	2283.88
986.687	2284.88
986.909	2330.88
987.131	2275.88
987.353	2199.88
987.575	2286.88
987.797	2214.88
988.019	2150.88
988.241	2172.88
988.462	2130.88
988.684	2215.88
988.906	2255.88
989.127	2268.88
989.349	2103.88
989.57	2218.88
989.792	2226.88
990.013	2217.88
990.234	2206.88
990.456	2226.88
990.677	2196.88
990.898	2132.88
991.119	2139.88
991.341	2169.88
991.562	2093.88
991.783	2135.88
992.004	2061.88
992.225	2020.88
992.446	2097.88
992.667	1990.88
992.887	2063.88
993.108	1952.88
993.329	2091.88
993.55	2010.88
993.77	1994.88
993.991	1964.88
994.212	1978.88
994.432	1966.88
994.653	1979.88
994.873	1990.88
995.093	1866.88
995.314	1905.88
995.534	1969.88
995.754	1983.88
995.975	1983.88
996.195	1884.88
996.415	1929.88
996.635	1904.88
996.855	1917.88
997.075	1905.88
997.295	1905.88
997.515	1861.88
997.735	1909.88
997.955	1899.88
998.174	1890.88
998.394	1862.88
998.614	1915.88
998.834	1872.88
999.053	1904.88
999.273	1902.88
999.492	1893.88
999.712	1883.88
999.931	1819.88
1000.151	1836.88
1000.37	1824.88
1000.589	1858.88
1000.809	1797.88
1001.028	1912.88
1001.247	1832.88
1001.466	1714.88
1001.685	1856.88
1001.904	1828.88
1002.123	1766.88
1002.342	1796.88
1002.561	1767.88
1002.78	1774.88
1002.999	1834.88
1003.218	1755.88
1003.436	1742.88
1003.655	1792.88
1003.874	1755.88
1004.092	1759.88
1004.311	1746.88
1004.53	1717.88
1004.748	1798.88
1004.966	1718.88
1005.185	1786.88
1005.403	1761.88
1005.622	1739.88
1005.84	1795.88
1006.058	1708.88
1006.276	1719.88
1006.494	2190.88
1006.712	1720.88
1006.931	1790.88
1007.149	1709.88
1007.367	1686.88
1007.584	1727.88
1007.802	1760.88
1008.02	1703.88
1008.238	1783.88
1008.456	1773.88
1008.673	1663.88
1008.891	1782.88
1009.109	1742.88
1009.326	1794.88
1009.544	1864.88
1009.761	1785.88
1009.979	1890.88
1010.196	1922.88
1010.413	1995.88
1010.631	2041.88
1010.848	2097.88
1011.065	2089.88
1011.282	2056.88
1011.5	1987.88
1011.717	2083.88
1011.934	2038.88
1012.151	2063.88
1012.368	2047.88
1012.585	1981.88
1012.801	2025.88
1013.018	1975.88
1013.235	1948.88
1013.452	1987.88
1013.669	1986.88
1013.885	1999.88
1014.102	2020.88
1014.318	1975.88
1014.535	1917.88
1014.751	1990.88
1014.968	1972.88
1015.184	2008.88
1015.401	1927.88
1015.617	1918.88
1015.833	1856.88
1016.049	1835.88
1016.266	1818.88
1016.482	1845.88
1016.698	1777.88
1016.914	1818.88
1017.13	1740.88
1017.346	1745.88
1017.562	1815.88
1017.778	1744.88
1017.993	1731.88
1018.209	1763.88
1018.425	1758.88
1018.641	1695.88
1018.856	1673.88
1019.072	1714.88
1019.288	1729.88
1019.503	1685.88
1019.719	1646.88
1019.934	1625.88
1020.149	1710.88
1020.365	1659.88
1020.58	1598.88
1020.795	1640.88
1021.011	1577.88
1021.226	1544.88
1021.441	1557.88
1021.656	1441.88
1021.871	1387.88
1022.086	1397.88
1022.301	1380.88
1022.516	1374.88
1022.731	1378.88
1022.946	1329.88
1023.16	1321.88
1023.375	1278.88
1023.59	1252.88
1023.804	1217.88
1024.019	1356.88
1024.234	1170.88
1024.448	1195.88
1024.663	1114.88
1024.877	1147.88
1025.092	1151.88
1025.306	1162.88
1025.52	1054.88
1025.734	1148.88
1025.949	1050.88
1026.163	1020.88
1026.377	952.88
1026.591	1017.88
1026.805	940.88
1027.019	938.88
1027.233	896.88
1027.447	830.88
1027.661	948.88
1027.875	871.88
1028.088	892.88
1028.302	789.88
1028.516	777.88
1028.73	798.88
1028.943	774.88
1029.157	728.88
1029.37	685.88
1029.584	0.88
1029.797	-2.12
1030.011	-2.12
1030.224	-2.12
