Data from QEP037381__139__14-02-28-345.txt Node

Date: Fri Apr 28 14:02:28 EDT 2023
User: dcclab
Spectrometer: QEP03738
Trigger mode: 4
Integration Time (sec): 1.000000E1
Scans to average: 1
Electric dark correction enabled: true
Nonlinearity correction enabled: false
Boxcar width: 0
XAxis mode: Wavelengths
Number of Pixels in Spectrum: 1044
>>>>>Begin Spectral Data<<<<<
784.041	14.38
784.3	0.38
784.558	-5.62
784.817	-2.62
785.075	68899.38
785.334	14254.38
785.592	7539.38
785.851	5385.38
786.109	4054.38
786.368	3225.38
786.626	2585.38
786.884	2193.38
787.143	1863.38
787.401	1548.38
787.659	1396.38
787.917	1193.38
788.175	1124.38
788.433	969.38
788.691	874.38
788.949	840.38
789.207	773.38
789.465	695.38
789.723	671.38
789.98	608.38
790.238	668.38
790.496	607.38
790.753	586.38
791.011	632.38
791.268	558.38
791.526	555.38
791.783	561.38
792.041	558.38
792.298	469.38
792.556	546.38
792.813	522.38
793.07	494.38
793.327	502.38
793.584	580.38
793.841	491.38
794.099	513.38
794.356	577.38
794.613	480.38
794.869	500.38
795.126	482.38
795.383	468.38
795.64	498.38
795.897	461.38
796.153	522.38
796.41	505.38
796.667	487.38
796.923	493.38
797.18	505.38
797.436	534.38
797.693	494.38
797.949	555.38
798.206	583.38
798.462	516.38
798.718	565.38
798.974	557.38
799.231	597.38
799.487	598.38
799.743	610.38
799.999	660.38
800.255	669.38
800.511	657.38
800.767	730.38
801.023	733.38
801.279	815.38
801.534	895.38
801.79	998.38
802.046	1141.38
802.302	1414.38
802.557	1750.38
802.813	2319.38
803.068	3143.38
803.324	4550.38
803.579	6535.38
803.835	9175.38
804.09	12459.38
804.345	16132.38
804.601	19514.38
804.856	22720.38
805.111	25227.38
805.366	26997.38
805.621	28251.38
805.876	29187.38
806.131	29951.38
806.386	30387.38
806.641	31032.38
806.896	31731.38
807.151	32095.38
807.406	32704.38
807.661	33423.38
807.915	34117.38
808.17	34567.38
808.425	34993.38
808.679	35646.38
808.934	36141.38
809.188	36631.38
809.443	37099.38
809.697	37444.38
809.951	37834.38
810.206	38258.38
810.46	38668.38
810.714	38911.38
810.968	39084.38
811.223	39486.38
811.477	39891.38
811.731	40464.38
811.985	40467.38
812.239	40811.38
812.493	41315.38
812.747	41458.38
813	41345.38
813.254	41650.38
813.508	41976.38
813.762	42172.38
814.015	42548.38
814.269	42908.38
814.522	43210.38
814.776	43840.38
815.03	44420.38
815.283	45027.38
815.536	45738.38
815.79	46413.38
816.043	47206.38
816.296	47834.38
816.55	48478.38
816.803	49091.38
817.056	49771.38
817.309	50356.38
817.562	51066.38
817.815	51635.38
818.068	52432.38
818.321	53103.38
818.574	53770.38
818.827	54741.38
819.079	55362.38
819.332	56454.38
819.585	57037.38
819.838	57721.38
820.09	58382.38
820.343	58794.38
820.595	59293.38
820.848	59709.38
821.1	59983.38
821.353	60097.38
821.605	59785.38
821.857	60189.38
822.11	59844.38
822.362	59641.38
822.614	59682.38
822.866	59703.38
823.118	59781.38
823.37	59928.38
823.622	60119.38
823.874	60301.38
824.126	60706.38
824.378	60661.38
824.63	61311.38
824.882	61204.38
825.134	61398.38
825.385	61214.38
825.637	61282.38
825.888	60842.38
826.14	60905.38
826.392	60770.38
826.643	60328.38
826.895	60320.38
827.146	60200.38
827.397	60082.38
827.649	60184.38
827.9	60100.38
828.151	60226.38
828.402	60301.38
828.653	60556.38
828.905	60806.38
829.156	60665.38
829.407	60889.38
829.658	60842.38
829.909	60735.38
830.159	60680.38
830.41	60324.38
830.661	60081.38
830.912	59752.38
831.162	59684.38
831.413	59406.38
831.664	59531.38
831.914	59563.38
832.165	59466.38
832.415	59455.38
832.666	59457.38
832.916	59509.38
833.167	59447.38
833.417	59416.38
833.667	59327.38
833.917	59200.38
834.168	58956.38
834.418	58747.38
834.668	58434.38
834.918	58246.38
835.168	57965.38
835.418	57993.38
835.668	57903.38
835.918	57718.38
836.167	57486.38
836.417	57447.38
836.667	57476.38
836.917	57250.38
837.166	57212.38
837.416	57297.38
837.666	57087.38
837.915	57184.38
838.165	57126.38
838.414	56911.38
838.663	56679.38
838.913	56689.38
839.162	56470.38
839.411	56610.38
839.661	56190.38
839.91	56114.38
840.159	55990.38
840.408	56222.38
840.657	55985.38
840.906	55999.38
841.155	56207.38
841.404	56097.38
841.653	56297.38
841.902	56308.38
842.15	56348.38
842.399	56406.38
842.648	56365.38
842.897	56055.38
843.145	55628.38
843.394	55416.38
843.642	55023.38
843.891	55109.38
844.139	54687.38
844.388	54421.38
844.636	54248.38
844.884	54241.38
845.133	54169.38
845.381	54007.38
845.629	54089.38
845.877	54181.38
846.125	53845.38
846.373	53850.38
846.621	53700.38
846.869	53649.38
847.117	53224.38
847.365	53116.38
847.613	52955.38
847.861	52828.38
848.108	52859.38
848.356	52665.38
848.604	52588.38
848.851	52541.38
849.099	52581.38
849.346	52863.38
849.594	53028.38
849.841	53351.38
850.089	53384.38
850.336	53541.38
850.583	53508.38
850.831	53284.38
851.078	52833.38
851.325	52707.38
851.572	52597.38
851.819	51844.38
852.066	51248.38
852.313	50460.38
852.56	50149.38
852.807	50051.38
853.054	49904.38
853.301	49823.38
853.548	49984.38
853.794	50064.38
854.041	50198.38
854.288	50378.38
854.534	50694.38
854.781	50767.38
855.028	50507.38
855.274	50368.38
855.52	50070.38
855.767	50019.38
856.013	49793.38
856.26	49700.38
856.506	49409.38
856.752	49312.38
856.998	49467.38
857.244	49523.38
857.49	49570.38
857.736	49786.38
857.982	49690.38
858.228	49667.38
858.474	49291.38
858.72	48990.38
858.966	48675.38
859.212	48291.38
859.458	47706.38
859.703	47369.38
859.949	46934.38
860.195	46574.38
860.44	46406.38
860.686	46276.38
860.931	46082.38
861.177	45917.38
861.422	45778.38
861.667	45779.38
861.913	45841.38
862.158	45920.38
862.403	46017.38
862.648	46255.38
862.893	46258.38
863.138	46276.38
863.384	46031.38
863.629	45976.38
863.873	45938.38
864.118	45787.38
864.363	45399.38
864.608	45151.38
864.853	44973.38
865.098	44806.38
865.342	44758.38
865.587	44409.38
865.832	44559.38
866.076	44252.38
866.321	44278.38
866.565	44070.38
866.81	43947.38
867.054	43960.38
867.298	43893.38
867.543	43581.38
867.787	43685.38
868.031	43363.38
868.275	43308.38
868.519	43351.38
868.764	43248.38
869.008	43150.38
869.252	43172.38
869.496	43019.38
869.739	42844.38
869.983	42934.38
870.227	42782.38
870.471	42718.38
870.715	42957.38
870.958	42909.38
871.202	42808.38
871.446	42952.38
871.689	42970.38
871.933	42866.38
872.176	43022.38
872.42	42716.38
872.663	42591.38
872.906	42321.38
873.15	42020.38
873.393	41885.38
873.636	41581.38
873.879	41161.38
874.122	40986.38
874.366	40582.38
874.609	40310.38
874.852	40082.38
875.095	40074.38
875.337	39960.38
875.58	39774.38
875.823	39660.38
876.066	39569.38
876.309	39421.38
876.551	39311.38
876.794	39090.38
877.037	39097.38
877.279	39056.38
877.522	39033.38
877.764	39017.38
878.007	39004.38
878.249	39075.38
878.491	38953.38
878.734	38893.38
878.976	38632.38
879.218	38432.38
879.46	38430.38
879.702	38042.38
879.945	37889.38
880.187	37472.38
880.429	37482.38
880.671	37243.38
880.912	37010.38
881.154	36867.38
881.396	36731.38
881.638	36798.38
881.88	36733.38
882.121	36666.38
882.363	36583.38
882.605	36464.38
882.846	36309.38
883.088	36243.38
883.329	35988.38
883.571	35964.38
883.812	36046.38
884.053	36155.38
884.295	36466.38
884.536	36538.38
884.777	36313.38
885.018	36191.38
885.259	36238.38
885.5	36026.38
885.742	36246.38
885.982	36176.38
886.223	35818.38
886.464	35659.38
886.705	35488.38
886.946	35212.38
887.187	35004.38
887.428	34798.38
887.668	34397.38
887.909	34115.38
888.15	33671.38
888.39	33670.38
888.631	33526.38
888.871	33233.38
889.111	32852.38
889.352	32818.38
889.592	32478.38
889.833	32218.38
890.073	32118.38
890.313	32072.38
890.553	31798.38
890.793	31497.38
891.033	31463.38
891.273	31405.38
891.513	31182.38
891.753	31194.38
891.993	31101.38
892.233	31258.38
892.473	31330.38
892.713	31199.38
892.952	31047.38
893.192	31095.38
893.432	31036.38
893.671	31069.38
893.911	30849.38
894.15	30738.38
894.39	30320.38
894.629	30286.38
894.869	30055.38
895.108	30060.38
895.347	29718.38
895.587	29703.38
895.826	29478.38
896.065	29553.38
896.304	29461.38
896.543	29369.38
896.782	29227.38
897.021	29267.38
897.26	29110.38
897.499	29023.38
897.738	28876.38
897.977	28807.38
898.216	28522.38
898.454	28300.38
898.693	27903.38
898.932	27974.38
899.17	27874.38
899.409	27624.38
899.647	27811.38
899.886	27689.38
900.124	27800.38
900.363	27650.38
900.601	27616.38
900.839	27755.38
901.078	27718.38
901.316	27756.38
901.554	27827.38
901.792	27834.38
902.03	27696.38
902.268	27593.38
902.506	27531.38
902.744	27419.38
902.982	27140.38
903.22	26889.38
903.458	26627.38
903.695	26382.38
903.933	26083.38
904.171	25773.38
904.409	25447.38
904.646	25176.38
904.884	24899.38
905.121	24646.38
905.359	24387.38
905.596	24176.38
905.833	24008.38
906.071	23971.38
906.308	24001.38
906.545	23943.38
906.783	23871.38
907.02	23843.38
907.257	23618.38
907.494	23761.38
907.731	23597.38
907.968	23462.38
908.205	23260.38
908.442	23095.38
908.679	23046.38
908.915	22914.38
909.152	22708.38
909.389	22441.38
909.626	22376.38
909.862	22199.38
910.099	22151.38
910.335	22109.38
910.572	21873.38
910.808	21843.38
911.045	21880.38
911.281	21773.38
911.518	21703.38
911.754	21438.38
911.99	21492.38
912.226	21278.38
912.463	21031.38
912.699	20926.38
912.935	20738.38
913.171	20640.38
913.407	20380.38
913.643	20286.38
913.879	20010.38
914.114	19911.38
914.35	19728.38
914.586	19504.38
914.822	19362.38
915.057	19285.38
915.293	19186.38
915.529	18971.38
915.764	19100.38
916	19062.38
916.235	18943.38
916.471	18964.38
916.706	18851.38
916.941	18753.38
917.177	18815.38
917.412	18803.38
917.647	18788.38
917.882	18696.38
918.117	18679.38
918.352	18569.38
918.588	18548.38
918.823	18374.38
919.057	18167.38
919.292	17939.38
919.527	17875.38
919.762	17633.38
919.997	17498.38
920.232	17283.38
920.466	17130.38
920.701	17020.38
920.935	16862.38
921.17	16743.38
921.405	16641.38
921.639	16688.38
921.873	16617.38
922.108	16451.38
922.342	16551.38
922.576	16486.38
922.811	16366.38
923.045	16257.38
923.279	16310.38
923.513	16087.38
923.747	16020.38
923.981	15937.38
924.215	15882.38
924.449	15767.38
924.683	15585.38
924.917	15431.38
925.151	15461.38
925.385	15485.38
925.618	15330.38
925.852	15324.38
926.086	15277.38
926.319	15223.38
926.553	15191.38
926.786	15266.38
927.02	15139.38
927.253	15203.38
927.486	15164.38
927.72	15079.38
927.953	15117.38
928.186	15041.38
928.42	14866.38
928.653	14802.38
928.886	14696.38
929.119	14726.38
929.352	14719.38
929.585	14458.38
929.818	14311.38
930.051	14315.38
930.284	14217.38
930.516	13967.38
930.749	13955.38
930.982	13934.38
931.215	13798.38
931.447	13637.38
931.68	13739.38
931.912	13671.38
932.145	13629.38
932.377	13634.38
932.61	13806.38
932.842	13523.38
933.074	13575.38
933.307	13560.38
933.539	13664.38
933.771	13545.38
934.003	13554.38
934.236	13586.38
934.468	13512.38
934.7	13508.38
934.932	13540.38
935.164	13364.38
935.395	13386.38
935.627	13210.38
935.859	13213.38
936.091	13222.38
936.323	13143.38
936.554	13114.38
936.786	12984.38
937.017	12929.38
937.249	12954.38
937.481	12798.38
937.712	12893.38
937.943	12771.38
938.175	12750.38
938.406	12810.38
938.637	12826.38
938.869	12648.38
939.1	12650.38
939.331	12641.38
939.562	12611.38
939.793	12517.38
940.024	12526.38
940.255	12470.38
940.486	12374.38
940.717	12335.38
940.948	12261.38
941.179	12290.38
941.409	12253.38
941.64	12142.38
941.871	12038.38
942.102	12112.38
942.332	12124.38
942.563	12159.38
942.793	12201.38
943.024	12008.38
943.254	12126.38
943.484	12102.38
943.715	12082.38
943.945	12031.38
944.175	11936.38
944.405	11922.38
944.636	11933.38
944.866	11962.38
945.096	11921.38
945.326	11794.38
945.556	11766.38
945.786	11828.38
946.016	11611.38
946.245	11519.38
946.475	11462.38
946.705	11428.38
946.935	11409.38
947.164	11283.38
947.394	11157.38
947.624	11136.38
947.853	11236.38
948.083	11197.38
948.312	11071.38
948.542	11019.38
948.771	10929.38
949	10962.38
949.23	10909.38
949.459	10947.38
949.688	10925.38
949.917	10904.38
950.146	10906.38
950.375	10887.38
950.604	10832.38
950.833	10924.38
951.062	10858.38
951.291	10716.38
951.52	10736.38
951.749	10711.38
951.978	10612.38
952.206	10654.38
952.435	10650.38
952.664	10696.38
952.892	10537.38
953.121	10464.38
953.349	10441.38
953.578	10448.38
953.806	10340.38
954.035	10223.38
954.263	10235.38
954.491	10129.38
954.719	10134.38
954.948	10013.38
955.176	9963.38
955.404	9875.38
955.632	9908.38
955.86	9930.38
956.088	9864.38
956.316	9819.38
956.544	9830.38
956.772	9684.38
956.999	9690.38
957.227	9631.38
957.455	9553.38
957.683	9520.38
957.91	9433.38
958.138	9356.38
958.365	9334.38
958.593	9286.38
958.82	9259.38
959.048	9264.38
959.275	9206.38
959.502	9250.38
959.73	9149.38
959.957	9117.38
960.184	9196.38
960.411	9065.38
960.638	9129.38
960.865	9081.38
961.092	9030.38
961.319	8934.38
961.546	9019.38
961.773	9009.38
962	8942.38
962.227	9000.38
962.454	8919.38
962.68	8818.38
962.907	8848.38
963.134	8785.38
963.36	8745.38
963.587	8691.38
963.813	8558.38
964.04	8566.38
964.266	8470.38
964.493	8448.38
964.719	8406.38
964.945	8390.38
965.171	8211.38
965.398	8246.38
965.624	8256.38
965.85	8142.38
966.076	8163.38
966.302	8077.38
966.528	8019.38
966.754	8020.38
966.98	8040.38
967.206	8041.38
967.431	7960.38
967.657	7937.38
967.883	7938.38
968.109	7890.38
968.334	7764.38
968.56	7832.38
968.785	7809.38
969.011	7765.38
969.236	7712.38
969.462	7612.38
969.687	7702.38
969.912	7684.38
970.138	7646.38
970.363	7559.38
970.588	7611.38
970.813	7488.38
971.038	7435.38
971.263	7485.38
971.488	7439.38
971.713	7435.38
971.938	7354.38
972.163	7223.38
972.388	7318.38
972.613	7265.38
972.838	7225.38
973.062	7178.38
973.287	7125.38
973.512	7072.38
973.736	7078.38
973.961	7051.38
974.185	7014.38
974.41	6968.38
974.634	6810.38
974.858	6790.38
975.083	6810.38
975.307	6837.38
975.531	6704.38
975.755	6596.38
975.98	6612.38
976.204	6522.38
976.428	6534.38
976.652	6498.38
976.876	6505.38
977.1	6462.38
977.324	6413.38
977.547	6395.38
977.771	6390.38
977.995	6395.38
978.219	6267.38
978.442	6363.38
978.666	6304.38
978.89	6261.38
979.113	6250.38
979.337	6259.38
979.56	6188.38
979.783	6249.38
980.007	6148.38
980.23	6154.38
980.453	6052.38
980.677	6066.38
980.9	6026.38
981.123	5886.38
981.346	5962.38
981.569	5929.38
981.792	5936.38
982.015	5837.38
982.238	5744.38
982.461	5733.38
982.684	5737.38
982.907	5653.38
983.129	5653.38
983.352	5657.38
983.575	5579.38
983.797	5543.38
984.02	5498.38
984.242	5491.38
984.465	5462.38
984.687	5498.38
984.91	5465.38
985.132	5441.38
985.354	5403.38
985.577	5344.38
985.799	5293.38
986.021	5262.38
986.243	5231.38
986.465	5273.38
986.687	5235.38
986.909	5268.38
987.131	5212.38
987.353	5141.38
987.575	5197.38
987.797	5093.38
988.019	5008.38
988.241	5038.38
988.462	5029.38
988.684	5054.38
988.906	5110.38
989.127	5076.38
989.349	4928.38
989.57	4956.38
989.792	4948.38
990.013	4936.38
990.234	4952.38
990.456	4978.38
990.677	4919.38
990.898	4786.38
991.119	4842.38
991.341	4815.38
991.562	4730.38
991.783	4734.38
992.004	4661.38
992.225	4618.38
992.446	4659.38
992.667	4537.38
992.887	4604.38
993.108	4481.38
993.329	4560.38
993.55	4506.38
993.77	4385.38
993.991	4385.38
994.212	4379.38
994.432	4389.38
994.653	4360.38
994.873	4299.38
995.093	4208.38
995.314	4216.38
995.534	4293.38
995.754	4275.38
995.975	4303.38
996.195	4172.38
996.415	4159.38
996.635	4153.38
996.855	4198.38
997.075	4066.38
997.295	4150.38
997.515	4066.38
997.735	4104.38
997.955	4064.38
998.174	4012.38
998.394	4021.38
998.614	4058.38
998.834	4026.38
999.053	4018.38
999.273	3986.38
999.492	4048.38
999.712	4002.38
999.931	3888.38
1000.151	3929.38
1000.37	3853.38
1000.589	3918.38
1000.809	3836.38
1001.028	3888.38
1001.247	3786.38
1001.466	3677.38
1001.685	3811.38
1001.904	3747.38
1002.123	3690.38
1002.342	3693.38
1002.561	3598.38
1002.78	3608.38
1002.999	3658.38
1003.218	3575.38
1003.436	3536.38
1003.655	3569.38
1003.874	3505.38
1004.092	3511.38
1004.311	3498.38
1004.53	3489.38
1004.748	3548.38
1004.966	3416.38
1005.185	3491.38
1005.403	3475.38
1005.622	3406.38
1005.84	3487.38
1006.058	3374.38
1006.276	3419.38
1006.494	3746.38
1006.712	3404.38
1006.931	3389.38
1007.149	3330.38
1007.367	3313.38
1007.584	3336.38
1007.802	3402.38
1008.02	3341.38
1008.238	3432.38
1008.456	3355.38
1008.673	3237.38
1008.891	3303.38
1009.109	3284.38
1009.326	3328.38
1009.544	3410.38
1009.761	3318.38
1009.979	3376.38
1010.196	3364.38
1010.413	3518.38
1010.631	3516.38
1010.848	3538.38
1011.065	3574.38
1011.282	3527.38
1011.5	3399.38
1011.717	3530.38
1011.934	3458.38
1012.151	3461.38
1012.368	3415.38
1012.585	3361.38
1012.801	3408.38
1013.018	3387.38
1013.235	3345.38
1013.452	3354.38
1013.669	3397.38
1013.885	3315.38
1014.102	3394.38
1014.318	3337.38
1014.535	3274.38
1014.751	3316.38
1014.968	3297.38
1015.184	3301.38
1015.401	3193.38
1015.617	3200.38
1015.833	3120.38
1016.049	3126.38
1016.266	3089.38
1016.482	3058.38
1016.698	3013.38
1016.914	3076.38
1017.13	3007.38
1017.346	2988.38
1017.562	3068.38
1017.778	2954.38
1017.993	2932.38
1018.209	3027.38
1018.425	2966.38
1018.641	2902.38
1018.856	2912.38
1019.072	2923.38
1019.288	2947.38
1019.503	2908.38
1019.719	2830.38
1019.934	2808.38
1020.149	2900.38
1020.365	2805.38
1020.58	2729.38
1020.795	2739.38
1021.011	2680.38
1021.226	2642.38
1021.441	2641.38
1021.656	2573.38
1021.871	2491.38
1022.086	2454.38
1022.301	2420.38
1022.516	2374.38
1022.731	2461.38
1022.946	2331.38
1023.16	2308.38
1023.375	2264.38
1023.59	2225.38
1023.804	2134.38
1024.019	2258.38
1024.234	2090.38
1024.448	2137.38
1024.663	2036.38
1024.877	2037.38
1025.092	2017.38
1025.306	2004.38
1025.52	1888.38
1025.734	1996.38
1025.949	1849.38
1026.163	1841.38
1026.377	1748.38
1026.591	1771.38
1026.805	1691.38
1027.019	1673.38
1027.233	1614.38
1027.447	1580.38
1027.661	1654.38
1027.875	1585.38
1028.088	1563.38
1028.302	1478.38
1028.516	1414.38
1028.73	1418.38
1028.943	1343.38
1029.157	1296.38
1029.37	1203.38
1029.584	0.38
1029.797	-2.62
1030.011	-0.62
1030.224	-3.62
