Data from QEP037381__129__14-00-48-345.txt Node

Date: Fri Apr 28 14:00:48 EDT 2023
User: dcclab
Spectrometer: QEP03738
Trigger mode: 4
Integration Time (sec): 1.000000E1
Scans to average: 1
Electric dark correction enabled: true
Nonlinearity correction enabled: false
Boxcar width: 0
XAxis mode: Wavelengths
Number of Pixels in Spectrum: 1044
>>>>>Begin Spectral Data<<<<<
784.041	13.38
784.3	1.38
784.558	-3.62
784.817	1.38
785.075	64390.38
785.334	13717.38
785.592	7372.38
785.851	5228.38
786.109	4044.38
786.368	3127.38
786.626	2544.38
786.884	2142.38
787.143	1800.38
787.401	1481.38
787.659	1357.38
787.917	1159.38
788.175	1062.38
788.433	934.38
788.691	834.38
788.949	787.38
789.207	750.38
789.465	668.38
789.723	630.38
789.98	590.38
790.238	617.38
790.496	570.38
790.753	564.38
791.011	613.38
791.268	532.38
791.526	535.38
791.783	547.38
792.041	520.38
792.298	459.38
792.556	520.38
792.813	504.38
793.07	485.38
793.327	471.38
793.584	521.38
793.841	472.38
794.099	480.38
794.356	551.38
794.613	456.38
794.869	491.38
795.126	455.38
795.383	437.38
795.64	469.38
795.897	434.38
796.153	468.38
796.41	464.38
796.667	454.38
796.923	472.38
797.18	462.38
797.436	487.38
797.693	458.38
797.949	519.38
798.206	547.38
798.462	448.38
798.718	521.38
798.974	500.38
799.231	559.38
799.487	543.38
799.743	573.38
799.999	583.38
800.255	588.38
800.511	587.38
800.767	643.38
801.023	645.38
801.279	697.38
801.534	763.38
801.79	837.38
802.046	940.38
802.302	1145.38
802.557	1400.38
802.813	1844.38
803.068	2443.38
803.324	3534.38
803.579	4997.38
803.835	6986.38
804.09	9508.38
804.345	12079.38
804.601	14788.38
804.856	17114.38
805.111	18928.38
805.366	20370.38
805.621	21381.38
805.876	21958.38
806.131	22403.38
806.386	22786.38
806.641	23219.38
806.896	23653.38
807.151	24109.38
807.406	24514.38
807.661	25035.38
807.915	25454.38
808.17	25921.38
808.425	26142.38
808.679	26554.38
808.934	26976.38
809.188	27340.38
809.443	27626.38
809.697	27970.38
809.951	28153.38
810.206	28408.38
810.46	28826.38
810.714	28836.38
810.968	29190.38
811.223	29511.38
811.477	29731.38
811.731	29984.38
811.985	30144.38
812.239	30283.38
812.493	30561.38
812.747	30808.38
813	30837.38
813.254	31045.38
813.508	31290.38
813.762	31284.38
814.015	31485.38
814.269	31880.38
814.522	32067.38
814.776	32483.38
815.03	32945.38
815.283	33401.38
815.536	33898.38
815.79	34446.38
816.043	34911.38
816.296	35360.38
816.55	35847.38
816.803	36373.38
817.056	36822.38
817.309	37227.38
817.562	37760.38
817.815	38180.38
818.068	38730.38
818.321	39246.38
818.574	39767.38
818.827	40350.38
819.079	40933.38
819.332	41649.38
819.585	42183.38
819.838	42707.38
820.09	43136.38
820.343	43358.38
820.595	43680.38
820.848	44141.38
821.1	44212.38
821.353	44156.38
821.605	44203.38
821.857	44357.38
822.11	44044.38
822.362	44050.38
822.614	43946.38
822.866	44042.38
823.118	44037.38
823.37	44301.38
823.622	44294.38
823.874	44647.38
824.126	44735.38
824.378	44670.38
824.63	45041.38
824.882	45217.38
825.134	45148.38
825.385	45144.38
825.637	45095.38
825.888	45027.38
826.14	44821.38
826.392	44677.38
826.643	44544.38
826.895	44436.38
827.146	44272.38
827.397	44221.38
827.649	44324.38
827.9	44253.38
828.151	44412.38
828.402	44483.38
828.653	44577.38
828.905	44600.38
829.156	44770.38
829.407	44830.38
829.658	44791.38
829.909	44788.38
830.159	44867.38
830.41	44593.38
830.661	44265.38
830.912	44135.38
831.162	44024.38
831.413	44059.38
831.664	44036.38
831.914	43846.38
832.165	43890.38
832.415	44106.38
832.666	43897.38
832.916	43927.38
833.167	43797.38
833.417	43948.38
833.667	43862.38
833.917	43647.38
834.168	43664.38
834.418	43622.38
834.668	43243.38
834.918	43125.38
835.168	42995.38
835.418	42787.38
835.668	42740.38
835.918	42541.38
836.167	42556.38
836.417	42418.38
836.667	42376.38
836.917	42444.38
837.166	42399.38
837.416	42362.38
837.666	42361.38
837.915	42305.38
838.165	42268.38
838.414	42101.38
838.663	41981.38
838.913	41925.38
839.162	41777.38
839.411	41883.38
839.661	41751.38
839.91	41696.38
840.159	41511.38
840.408	41623.38
840.657	41655.38
840.906	41767.38
841.155	41801.38
841.404	41763.38
841.653	41795.38
841.902	41800.38
842.15	41806.38
842.399	41960.38
842.648	41795.38
842.897	41573.38
843.145	41321.38
843.394	41094.38
843.642	40923.38
843.891	40830.38
844.139	40684.38
844.388	40282.38
844.636	40337.38
844.884	40177.38
845.133	40199.38
845.381	40125.38
845.629	40211.38
845.877	40128.38
846.125	40162.38
846.373	40042.38
846.621	39996.38
846.869	39938.38
847.117	39746.38
847.365	39336.38
847.613	39245.38
847.861	39153.38
848.108	39061.38
848.356	38961.38
848.604	38986.38
848.851	39168.38
849.099	39230.38
849.346	39169.38
849.594	39437.38
849.841	39736.38
850.089	39720.38
850.336	39805.38
850.583	39870.38
850.831	39763.38
851.078	39357.38
851.325	39459.38
851.572	39406.38
851.819	38909.38
852.066	38066.38
852.313	37666.38
852.56	37375.38
852.807	37171.38
853.054	37021.38
853.301	37189.38
853.548	37216.38
853.794	37412.38
854.041	37503.38
854.288	37601.38
854.534	38004.38
854.781	37917.38
855.028	37756.38
855.274	37745.38
855.52	37613.38
855.767	37332.38
856.013	37262.38
856.26	37442.38
856.506	36963.38
856.752	36945.38
856.998	36992.38
857.244	37012.38
857.49	37225.38
857.736	37253.38
857.982	37163.38
858.228	37126.38
858.474	37003.38
858.72	36693.38
858.966	36321.38
859.212	36115.38
859.458	35542.38
859.703	35364.38
859.949	35023.38
860.195	34890.38
860.44	34710.38
860.686	34711.38
860.931	34493.38
861.177	34451.38
861.422	34265.38
861.667	34057.38
861.913	34190.38
862.158	34254.38
862.403	34529.38
862.648	34569.38
862.893	34519.38
863.138	34352.38
863.384	34373.38
863.629	34380.38
863.873	34234.38
864.118	34067.38
864.363	33849.38
864.608	33702.38
864.853	33477.38
865.098	33440.38
865.342	33260.38
865.587	33160.38
865.832	33206.38
866.076	33108.38
866.321	33029.38
866.565	33023.38
866.81	32757.38
867.054	32818.38
867.298	32755.38
867.543	32649.38
867.787	32511.38
868.031	32371.38
868.275	32412.38
868.519	32494.38
868.764	32427.38
869.008	32523.38
869.252	32360.38
869.496	32257.38
869.739	32245.38
869.983	32143.38
870.227	32201.38
870.471	32266.38
870.715	32276.38
870.958	32316.38
871.202	32423.38
871.446	32385.38
871.689	32246.38
871.933	32385.38
872.176	32251.38
872.42	32241.38
872.663	32202.38
872.906	32185.38
873.15	31856.38
873.393	31692.38
873.636	31522.38
873.879	31253.38
874.122	30855.38
874.366	30724.38
874.609	30431.38
874.852	30303.38
875.095	30198.38
875.337	30144.38
875.58	30021.38
875.823	29954.38
876.066	29826.38
876.309	29764.38
876.551	29667.38
876.794	29561.38
877.037	29520.38
877.279	29300.38
877.522	29471.38
877.764	29395.38
878.007	29330.38
878.249	29381.38
878.491	29205.38
878.734	29275.38
878.976	29226.38
879.218	28996.38
879.46	28820.38
879.702	28667.38
879.945	28550.38
880.187	28287.38
880.429	28074.38
880.671	27907.38
880.912	27828.38
881.154	27762.38
881.396	27627.38
881.638	27822.38
881.88	27757.38
882.121	27570.38
882.363	27621.38
882.605	27409.38
882.846	27425.38
883.088	27373.38
883.329	27314.38
883.571	27191.38
883.812	27468.38
884.053	27650.38
884.295	28029.38
884.536	28115.38
884.777	28171.38
885.018	27963.38
885.259	27867.38
885.5	27799.38
885.742	27908.38
885.982	27708.38
886.223	27462.38
886.464	27347.38
886.705	27146.38
886.946	26930.38
887.187	26571.38
887.428	26294.38
887.668	25907.38
887.909	25674.38
888.15	25403.38
888.39	25330.38
888.631	25253.38
888.871	24946.38
889.111	24711.38
889.352	24758.38
889.592	24450.38
889.833	24279.38
890.073	24158.38
890.313	24086.38
890.553	23868.38
890.793	23762.38
891.033	23600.38
891.273	23503.38
891.513	23358.38
891.753	23422.38
891.993	23533.38
892.233	23485.38
892.473	23564.38
892.713	23527.38
892.952	23509.38
893.192	23510.38
893.432	23484.38
893.671	23334.38
893.911	23295.38
894.15	23137.38
894.39	22967.38
894.629	22934.38
894.869	22763.38
895.108	22565.38
895.347	22447.38
895.587	22495.38
895.826	22344.38
896.065	22233.38
896.304	22312.38
896.543	22251.38
896.782	22160.38
897.021	22143.38
897.26	21883.38
897.499	22101.38
897.738	22024.38
897.977	21864.38
898.216	21742.38
898.454	21458.38
898.693	21400.38
898.932	21375.38
899.17	21283.38
899.409	21208.38
899.647	21138.38
899.886	21121.38
900.124	21134.38
900.363	21117.38
900.601	21210.38
900.839	21279.38
901.078	21131.38
901.316	21330.38
901.554	21474.38
901.792	21447.38
902.03	21411.38
902.268	21393.38
902.506	21325.38
902.744	21187.38
902.982	20993.38
903.22	20552.38
903.458	20492.38
903.695	20183.38
903.933	20002.38
904.171	19580.38
904.409	19351.38
904.646	19102.38
904.884	18851.38
905.121	18705.38
905.359	18555.38
905.596	18268.38
905.833	18159.38
906.071	18107.38
906.308	18088.38
906.545	18101.38
906.783	18000.38
907.02	18014.38
907.257	17886.38
907.494	17847.38
907.731	17793.38
907.968	17809.38
908.205	17662.38
908.442	17606.38
908.679	17363.38
908.915	17272.38
909.152	17117.38
909.389	17016.38
909.626	16958.38
909.862	16848.38
910.099	16762.38
910.335	16700.38
910.572	16484.38
910.808	16614.38
911.045	16516.38
911.281	16442.38
911.518	16392.38
911.754	16183.38
911.99	16118.38
912.226	16040.38
912.463	15954.38
912.699	15819.38
912.935	15686.38
913.171	15657.38
913.407	15351.38
913.643	15366.38
913.879	15238.38
914.114	15177.38
914.35	15004.38
914.586	14755.38
914.822	14723.38
915.057	14643.38
915.293	14472.38
915.529	14416.38
915.764	14421.38
916	14470.38
916.235	14346.38
916.471	14458.38
916.706	14252.38
916.941	14242.38
917.177	14173.38
917.412	14302.38
917.647	14286.38
917.882	14155.38
918.117	14205.38
918.352	14047.38
918.588	14019.38
918.823	13887.38
919.057	13813.38
919.292	13562.38
919.527	13525.38
919.762	13361.38
919.997	13277.38
920.232	13089.38
920.466	12980.38
920.701	12847.38
920.935	12828.38
921.17	12691.38
921.405	12645.38
921.639	12635.38
921.873	12519.38
922.108	12498.38
922.342	12457.38
922.576	12413.38
922.811	12380.38
923.045	12396.38
923.279	12329.38
923.513	12205.38
923.747	12242.38
923.981	12202.38
924.215	11976.38
924.449	11931.38
924.683	11828.38
924.917	11808.38
925.151	11720.38
925.385	11799.38
925.618	11685.38
925.852	11666.38
926.086	11550.38
926.319	11606.38
926.553	11606.38
926.786	11562.38
927.02	11516.38
927.253	11545.38
927.486	11539.38
927.72	11438.38
927.953	11568.38
928.186	11389.38
928.42	11350.38
928.653	11258.38
928.886	11252.38
929.119	11188.38
929.352	11126.38
929.585	11156.38
929.818	10956.38
930.051	10809.38
930.284	10822.38
930.516	10674.38
930.749	10618.38
930.982	10620.38
931.215	10568.38
931.447	10465.38
931.68	10487.38
931.912	10373.38
932.145	10404.38
932.377	10443.38
932.61	10578.38
932.842	10362.38
933.074	10395.38
933.307	10344.38
933.539	10430.38
933.771	10439.38
934.003	10389.38
934.236	10434.38
934.468	10434.38
934.7	10364.38
934.932	10302.38
935.164	10224.38
935.395	10132.38
935.627	10261.38
935.859	10135.38
936.091	10089.38
936.323	10075.38
936.554	10106.38
936.786	10008.38
937.017	9909.38
937.249	10005.38
937.481	9809.38
937.712	9887.38
937.943	9810.38
938.175	9810.38
938.406	9835.38
938.637	9772.38
938.869	9686.38
939.1	9752.38
939.331	9647.38
939.562	9703.38
939.793	9653.38
940.024	9620.38
940.255	9533.38
940.486	9472.38
940.717	9474.38
940.948	9488.38
941.179	9371.38
941.409	9376.38
941.64	9350.38
941.871	9338.38
942.102	9268.38
942.332	9314.38
942.563	9392.38
942.793	9309.38
943.024	9289.38
943.254	9231.38
943.484	9316.38
943.715	9346.38
943.945	9197.38
944.175	9177.38
944.405	9148.38
944.636	9141.38
944.866	9236.38
945.096	9169.38
945.326	9023.38
945.556	9083.38
945.786	9137.38
946.016	9008.38
946.245	8860.38
946.475	8824.38
946.705	8839.38
946.935	8762.38
947.164	8808.38
947.394	8658.38
947.624	8594.38
947.853	8627.38
948.083	8558.38
948.312	8541.38
948.542	8446.38
948.771	8453.38
949	8375.38
949.23	8429.38
949.459	8421.38
949.688	8470.38
949.917	8352.38
950.146	8426.38
950.375	8391.38
950.604	8305.38
950.833	8379.38
951.062	8375.38
951.291	8321.38
951.52	8271.38
951.749	8269.38
951.978	8246.38
952.206	8113.38
952.435	8148.38
952.664	8142.38
952.892	8131.38
953.121	8120.38
953.349	8071.38
953.578	8026.38
953.806	7983.38
954.035	7922.38
954.263	7884.38
954.491	7811.38
954.719	7827.38
954.948	7768.38
955.176	7811.38
955.404	7597.38
955.632	7680.38
955.86	7657.38
956.088	7653.38
956.316	7667.38
956.544	7620.38
956.772	7466.38
956.999	7448.38
957.227	7433.38
957.455	7389.38
957.683	7327.38
957.91	7300.38
958.138	7243.38
958.365	7199.38
958.593	7210.38
958.82	7113.38
959.048	7178.38
959.275	7145.38
959.502	7094.38
959.73	7077.38
959.957	7110.38
960.184	7064.38
960.411	7072.38
960.638	7051.38
960.865	7041.38
961.092	7061.38
961.319	6930.38
961.546	7012.38
961.773	6993.38
962	6952.38
962.227	7045.38
962.454	6915.38
962.68	6841.38
962.907	6854.38
963.134	6776.38
963.36	6736.38
963.587	6727.38
963.813	6632.38
964.04	6657.38
964.266	6538.38
964.493	6609.38
964.719	6569.38
964.945	6501.38
965.171	6406.38
965.398	6334.38
965.624	6392.38
965.85	6287.38
966.076	6274.38
966.302	6306.38
966.528	6245.38
966.754	6230.38
966.98	6253.38
967.206	6220.38
967.431	6152.38
967.657	6183.38
967.883	6170.38
968.109	6199.38
968.334	6073.38
968.56	6088.38
968.785	6079.38
969.011	5997.38
969.236	6076.38
969.462	6004.38
969.687	5963.38
969.912	5972.38
970.138	5957.38
970.363	5864.38
970.588	5879.38
970.813	5884.38
971.038	5803.38
971.263	5858.38
971.488	5780.38
971.713	5825.38
971.938	5770.38
972.163	5674.38
972.388	5629.38
972.613	5633.38
972.838	5611.38
973.062	5623.38
973.287	5588.38
973.512	5512.38
973.736	5539.38
973.961	5497.38
974.185	5437.38
974.41	5478.38
974.634	5334.38
974.858	5294.38
975.083	5348.38
975.307	5307.38
975.531	5194.38
975.755	5169.38
975.98	5193.38
976.204	5077.38
976.428	5104.38
976.652	5051.38
976.876	5056.38
977.1	5069.38
977.324	4993.38
977.547	4998.38
977.771	5059.38
977.995	4973.38
978.219	4927.38
978.442	5017.38
978.666	4891.38
978.89	4911.38
979.113	4867.38
979.337	4890.38
979.56	4824.38
979.783	4903.38
980.007	4778.38
980.23	4761.38
980.453	4707.38
980.677	4765.38
980.9	4726.38
981.123	4657.38
981.346	4704.38
981.569	4677.38
981.792	4624.38
982.015	4556.38
982.238	4546.38
982.461	4524.38
982.684	4476.38
982.907	4456.38
983.129	4404.38
983.352	4404.38
983.575	4381.38
983.797	4383.38
984.02	4350.38
984.242	4334.38
984.465	4323.38
984.687	4315.38
984.91	4353.38
985.132	4250.38
985.354	4308.38
985.577	4261.38
985.799	4168.38
986.021	4094.38
986.243	4152.38
986.465	4156.38
986.687	4170.38
986.909	4210.38
987.131	4094.38
987.353	4044.38
987.575	4106.38
987.797	4053.38
988.019	4005.38
988.241	4018.38
988.462	3986.38
988.684	4024.38
988.906	4041.38
989.127	4026.38
989.349	3908.38
989.57	3902.38
989.792	3949.38
990.013	3929.38
990.234	3921.38
990.456	3935.38
990.677	3936.38
990.898	3838.38
991.119	3803.38
991.341	3808.38
991.562	3736.38
991.783	3770.38
992.004	3713.38
992.225	3650.38
992.446	3668.38
992.667	3575.38
992.887	3682.38
993.108	3554.38
993.329	3654.38
993.55	3617.38
993.77	3483.38
993.991	3480.38
994.212	3550.38
994.432	3469.38
994.653	3494.38
994.873	3480.38
995.093	3351.38
995.314	3398.38
995.534	3433.38
995.754	3424.38
995.975	3453.38
996.195	3345.38
996.415	3394.38
996.635	3320.38
996.855	3383.38
997.075	3322.38
997.295	3291.38
997.515	3289.38
997.735	3342.38
997.955	3291.38
998.174	3260.38
998.394	3267.38
998.614	3279.38
998.834	3202.38
999.053	3306.38
999.273	3251.38
999.492	3263.38
999.712	3193.38
999.931	3141.38
1000.151	3203.38
1000.37	3132.38
1000.589	3213.38
1000.809	3072.38
1001.028	3183.38
1001.247	3106.38
1001.466	2975.38
1001.685	3094.38
1001.904	3040.38
1002.123	3047.38
1002.342	2997.38
1002.561	2975.38
1002.78	2969.38
1002.999	3025.38
1003.218	2940.38
1003.436	2891.38
1003.655	2947.38
1003.874	2880.38
1004.092	2857.38
1004.311	2930.38
1004.53	2843.38
1004.748	2934.38
1004.966	2830.38
1005.185	2884.38
1005.403	2876.38
1005.622	2837.38
1005.84	2888.38
1006.058	2803.38
1006.276	2809.38
1006.494	3155.38
1006.712	2799.38
1006.931	2873.38
1007.149	2789.38
1007.367	2803.38
1007.584	2820.38
1007.802	2834.38
1008.02	2805.38
1008.238	2909.38
1008.456	2875.38
1008.673	2764.38
1008.891	2854.38
1009.109	2828.38
1009.326	2866.38
1009.544	2992.38
1009.761	2907.38
1009.979	2990.38
1010.196	3067.38
1010.413	3163.38
1010.631	3252.38
1010.848	3273.38
1011.065	3357.38
1011.282	3249.38
1011.5	3176.38
1011.717	3259.38
1011.934	3205.38
1012.151	3215.38
1012.368	3238.38
1012.585	3146.38
1012.801	3197.38
1013.018	3189.38
1013.235	3175.38
1013.452	3165.38
1013.669	3181.38
1013.885	3164.38
1014.102	3219.38
1014.318	3173.38
1014.535	3145.38
1014.751	3147.38
1014.968	3119.38
1015.184	3119.38
1015.401	3042.38
1015.617	3045.38
1015.833	3017.38
1016.049	2977.38
1016.266	2971.38
1016.482	2958.38
1016.698	2888.38
1016.914	2912.38
1017.13	2851.38
1017.346	2831.38
1017.562	2916.38
1017.778	2802.38
1017.993	2820.38
1018.209	2891.38
1018.425	2826.38
1018.641	2789.38
1018.856	2755.38
1019.072	2789.38
1019.288	2826.38
1019.503	2800.38
1019.719	2716.38
1019.934	2683.38
1020.149	2743.38
1020.365	2658.38
1020.58	2592.38
1020.795	2584.38
1021.011	2499.38
1021.226	2466.38
1021.441	2466.38
1021.656	2376.38
1021.871	2303.38
1022.086	2272.38
1022.301	2228.38
1022.516	2218.38
1022.731	2285.38
1022.946	2152.38
1023.16	2111.38
1023.375	2055.38
1023.59	2019.38
1023.804	1963.38
1024.019	2037.38
1024.234	1905.38
1024.448	1937.38
1024.663	1814.38
1024.877	1804.38
1025.092	1834.38
1025.306	1821.38
1025.52	1717.38
1025.734	1778.38
1025.949	1681.38
1026.163	1616.38
1026.377	1541.38
1026.591	1556.38
1026.805	1525.38
1027.019	1490.38
1027.233	1442.38
1027.447	1370.38
1027.661	1453.38
1027.875	1394.38
1028.088	1389.38
1028.302	1294.38
1028.516	1266.38
1028.73	1249.38
1028.943	1216.38
1029.157	1132.38
1029.37	1043.38
1029.584	-2.62
1029.797	-4.62
1030.011	-1.62
1030.224	-3.62
