Data from QEP037381__140__14-02-38-345.txt Node

Date: Fri Apr 28 14:02:38 EDT 2023
User: dcclab
Spectrometer: QEP03738
Trigger mode: 4
Integration Time (sec): 1.000000E1
Scans to average: 1
Electric dark correction enabled: true
Nonlinearity correction enabled: false
Boxcar width: 0
XAxis mode: Wavelengths
Number of Pixels in Spectrum: 1044
>>>>>Begin Spectral Data<<<<<
784.041	12.38
784.3	-0.62
784.558	-3.62
784.817	-1.62
785.075	69108.38
785.334	14154.38
785.592	7414.38
785.851	5267.38
786.109	3970.38
786.368	3125.38
786.626	2529.38
786.884	2108.38
787.143	1776.38
787.401	1455.38
787.659	1339.38
787.917	1137.38
788.175	1062.38
788.433	945.38
788.691	833.38
788.949	790.38
789.207	742.38
789.465	673.38
789.723	636.38
789.98	582.38
790.238	642.38
790.496	591.38
790.753	565.38
791.011	624.38
791.268	573.38
791.526	543.38
791.783	567.38
792.041	569.38
792.298	467.38
792.556	522.38
792.813	519.38
793.07	489.38
793.327	483.38
793.584	559.38
793.841	497.38
794.099	508.38
794.356	573.38
794.613	469.38
794.869	502.38
795.126	466.38
795.383	464.38
795.64	471.38
795.897	448.38
796.153	491.38
796.41	471.38
796.667	483.38
796.923	477.38
797.18	484.38
797.436	521.38
797.693	467.38
797.949	526.38
798.206	571.38
798.462	491.38
798.718	552.38
798.974	535.38
799.231	590.38
799.487	570.38
799.743	594.38
799.999	629.38
800.255	644.38
800.511	645.38
800.767	684.38
801.023	698.38
801.279	758.38
801.534	843.38
801.79	932.38
802.046	1029.38
802.302	1315.38
802.557	1605.38
802.813	2123.38
803.068	2888.38
803.324	4177.38
803.579	5904.38
803.835	8325.38
804.09	11374.38
804.345	14429.38
804.601	17662.38
804.856	20453.38
805.111	22708.38
805.366	24297.38
805.621	25481.38
805.876	26155.38
806.131	26812.38
806.386	27351.38
806.641	27835.38
806.896	28277.38
807.151	28820.38
807.406	29271.38
807.661	29894.38
807.915	30538.38
808.17	31013.38
808.425	31483.38
808.679	31793.38
808.934	32317.38
809.188	32642.38
809.443	33100.38
809.697	33537.38
809.951	33831.38
810.206	34064.38
810.46	34462.38
810.714	34711.38
810.968	34880.38
811.223	35258.38
811.477	35570.38
811.731	35817.38
811.985	36207.38
812.239	36244.38
812.493	36631.38
812.747	36926.38
813	37174.38
813.254	37171.38
813.508	37353.38
813.762	37687.38
814.015	37793.38
814.269	38130.38
814.522	38555.38
814.776	39014.38
815.03	39448.38
815.283	40066.38
815.536	40755.38
815.79	41364.38
816.043	42003.38
816.296	42562.38
816.55	43055.38
816.803	43738.38
817.056	44361.38
817.309	44753.38
817.562	45406.38
817.815	46032.38
818.068	46512.38
818.321	47167.38
818.574	47960.38
818.827	48650.38
819.079	49281.38
819.332	50153.38
819.585	50764.38
819.838	51434.38
820.09	51722.38
820.343	52277.38
820.595	52480.38
820.848	53033.38
821.1	53141.38
821.353	53280.38
821.605	53313.38
821.857	53307.38
822.11	53067.38
822.362	52920.38
822.614	52779.38
822.866	52908.38
823.118	52969.38
823.37	53236.38
823.622	53385.38
823.874	53560.38
824.126	53931.38
824.378	54217.38
824.63	54392.38
824.882	54478.38
825.134	54396.38
825.385	54291.38
825.637	54243.38
825.888	54293.38
826.14	54099.38
826.392	54025.38
826.643	53551.38
826.895	53584.38
827.146	53452.38
827.397	53317.38
827.649	53403.38
827.9	53349.38
828.151	53531.38
828.402	53558.38
828.653	53862.38
828.905	53838.38
829.156	54021.38
829.407	54006.38
829.658	54118.38
829.909	54035.38
830.159	53879.38
830.41	53647.38
830.661	53303.38
830.912	53216.38
831.162	53022.38
831.413	52811.38
831.664	53056.38
831.914	52874.38
832.165	52925.38
832.415	53005.38
832.666	52889.38
832.916	52920.38
833.167	52729.38
833.417	52864.38
833.667	52613.38
833.917	52578.38
834.168	52600.38
834.418	52364.38
834.668	52055.38
834.918	51997.38
835.168	51698.38
835.418	51504.38
835.668	51565.38
835.918	51429.38
836.167	51429.38
836.417	51248.38
836.667	51076.38
836.917	51026.38
837.166	51165.38
837.416	51195.38
837.666	50832.38
837.915	50820.38
838.165	50849.38
838.414	50760.38
838.663	50599.38
838.913	50514.38
839.162	50470.38
839.411	50432.38
839.661	50218.38
839.91	50207.38
840.159	50141.38
840.408	50063.38
840.657	50159.38
840.906	50176.38
841.155	50248.38
841.404	50259.38
841.653	50467.38
841.902	50344.38
842.15	50470.38
842.399	50400.38
842.648	50216.38
842.897	50130.38
843.145	49806.38
843.394	49619.38
843.642	49278.38
843.891	49035.38
844.139	48976.38
844.388	48639.38
844.636	48516.38
844.884	48342.38
845.133	48406.38
845.381	48302.38
845.629	48314.38
845.877	48363.38
846.125	48276.38
846.373	48228.38
846.621	48196.38
846.869	48099.38
847.117	47858.38
847.365	47653.38
847.613	47499.38
847.861	47246.38
848.108	47198.38
848.356	47137.38
848.604	47126.38
848.851	47126.38
849.099	47188.38
849.346	47328.38
849.594	47696.38
849.841	47915.38
850.089	48020.38
850.336	48145.38
850.583	47900.38
850.831	47754.38
851.078	47546.38
851.325	47513.38
851.572	47394.38
851.819	46817.38
852.066	45784.38
852.313	45239.38
852.56	45094.38
852.807	44940.38
853.054	44802.38
853.301	44864.38
853.548	44935.38
853.794	45261.38
854.041	45297.38
854.288	45471.38
854.534	45725.38
854.781	45648.38
855.028	45362.38
855.274	45480.38
855.52	45187.38
855.767	44854.38
856.013	44686.38
856.26	44784.38
856.506	44376.38
856.752	44448.38
856.998	44688.38
857.244	44681.38
857.49	44802.38
857.736	44846.38
857.982	44718.38
858.228	44620.38
858.474	44480.38
858.72	44139.38
858.966	43771.38
859.212	43343.38
859.458	42921.38
859.703	42629.38
859.949	42274.38
860.195	42116.38
860.44	41817.38
860.686	41673.38
860.931	41691.38
861.177	41250.38
861.422	41479.38
861.667	41245.38
861.913	41269.38
862.158	41335.38
862.403	41522.38
862.648	41654.38
862.893	41749.38
863.138	41689.38
863.384	41391.38
863.629	41487.38
863.873	41328.38
864.118	41342.38
864.363	41016.38
864.608	40735.38
864.853	40603.38
865.098	40413.38
865.342	40309.38
865.587	40184.38
865.832	40082.38
866.076	39979.38
866.321	39982.38
866.565	39915.38
866.81	39647.38
867.054	39500.38
867.298	39626.38
867.543	39418.38
867.787	39378.38
868.031	39324.38
868.275	39234.38
868.519	39280.38
868.764	39220.38
869.008	39208.38
869.252	39180.38
869.496	38911.38
869.739	38834.38
869.983	38875.38
870.227	38815.38
870.471	38755.38
870.715	38850.38
870.958	38830.38
871.202	38853.38
871.446	39044.38
871.689	39037.38
871.933	38929.38
872.176	38943.38
872.42	38707.38
872.663	38606.38
872.906	38394.38
873.15	38265.38
873.393	37850.38
873.636	37700.38
873.879	37371.38
874.122	37123.38
874.366	36715.38
874.609	36608.38
874.852	36587.38
875.095	36398.38
875.337	36265.38
875.58	36036.38
875.823	35999.38
876.066	35974.38
876.309	35852.38
876.551	35713.38
876.794	35542.38
877.037	35434.38
877.279	35570.38
877.522	35393.38
877.764	35462.38
878.007	35499.38
878.249	35442.38
878.491	35303.38
878.734	35285.38
878.976	35230.38
879.218	34970.38
879.46	34770.38
879.702	34606.38
879.945	34357.38
880.187	33970.38
880.429	33723.38
880.671	33626.38
880.912	33512.38
881.154	33506.38
881.396	33430.38
881.638	33425.38
881.88	33361.38
882.121	33294.38
882.363	33190.38
882.605	33073.38
882.846	33037.38
883.088	32794.38
883.329	32716.38
883.571	32609.38
883.812	32730.38
884.053	32947.38
884.295	33121.38
884.536	33317.38
884.777	33299.38
885.018	33087.38
885.259	33003.38
885.5	32967.38
885.742	33081.38
885.982	32906.38
886.223	32783.38
886.464	32552.38
886.705	32363.38
886.946	32074.38
887.187	31806.38
887.428	31662.38
887.668	31171.38
887.909	30950.38
888.15	30550.38
888.39	30596.38
888.631	30279.38
888.871	30187.38
889.111	29867.38
889.352	29679.38
889.592	29528.38
889.833	29295.38
890.073	29051.38
890.313	28961.38
890.553	28791.38
890.793	28675.38
891.033	28568.38
891.273	28315.38
891.513	28254.38
891.753	28236.38
891.993	28208.38
892.233	28258.38
892.473	28349.38
892.713	28350.38
892.952	28151.38
893.192	28336.38
893.432	28248.38
893.671	28313.38
893.911	27948.38
894.15	27851.38
894.39	27582.38
894.629	27462.38
894.869	27260.38
895.108	27021.38
895.347	27051.38
895.587	26952.38
895.826	26851.38
896.065	26806.38
896.304	26763.38
896.543	26703.38
896.782	26588.38
897.021	26476.38
897.26	26425.38
897.499	26330.38
897.738	26409.38
897.977	26101.38
898.216	25826.38
898.454	25718.38
898.693	25535.38
898.932	25389.38
899.17	25347.38
899.409	25297.38
899.647	25312.38
899.886	25157.38
900.124	25306.38
900.363	25172.38
900.601	25279.38
900.839	25346.38
901.078	25281.38
901.316	25283.38
901.554	25286.38
901.792	25377.38
902.03	25164.38
902.268	25198.38
902.506	25175.38
902.744	25001.38
902.982	24730.38
903.22	24461.38
903.458	24189.38
903.695	23937.38
903.933	23742.38
904.171	23292.38
904.409	22983.38
904.646	22928.38
904.884	22493.38
905.121	22403.38
905.359	22175.38
905.596	21976.38
905.833	21705.38
906.071	21716.38
906.308	21680.38
906.545	21587.38
906.783	21549.38
907.02	21457.38
907.257	21488.38
907.494	21309.38
907.731	21330.38
907.968	21304.38
908.205	21155.38
908.442	21052.38
908.679	20895.38
908.915	20701.38
909.152	20562.38
909.389	20313.38
909.626	20263.38
909.862	20139.38
910.099	19998.38
910.335	20027.38
910.572	19855.38
910.808	19842.38
911.045	19711.38
911.281	19661.38
911.518	19614.38
911.754	19340.38
911.99	19351.38
912.226	19148.38
912.463	19012.38
912.699	18808.38
912.935	18732.38
913.171	18618.38
913.407	18472.38
913.643	18413.38
913.879	18203.38
914.114	18087.38
914.35	17823.38
914.586	17623.38
914.822	17508.38
915.057	17505.38
915.293	17296.38
915.529	17167.38
915.764	17301.38
916	17183.38
916.235	17270.38
916.471	17157.38
916.706	17032.38
916.941	17001.38
917.177	17107.38
917.412	17036.38
917.647	16916.38
917.882	16931.38
918.117	16898.38
918.352	16786.38
918.588	16704.38
918.823	16522.38
919.057	16402.38
919.292	16252.38
919.527	16141.38
919.762	15886.38
919.997	15769.38
920.232	15564.38
920.466	15458.38
920.701	15288.38
920.935	15314.38
921.17	15204.38
921.405	15092.38
921.639	15028.38
921.873	14929.38
922.108	14872.38
922.342	14898.38
922.576	14684.38
922.811	14674.38
923.045	14690.38
923.279	14642.38
923.513	14442.38
923.747	14479.38
923.981	14342.38
924.215	14250.38
924.449	14226.38
924.683	14017.38
924.917	13975.38
925.151	13919.38
925.385	13991.38
925.618	13876.38
925.852	13854.38
926.086	13777.38
926.319	13813.38
926.553	13724.38
926.786	13696.38
927.02	13628.38
927.253	13609.38
927.486	13693.38
927.72	13536.38
927.953	13552.38
928.186	13460.38
928.42	13485.38
928.653	13321.38
928.886	13191.38
929.119	13258.38
929.352	13182.38
929.585	13089.38
929.818	12941.38
930.051	12888.38
930.284	12797.38
930.516	12603.38
930.749	12504.38
930.982	12542.38
931.215	12549.38
931.447	12369.38
931.68	12347.38
931.912	12248.38
932.145	12329.38
932.377	12283.38
932.61	12406.38
932.842	12220.38
933.074	12299.38
933.307	12259.38
933.539	12291.38
933.771	12301.38
934.003	12191.38
934.236	12215.38
934.468	12297.38
934.7	12168.38
934.932	12131.38
935.164	12011.38
935.395	12024.38
935.627	11995.38
935.859	11949.38
936.091	11872.38
936.323	11858.38
936.554	11844.38
936.786	11727.38
937.017	11640.38
937.249	11649.38
937.481	11578.38
937.712	11580.38
937.943	11538.38
938.175	11507.38
938.406	11415.38
938.637	11521.38
938.869	11500.38
939.1	11484.38
939.331	11314.38
939.562	11356.38
939.793	11318.38
940.024	11248.38
940.255	11203.38
940.486	11103.38
940.717	11064.38
940.948	10970.38
941.179	10917.38
941.409	10935.38
941.64	10975.38
941.871	10920.38
942.102	10962.38
942.332	10932.38
942.563	10899.38
942.793	10926.38
943.024	10963.38
943.254	10921.38
943.484	10904.38
943.715	10864.38
943.945	10903.38
944.175	10823.38
944.405	10772.38
944.636	10758.38
944.866	10781.38
945.096	10776.38
945.326	10669.38
945.556	10705.38
945.786	10551.38
946.016	10482.38
946.245	10357.38
946.475	10236.38
946.705	10200.38
946.935	10207.38
947.164	10131.38
947.394	10085.38
947.624	10080.38
947.853	10117.38
948.083	10005.38
948.312	9933.38
948.542	9842.38
948.771	9887.38
949	9842.38
949.23	9853.38
949.459	9830.38
949.688	9875.38
949.917	9777.38
950.146	9855.38
950.375	9786.38
950.604	9693.38
950.833	9836.38
951.062	9747.38
951.291	9745.38
951.52	9681.38
951.749	9618.38
951.978	9525.38
952.206	9501.38
952.435	9519.38
952.664	9482.38
952.892	9433.38
953.121	9455.38
953.349	9388.38
953.578	9329.38
953.806	9259.38
954.035	9181.38
954.263	9246.38
954.491	9098.38
954.719	9157.38
954.948	9012.38
955.176	8938.38
955.404	8865.38
955.632	8948.38
955.86	8876.38
956.088	8853.38
956.316	8875.38
956.544	8766.38
956.772	8691.38
956.999	8644.38
957.227	8681.38
957.455	8560.38
957.683	8612.38
957.91	8489.38
958.138	8429.38
958.365	8437.38
958.593	8409.38
958.82	8254.38
959.048	8328.38
959.275	8285.38
959.502	8267.38
959.73	8254.38
959.957	8228.38
960.184	8228.38
960.411	8150.38
960.638	8206.38
960.865	8226.38
961.092	8162.38
961.319	8083.38
961.546	8100.38
961.773	8097.38
962	8047.38
962.227	8126.38
962.454	7971.38
962.68	7895.38
962.907	7914.38
963.134	7774.38
963.36	7788.38
963.587	7840.38
963.813	7658.38
964.04	7695.38
964.266	7621.38
964.493	7641.38
964.719	7592.38
964.945	7581.38
965.171	7394.38
965.398	7417.38
965.624	7346.38
965.85	7338.38
966.076	7278.38
966.302	7311.38
966.528	7214.38
966.754	7169.38
966.98	7202.38
967.206	7234.38
967.431	7079.38
967.657	7214.38
967.883	7085.38
968.109	7067.38
968.334	7017.38
968.56	7038.38
968.785	7008.38
969.011	6980.38
969.236	7033.38
969.462	6897.38
969.687	6916.38
969.912	6895.38
970.138	6908.38
970.363	6839.38
970.588	6784.38
970.813	6740.38
971.038	6709.38
971.263	6734.38
971.488	6711.38
971.713	6700.38
971.938	6614.38
972.163	6534.38
972.388	6541.38
972.613	6492.38
972.838	6459.38
973.062	6395.38
973.287	6469.38
973.512	6353.38
973.736	6363.38
973.961	6298.38
974.185	6237.38
974.41	6311.38
974.634	6136.38
974.858	6128.38
975.083	6114.38
975.307	6116.38
975.531	6036.38
975.755	5960.38
975.98	5945.38
976.204	5854.38
976.428	5853.38
976.652	5822.38
976.876	5801.38
977.1	5805.38
977.324	5782.38
977.547	5799.38
977.771	5730.38
977.995	5685.38
978.219	5621.38
978.442	5715.38
978.666	5628.38
978.89	5644.38
979.113	5574.38
979.337	5579.38
979.56	5560.38
979.783	5632.38
980.007	5491.38
980.23	5478.38
980.453	5392.38
980.677	5516.38
980.9	5447.38
981.123	5325.38
981.346	5377.38
981.569	5298.38
981.792	5350.38
982.015	5239.38
982.238	5185.38
982.461	5157.38
982.684	5153.38
982.907	5092.38
983.129	5010.38
983.352	5108.38
983.575	4986.38
983.797	5038.38
984.02	4953.38
984.242	4943.38
984.465	4961.38
984.687	4949.38
984.91	4919.38
985.132	4895.38
985.354	4895.38
985.577	4798.38
985.799	4796.38
986.021	4678.38
986.243	4690.38
986.465	4708.38
986.687	4714.38
986.909	4792.38
987.131	4674.38
987.353	4640.38
987.575	4666.38
987.797	4577.38
988.019	4536.38
988.241	4576.38
988.462	4541.38
988.684	4601.38
988.906	4542.38
989.127	4581.38
989.349	4443.38
989.57	4465.38
989.792	4519.38
990.013	4487.38
990.234	4486.38
990.456	4452.38
990.677	4455.38
990.898	4321.38
991.119	4346.38
991.341	4338.38
991.562	4254.38
991.783	4315.38
992.004	4210.38
992.225	4143.38
992.446	4172.38
992.667	4101.38
992.887	4169.38
993.108	4053.38
993.329	4121.38
993.55	4118.38
993.77	4012.38
993.991	3968.38
994.212	3981.38
994.432	3960.38
994.653	3942.38
994.873	3938.38
995.093	3760.38
995.314	3821.38
995.534	3906.38
995.754	3846.38
995.975	3923.38
996.195	3753.38
996.415	3798.38
996.635	3733.38
996.855	3760.38
997.075	3742.38
997.295	3679.38
997.515	3676.38
997.735	3711.38
997.955	3692.38
998.174	3685.38
998.394	3641.38
998.614	3696.38
998.834	3643.38
999.053	3648.38
999.273	3645.38
999.492	3644.38
999.712	3611.38
999.931	3552.38
1000.151	3524.38
1000.37	3513.38
1000.589	3577.38
1000.809	3460.38
1001.028	3591.38
1001.247	3477.38
1001.466	3357.38
1001.685	3440.38
1001.904	3408.38
1002.123	3351.38
1002.342	3354.38
1002.561	3306.38
1002.78	3318.38
1002.999	3338.38
1003.218	3288.38
1003.436	3235.38
1003.655	3261.38
1003.874	3219.38
1004.092	3186.38
1004.311	3229.38
1004.53	3184.38
1004.748	3223.38
1004.966	3151.38
1005.185	3176.38
1005.403	3166.38
1005.622	3124.38
1005.84	3211.38
1006.058	3111.38
1006.276	3076.38
1006.494	3496.38
1006.712	3106.38
1006.931	3147.38
1007.149	3050.38
1007.367	3049.38
1007.584	3091.38
1007.802	3124.38
1008.02	3049.38
1008.238	3101.38
1008.456	3153.38
1008.673	3005.38
1008.891	3064.38
1009.109	3029.38
1009.326	3092.38
1009.544	3133.38
1009.761	3076.38
1009.979	3170.38
1010.196	3182.38
1010.413	3252.38
1010.631	3313.38
1010.848	3371.38
1011.065	3373.38
1011.282	3289.38
1011.5	3211.38
1011.717	3354.38
1011.934	3222.38
1012.151	3307.38
1012.368	3276.38
1012.585	3172.38
1012.801	3245.38
1013.018	3211.38
1013.235	3181.38
1013.452	3172.38
1013.669	3216.38
1013.885	3197.38
1014.102	3223.38
1014.318	3166.38
1014.535	3151.38
1014.751	3152.38
1014.968	3112.38
1015.184	3153.38
1015.401	3035.38
1015.617	3056.38
1015.833	3037.38
1016.049	2996.38
1016.266	2936.38
1016.482	2953.38
1016.698	2889.38
1016.914	2929.38
1017.13	2871.38
1017.346	2859.38
1017.562	2921.38
1017.778	2883.38
1017.993	2859.38
1018.209	2872.38
1018.425	2861.38
1018.641	2851.38
1018.856	2750.38
1019.072	2821.38
1019.288	2863.38
1019.503	2766.38
1019.719	2706.38
1019.934	2720.38
1020.149	2785.38
1020.365	2730.38
1020.58	2644.38
1020.795	2674.38
1021.011	2591.38
1021.226	2571.38
1021.441	2554.38
1021.656	2424.38
1021.871	2358.38
1022.086	2321.38
1022.301	2349.38
1022.516	2289.38
1022.731	2323.38
1022.946	2229.38
1023.16	2166.38
1023.375	2169.38
1023.59	2085.38
1023.804	2070.38
1024.019	2135.38
1024.234	1988.38
1024.448	2026.38
1024.663	1926.38
1024.877	1907.38
1025.092	1951.38
1025.306	1920.38
1025.52	1798.38
1025.734	1877.38
1025.949	1767.38
1026.163	1739.38
1026.377	1650.38
1026.591	1705.38
1026.805	1599.38
1027.019	1587.38
1027.233	1548.38
1027.447	1480.38
1027.661	1572.38
1027.875	1498.38
1028.088	1501.38
1028.302	1381.38
1028.516	1355.38
1028.73	1320.38
1028.943	1323.38
1029.157	1239.38
1029.37	1157.38
1029.584	-2.62
1029.797	-1.62
1030.011	-0.62
1030.224	-1.62
