Data from QEP037381__124__13-59-58-344.txt Node

Date: Fri Apr 28 13:59:58 EDT 2023
User: dcclab
Spectrometer: QEP03738
Trigger mode: 4
Integration Time (sec): 1.000000E1
Scans to average: 1
Electric dark correction enabled: true
Nonlinearity correction enabled: false
Boxcar width: 0
XAxis mode: Wavelengths
Number of Pixels in Spectrum: 1044
>>>>>Begin Spectral Data<<<<<
784.041	11.75
784.3	0.75
784.558	-1.25
784.817	-4.25
785.075	68277.75
785.334	14044.75
785.592	7490.75
785.851	5370.75
786.109	4017.75
786.368	3160.75
786.626	2588.75
786.884	2164.75
787.143	1819.75
787.401	1499.75
787.659	1369.75
787.917	1204.75
788.175	1089.75
788.433	974.75
788.691	847.75
788.949	799.75
789.207	760.75
789.465	661.75
789.723	655.75
789.98	585.75
790.238	622.75
790.496	605.75
790.753	580.75
791.011	616.75
791.268	568.75
791.526	546.75
791.783	562.75
792.041	540.75
792.298	458.75
792.556	514.75
792.813	507.75
793.07	489.75
793.327	475.75
793.584	552.75
793.841	488.75
794.099	497.75
794.356	551.75
794.613	467.75
794.869	495.75
795.126	480.75
795.383	447.75
795.64	457.75
795.897	427.75
796.153	480.75
796.41	479.75
796.667	460.75
796.923	461.75
797.18	450.75
797.436	483.75
797.693	471.75
797.949	518.75
798.206	558.75
798.462	475.75
798.718	519.75
798.974	515.75
799.231	573.75
799.487	567.75
799.743	572.75
799.999	620.75
800.255	616.75
800.511	605.75
800.767	640.75
801.023	657.75
801.279	718.75
801.534	789.75
801.79	865.75
802.046	986.75
802.302	1213.75
802.557	1484.75
802.813	1961.75
803.068	2624.75
803.324	3754.75
803.579	5359.75
803.835	7489.75
804.09	10164.75
804.345	13037.75
804.601	15798.75
804.856	18326.75
805.111	20287.75
805.366	21702.75
805.621	22705.75
805.876	23473.75
806.131	23918.75
806.386	24483.75
806.641	24867.75
806.896	25244.75
807.151	25737.75
807.406	26152.75
807.661	26684.75
807.915	27071.75
808.17	27659.75
808.425	27977.75
808.679	28441.75
808.934	28734.75
809.188	29097.75
809.443	29478.75
809.697	29865.75
809.951	30217.75
810.206	30334.75
810.46	30777.75
810.714	30896.75
810.968	31121.75
811.223	31393.75
811.477	31675.75
811.731	31925.75
811.985	32213.75
812.239	32365.75
812.493	32548.75
812.747	32848.75
813	32844.75
813.254	33063.75
813.508	33190.75
813.762	33429.75
814.015	33618.75
814.269	33730.75
814.522	34281.75
814.776	34667.75
815.03	35004.75
815.283	35494.75
815.536	36063.75
815.79	36647.75
816.043	37151.75
816.296	37543.75
816.55	38113.75
816.803	38690.75
817.056	39192.75
817.309	39598.75
817.562	40089.75
817.815	40832.75
818.068	41078.75
818.321	41630.75
818.574	42109.75
818.827	42744.75
819.079	43421.75
819.332	44323.75
819.585	44838.75
819.838	45183.75
820.09	45734.75
820.343	46077.75
820.595	46362.75
820.848	46627.75
821.1	46914.75
821.353	46845.75
821.605	46915.75
821.857	47030.75
822.11	46653.75
822.362	46483.75
822.614	46656.75
822.866	46713.75
823.118	46742.75
823.37	46805.75
823.622	46950.75
823.874	47157.75
824.126	47362.75
824.378	47398.75
824.63	47547.75
824.882	47816.75
825.134	47856.75
825.385	47744.75
825.637	47727.75
825.888	47561.75
826.14	47521.75
826.392	47485.75
826.643	47158.75
826.895	46883.75
827.146	46936.75
827.397	46625.75
827.649	46764.75
827.9	46729.75
828.151	46760.75
828.402	46959.75
828.653	47161.75
828.905	47402.75
829.156	47375.75
829.407	47209.75
829.658	47363.75
829.909	47357.75
830.159	47231.75
830.41	46871.75
830.661	46712.75
830.912	46526.75
831.162	46336.75
831.413	46299.75
831.664	46403.75
831.914	46319.75
832.165	46444.75
832.415	46300.75
832.666	46275.75
832.916	46192.75
833.167	46230.75
833.417	46048.75
833.667	46018.75
833.917	45869.75
834.168	45726.75
834.418	45729.75
834.668	45482.75
834.918	45368.75
835.168	45189.75
835.418	45058.75
835.668	44901.75
835.918	44937.75
836.167	44659.75
836.417	44778.75
836.667	44567.75
836.917	44705.75
837.166	44488.75
837.416	44542.75
837.666	44445.75
837.915	44357.75
838.165	44323.75
838.414	44118.75
838.663	44017.75
838.913	44077.75
839.162	43958.75
839.411	44024.75
839.661	43685.75
839.91	43618.75
840.159	43610.75
840.408	43468.75
840.657	43585.75
840.906	43728.75
841.155	43683.75
841.404	43654.75
841.653	43727.75
841.902	43793.75
842.15	43750.75
842.399	43926.75
842.648	43622.75
842.897	43397.75
843.145	43295.75
843.394	43022.75
843.642	42721.75
843.891	42613.75
844.139	42365.75
844.388	42157.75
844.636	42003.75
844.884	41983.75
845.133	41853.75
845.381	41867.75
845.629	41789.75
845.877	41822.75
846.125	41774.75
846.373	41804.75
846.621	41560.75
846.869	41523.75
847.117	41427.75
847.365	41149.75
847.613	41018.75
847.861	40810.75
848.108	40894.75
848.356	40848.75
848.604	40766.75
848.851	40694.75
849.099	40749.75
849.346	40837.75
849.594	40993.75
849.841	41138.75
850.089	41300.75
850.336	41493.75
850.583	41473.75
850.831	41318.75
851.078	40892.75
851.325	40749.75
851.572	40889.75
851.819	40257.75
852.066	39548.75
852.313	38872.75
852.56	38606.75
852.807	38699.75
853.054	38493.75
853.301	38487.75
853.548	38457.75
853.794	38762.75
854.041	38843.75
854.288	39131.75
854.534	39312.75
854.781	39166.75
855.028	39085.75
855.274	38939.75
855.52	38748.75
855.767	38568.75
856.013	38495.75
856.26	38767.75
856.506	38313.75
856.752	38102.75
856.998	38279.75
857.244	38353.75
857.49	38445.75
857.736	38455.75
857.982	38481.75
858.228	38335.75
858.474	37970.75
858.72	37806.75
858.966	37407.75
859.212	37137.75
859.458	36679.75
859.703	36405.75
859.949	36089.75
860.195	35933.75
860.44	35686.75
860.686	35699.75
860.931	35629.75
861.177	35283.75
861.422	35327.75
861.667	34979.75
861.913	35193.75
862.158	35218.75
862.403	35407.75
862.648	35424.75
862.893	35494.75
863.138	35336.75
863.384	35327.75
863.629	35137.75
863.873	35226.75
864.118	34938.75
864.363	34774.75
864.608	34550.75
864.853	34436.75
865.098	34197.75
865.342	34129.75
865.587	34115.75
865.832	34125.75
866.076	33933.75
866.321	33771.75
866.565	33816.75
866.81	33570.75
867.054	33516.75
867.298	33584.75
867.543	33325.75
867.787	33280.75
868.031	33261.75
868.275	33169.75
868.519	33205.75
868.764	32998.75
869.008	32976.75
869.252	32946.75
869.496	32834.75
869.739	32788.75
869.983	32890.75
870.227	32798.75
870.471	32735.75
870.715	32872.75
870.958	32822.75
871.202	32977.75
871.446	32833.75
871.689	32815.75
871.933	32763.75
872.176	32905.75
872.42	32779.75
872.663	32619.75
872.906	32563.75
873.15	32384.75
873.393	32117.75
873.636	31919.75
873.879	31635.75
874.122	31488.75
874.366	30998.75
874.609	30831.75
874.852	30597.75
875.095	30653.75
875.337	30488.75
875.58	30342.75
875.823	30407.75
876.066	30255.75
876.309	30119.75
876.551	29989.75
876.794	29834.75
877.037	29790.75
877.279	29755.75
877.522	29758.75
877.764	29758.75
878.007	29625.75
878.249	29641.75
878.491	29707.75
878.734	29571.75
878.976	29458.75
879.218	29268.75
879.46	29088.75
879.702	28913.75
879.945	28637.75
880.187	28431.75
880.429	28316.75
880.671	28208.75
880.912	28108.75
881.154	28033.75
881.396	27828.75
881.638	27869.75
881.88	27840.75
882.121	27689.75
882.363	27683.75
882.605	27716.75
882.846	27541.75
883.088	27495.75
883.329	27366.75
883.571	27319.75
883.812	27456.75
884.053	27770.75
884.295	27989.75
884.536	28242.75
884.777	28022.75
885.018	27870.75
885.259	27866.75
885.5	27707.75
885.742	27854.75
885.982	27634.75
886.223	27458.75
886.464	27285.75
886.705	27022.75
886.946	26905.75
887.187	26596.75
887.428	26322.75
887.668	26002.75
887.909	25775.75
888.15	25542.75
888.39	25296.75
888.631	25215.75
888.871	25013.75
889.111	24846.75
889.352	24698.75
889.592	24462.75
889.833	24315.75
890.073	24183.75
890.313	24038.75
890.553	23765.75
890.793	23664.75
891.033	23710.75
891.273	23489.75
891.513	23449.75
891.753	23370.75
891.993	23334.75
892.233	23426.75
892.473	23408.75
892.713	23473.75
892.952	23354.75
893.192	23380.75
893.432	23375.75
893.671	23369.75
893.911	23082.75
894.15	23023.75
894.39	22768.75
894.629	22754.75
894.869	22656.75
895.108	22442.75
895.347	22280.75
895.587	22316.75
895.826	22177.75
896.065	22060.75
896.304	22012.75
896.543	22134.75
896.782	21934.75
897.021	21918.75
897.26	21782.75
897.499	21749.75
897.738	21801.75
897.977	21572.75
898.216	21400.75
898.454	21263.75
898.693	21071.75
898.932	21027.75
899.17	20867.75
899.409	20874.75
899.647	20905.75
899.886	20801.75
900.124	20767.75
900.363	20901.75
900.601	20821.75
900.839	20779.75
901.078	20896.75
901.316	20833.75
901.554	20948.75
901.792	20986.75
902.03	20864.75
902.268	20898.75
902.506	20895.75
902.744	20659.75
902.982	20591.75
903.22	20256.75
903.458	20107.75
903.695	19880.75
903.933	19588.75
904.171	19261.75
904.409	19014.75
904.646	18836.75
904.884	18510.75
905.121	18412.75
905.359	18318.75
905.596	18095.75
905.833	17849.75
906.071	17791.75
906.308	17835.75
906.545	17773.75
906.783	17667.75
907.02	17663.75
907.257	17618.75
907.494	17601.75
907.731	17507.75
907.968	17478.75
908.205	17265.75
908.442	17235.75
908.679	17229.75
908.915	17021.75
909.152	16875.75
909.389	16671.75
909.626	16575.75
909.862	16472.75
910.099	16490.75
910.335	16371.75
910.572	16282.75
910.808	16255.75
911.045	16092.75
911.281	16075.75
911.518	16113.75
911.754	15938.75
911.99	15824.75
912.226	15762.75
912.463	15565.75
912.699	15472.75
912.935	15352.75
913.171	15179.75
913.407	15088.75
913.643	15011.75
913.879	14900.75
914.114	14761.75
914.35	14632.75
914.586	14437.75
914.822	14359.75
915.057	14332.75
915.293	14132.75
915.529	14086.75
915.764	14178.75
916	14061.75
916.235	14056.75
916.471	14063.75
916.706	13906.75
916.941	13948.75
917.177	13878.75
917.412	13915.75
917.647	13890.75
917.882	13878.75
918.117	13809.75
918.352	13728.75
918.588	13759.75
918.823	13561.75
919.057	13432.75
919.292	13242.75
919.527	13256.75
919.762	13008.75
919.997	12929.75
920.232	12805.75
920.466	12551.75
920.701	12485.75
920.935	12470.75
921.17	12358.75
921.405	12308.75
921.639	12300.75
921.873	12176.75
922.108	12211.75
922.342	12152.75
922.576	12080.75
922.811	11963.75
923.045	11966.75
923.279	12003.75
923.513	11826.75
923.747	11868.75
923.981	11732.75
924.215	11623.75
924.449	11628.75
924.683	11472.75
924.917	11396.75
925.151	11451.75
925.385	11377.75
925.618	11352.75
925.852	11256.75
926.086	11216.75
926.319	11198.75
926.553	11187.75
926.786	11151.75
927.02	11159.75
927.253	11120.75
927.486	11155.75
927.72	11027.75
927.953	11065.75
928.186	10998.75
928.42	10998.75
928.653	10898.75
928.886	10827.75
929.119	10813.75
929.352	10746.75
929.585	10694.75
929.818	10602.75
930.051	10555.75
930.284	10463.75
930.516	10303.75
930.749	10286.75
930.982	10216.75
931.215	10159.75
931.447	10128.75
931.68	10085.75
931.912	10031.75
932.145	9998.75
932.377	10052.75
932.61	10173.75
932.842	9915.75
933.074	9995.75
933.307	9908.75
933.539	10007.75
933.771	10053.75
934.003	9923.75
934.236	10034.75
934.468	10065.75
934.7	9897.75
934.932	9845.75
935.164	9817.75
935.395	9827.75
935.627	9800.75
935.859	9786.75
936.091	9626.75
936.323	9652.75
936.554	9659.75
936.786	9523.75
937.017	9541.75
937.249	9584.75
937.481	9461.75
937.712	9477.75
937.943	9442.75
938.175	9357.75
938.406	9351.75
938.637	9405.75
938.869	9298.75
939.1	9379.75
939.331	9213.75
939.562	9284.75
939.793	9215.75
940.024	9224.75
940.255	9206.75
940.486	9157.75
940.717	9102.75
940.948	9025.75
941.179	8951.75
941.409	8911.75
941.64	8928.75
941.871	8941.75
942.102	8882.75
942.332	8885.75
942.563	8917.75
942.793	8873.75
943.024	8838.75
943.254	8808.75
943.484	8943.75
943.715	8886.75
943.945	8851.75
944.175	8739.75
944.405	8737.75
944.636	8754.75
944.866	8680.75
945.096	8776.75
945.326	8717.75
945.556	8662.75
945.786	8692.75
946.016	8587.75
946.245	8484.75
946.475	8408.75
946.705	8350.75
946.935	8327.75
947.164	8294.75
947.394	8188.75
947.624	8182.75
947.853	8254.75
948.083	8169.75
948.312	8093.75
948.542	8001.75
948.771	8030.75
949	8055.75
949.23	8014.75
949.459	8028.75
949.688	8042.75
949.917	7945.75
950.146	7978.75
950.375	8018.75
950.604	7909.75
950.833	8030.75
951.062	7927.75
951.291	7922.75
951.52	7823.75
951.749	7904.75
951.978	7792.75
952.206	7720.75
952.435	7770.75
952.664	7745.75
952.892	7793.75
953.121	7729.75
953.349	7701.75
953.578	7625.75
953.806	7603.75
954.035	7501.75
954.263	7508.75
954.491	7460.75
954.719	7439.75
954.948	7423.75
955.176	7346.75
955.404	7265.75
955.632	7293.75
955.86	7249.75
956.088	7188.75
956.316	7293.75
956.544	7168.75
956.772	7070.75
956.999	7065.75
957.227	7090.75
957.455	7009.75
957.683	6977.75
957.91	6897.75
958.138	6864.75
958.365	6816.75
958.593	6817.75
958.82	6792.75
959.048	6815.75
959.275	6699.75
959.502	6730.75
959.73	6630.75
959.957	6725.75
960.184	6778.75
960.411	6664.75
960.638	6739.75
960.865	6671.75
961.092	6661.75
961.319	6587.75
961.546	6672.75
961.773	6625.75
962	6565.75
962.227	6629.75
962.454	6559.75
962.68	6447.75
962.907	6493.75
963.134	6418.75
963.36	6406.75
963.587	6355.75
963.813	6291.75
964.04	6256.75
964.266	6220.75
964.493	6195.75
964.719	6193.75
964.945	6161.75
965.171	6035.75
965.398	6092.75
965.624	6085.75
965.85	5945.75
966.076	5935.75
966.302	6027.75
966.528	5919.75
966.754	5927.75
966.98	5873.75
967.206	5835.75
967.431	5827.75
967.657	5824.75
967.883	5885.75
968.109	5812.75
968.334	5728.75
968.56	5696.75
968.785	5749.75
969.011	5683.75
969.236	5719.75
969.462	5641.75
969.687	5665.75
969.912	5663.75
970.138	5670.75
970.363	5559.75
970.588	5581.75
970.813	5556.75
971.038	5548.75
971.263	5507.75
971.488	5511.75
971.713	5537.75
971.938	5443.75
972.163	5340.75
972.388	5360.75
972.613	5270.75
972.838	5294.75
973.062	5323.75
973.287	5231.75
973.512	5188.75
973.736	5235.75
973.961	5168.75
974.185	5116.75
974.41	5138.75
974.634	5033.75
974.858	5007.75
975.083	5040.75
975.307	5010.75
975.531	4920.75
975.755	4900.75
975.98	4839.75
976.204	4808.75
976.428	4761.75
976.652	4747.75
976.876	4724.75
977.1	4786.75
977.324	4719.75
977.547	4712.75
977.771	4734.75
977.995	4748.75
978.219	4629.75
978.442	4731.75
978.666	4637.75
978.89	4597.75
979.113	4610.75
979.337	4595.75
979.56	4541.75
979.783	4604.75
980.007	4495.75
980.23	4515.75
980.453	4432.75
980.677	4442.75
980.9	4409.75
981.123	4359.75
981.346	4417.75
981.569	4382.75
981.792	4403.75
982.015	4320.75
982.238	4276.75
982.461	4271.75
982.684	4226.75
982.907	4172.75
983.129	4165.75
983.352	4219.75
983.575	4128.75
983.797	4148.75
984.02	4044.75
984.242	4079.75
984.465	4087.75
984.687	4048.75
984.91	4083.75
985.132	4018.75
985.354	3993.75
985.577	4004.75
985.799	3940.75
986.021	3873.75
986.243	3872.75
986.465	3879.75
986.687	3912.75
986.909	3924.75
987.131	3868.75
987.353	3843.75
987.575	3872.75
987.797	3813.75
988.019	3769.75
988.241	3749.75
988.462	3755.75
988.684	3761.75
988.906	3809.75
989.127	3823.75
989.349	3726.75
989.57	3677.75
989.792	3714.75
990.013	3751.75
990.234	3753.75
990.456	3728.75
990.677	3718.75
990.898	3632.75
991.119	3619.75
991.341	3603.75
991.562	3490.75
991.783	3615.75
992.004	3496.75
992.225	3446.75
992.446	3435.75
992.667	3353.75
992.887	3432.75
993.108	3327.75
993.329	3454.75
993.55	3420.75
993.77	3314.75
993.991	3307.75
994.212	3308.75
994.432	3250.75
994.653	3296.75
994.873	3299.75
995.093	3140.75
995.314	3170.75
995.534	3221.75
995.754	3243.75
995.975	3267.75
996.195	3139.75
996.415	3175.75
996.635	3151.75
996.855	3160.75
997.075	3129.75
997.295	3125.75
997.515	3083.75
997.735	3172.75
997.955	3114.75
998.174	3102.75
998.394	3029.75
998.614	3114.75
998.834	3022.75
999.053	3106.75
999.273	3063.75
999.492	3073.75
999.712	2986.75
999.931	2988.75
1000.151	3015.75
1000.37	2964.75
1000.589	2998.75
1000.809	2852.75
1001.028	2996.75
1001.247	2927.75
1001.466	2787.75
1001.685	2948.75
1001.904	2918.75
1002.123	2831.75
1002.342	2842.75
1002.561	2752.75
1002.78	2797.75
1002.999	2830.75
1003.218	2759.75
1003.436	2731.75
1003.655	2798.75
1003.874	2698.75
1004.092	2742.75
1004.311	2745.75
1004.53	2693.75
1004.748	2744.75
1004.966	2680.75
1005.185	2704.75
1005.403	2732.75
1005.622	2662.75
1005.84	2732.75
1006.058	2639.75
1006.276	2626.75
1006.494	3014.75
1006.712	2635.75
1006.931	2697.75
1007.149	2601.75
1007.367	2627.75
1007.584	2619.75
1007.802	2663.75
1008.02	2614.75
1008.238	2733.75
1008.456	2670.75
1008.673	2590.75
1008.891	2704.75
1009.109	2643.75
1009.326	2687.75
1009.544	2763.75
1009.761	2663.75
1009.979	2760.75
1010.196	2815.75
1010.413	2892.75
1010.631	2971.75
1010.848	2973.75
1011.065	3018.75
1011.282	2967.75
1011.5	2878.75
1011.717	3024.75
1011.934	2930.75
1012.151	2958.75
1012.368	2884.75
1012.585	2882.75
1012.801	2903.75
1013.018	2873.75
1013.235	2847.75
1013.452	2835.75
1013.669	2912.75
1013.885	2834.75
1014.102	2931.75
1014.318	2853.75
1014.535	2861.75
1014.751	2866.75
1014.968	2829.75
1015.184	2865.75
1015.401	2715.75
1015.617	2736.75
1015.833	2709.75
1016.049	2705.75
1016.266	2673.75
1016.482	2645.75
1016.698	2588.75
1016.914	2614.75
1017.13	2533.75
1017.346	2579.75
1017.562	2625.75
1017.778	2549.75
1017.993	2497.75
1018.209	2552.75
1018.425	2526.75
1018.641	2500.75
1018.856	2481.75
1019.072	2510.75
1019.288	2537.75
1019.503	2484.75
1019.719	2390.75
1019.934	2405.75
1020.149	2475.75
1020.365	2406.75
1020.58	2346.75
1020.795	2356.75
1021.011	2280.75
1021.226	2206.75
1021.441	2253.75
1021.656	2163.75
1021.871	2046.75
1022.086	2052.75
1022.301	2035.75
1022.516	2014.75
1022.731	2040.75
1022.946	1930.75
1023.16	1937.75
1023.375	1885.75
1023.59	1850.75
1023.804	1792.75
1024.019	1892.75
1024.234	1736.75
1024.448	1781.75
1024.663	1667.75
1024.877	1684.75
1025.092	1696.75
1025.306	1711.75
1025.52	1550.75
1025.734	1650.75
1025.949	1552.75
1026.163	1499.75
1026.377	1434.75
1026.591	1485.75
1026.805	1368.75
1027.019	1389.75
1027.233	1349.75
1027.447	1297.75
1027.661	1381.75
1027.875	1292.75
1028.088	1305.75
1028.302	1213.75
1028.516	1185.75
1028.73	1159.75
1028.943	1124.75
1029.157	1067.75
1029.37	987.75
1029.584	-4.25
1029.797	-2.25
1030.011	1.75
1030.224	-2.25
