Data from QEP037381__122__13-59-38-345.txt Node

Date: Fri Apr 28 13:59:38 EDT 2023
User: dcclab
Spectrometer: QEP03738
Trigger mode: 4
Integration Time (sec): 1.000000E1
Scans to average: 1
Electric dark correction enabled: true
Nonlinearity correction enabled: false
Boxcar width: 0
XAxis mode: Wavelengths
Number of Pixels in Spectrum: 1044
>>>>>Begin Spectral Data<<<<<
784.041	14.5
784.3	0.5
784.558	-3.5
784.817	-5.5
785.075	71513.5
785.334	14316.5
785.592	7402.5
785.851	5291.5
786.109	4055.5
786.368	3135.5
786.626	2546.5
786.884	2166.5
787.143	1789.5
787.401	1489.5
787.659	1366.5
787.917	1123.5
788.175	1074.5
788.433	950.5
788.691	851.5
788.949	781.5
789.207	774.5
789.465	661.5
789.723	639.5
789.98	600.5
790.238	622.5
790.496	581.5
790.753	562.5
791.011	618.5
791.268	546.5
791.526	550.5
791.783	557.5
792.041	528.5
792.298	445.5
792.556	520.5
792.813	493.5
793.07	475.5
793.327	469.5
793.584	550.5
793.841	468.5
794.099	486.5
794.356	554.5
794.613	450.5
794.869	497.5
795.126	446.5
795.383	446.5
795.64	468.5
795.897	416.5
796.153	479.5
796.41	453.5
796.667	445.5
796.923	449.5
797.18	451.5
797.436	482.5
797.693	458.5
797.949	499.5
798.206	533.5
798.462	465.5
798.718	515.5
798.974	487.5
799.231	545.5
799.487	534.5
799.743	552.5
799.999	586.5
800.255	577.5
800.511	570.5
800.767	636.5
801.023	632.5
801.279	688.5
801.534	736.5
801.79	845.5
802.046	896.5
802.302	1133.5
802.557	1398.5
802.813	1809.5
803.068	2368.5
803.324	3451.5
803.579	4862.5
803.835	6785.5
804.09	9205.5
804.345	11761.5
804.601	14218.5
804.856	16517.5
805.111	18269.5
805.366	19619.5
805.621	20448.5
805.876	21155.5
806.131	21697.5
806.386	22097.5
806.641	22384.5
806.896	22732.5
807.151	23129.5
807.406	23571.5
807.661	24082.5
807.915	24423.5
808.17	24949.5
808.425	25298.5
808.679	25659.5
808.934	26068.5
809.188	26334.5
809.443	26656.5
809.697	26996.5
809.951	27208.5
810.206	27521.5
810.46	27693.5
810.714	27956.5
810.968	28246.5
811.223	28297.5
811.477	28717.5
811.731	28659.5
811.985	29022.5
812.239	29106.5
812.493	29440.5
812.747	29576.5
813	29765.5
813.254	29875.5
813.508	30100.5
813.762	30166.5
814.015	30397.5
814.269	30648.5
814.522	30967.5
814.776	31349.5
815.03	31657.5
815.283	32150.5
815.536	32658.5
815.79	33102.5
816.043	33611.5
816.296	34197.5
816.55	34595.5
816.803	34888.5
817.056	35480.5
817.309	35899.5
817.562	36338.5
817.815	36790.5
818.068	37208.5
818.321	37776.5
818.574	38198.5
818.827	38943.5
819.079	39320.5
819.332	40153.5
819.585	40510.5
819.838	41005.5
820.09	41288.5
820.343	41734.5
820.595	42040.5
820.848	42401.5
821.1	42536.5
821.353	42449.5
821.605	42517.5
821.857	42447.5
822.11	42377.5
822.362	42152.5
822.614	42171.5
822.866	42269.5
823.118	42190.5
823.37	42513.5
823.622	42578.5
823.874	42781.5
824.126	42970.5
824.378	43111.5
824.63	43298.5
824.882	43538.5
825.134	43269.5
825.385	43226.5
825.637	43274.5
825.888	43285.5
826.14	43093.5
826.392	43054.5
826.643	42726.5
826.895	42783.5
827.146	42507.5
827.397	42378.5
827.649	42518.5
827.9	42490.5
828.151	42602.5
828.402	42565.5
828.653	42605.5
828.905	42991.5
829.156	43001.5
829.407	42949.5
829.658	43087.5
829.909	43004.5
830.159	43019.5
830.41	42579.5
830.661	42582.5
830.912	42246.5
831.162	42075.5
831.413	42100.5
831.664	42067.5
831.914	42111.5
832.165	42147.5
832.415	42160.5
832.666	42304.5
832.916	42219.5
833.167	42053.5
833.417	41974.5
833.667	41979.5
833.917	41907.5
834.168	41759.5
834.418	41734.5
834.668	41524.5
834.918	41280.5
835.168	41253.5
835.418	41077.5
835.668	40869.5
835.918	40797.5
836.167	40897.5
836.417	40608.5
836.667	40684.5
836.917	40577.5
837.166	40460.5
837.416	40600.5
837.666	40612.5
837.915	40413.5
838.165	40374.5
838.414	40368.5
838.663	40316.5
838.913	40354.5
839.162	40130.5
839.411	40023.5
839.661	39981.5
839.91	39742.5
840.159	39768.5
840.408	39792.5
840.657	39946.5
840.906	39971.5
841.155	39836.5
841.404	39903.5
841.653	40045.5
841.902	39946.5
842.15	40165.5
842.399	39928.5
842.648	40035.5
842.897	39915.5
843.145	39558.5
843.394	39295.5
843.642	39024.5
843.891	38953.5
844.139	38820.5
844.388	38653.5
844.636	38592.5
844.884	38562.5
845.133	38359.5
845.381	38297.5
845.629	38286.5
845.877	38480.5
846.125	38264.5
846.373	38318.5
846.621	38247.5
846.869	38202.5
847.117	37910.5
847.365	37831.5
847.613	37669.5
847.861	37547.5
848.108	37386.5
848.356	37379.5
848.604	37300.5
848.851	37533.5
849.099	37438.5
849.346	37526.5
849.594	37764.5
849.841	38021.5
850.089	37952.5
850.336	38239.5
850.583	38295.5
850.831	38050.5
851.078	37823.5
851.325	37918.5
851.572	37612.5
851.819	37311.5
852.066	36363.5
852.313	35981.5
852.56	35800.5
852.807	35658.5
853.054	35528.5
853.301	35493.5
853.548	35626.5
853.794	35741.5
854.041	35896.5
854.288	36058.5
854.534	36319.5
854.781	36260.5
855.028	36141.5
855.274	36032.5
855.52	35839.5
855.767	35609.5
856.013	35588.5
856.26	35699.5
856.506	35310.5
856.752	35268.5
856.998	35392.5
857.244	35392.5
857.49	35619.5
857.736	35576.5
857.982	35607.5
858.228	35484.5
858.474	35327.5
858.72	35053.5
858.966	34700.5
859.212	34415.5
859.458	34154.5
859.703	33731.5
859.949	33448.5
860.195	33189.5
860.44	33121.5
860.686	33031.5
860.931	32881.5
861.177	32715.5
861.422	32625.5
861.667	32502.5
861.913	32565.5
862.158	32887.5
862.403	32849.5
862.648	32894.5
862.893	33148.5
863.138	32936.5
863.384	32752.5
863.629	32658.5
863.873	32661.5
864.118	32602.5
864.363	32376.5
864.608	32296.5
864.853	32107.5
865.098	31986.5
865.342	31818.5
865.587	31806.5
865.832	31768.5
866.076	31485.5
866.321	31710.5
866.565	31579.5
866.81	31347.5
867.054	31370.5
867.298	31227.5
867.543	31190.5
867.787	30974.5
868.031	30998.5
868.275	30890.5
868.519	31003.5
868.764	31009.5
869.008	30884.5
869.252	30972.5
869.496	30800.5
869.739	30789.5
869.983	30759.5
870.227	30768.5
870.471	30744.5
870.715	30841.5
870.958	30931.5
871.202	31013.5
871.446	31024.5
871.689	30952.5
871.933	30834.5
872.176	30933.5
872.42	30731.5
872.663	30733.5
872.906	30601.5
873.15	30493.5
873.393	30185.5
873.636	30042.5
873.879	29807.5
874.122	29566.5
874.366	29231.5
874.609	29161.5
874.852	28977.5
875.095	28850.5
875.337	28720.5
875.58	28570.5
875.823	28677.5
876.066	28510.5
876.309	28380.5
876.551	28263.5
876.794	28228.5
877.037	28230.5
877.279	28170.5
877.522	28097.5
877.764	28095.5
878.007	28138.5
878.249	28018.5
878.491	27918.5
878.734	27988.5
878.976	27829.5
879.218	27728.5
879.46	27568.5
879.702	27282.5
879.945	27279.5
880.187	26968.5
880.429	26864.5
880.671	26647.5
880.912	26621.5
881.154	26548.5
881.396	26508.5
881.638	26466.5
881.88	26431.5
882.121	26422.5
882.363	26273.5
882.605	26312.5
882.846	26166.5
883.088	26218.5
883.329	26016.5
883.571	26011.5
883.812	26103.5
884.053	26372.5
884.295	26704.5
884.536	26810.5
884.777	26617.5
885.018	26615.5
885.259	26631.5
885.5	26446.5
885.742	26589.5
885.982	26456.5
886.223	26267.5
886.464	26051.5
886.705	25902.5
886.946	25682.5
887.187	25356.5
887.428	25131.5
887.668	24983.5
887.909	24629.5
888.15	24397.5
888.39	24259.5
888.631	24239.5
888.871	23818.5
889.111	23788.5
889.352	23656.5
889.592	23391.5
889.833	23292.5
890.073	23160.5
890.313	23000.5
890.553	22786.5
890.793	22664.5
891.033	22671.5
891.273	22543.5
891.513	22471.5
891.753	22470.5
891.993	22521.5
892.233	22464.5
892.473	22658.5
892.713	22414.5
892.952	22426.5
893.192	22512.5
893.432	22536.5
893.671	22445.5
893.911	22320.5
894.15	22123.5
894.39	22049.5
894.629	21870.5
894.869	21825.5
895.108	21617.5
895.347	21580.5
895.587	21543.5
895.826	21504.5
896.065	21444.5
896.304	21455.5
896.543	21372.5
896.782	21205.5
897.021	21270.5
897.26	21239.5
897.499	21239.5
897.738	21121.5
897.977	20987.5
898.216	20812.5
898.454	20688.5
898.693	20616.5
898.932	20477.5
899.17	20476.5
899.409	20276.5
899.647	20439.5
899.886	20339.5
900.124	20340.5
900.363	20415.5
900.601	20405.5
900.839	20441.5
901.078	20511.5
901.316	20543.5
901.554	20600.5
901.792	20733.5
902.03	20540.5
902.268	20597.5
902.506	20508.5
902.744	20384.5
902.982	20244.5
903.22	19839.5
903.458	19679.5
903.695	19513.5
903.933	19241.5
904.171	18969.5
904.409	18683.5
904.646	18469.5
904.884	18200.5
905.121	18020.5
905.359	17913.5
905.596	17704.5
905.833	17585.5
906.071	17575.5
906.308	17485.5
906.545	17515.5
906.783	17344.5
907.02	17303.5
907.257	17256.5
907.494	17248.5
907.731	17159.5
907.968	17102.5
908.205	17044.5
908.442	16829.5
908.679	16904.5
908.915	16652.5
909.152	16621.5
909.389	16315.5
909.626	16293.5
909.862	16375.5
910.099	16096.5
910.335	16161.5
910.572	15904.5
910.808	16012.5
911.045	15833.5
911.281	15719.5
911.518	15807.5
911.754	15671.5
911.99	15622.5
912.226	15469.5
912.463	15278.5
912.699	15222.5
912.935	15144.5
913.171	14951.5
913.407	14919.5
913.643	14678.5
913.879	14716.5
914.114	14475.5
914.35	14406.5
914.586	14265.5
914.822	14126.5
915.057	14073.5
915.293	13916.5
915.529	13929.5
915.764	14008.5
916	13867.5
916.235	13864.5
916.471	13845.5
916.706	13674.5
916.941	13717.5
917.177	13716.5
917.412	13733.5
917.647	13649.5
917.882	13582.5
918.117	13624.5
918.352	13546.5
918.588	13578.5
918.823	13354.5
919.057	13282.5
919.292	13057.5
919.527	13071.5
919.762	12929.5
919.997	12806.5
920.232	12643.5
920.466	12561.5
920.701	12369.5
920.935	12313.5
921.17	12205.5
921.405	12136.5
921.639	12190.5
921.873	12117.5
922.108	12107.5
922.342	12047.5
922.576	11962.5
922.811	11934.5
923.045	11920.5
923.279	11912.5
923.513	11697.5
923.747	11745.5
923.981	11622.5
924.215	11605.5
924.449	11488.5
924.683	11470.5
924.917	11387.5
925.151	11383.5
925.385	11376.5
925.618	11337.5
925.852	11248.5
926.086	11160.5
926.319	11202.5
926.553	11216.5
926.786	11156.5
927.02	11092.5
927.253	11163.5
927.486	11086.5
927.72	11006.5
927.953	11018.5
928.186	11036.5
928.42	10997.5
928.653	10870.5
928.886	10772.5
929.119	10776.5
929.352	10725.5
929.585	10641.5
929.818	10548.5
930.051	10496.5
930.284	10443.5
930.516	10309.5
930.749	10240.5
930.982	10234.5
931.215	10179.5
931.447	10084.5
931.68	10119.5
931.912	10135.5
932.145	10012.5
932.377	10069.5
932.61	10223.5
932.842	10001.5
933.074	10028.5
933.307	10022.5
933.539	10063.5
933.771	10011.5
934.003	9988.5
934.236	10056.5
934.468	10091.5
934.7	9945.5
934.932	9950.5
935.164	9883.5
935.395	9840.5
935.627	9835.5
935.859	9742.5
936.091	9799.5
936.323	9742.5
936.554	9767.5
936.786	9600.5
937.017	9552.5
937.249	9610.5
937.481	9494.5
937.712	9555.5
937.943	9434.5
938.175	9487.5
938.406	9433.5
938.637	9549.5
938.869	9389.5
939.1	9455.5
939.331	9393.5
939.562	9362.5
939.793	9322.5
940.024	9302.5
940.255	9205.5
940.486	9189.5
940.717	9082.5
940.948	9115.5
941.179	9047.5
941.409	9049.5
941.64	9082.5
941.871	8993.5
942.102	9011.5
942.332	9042.5
942.563	9071.5
942.793	8999.5
943.024	8947.5
943.254	8988.5
943.484	9020.5
943.715	9007.5
943.945	8951.5
944.175	8889.5
944.405	8862.5
944.636	8825.5
944.866	8818.5
945.096	8883.5
945.326	8660.5
945.556	8746.5
945.786	8771.5
946.016	8605.5
946.245	8565.5
946.475	8524.5
946.705	8462.5
946.935	8479.5
947.164	8430.5
947.394	8340.5
947.624	8339.5
947.853	8362.5
948.083	8350.5
948.312	8193.5
948.542	8154.5
948.771	8108.5
949	8176.5
949.23	8184.5
949.459	8147.5
949.688	8130.5
949.917	8150.5
950.146	8140.5
950.375	8164.5
950.604	8016.5
950.833	8070.5
951.062	8102.5
951.291	7962.5
951.52	7999.5
951.749	7965.5
951.978	7873.5
952.206	7856.5
952.435	7865.5
952.664	7886.5
952.892	7919.5
953.121	7817.5
953.349	7775.5
953.578	7727.5
953.806	7708.5
954.035	7597.5
954.263	7624.5
954.491	7538.5
954.719	7536.5
954.948	7465.5
955.176	7454.5
955.404	7377.5
955.632	7439.5
955.86	7375.5
956.088	7336.5
956.316	7298.5
956.544	7212.5
956.772	7196.5
956.999	7207.5
957.227	7206.5
957.455	7110.5
957.683	7083.5
957.91	6998.5
958.138	6963.5
958.365	6919.5
958.593	6937.5
958.82	6833.5
959.048	6949.5
959.275	6869.5
959.502	6845.5
959.73	6843.5
959.957	6893.5
960.184	6763.5
960.411	6689.5
960.638	6755.5
960.865	6733.5
961.092	6766.5
961.319	6680.5
961.546	6719.5
961.773	6717.5
962	6632.5
962.227	6706.5
962.454	6665.5
962.68	6588.5
962.907	6593.5
963.134	6483.5
963.36	6546.5
963.587	6542.5
963.813	6403.5
964.04	6393.5
964.266	6287.5
964.493	6392.5
964.719	6283.5
964.945	6306.5
965.171	6202.5
965.398	6193.5
965.624	6179.5
965.85	6126.5
966.076	6014.5
966.302	6143.5
966.528	6043.5
966.754	6014.5
966.98	6039.5
967.206	5982.5
967.431	5879.5
967.657	5973.5
967.883	5913.5
968.109	5912.5
968.334	5892.5
968.56	5849.5
968.785	5872.5
969.011	5798.5
969.236	5799.5
969.462	5741.5
969.687	5764.5
969.912	5763.5
970.138	5740.5
970.363	5702.5
970.588	5686.5
970.813	5629.5
971.038	5614.5
971.263	5664.5
971.488	5597.5
971.713	5634.5
971.938	5543.5
972.163	5450.5
972.388	5449.5
972.613	5392.5
972.838	5419.5
973.062	5342.5
973.287	5352.5
973.512	5306.5
973.736	5323.5
973.961	5294.5
974.185	5224.5
974.41	5254.5
974.634	5135.5
974.858	5125.5
975.083	5156.5
975.307	5139.5
975.531	5035.5
975.755	4957.5
975.98	4970.5
976.204	4877.5
976.428	4863.5
976.652	4888.5
976.876	4843.5
977.1	4868.5
977.324	4788.5
977.547	4871.5
977.771	4864.5
977.995	4791.5
978.219	4759.5
978.442	4820.5
978.666	4748.5
978.89	4740.5
979.113	4714.5
979.337	4730.5
979.56	4620.5
979.783	4769.5
980.007	4582.5
980.23	4631.5
980.453	4576.5
980.677	4575.5
980.9	4600.5
981.123	4425.5
981.346	4545.5
981.569	4468.5
981.792	4510.5
982.015	4449.5
982.238	4340.5
982.461	4375.5
982.684	4340.5
982.907	4236.5
983.129	4279.5
983.352	4342.5
983.575	4262.5
983.797	4234.5
984.02	4193.5
984.242	4122.5
984.465	4163.5
984.687	4155.5
984.91	4148.5
985.132	4119.5
985.354	4121.5
985.577	4082.5
985.799	4040.5
986.021	3988.5
986.243	3957.5
986.465	3987.5
986.687	3987.5
986.909	4052.5
987.131	3962.5
987.353	3928.5
987.575	3937.5
987.797	3926.5
988.019	3820.5
988.241	3875.5
988.462	3860.5
988.684	3889.5
988.906	3909.5
989.127	3894.5
989.349	3761.5
989.57	3816.5
989.792	3848.5
990.013	3811.5
990.234	3818.5
990.456	3793.5
990.677	3793.5
990.898	3710.5
991.119	3668.5
991.341	3654.5
991.562	3624.5
991.783	3627.5
992.004	3579.5
992.225	3540.5
992.446	3570.5
992.667	3452.5
992.887	3524.5
993.108	3428.5
993.329	3534.5
993.55	3468.5
993.77	3370.5
993.991	3385.5
994.212	3422.5
994.432	3358.5
994.653	3317.5
994.873	3357.5
995.093	3203.5
995.314	3299.5
995.534	3342.5
995.754	3326.5
995.975	3345.5
996.195	3187.5
996.415	3265.5
996.635	3248.5
996.855	3243.5
997.075	3193.5
997.295	3159.5
997.515	3158.5
997.735	3207.5
997.955	3188.5
998.174	3154.5
998.394	3147.5
998.614	3189.5
998.834	3076.5
999.053	3197.5
999.273	3140.5
999.492	3168.5
999.712	3121.5
999.931	3049.5
1000.151	3067.5
1000.37	3051.5
1000.589	3098.5
1000.809	3006.5
1001.028	3079.5
1001.247	3015.5
1001.466	2902.5
1001.685	3052.5
1001.904	2971.5
1002.123	2914.5
1002.342	2895.5
1002.561	2857.5
1002.78	2848.5
1002.999	2876.5
1003.218	2837.5
1003.436	2789.5
1003.655	2851.5
1003.874	2818.5
1004.092	2782.5
1004.311	2806.5
1004.53	2764.5
1004.748	2870.5
1004.966	2745.5
1005.185	2780.5
1005.403	2757.5
1005.622	2763.5
1005.84	2831.5
1006.058	2678.5
1006.276	2721.5
1006.494	3090.5
1006.712	2707.5
1006.931	2769.5
1007.149	2666.5
1007.367	2707.5
1007.584	2722.5
1007.802	2739.5
1008.02	2686.5
1008.238	2796.5
1008.456	2768.5
1008.673	2658.5
1008.891	2765.5
1009.109	2718.5
1009.326	2768.5
1009.544	2842.5
1009.761	2784.5
1009.979	2841.5
1010.196	2909.5
1010.413	2977.5
1010.631	3052.5
1010.848	3112.5
1011.065	3096.5
1011.282	3014.5
1011.5	3007.5
1011.717	3064.5
1011.934	3027.5
1012.151	3052.5
1012.368	3048.5
1012.585	2978.5
1012.801	3032.5
1013.018	2979.5
1013.235	2973.5
1013.452	2960.5
1013.669	2996.5
1013.885	2970.5
1014.102	3025.5
1014.318	3001.5
1014.535	2975.5
1014.751	2972.5
1014.968	2983.5
1015.184	2993.5
1015.401	2873.5
1015.617	2889.5
1015.833	2822.5
1016.049	2816.5
1016.266	2779.5
1016.482	2810.5
1016.698	2685.5
1016.914	2769.5
1017.13	2695.5
1017.346	2727.5
1017.562	2736.5
1017.778	2708.5
1017.993	2677.5
1018.209	2741.5
1018.425	2723.5
1018.641	2692.5
1018.856	2619.5
1019.072	2701.5
1019.288	2735.5
1019.503	2654.5
1019.719	2576.5
1019.934	2601.5
1020.149	2670.5
1020.365	2603.5
1020.58	2535.5
1020.795	2565.5
1021.011	2459.5
1021.226	2417.5
1021.441	2420.5
1021.656	2276.5
1021.871	2210.5
1022.086	2203.5
1022.301	2143.5
1022.516	2103.5
1022.731	2200.5
1022.946	2069.5
1023.16	2059.5
1023.375	2016.5
1023.59	1990.5
1023.804	1939.5
1024.019	2034.5
1024.234	1913.5
1024.448	1867.5
1024.663	1796.5
1024.877	1796.5
1025.092	1826.5
1025.306	1737.5
1025.52	1699.5
1025.734	1744.5
1025.949	1668.5
1026.163	1607.5
1026.377	1533.5
1026.591	1593.5
1026.805	1486.5
1027.019	1466.5
1027.233	1420.5
1027.447	1372.5
1027.661	1449.5
1027.875	1389.5
1028.088	1360.5
1028.302	1274.5
1028.516	1239.5
1028.73	1228.5
1028.943	1197.5
1029.157	1111.5
1029.37	1067.5
1029.584	-0.5
1029.797	-1.5
1030.011	0.5
1030.224	-4.5
