Data from QEP037381__110__13-57-38-344.txt Node

Date: Fri Apr 28 13:57:38 EDT 2023
User: dcclab
Spectrometer: QEP03738
Trigger mode: 4
Integration Time (sec): 1.000000E1
Scans to average: 1
Electric dark correction enabled: true
Nonlinearity correction enabled: false
Boxcar width: 0
XAxis mode: Wavelengths
Number of Pixels in Spectrum: 1044
>>>>>Begin Spectral Data<<<<<
784.041	9.88
784.3	2.88
784.558	-0.12
784.817	-5.12
785.075	70477.88
785.334	13988.88
785.592	7302.88
785.851	5191.88
786.109	3895.88
786.368	3110.88
786.626	2501.88
786.884	2078.88
787.143	1768.88
787.401	1473.88
787.659	1353.88
787.917	1174.88
788.175	1087.88
788.433	946.88
788.691	868.88
788.949	800.88
789.207	766.88
789.465	680.88
789.723	658.88
789.98	610.88
790.238	637.88
790.496	604.88
790.753	593.88
791.011	626.88
791.268	567.88
791.526	556.88
791.783	590.88
792.041	569.88
792.298	476.88
792.556	554.88
792.813	531.88
793.07	503.88
793.327	510.88
793.584	589.88
793.841	507.88
794.099	531.88
794.356	586.88
794.613	485.88
794.869	525.88
795.126	479.88
795.383	468.88
795.64	518.88
795.897	445.88
796.153	519.88
796.41	506.88
796.667	493.88
796.923	495.88
797.18	503.88
797.436	522.88
797.693	505.88
797.949	568.88
798.206	594.88
798.462	509.88
798.718	585.88
798.974	556.88
799.231	606.88
799.487	622.88
799.743	619.88
799.999	656.88
800.255	673.88
800.511	712.88
800.767	734.88
801.023	759.88
801.279	835.88
801.534	925.88
801.79	1043.88
802.046	1167.88
802.302	1490.88
802.557	1847.88
802.813	2444.88
803.068	3341.88
803.324	4918.88
803.579	6953.88
803.835	9768.88
804.09	13383.88
804.345	17057.88
804.601	20908.88
804.856	24328.88
805.111	26882.88
805.366	28701.88
805.621	29897.88
805.876	31023.88
806.131	31871.88
806.386	32370.88
806.641	32958.88
806.896	33595.88
807.151	34178.88
807.406	34733.88
807.661	35416.88
807.915	36030.88
808.17	36763.88
808.425	37155.88
808.679	37743.88
808.934	38256.88
809.188	38762.88
809.443	39063.88
809.697	39670.88
809.951	39937.88
810.206	40402.88
810.46	40591.88
810.714	40915.88
810.968	41640.88
811.223	41659.88
811.477	42083.88
811.731	42400.88
811.985	42724.88
812.239	42955.88
812.493	43164.88
812.747	43637.88
813	43650.88
813.254	43910.88
813.508	44178.88
813.762	44392.88
814.015	44675.88
814.269	45013.88
814.522	45514.88
814.776	45924.88
815.03	46623.88
815.283	47160.88
815.536	47904.88
815.79	48632.88
816.043	49452.88
816.296	50162.88
816.55	50737.88
816.803	51572.88
817.056	52123.88
817.309	52721.88
817.562	53518.88
817.815	53879.88
818.068	54696.88
818.321	55429.88
818.574	56133.88
818.827	56968.88
819.079	57934.88
819.332	58631.88
819.585	59740.88
819.838	60236.88
820.09	60897.88
820.343	61434.88
820.595	61582.88
820.848	62134.88
821.1	62609.88
821.353	62428.88
821.605	62418.88
821.857	62612.88
822.11	62380.88
822.362	62137.88
822.614	62155.88
822.866	62139.88
823.118	62280.88
823.37	62475.88
823.622	62697.88
823.874	62700.88
824.126	63201.88
824.378	63300.88
824.63	63564.88
824.882	63821.88
825.134	63930.88
825.385	63884.88
825.637	63748.88
825.888	63691.88
826.14	63504.88
826.392	63269.88
826.643	63023.88
826.895	62783.88
827.146	62676.88
827.397	62605.88
827.649	62465.88
827.9	62693.88
828.151	62742.88
828.402	62845.88
828.653	63075.88
828.905	63274.88
829.156	63358.88
829.407	63321.88
829.658	63423.88
829.909	63523.88
830.159	63171.88
830.41	62969.88
830.661	62466.88
830.912	62218.88
831.162	62029.88
831.413	62153.88
831.664	62114.88
831.914	61942.88
832.165	61943.88
832.415	62088.88
832.666	62012.88
832.916	62107.88
833.167	61974.88
833.417	61945.88
833.667	61746.88
833.917	61712.88
834.168	61438.88
834.418	61352.88
834.668	60914.88
834.918	60732.88
835.168	60639.88
835.418	60439.88
835.668	60177.88
835.918	60155.88
836.167	60045.88
836.417	60015.88
836.667	59926.88
836.917	59617.88
837.166	59693.88
837.416	59739.88
837.666	59500.88
837.915	59519.88
838.165	59468.88
838.414	59176.88
838.663	59110.88
838.913	58955.88
839.162	59002.88
839.411	58755.88
839.661	58609.88
839.91	58583.88
840.159	58343.88
840.408	58398.88
840.657	58467.88
840.906	58598.88
841.155	58652.88
841.404	58682.88
841.653	58737.88
841.902	58912.88
842.15	58802.88
842.399	58613.88
842.648	58638.88
842.897	58538.88
843.145	57969.88
843.394	57659.88
843.642	57372.88
843.891	57279.88
844.139	57042.88
844.388	56855.88
844.636	56705.88
844.884	56572.88
845.133	56295.88
845.381	56239.88
845.629	56456.88
845.877	56266.88
846.125	56087.88
846.373	56214.88
846.621	56049.88
846.869	55844.88
847.117	55640.88
847.365	55385.88
847.613	55179.88
847.861	55081.88
848.108	54799.88
848.356	54734.88
848.604	54759.88
848.851	54786.88
849.099	55100.88
849.346	55135.88
849.594	55349.88
849.841	55521.88
850.089	55864.88
850.336	55875.88
850.583	55916.88
850.831	55713.88
851.078	55380.88
851.325	55028.88
851.572	54862.88
851.819	54135.88
852.066	53312.88
852.313	52648.88
852.56	52472.88
852.807	52180.88
853.054	52039.88
853.301	51736.88
853.548	52072.88
853.794	52351.88
854.041	52567.88
854.288	52685.88
854.534	52924.88
854.781	52943.88
855.028	52650.88
855.274	52643.88
855.52	52353.88
855.767	52060.88
856.013	51794.88
856.26	51965.88
856.506	51585.88
856.752	51537.88
856.998	51572.88
857.244	51744.88
857.49	51833.88
857.736	52048.88
857.982	51915.88
858.228	51864.88
858.474	51711.88
858.72	51141.88
858.966	50823.88
859.212	50317.88
859.458	49857.88
859.703	49521.88
859.949	48913.88
860.195	48693.88
860.44	48495.88
860.686	48375.88
860.931	48201.88
861.177	48027.88
861.422	47756.88
861.667	47919.88
861.913	47893.88
862.158	48094.88
862.403	48274.88
862.648	48336.88
862.893	48356.88
863.138	48286.88
863.384	48174.88
863.629	48072.88
863.873	48095.88
864.118	47751.88
864.363	47275.88
864.608	47172.88
864.853	47112.88
865.098	46855.88
865.342	46745.88
865.587	46495.88
865.832	46482.88
866.076	46273.88
866.321	46283.88
866.565	46122.88
866.81	45877.88
867.054	45770.88
867.298	45754.88
867.543	45575.88
867.787	45678.88
868.031	45485.88
868.275	45327.88
868.519	45288.88
868.764	45357.88
869.008	45203.88
869.252	45131.88
869.496	44928.88
869.739	44815.88
869.983	44851.88
870.227	44799.88
870.471	44738.88
870.715	44965.88
870.958	44736.88
871.202	45074.88
871.446	44824.88
871.689	44901.88
871.933	44949.88
872.176	44955.88
872.42	44780.88
872.663	44581.88
872.906	44493.88
873.15	43990.88
873.393	43804.88
873.636	43565.88
873.879	43176.88
874.122	42967.88
874.366	42702.88
874.609	42346.88
874.852	42114.88
875.095	42057.88
875.337	41815.88
875.58	41547.88
875.823	41567.88
876.066	41498.88
876.309	41338.88
876.551	41080.88
876.794	41069.88
877.037	40999.88
877.279	40838.88
877.522	40821.88
877.764	41062.88
878.007	40892.88
878.249	40743.88
878.491	40771.88
878.734	40701.88
878.976	40586.88
879.218	40293.88
879.46	40109.88
879.702	39911.88
879.945	39524.88
880.187	39238.88
880.429	39165.88
880.671	38963.88
880.912	38851.88
881.154	38744.88
881.396	38606.88
881.638	38515.88
881.88	38530.88
882.121	38279.88
882.363	38591.88
882.605	38301.88
882.846	38193.88
883.088	37975.88
883.329	37857.88
883.571	37758.88
883.812	37684.88
884.053	37857.88
884.295	38189.88
884.536	38353.88
884.777	38277.88
885.018	38034.88
885.259	38164.88
885.5	37893.88
885.742	37997.88
885.982	37879.88
886.223	37656.88
886.464	37338.88
886.705	37185.88
886.946	37026.88
887.187	36718.88
887.428	36452.88
887.668	36102.88
887.909	35701.88
888.15	35445.88
888.39	35205.88
888.631	35072.88
888.871	34918.88
889.111	34663.88
889.352	34338.88
889.592	34051.88
889.833	33815.88
890.073	33760.88
890.313	33557.88
890.553	33215.88
890.793	33236.88
891.033	33006.88
891.273	32835.88
891.513	32606.88
891.753	32624.88
891.993	32657.88
892.233	32603.88
892.473	32757.88
892.713	32882.88
892.952	32821.88
893.192	32662.88
893.432	32567.88
893.671	32410.88
893.911	32399.88
894.15	32160.88
894.39	31853.88
894.629	31788.88
894.869	31615.88
895.108	31478.88
895.347	31219.88
895.587	31094.88
895.826	30998.88
896.065	30981.88
896.304	30877.88
896.543	30892.88
896.782	30531.88
897.021	30626.88
897.26	30468.88
897.499	30539.88
897.738	30522.88
897.977	30162.88
898.216	29995.88
898.454	29696.88
898.693	29601.88
898.932	29465.88
899.17	29320.88
899.409	29176.88
899.647	29202.88
899.886	29149.88
900.124	29168.88
900.363	29219.88
900.601	29089.88
900.839	29306.88
901.078	29262.88
901.316	29234.88
901.554	29151.88
901.792	29189.88
902.03	29111.88
902.268	29048.88
902.506	28907.88
902.744	28825.88
902.982	28665.88
903.22	28249.88
903.458	28010.88
903.695	27739.88
903.933	27506.88
904.171	27106.88
904.409	26748.88
904.646	26439.88
904.884	26059.88
905.121	25859.88
905.359	25687.88
905.596	25342.88
905.833	25263.88
906.071	25042.88
906.308	25112.88
906.545	24896.88
906.783	24911.88
907.02	24870.88
907.257	24751.88
907.494	24779.88
907.731	24631.88
907.968	24581.88
908.205	24424.88
908.442	24344.88
908.679	24124.88
908.915	23967.88
909.152	23790.88
909.389	23593.88
909.626	23478.88
909.862	23206.88
910.099	23136.88
910.335	23186.88
910.572	22960.88
910.808	23019.88
911.045	22870.88
911.281	22619.88
911.518	22725.88
911.754	22436.88
911.99	22405.88
912.226	22131.88
912.463	21976.88
912.699	21842.88
912.935	21682.88
913.171	21450.88
913.407	21270.88
913.643	21145.88
913.879	20947.88
914.114	20873.88
914.35	20634.88
914.586	20457.88
914.822	20279.88
915.057	20241.88
915.293	19961.88
915.529	19865.88
915.764	19978.88
916	19997.88
916.235	19738.88
916.471	19747.88
916.706	19679.88
916.941	19735.88
917.177	19629.88
917.412	19624.88
917.647	19588.88
917.882	19470.88
918.117	19506.88
918.352	19341.88
918.588	19333.88
918.823	19165.88
919.057	18982.88
919.292	18578.88
919.527	18709.88
919.762	18424.88
919.997	18280.88
920.232	18039.88
920.466	17883.88
920.701	17687.88
920.935	17600.88
921.17	17476.88
921.405	17389.88
921.639	17373.88
921.873	17299.88
922.108	17203.88
922.342	17149.88
922.576	16957.88
922.811	17022.88
923.045	16952.88
923.279	16996.88
923.513	16674.88
923.747	16760.88
923.981	16595.88
924.215	16468.88
924.449	16319.88
924.683	16259.88
924.917	16156.88
925.151	16170.88
925.385	16101.88
925.618	16010.88
925.852	16023.88
926.086	15768.88
926.319	15859.88
926.553	15848.88
926.786	15785.88
927.02	15814.88
927.253	15779.88
927.486	15732.88
927.72	15598.88
927.953	15693.88
928.186	15637.88
928.42	15540.88
928.653	15399.88
928.886	15312.88
929.119	15333.88
929.352	15233.88
929.585	15127.88
929.818	14979.88
930.051	14843.88
930.284	14784.88
930.516	14563.88
930.749	14476.88
930.982	14393.88
931.215	14415.88
931.447	14236.88
931.68	14257.88
931.912	14156.88
932.145	14216.88
932.377	14210.88
932.61	14243.88
932.842	14109.88
933.074	14138.88
933.307	14149.88
933.539	14222.88
933.771	14087.88
934.003	14105.88
934.236	14154.88
934.468	14183.88
934.7	13985.88
934.932	13924.88
935.164	13893.88
935.395	13835.88
935.627	13830.88
935.859	13736.88
936.091	13628.88
936.323	13722.88
936.554	13653.88
936.786	13518.88
937.017	13458.88
937.249	13456.88
937.481	13237.88
937.712	13398.88
937.943	13333.88
938.175	13278.88
938.406	13235.88
938.637	13279.88
938.869	13174.88
939.1	13182.88
939.331	13113.88
939.562	13183.88
939.793	13003.88
940.024	12966.88
940.255	12960.88
940.486	12890.88
940.717	12798.88
940.948	12698.88
941.179	12669.88
941.409	12656.88
941.64	12630.88
941.871	12708.88
942.102	12536.88
942.332	12614.88
942.563	12704.88
942.793	12552.88
943.024	12501.88
943.254	12549.88
943.484	12538.88
943.715	12570.88
943.945	12450.88
944.175	12354.88
944.405	12391.88
944.636	12330.88
944.866	12324.88
945.096	12305.88
945.326	12187.88
945.556	12239.88
945.786	12240.88
946.016	12066.88
946.245	11934.88
946.475	11893.88
946.705	11794.88
946.935	11748.88
947.164	11720.88
947.394	11622.88
947.624	11588.88
947.853	11492.88
948.083	11508.88
948.312	11438.88
948.542	11402.88
948.771	11318.88
949	11295.88
949.23	11305.88
949.459	11334.88
949.688	11302.88
949.917	11281.88
950.146	11254.88
950.375	11289.88
950.604	11231.88
950.833	11221.88
951.062	11139.88
951.291	11133.88
951.52	11104.88
951.749	11061.88
951.978	11042.88
952.206	10957.88
952.435	10921.88
952.664	10897.88
952.892	10899.88
953.121	10777.88
953.349	10807.88
953.578	10660.88
953.806	10632.88
954.035	10516.88
954.263	10522.88
954.491	10444.88
954.719	10516.88
954.948	10393.88
955.176	10345.88
955.404	10206.88
955.632	10260.88
955.86	10174.88
956.088	10094.88
956.316	10117.88
956.544	10103.88
956.772	9983.88
956.999	9888.88
957.227	9892.88
957.455	9858.88
957.683	9762.88
957.91	9667.88
958.138	9624.88
958.365	9570.88
958.593	9533.88
958.82	9535.88
959.048	9548.88
959.275	9472.88
959.502	9392.88
959.73	9356.88
959.957	9392.88
960.184	9438.88
960.411	9346.88
960.638	9369.88
960.865	9302.88
961.092	9259.88
961.319	9204.88
961.546	9282.88
961.773	9257.88
962	9215.88
962.227	9241.88
962.454	9162.88
962.68	9060.88
962.907	9108.88
963.134	8931.88
963.36	8877.88
963.587	8971.88
963.813	8804.88
964.04	8773.88
964.266	8686.88
964.493	8785.88
964.719	8642.88
964.945	8639.88
965.171	8491.88
965.398	8407.88
965.624	8452.88
965.85	8354.88
966.076	8307.88
966.302	8339.88
966.528	8219.88
966.754	8203.88
966.98	8200.88
967.206	8172.88
967.431	8115.88
967.657	8161.88
967.883	8134.88
968.109	8111.88
968.334	8028.88
968.56	8011.88
968.785	7966.88
969.011	7941.88
969.236	7930.88
969.462	7867.88
969.687	7825.88
969.912	7873.88
970.138	7912.88
970.363	7746.88
970.588	7794.88
970.813	7716.88
971.038	7656.88
971.263	7618.88
971.488	7568.88
971.713	7583.88
971.938	7600.88
972.163	7499.88
972.388	7434.88
972.613	7417.88
972.838	7407.88
973.062	7343.88
973.287	7267.88
973.512	7276.88
973.736	7203.88
973.961	7155.88
974.185	7136.88
974.41	7141.88
974.634	6977.88
974.858	6937.88
975.083	6955.88
975.307	6908.88
975.531	6786.88
975.755	6723.88
975.98	6801.88
976.204	6661.88
976.428	6666.88
976.652	6604.88
976.876	6597.88
977.1	6601.88
977.324	6531.88
977.547	6545.88
977.771	6571.88
977.995	6510.88
978.219	6417.88
978.442	6528.88
978.666	6438.88
978.89	6378.88
979.113	6327.88
979.337	6496.88
979.56	6276.88
979.783	6307.88
980.007	6251.88
980.23	6207.88
980.453	6159.88
980.677	6187.88
980.9	6154.88
981.123	6000.88
981.346	6080.88
981.569	6028.88
981.792	6033.88
982.015	5980.88
982.238	5913.88
982.461	5936.88
982.684	5823.88
982.907	5767.88
983.129	5761.88
983.352	5766.88
983.575	5711.88
983.797	5688.88
984.02	5629.88
984.242	5656.88
984.465	5519.88
984.687	5626.88
984.91	5547.88
985.132	5529.88
985.354	5514.88
985.577	5477.88
985.799	5429.88
986.021	5348.88
986.243	5319.88
986.465	5340.88
986.687	5390.88
986.909	5379.88
987.131	5309.88
987.353	5257.88
987.575	5347.88
987.797	5233.88
988.019	5134.88
988.241	5198.88
988.462	5112.88
988.684	5182.88
988.906	5186.88
989.127	5215.88
989.349	5055.88
989.57	5059.88
989.792	5138.88
990.013	5118.88
990.234	5069.88
990.456	5040.88
990.677	5004.88
990.898	4917.88
991.119	4907.88
991.341	4856.88
991.562	4806.88
991.783	4859.88
992.004	4732.88
992.225	4715.88
992.446	4722.88
992.667	4611.88
992.887	4684.88
993.108	4556.88
993.329	4665.88
993.55	4601.88
993.77	4512.88
993.991	4457.88
994.212	4468.88
994.432	4435.88
994.653	4473.88
994.873	4389.88
995.093	4289.88
995.314	4306.88
995.534	4353.88
995.754	4359.88
995.975	4382.88
996.195	4192.88
996.415	4277.88
996.635	4210.88
996.855	4251.88
997.075	4208.88
997.295	4173.88
997.515	4121.88
997.735	4186.88
997.955	4116.88
998.174	4113.88
998.394	4113.88
998.614	4141.88
998.834	4081.88
999.053	4095.88
999.273	4094.88
999.492	4116.88
999.712	4016.88
999.931	3980.88
1000.151	4000.88
1000.37	3946.88
1000.589	3988.88
1000.809	3863.88
1001.028	3984.88
1001.247	3868.88
1001.466	3787.88
1001.685	3885.88
1001.904	3825.88
1002.123	3770.88
1002.342	3725.88
1002.561	3646.88
1002.78	3676.88
1002.999	3713.88
1003.218	3632.88
1003.436	3599.88
1003.655	3627.88
1003.874	3592.88
1004.092	3610.88
1004.311	3611.88
1004.53	3535.88
1004.748	3606.88
1004.966	3485.88
1005.185	3518.88
1005.403	3506.88
1005.622	3489.88
1005.84	3572.88
1006.058	3406.88
1006.276	3436.88
1006.494	3814.88
1006.712	3475.88
1006.931	3518.88
1007.149	3351.88
1007.367	3397.88
1007.584	3476.88
1007.802	3501.88
1008.02	3371.88
1008.238	3491.88
1008.456	3471.88
1008.673	3320.88
1008.891	3409.88
1009.109	3328.88
1009.326	3418.88
1009.544	3525.88
1009.761	3431.88
1009.979	3536.88
1010.196	3525.88
1010.413	3602.88
1010.631	3649.88
1010.848	3703.88
1011.065	3733.88
1011.282	3660.88
1011.5	3650.88
1011.717	3682.88
1011.934	3621.88
1012.151	3693.88
1012.368	3606.88
1012.585	3563.88
1012.801	3582.88
1013.018	3580.88
1013.235	3530.88
1013.452	3513.88
1013.669	3553.88
1013.885	3551.88
1014.102	3567.88
1014.318	3513.88
1014.535	3497.88
1014.751	3520.88
1014.968	3484.88
1015.184	3471.88
1015.401	3354.88
1015.617	3366.88
1015.833	3328.88
1016.049	3315.88
1016.266	3300.88
1016.482	3255.88
1016.698	3220.88
1016.914	3254.88
1017.13	3133.88
1017.346	3148.88
1017.562	3223.88
1017.778	3143.88
1017.993	3111.88
1018.209	3149.88
1018.425	3140.88
1018.641	3098.88
1018.856	3045.88
1019.072	3099.88
1019.288	3127.88
1019.503	3075.88
1019.719	2985.88
1019.934	2990.88
1020.149	3046.88
1020.365	2955.88
1020.58	2912.88
1020.795	2962.88
1021.011	2853.88
1021.226	2779.88
1021.441	2788.88
1021.656	2678.88
1021.871	2616.88
1022.086	2560.88
1022.301	2569.88
1022.516	2523.88
1022.731	2581.88
1022.946	2417.88
1023.16	2431.88
1023.375	2361.88
1023.59	2328.88
1023.804	2267.88
1024.019	2351.88
1024.234	2237.88
1024.448	2211.88
1024.663	2116.88
1024.877	2148.88
1025.092	2117.88
1025.306	2087.88
1025.52	2016.88
1025.734	2048.88
1025.949	1945.88
1026.163	1916.88
1026.377	1840.88
1026.591	1844.88
1026.805	1789.88
1027.019	1750.88
1027.233	1670.88
1027.447	1629.88
1027.661	1703.88
1027.875	1639.88
1028.088	1628.88
1028.302	1538.88
1028.516	1502.88
1028.73	1490.88
1028.943	1419.88
1029.157	1349.88
1029.37	1274.88
1029.584	-6.12
1029.797	-1.12
1030.011	0.88
1030.224	-1.12
