Data from QEP037381__73__11-33-05-596.txt Node

Date: Wed Dec 21 11:33:05 EST 2022
User: dcclab
Spectrometer: QEP03738
Trigger mode: 4
Integration Time (sec): 1.000000E1
Scans to average: 1
Electric dark correction enabled: true
Nonlinearity correction enabled: false
Boxcar width: 0
XAxis mode: Wavelengths
Number of Pixels in Spectrum: 1044
>>>>>Begin Spectral Data<<<<<
784.041	9.62
784.3	-0.38
784.558	-2.38
784.817	-1.38
785.075	40561.62
785.334	8338.62
785.592	4458.62
785.851	3151.62
786.109	2417.62
786.368	1944.62
786.626	1599.62
786.884	1354.62
787.143	1170.62
787.401	973.62
787.659	891.62
787.917	794.62
788.175	756.62
788.433	654.62
788.691	606.62
788.949	576.62
789.207	569.62
789.465	471.62
789.723	482.62
789.98	440.62
790.238	492.62
790.496	463.62
790.753	444.62
791.011	490.62
791.268	446.62
791.526	440.62
791.783	449.62
792.041	425.62
792.298	338.62
792.556	425.62
792.813	401.62
793.07	384.62
793.327	379.62
793.584	452.62
793.841	378.62
794.099	412.62
794.356	460.62
794.613	361.62
794.869	406.62
795.126	364.62
795.383	354.62
795.64	361.62
795.897	338.62
796.153	387.62
796.41	375.62
796.667	354.62
796.923	361.62
797.18	385.62
797.436	381.62
797.693	352.62
797.949	403.62
798.206	415.62
798.462	333.62
798.718	402.62
798.974	379.62
799.231	408.62
799.487	386.62
799.743	405.62
799.999	423.62
800.255	403.62
800.511	382.62
800.767	430.62
801.023	403.62
801.279	438.62
801.534	436.62
801.79	456.62
802.046	458.62
802.302	546.62
802.557	580.62
802.813	678.62
803.068	734.62
803.324	1003.62
803.579	1265.62
803.835	1694.62
804.09	2286.62
804.345	2900.62
804.601	3509.62
804.856	4325.62
805.111	5002.62
805.366	5437.62
805.621	5827.62
805.876	6085.62
806.131	6225.62
806.386	6379.62
806.641	6424.62
806.896	6543.62
807.151	6724.62
807.406	6742.62
807.661	6885.62
807.915	6981.62
808.17	7128.62
808.425	7161.62
808.679	7187.62
808.934	7406.62
809.188	7355.62
809.443	7491.62
809.697	7634.62
809.951	7631.62
810.206	7650.62
810.46	7774.62
810.714	7753.62
810.968	7967.62
811.223	7915.62
811.477	7982.62
811.731	8123.62
811.985	8064.62
812.239	8061.62
812.493	8192.62
812.747	8134.62
813	8122.62
813.254	8250.62
813.508	8300.62
813.762	8301.62
814.015	8289.62
814.269	8416.62
814.522	8434.62
814.776	8490.62
815.03	8708.62
815.283	8759.62
815.536	8837.62
815.79	9030.62
816.043	9153.62
816.296	9208.62
816.55	9375.62
816.803	9447.62
817.056	9622.62
817.309	9586.62
817.562	9677.62
817.815	9868.62
818.068	9895.62
818.321	10052.62
818.574	10118.62
818.827	10285.62
819.079	10351.62
819.332	10594.62
819.585	10664.62
819.838	10817.62
820.09	10816.62
820.343	10920.62
820.595	10823.62
820.848	10952.62
821.1	10950.62
821.353	11016.62
821.605	10913.62
821.857	10927.62
822.11	10848.62
822.362	10829.62
822.614	10826.62
822.866	10836.62
823.118	10826.62
823.37	10904.62
823.622	10915.62
823.874	10945.62
824.126	10953.62
824.378	10934.62
824.63	10887.62
824.882	11028.62
825.134	10967.62
825.385	11006.62
825.637	10973.62
825.888	10906.62
826.14	10858.62
826.392	10811.62
826.643	10793.62
826.895	10751.62
827.146	10633.62
827.397	10681.62
827.649	10679.62
827.9	10585.62
828.151	10596.62
828.402	10551.62
828.653	10640.62
828.905	10732.62
829.156	10850.62
829.407	10719.62
829.658	10825.62
829.909	10825.62
830.159	10843.62
830.41	10744.62
830.661	10685.62
830.912	10536.62
831.162	10530.62
831.413	10547.62
831.664	10506.62
831.914	10550.62
832.165	10491.62
832.415	10456.62
832.666	10521.62
832.916	10554.62
833.167	10399.62
833.417	10545.62
833.667	10501.62
833.917	10404.62
834.168	10400.62
834.418	10418.62
834.668	10349.62
834.918	10276.62
835.168	10300.62
835.418	10143.62
835.668	10216.62
835.918	10188.62
836.167	10174.62
836.417	10050.62
836.667	10101.62
836.917	10098.62
837.166	10102.62
837.416	10166.62
837.666	10173.62
837.915	10132.62
838.165	9968.62
838.414	9967.62
838.663	9925.62
838.913	10006.62
839.162	10035.62
839.411	10049.62
839.661	9950.62
839.91	9944.62
840.159	9995.62
840.408	9991.62
840.657	10014.62
840.906	10069.62
841.155	10060.62
841.404	9948.62
841.653	9986.62
841.902	10007.62
842.15	10042.62
842.399	10034.62
842.648	10054.62
842.897	10003.62
843.145	9881.62
843.394	9772.62
843.642	9741.62
843.891	9670.62
844.139	9523.62
844.388	9519.62
844.636	9432.62
844.884	9493.62
845.133	9452.62
845.381	9483.62
845.629	9539.62
845.877	9436.62
846.125	9497.62
846.373	9426.62
846.621	9323.62
846.869	9409.62
847.117	9374.62
847.365	9291.62
847.613	9266.62
847.861	9277.62
848.108	9278.62
848.356	9246.62
848.604	9262.62
848.851	9213.62
849.099	9215.62
849.346	9380.62
849.594	9326.62
849.841	9478.62
850.089	9496.62
850.336	9569.62
850.583	9667.62
850.831	9637.62
851.078	9546.62
851.325	9416.62
851.572	9471.62
851.819	9324.62
852.066	9092.62
852.313	8857.62
852.56	8867.62
852.807	8821.62
853.054	8780.62
853.301	8830.62
853.548	8824.62
853.794	8869.62
854.041	8975.62
854.288	8886.62
854.534	9089.62
854.781	9022.62
855.028	8962.62
855.274	9018.62
855.52	8968.62
855.767	8855.62
856.013	8989.62
856.26	9228.62
856.506	8835.62
856.752	8842.62
856.998	8882.62
857.244	8927.62
857.49	8970.62
857.736	9016.62
857.982	8960.62
858.228	8936.62
858.474	8802.62
858.72	8778.62
858.966	8586.62
859.212	8561.62
859.458	8430.62
859.703	8404.62
859.949	8322.62
860.195	8318.62
860.44	8279.62
860.686	8228.62
860.931	8246.62
861.177	8121.62
861.422	8099.62
861.667	8088.62
861.913	7995.62
862.158	8007.62
862.403	8143.62
862.648	8114.62
862.893	8072.62
863.138	8098.62
863.384	8074.62
863.629	8132.62
863.873	8044.62
864.118	8009.62
864.363	7945.62
864.608	8065.62
864.853	7938.62
865.098	7865.62
865.342	7876.62
865.587	7842.62
865.832	8001.62
866.076	7834.62
866.321	7794.62
866.565	7785.62
866.81	7640.62
867.054	7759.62
867.298	7728.62
867.543	7689.62
867.787	7746.62
868.031	7685.62
868.275	7665.62
868.519	7611.62
868.764	7685.62
869.008	7632.62
869.252	7715.62
869.496	7605.62
869.739	7631.62
869.983	7672.62
870.227	7686.62
870.471	7634.62
870.715	7735.62
870.958	7690.62
871.202	7688.62
871.446	7757.62
871.689	7688.62
871.933	7765.62
872.176	7745.62
872.42	7699.62
872.663	7722.62
872.906	7738.62
873.15	7750.62
873.393	7699.62
873.636	7779.62
873.879	7704.62
874.122	7604.62
874.366	7491.62
874.609	7390.62
874.852	7339.62
875.095	7205.62
875.337	7114.62
875.58	7078.62
875.823	7176.62
876.066	7153.62
876.309	7198.62
876.551	7064.62
876.794	6970.62
877.037	7032.62
877.279	6933.62
877.522	6959.62
877.764	6954.62
878.007	6872.62
878.249	6951.62
878.491	6891.62
878.734	6964.62
878.976	6834.62
879.218	6845.62
879.46	6840.62
879.702	6799.62
879.945	6740.62
880.187	6613.62
880.429	6693.62
880.671	6529.62
880.912	6611.62
881.154	6548.62
881.396	6439.62
881.638	6573.62
881.88	6502.62
882.121	6464.62
882.363	6477.62
882.605	6552.62
882.846	6571.62
883.088	6533.62
883.329	6558.62
883.571	6610.62
883.812	6783.62
884.053	7002.62
884.295	7167.62
884.536	7327.62
884.777	7162.62
885.018	7093.62
885.259	7028.62
885.5	6941.62
885.742	7207.62
885.982	6941.62
886.223	6826.62
886.464	6789.62
886.705	6618.62
886.946	6619.62
887.187	6412.62
887.428	6367.62
887.668	6232.62
887.909	6143.62
888.15	6041.62
888.39	6053.62
888.631	6048.62
888.871	5990.62
889.111	5940.62
889.352	5843.62
889.592	5783.62
889.833	5727.62
890.073	5701.62
890.313	5731.62
890.553	5595.62
890.793	5634.62
891.033	5565.62
891.273	5540.62
891.513	5524.62
891.753	5569.62
891.993	5509.62
892.233	5583.62
892.473	5621.62
892.713	5619.62
892.952	5567.62
893.192	5560.62
893.432	5550.62
893.671	5580.62
893.911	5522.62
894.15	5526.62
894.39	5425.62
894.629	5445.62
894.869	5430.62
895.108	5421.62
895.347	5388.62
895.587	5365.62
895.826	5374.62
896.065	5358.62
896.304	5400.62
896.543	5437.62
896.782	5252.62
897.021	5338.62
897.26	5310.62
897.499	5399.62
897.738	5421.62
897.977	5342.62
898.216	5307.62
898.454	5217.62
898.693	5225.62
898.932	5264.62
899.17	5230.62
899.409	5171.62
899.647	5204.62
899.886	5212.62
900.124	5246.62
900.363	5184.62
900.601	5272.62
900.839	5256.62
901.078	5319.62
901.316	5343.62
901.554	5372.62
901.792	5429.62
902.03	5346.62
902.268	5355.62
902.506	5406.62
902.744	5267.62
902.982	5344.62
903.22	5137.62
903.458	5071.62
903.695	5013.62
903.933	4925.62
904.171	4766.62
904.409	4735.62
904.646	4712.62
904.884	4596.62
905.121	4628.62
905.359	4508.62
905.596	4507.62
905.833	4408.62
906.071	4391.62
906.308	4439.62
906.545	4361.62
906.783	4320.62
907.02	4317.62
907.257	4295.62
907.494	4298.62
907.731	4283.62
907.968	4311.62
908.205	4185.62
908.442	4165.62
908.679	4201.62
908.915	4123.62
909.152	4125.62
909.389	4065.62
909.626	4064.62
909.862	3970.62
910.099	4015.62
910.335	4039.62
910.572	3935.62
910.808	3979.62
911.045	3896.62
911.281	3910.62
911.518	3984.62
911.754	3875.62
911.99	3876.62
912.226	3800.62
912.463	3803.62
912.699	3749.62
912.935	3756.62
913.171	3758.62
913.407	3622.62
913.643	3734.62
913.879	3652.62
914.114	3617.62
914.35	3592.62
914.586	3595.62
914.822	3494.62
915.057	3619.62
915.293	3469.62
915.529	3459.62
915.764	3511.62
916	3482.62
916.235	3471.62
916.471	3437.62
916.706	3366.62
916.941	3411.62
917.177	3392.62
917.412	3423.62
917.647	3430.62
917.882	3402.62
918.117	3427.62
918.352	3420.62
918.588	3403.62
918.823	3351.62
919.057	3319.62
919.292	3219.62
919.527	3314.62
919.762	3245.62
919.997	3311.62
920.232	3177.62
920.466	3206.62
920.701	3061.62
920.935	3140.62
921.17	3106.62
921.405	3093.62
921.639	3151.62
921.873	3065.62
922.108	3042.62
922.342	3084.62
922.576	3050.62
922.811	3034.62
923.045	3063.62
923.279	3047.62
923.513	2939.62
923.747	3017.62
923.981	2961.62
924.215	2905.62
924.449	2935.62
924.683	2871.62
924.917	2894.62
925.151	2911.62
925.385	2932.62
925.618	2918.62
925.852	2909.62
926.086	2820.62
926.319	2867.62
926.553	2875.62
926.786	2874.62
927.02	2863.62
927.253	2885.62
927.486	2884.62
927.72	2812.62
927.953	2856.62
928.186	2786.62
928.42	2873.62
928.653	2800.62
928.886	2816.62
929.119	2825.62
929.352	2810.62
929.585	2783.62
929.818	2692.62
930.051	2742.62
930.284	2732.62
930.516	2645.62
930.749	2664.62
930.982	2693.62
931.215	2679.62
931.447	2608.62
931.68	2636.62
931.912	2631.62
932.145	2593.62
932.377	2612.62
932.61	2735.62
932.842	2577.62
933.074	2623.62
933.307	2581.62
933.539	2648.62
933.771	2674.62
934.003	2565.62
934.236	2703.62
934.468	2694.62
934.7	2599.62
934.932	2613.62
935.164	2587.62
935.395	2591.62
935.627	2607.62
935.859	2607.62
936.091	2537.62
936.323	2587.62
936.554	2588.62
936.786	2549.62
937.017	2441.62
937.249	2534.62
937.481	2487.62
937.712	2522.62
937.943	2511.62
938.175	2450.62
938.406	2514.62
938.637	2550.62
938.869	2479.62
939.1	2512.62
939.331	2471.62
939.562	2478.62
939.793	2488.62
940.024	2512.62
940.255	2490.62
940.486	2437.62
940.717	2420.62
940.948	2439.62
941.179	2368.62
941.409	2409.62
941.64	2394.62
941.871	2414.62
942.102	2384.62
942.332	2376.62
942.563	2449.62
942.793	2410.62
943.024	2384.62
943.254	2398.62
943.484	2442.62
943.715	2429.62
943.945	2384.62
944.175	2332.62
944.405	2293.62
944.636	2349.62
944.866	2366.62
945.096	2367.62
945.326	2311.62
945.556	2373.62
945.786	2374.62
946.016	2349.62
946.245	2282.62
946.475	2290.62
946.705	2289.62
946.935	2295.62
947.164	2279.62
947.394	2215.62
947.624	2257.62
947.853	2270.62
948.083	2215.62
948.312	2240.62
948.542	2146.62
948.771	2152.62
949	2170.62
949.23	2167.62
949.459	2174.62
949.688	2215.62
949.917	2181.62
950.146	2190.62
950.375	2262.62
950.604	2123.62
950.833	2238.62
951.062	2221.62
951.291	2168.62
951.52	2155.62
951.749	2171.62
951.978	2133.62
952.206	2108.62
952.435	2108.62
952.664	2140.62
952.892	2119.62
953.121	2120.62
953.349	2160.62
953.578	2136.62
953.806	2089.62
954.035	2016.62
954.263	2119.62
954.491	2040.62
954.719	2076.62
954.948	2016.62
955.176	2034.62
955.404	1943.62
955.632	2051.62
955.86	2049.62
956.088	2000.62
956.316	2059.62
956.544	2021.62
956.772	1995.62
956.999	1970.62
957.227	2063.62
957.455	1943.62
957.683	1958.62
957.91	1929.62
958.138	1933.62
958.365	1921.62
958.593	1915.62
958.82	1845.62
959.048	1953.62
959.275	1888.62
959.502	1875.62
959.73	1882.62
959.957	1930.62
960.184	1937.62
960.411	1867.62
960.638	1953.62
960.865	1867.62
961.092	1922.62
961.319	1791.62
961.546	1933.62
961.773	1893.62
962	1870.62
962.227	1915.62
962.454	1871.62
962.68	1869.62
962.907	1902.62
963.134	1826.62
963.36	1858.62
963.587	1858.62
963.813	1839.62
964.04	1856.62
964.266	1792.62
964.493	1871.62
964.719	1804.62
964.945	1824.62
965.171	1743.62
965.398	1800.62
965.624	1845.62
965.85	1735.62
966.076	1773.62
966.302	1777.62
966.528	1746.62
966.754	1767.62
966.98	1738.62
967.206	1757.62
967.431	1673.62
967.657	1760.62
967.883	1749.62
968.109	1760.62
968.334	1711.62
968.56	1686.62
968.785	1688.62
969.011	1624.62
969.236	1725.62
969.462	1661.62
969.687	1707.62
969.912	1715.62
970.138	1730.62
970.363	1629.62
970.588	1700.62
970.813	1641.62
971.038	1641.62
971.263	1680.62
971.488	1666.62
971.713	1695.62
971.938	1682.62
972.163	1568.62
972.388	1645.62
972.613	1628.62
972.838	1615.62
973.062	1618.62
973.287	1630.62
973.512	1571.62
973.736	1589.62
973.961	1571.62
974.185	1541.62
974.41	1586.62
974.634	1514.62
974.858	1520.62
975.083	1592.62
975.307	1594.62
975.531	1516.62
975.755	1479.62
975.98	1487.62
976.204	1466.62
976.428	1435.62
976.652	1446.62
976.876	1424.62
977.1	1468.62
977.324	1424.62
977.547	1481.62
977.771	1486.62
977.995	1464.62
978.219	1419.62
978.442	1491.62
978.666	1447.62
978.89	1435.62
979.113	1429.62
979.337	1437.62
979.56	1411.62
979.783	1488.62
980.007	1371.62
980.23	1438.62
980.453	1407.62
980.677	1436.62
980.9	1435.62
981.123	1354.62
981.346	1415.62
981.569	1398.62
981.792	1440.62
982.015	1370.62
982.238	1368.62
982.461	1365.62
982.684	1357.62
982.907	1347.62
983.129	1342.62
983.352	1370.62
983.575	1346.62
983.797	1357.62
984.02	1332.62
984.242	1322.62
984.465	1348.62
984.687	1367.62
984.91	1375.62
985.132	1345.62
985.354	1368.62
985.577	1341.62
985.799	1318.62
986.021	1273.62
986.243	1280.62
986.465	1288.62
986.687	1348.62
986.909	1420.62
987.131	1326.62
987.353	1303.62
987.575	1309.62
987.797	1302.62
988.019	1250.62
988.241	1278.62
988.462	1253.62
988.684	1320.62
988.906	1345.62
989.127	1345.62
989.349	1250.62
989.57	1277.62
989.792	1327.62
990.013	1328.62
990.234	1344.62
990.456	1362.62
990.677	1368.62
990.898	1285.62
991.119	1272.62
991.341	1317.62
991.562	1238.62
991.783	1319.62
992.004	1233.62
992.225	1216.62
992.446	1271.62
992.667	1170.62
992.887	1286.62
993.108	1169.62
993.329	1316.62
993.55	1229.62
993.77	1171.62
993.991	1185.62
994.212	1215.62
994.432	1223.62
994.653	1230.62
994.873	1234.62
995.093	1122.62
995.314	1178.62
995.534	1286.62
995.754	1271.62
995.975	1279.62
996.195	1169.62
996.415	1239.62
996.635	1219.62
996.855	1220.62
997.075	1199.62
997.295	1190.62
997.515	1181.62
997.735	1246.62
997.955	1222.62
998.174	1214.62
998.394	1191.62
998.614	1242.62
998.834	1186.62
999.053	1262.62
999.273	1213.62
999.492	1265.62
999.712	1169.62
999.931	1172.62
1000.151	1227.62
1000.37	1190.62
1000.589	1266.62
1000.809	1145.62
1001.028	1294.62
1001.247	1229.62
1001.466	1106.62
1001.685	1293.62
1001.904	1223.62
1002.123	1203.62
1002.342	1218.62
1002.561	1166.62
1002.78	1175.62
1002.999	1258.62
1003.218	1187.62
1003.436	1185.62
1003.655	1240.62
1003.874	1145.62
1004.092	1170.62
1004.311	1240.62
1004.53	1211.62
1004.748	1269.62
1004.966	1178.62
1005.185	1232.62
1005.403	1236.62
1005.622	1209.62
1005.84	1264.62
1006.058	1208.62
1006.276	1221.62
1006.494	1708.62
1006.712	1185.62
1006.931	1296.62
1007.149	1184.62
1007.367	1209.62
1007.584	1244.62
1007.802	1273.62
1008.02	1235.62
1008.238	1308.62
1008.456	1329.62
1008.673	1219.62
1008.891	1286.62
1009.109	1256.62
1009.326	1309.62
1009.544	1399.62
1009.761	1309.62
1009.979	1464.62
1010.196	1430.62
1010.413	1532.62
1010.631	1592.62
1010.848	1625.62
1011.065	1616.62
1011.282	1574.62
1011.5	1528.62
1011.717	1643.62
1011.934	1559.62
1012.151	1600.62
1012.368	1595.62
1012.585	1520.62
1012.801	1595.62
1013.018	1561.62
1013.235	1499.62
1013.452	1558.62
1013.669	1564.62
1013.885	1552.62
1014.102	1564.62
1014.318	1570.62
1014.535	1525.62
1014.751	1546.62
1014.968	1523.62
1015.184	1562.62
1015.401	1447.62
1015.617	1503.62
1015.833	1455.62
1016.049	1480.62
1016.266	1422.62
1016.482	1444.62
1016.698	1391.62
1016.914	1454.62
1017.13	1371.62
1017.346	1379.62
1017.562	1409.62
1017.778	1364.62
1017.993	1318.62
1018.209	1375.62
1018.425	1350.62
1018.641	1300.62
1018.856	1289.62
1019.072	1349.62
1019.288	1365.62
1019.503	1329.62
1019.719	1291.62
1019.934	1253.62
1020.149	1319.62
1020.365	1283.62
1020.58	1219.62
1020.795	1257.62
1021.011	1201.62
1021.226	1178.62
1021.441	1192.62
1021.656	1133.62
1021.871	1071.62
1022.086	1072.62
1022.301	1070.62
1022.516	1057.62
1022.731	1124.62
1022.946	1040.62
1023.16	1015.62
1023.375	1010.62
1023.59	951.62
1023.804	936.62
1024.019	1035.62
1024.234	910.62
1024.448	920.62
1024.663	863.62
1024.877	886.62
1025.092	887.62
1025.306	912.62
1025.52	817.62
1025.734	913.62
1025.949	843.62
1026.163	789.62
1026.377	753.62
1026.591	801.62
1026.805	718.62
1027.019	731.62
1027.233	685.62
1027.447	657.62
1027.661	754.62
1027.875	696.62
1028.088	699.62
1028.302	650.62
1028.516	633.62
1028.73	635.62
1028.943	635.62
1029.157	588.62
1029.37	545.62
1029.584	-0.38
1029.797	0.62
1030.011	-2.38
1030.224	-3.38
