Data from QEP037381__66__11-31-55-595.txt Node

Date: Wed Dec 21 11:31:55 EST 2022
User: dcclab
Spectrometer: QEP03738
Trigger mode: 4
Integration Time (sec): 1.000000E1
Scans to average: 1
Electric dark correction enabled: true
Nonlinearity correction enabled: false
Boxcar width: 0
XAxis mode: Wavelengths
Number of Pixels in Spectrum: 1044
>>>>>Begin Spectral Data<<<<<
784.041	12.38
784.3	-0.62
784.558	-0.62
784.817	-2.62
785.075	40722.38
785.334	8103.38
785.592	4183.38
785.851	2970.38
786.109	2281.38
786.368	1823.38
786.626	1499.38
786.884	1294.38
787.143	1113.38
787.401	899.38
787.659	861.38
787.917	764.38
788.175	715.38
788.433	639.38
788.691	585.38
788.949	572.38
789.207	550.38
789.465	461.38
789.723	458.38
789.98	442.38
790.238	489.38
790.496	451.38
790.753	437.38
791.011	496.38
791.268	421.38
791.526	424.38
791.783	454.38
792.041	430.38
792.298	351.38
792.556	413.38
792.813	415.38
793.07	397.38
793.327	373.38
793.584	462.38
793.841	376.38
794.099	406.38
794.356	477.38
794.613	364.38
794.869	400.38
795.126	370.38
795.383	350.38
795.64	389.38
795.897	343.38
796.153	396.38
796.41	378.38
796.667	351.38
796.923	363.38
797.18	367.38
797.436	394.38
797.693	340.38
797.949	408.38
798.206	431.38
798.462	350.38
798.718	413.38
798.974	380.38
799.231	411.38
799.487	404.38
799.743	405.38
799.999	435.38
800.255	427.38
800.511	392.38
800.767	434.38
801.023	425.38
801.279	452.38
801.534	471.38
801.79	521.38
802.046	522.38
802.302	616.38
802.557	665.38
802.813	791.38
803.068	894.38
803.324	1213.38
803.579	1602.38
803.835	2129.38
804.09	2883.38
804.345	3719.38
804.601	4604.38
804.856	5526.38
805.111	6381.38
805.366	6985.38
805.621	7471.38
805.876	7824.38
806.131	7959.38
806.386	8134.38
806.641	8294.38
806.896	8373.38
807.151	8585.38
807.406	8605.38
807.661	8823.38
807.915	8999.38
808.17	9130.38
808.425	9273.38
808.679	9244.38
808.934	9419.38
809.188	9506.38
809.443	9642.38
809.697	9819.38
809.951	9766.38
810.206	9882.38
810.46	9981.38
810.714	10118.38
810.968	10188.38
811.223	10152.38
811.477	10361.38
811.731	10359.38
811.985	10319.38
812.239	10430.38
812.493	10539.38
812.747	10446.38
813	10540.38
813.254	10667.38
813.508	10660.38
813.762	10699.38
814.015	10808.38
814.269	10852.38
814.522	10912.38
814.776	11080.38
815.03	11241.38
815.283	11355.38
815.536	11589.38
815.79	11702.38
816.043	11848.38
816.296	12060.38
816.55	12179.38
816.803	12337.38
817.056	12508.38
817.309	12632.38
817.562	12709.38
817.815	12921.38
818.068	12909.38
818.321	13034.38
818.574	13170.38
818.827	13366.38
819.079	13617.38
819.332	13889.38
819.585	13961.38
819.838	14177.38
820.09	14112.38
820.343	14284.38
820.595	14270.38
820.848	14395.38
821.1	14456.38
821.353	14367.38
821.605	14402.38
821.857	14413.38
822.11	14273.38
822.362	14255.38
822.614	14332.38
822.866	14257.38
823.118	14148.38
823.37	14404.38
823.622	14350.38
823.874	14397.38
824.126	14534.38
824.378	14527.38
824.63	14548.38
824.882	14465.38
825.134	14548.38
825.385	14533.38
825.637	14438.38
825.888	14426.38
826.14	14367.38
826.392	14339.38
826.643	14156.38
826.895	14193.38
827.146	14156.38
827.397	14099.38
827.649	14160.38
827.9	14147.38
828.151	14064.38
828.402	14083.38
828.653	14151.38
828.905	14253.38
829.156	14209.38
829.407	14251.38
829.658	14398.38
829.909	14378.38
830.159	14321.38
830.41	14219.38
830.661	14105.38
830.912	14088.38
831.162	13982.38
831.413	13930.38
831.664	14019.38
831.914	13946.38
832.165	14009.38
832.415	13960.38
832.666	13986.38
832.916	14009.38
833.167	13956.38
833.417	13952.38
833.667	13797.38
833.917	13862.38
834.168	13835.38
834.418	13868.38
834.668	13768.38
834.918	13663.38
835.168	13611.38
835.418	13487.38
835.668	13536.38
835.918	13525.38
836.167	13472.38
836.417	13464.38
836.667	13413.38
836.917	13374.38
837.166	13375.38
837.416	13481.38
837.666	13426.38
837.915	13378.38
838.165	13436.38
838.414	13324.38
838.663	13343.38
838.913	13287.38
839.162	13312.38
839.411	13314.38
839.661	13233.38
839.91	13320.38
840.159	13276.38
840.408	13213.38
840.657	13191.38
840.906	13191.38
841.155	13257.38
841.404	13178.38
841.653	13290.38
841.902	13232.38
842.15	13335.38
842.399	13330.38
842.648	13315.38
842.897	13191.38
843.145	13076.38
843.394	13025.38
843.642	12996.38
843.891	12874.38
844.139	12828.38
844.388	12677.38
844.636	12638.38
844.884	12637.38
845.133	12654.38
845.381	12614.38
845.629	12688.38
845.877	12610.38
846.125	12522.38
846.373	12591.38
846.621	12501.38
846.869	12551.38
847.117	12401.38
847.365	12362.38
847.613	12292.38
847.861	12295.38
848.108	12295.38
848.356	12237.38
848.604	12219.38
848.851	12208.38
849.099	12251.38
849.346	12315.38
849.594	12385.38
849.841	12494.38
850.089	12523.38
850.336	12623.38
850.583	12656.38
850.831	12481.38
851.078	12474.38
851.325	12395.38
851.572	12369.38
851.819	12221.38
852.066	11919.38
852.313	11816.38
852.56	11695.38
852.807	11683.38
853.054	11620.38
853.301	11681.38
853.548	11694.38
853.794	11724.38
854.041	11756.38
854.288	11773.38
854.534	11942.38
854.781	11851.38
855.028	11808.38
855.274	11854.38
855.52	11774.38
855.767	11755.38
856.013	11876.38
856.26	12102.38
856.506	11602.38
856.752	11656.38
856.998	11642.38
857.244	11726.38
857.49	11736.38
857.736	11799.38
857.982	11737.38
858.228	11663.38
858.474	11538.38
858.72	11587.38
858.966	11367.38
859.212	11325.38
859.458	11178.38
859.703	10979.38
859.949	10983.38
860.195	10917.38
860.44	10950.38
860.686	10741.38
860.931	10826.38
861.177	10687.38
861.422	10732.38
861.667	10609.38
861.913	10704.38
862.158	10573.38
862.403	10680.38
862.648	10650.38
862.893	10715.38
863.138	10635.38
863.384	10618.38
863.629	10665.38
863.873	10610.38
864.118	10582.38
864.363	10489.38
864.608	10507.38
864.853	10452.38
865.098	10316.38
865.342	10429.38
865.587	10304.38
865.832	10365.38
866.076	10219.38
866.321	10244.38
866.565	10254.38
866.81	10148.38
867.054	10155.38
867.298	10160.38
867.543	10067.38
867.787	10092.38
868.031	10067.38
868.275	10010.38
868.519	10039.38
868.764	9984.38
869.008	9989.38
869.252	9993.38
869.496	9976.38
869.739	9951.38
869.983	10027.38
870.227	10029.38
870.471	9914.38
870.715	9998.38
870.958	10125.38
871.202	10092.38
871.446	10082.38
871.689	10052.38
871.933	10094.38
872.176	10033.38
872.42	10046.38
872.663	9997.38
872.906	10129.38
873.15	10103.38
873.393	10021.38
873.636	10065.38
873.879	9971.38
874.122	9875.38
874.366	9604.38
874.609	9541.38
874.852	9440.38
875.095	9419.38
875.337	9327.38
875.58	9208.38
875.823	9294.38
876.066	9284.38
876.309	9312.38
876.551	9054.38
876.794	9112.38
877.037	9111.38
877.279	8992.38
877.522	9086.38
877.764	9041.38
878.007	8972.38
878.249	9033.38
878.491	8947.38
878.734	9011.38
878.976	8946.38
879.218	8814.38
879.46	8891.38
879.702	8831.38
879.945	8751.38
880.187	8567.38
880.429	8578.38
880.671	8539.38
880.912	8503.38
881.154	8556.38
881.396	8376.38
881.638	8448.38
881.88	8467.38
882.121	8351.38
882.363	8442.38
882.605	8451.38
882.846	8436.38
883.088	8379.38
883.329	8380.38
883.571	8498.38
883.812	8661.38
884.053	8808.38
884.295	9070.38
884.536	9222.38
884.777	9078.38
885.018	8960.38
885.259	8914.38
885.5	8841.38
885.742	9005.38
885.982	8757.38
886.223	8708.38
886.464	8578.38
886.705	8474.38
886.946	8426.38
887.187	8218.38
887.428	8214.38
887.668	7990.38
887.909	7866.38
888.15	7826.38
888.39	7733.38
888.631	7740.38
888.871	7712.38
889.111	7659.38
889.352	7535.38
889.592	7503.38
889.833	7406.38
890.073	7351.38
890.313	7455.38
890.553	7177.38
890.793	7228.38
891.033	7154.38
891.273	7125.38
891.513	7106.38
891.753	7140.38
891.993	7080.38
892.233	7168.38
892.473	7202.38
892.713	7162.38
892.952	7148.38
893.192	7185.38
893.432	7108.38
893.671	7122.38
893.911	7076.38
894.15	7090.38
894.39	6917.38
894.629	6953.38
894.869	6968.38
895.108	6854.38
895.347	6859.38
895.587	6845.38
895.826	6803.38
896.065	6819.38
896.304	6856.38
896.543	6878.38
896.782	6714.38
897.021	6795.38
897.26	6740.38
897.499	6809.38
897.738	6765.38
897.977	6682.38
898.216	6698.38
898.454	6618.38
898.693	6567.38
898.932	6563.38
899.17	6565.38
899.409	6515.38
899.647	6527.38
899.886	6554.38
900.124	6549.38
900.363	6515.38
900.601	6572.38
900.839	6580.38
901.078	6600.38
901.316	6600.38
901.554	6630.38
901.792	6707.38
902.03	6679.38
902.268	6631.38
902.506	6653.38
902.744	6557.38
902.982	6544.38
903.22	6423.38
903.458	6348.38
903.695	6224.38
903.933	6206.38
904.171	6010.38
904.409	5939.38
904.646	5877.38
904.884	5774.38
905.121	5758.38
905.359	5726.38
905.596	5623.38
905.833	5538.38
906.071	5524.38
906.308	5569.38
906.545	5522.38
906.783	5468.38
907.02	5469.38
907.257	5439.38
907.494	5437.38
907.731	5423.38
907.968	5406.38
908.205	5360.38
908.442	5270.38
908.679	5264.38
908.915	5239.38
909.152	5220.38
909.389	5099.38
909.626	5122.38
909.862	5057.38
910.099	5080.38
910.335	5103.38
910.572	4915.38
910.808	5057.38
911.045	5018.38
911.281	4900.38
911.518	4975.38
911.754	4899.38
911.99	4894.38
912.226	4867.38
912.463	4838.38
912.699	4781.38
912.935	4749.38
913.171	4692.38
913.407	4656.38
913.643	4647.38
913.879	4627.38
914.114	4557.38
914.35	4514.38
914.586	4480.38
914.822	4411.38
915.057	4519.38
915.293	4395.38
915.529	4385.38
915.764	4388.38
916	4353.38
916.235	4339.38
916.471	4374.38
916.706	4249.38
916.941	4304.38
917.177	4295.38
917.412	4341.38
917.647	4358.38
917.882	4264.38
918.117	4254.38
918.352	4323.38
918.588	4339.38
918.823	4185.38
919.057	4262.38
919.292	4070.38
919.527	4156.38
919.762	4085.38
919.997	4073.38
920.232	3995.38
920.466	3995.38
920.701	3894.38
920.935	3930.38
921.17	3865.38
921.405	3804.38
921.639	3901.38
921.873	3816.38
922.108	3845.38
922.342	3837.38
922.576	3780.38
922.811	3753.38
923.045	3793.38
923.279	3795.38
923.513	3669.38
923.747	3754.38
923.981	3687.38
924.215	3654.38
924.449	3679.38
924.683	3587.38
924.917	3590.38
925.151	3584.38
925.385	3627.38
925.618	3580.38
925.852	3563.38
926.086	3493.38
926.319	3559.38
926.553	3554.38
926.786	3524.38
927.02	3493.38
927.253	3525.38
927.486	3537.38
927.72	3444.38
927.953	3540.38
928.186	3463.38
928.42	3477.38
928.653	3451.38
928.886	3408.38
929.119	3485.38
929.352	3463.38
929.585	3389.38
929.818	3366.38
930.051	3380.38
930.284	3365.38
930.516	3262.38
930.749	3265.38
930.982	3297.38
931.215	3256.38
931.447	3149.38
931.68	3243.38
931.912	3229.38
932.145	3187.38
932.377	3226.38
932.61	3406.38
932.842	3124.38
933.074	3224.38
933.307	3189.38
933.539	3211.38
933.771	3256.38
934.003	3169.38
934.236	3238.38
934.468	3242.38
934.7	3193.38
934.932	3207.38
935.164	3128.38
935.395	3129.38
935.627	3175.38
935.859	3155.38
936.091	3072.38
936.323	3125.38
936.554	3159.38
936.786	3138.38
937.017	3049.38
937.249	3061.38
937.481	2995.38
937.712	3079.38
937.943	3032.38
938.175	3033.38
938.406	3005.38
938.637	3066.38
938.869	2975.38
939.1	3057.38
939.331	2981.38
939.562	2984.38
939.793	3010.38
940.024	2994.38
940.255	3007.38
940.486	2955.38
940.717	2962.38
940.948	2911.38
941.179	2869.38
941.409	2949.38
941.64	2853.38
941.871	2907.38
942.102	2879.38
942.332	2905.38
942.563	2927.38
942.793	2909.38
943.024	2838.38
943.254	2877.38
943.484	2861.38
943.715	2945.38
943.945	2901.38
944.175	2858.38
944.405	2771.38
944.636	2817.38
944.866	2875.38
945.096	2850.38
945.326	2825.38
945.556	2854.38
945.786	2840.38
946.016	2785.38
946.245	2746.38
946.475	2755.38
946.705	2719.38
946.935	2766.38
947.164	2739.38
947.394	2717.38
947.624	2718.38
947.853	2750.38
948.083	2681.38
948.312	2648.38
948.542	2626.38
948.771	2588.38
949	2573.38
949.23	2631.38
949.459	2614.38
949.688	2680.38
949.917	2614.38
950.146	2612.38
950.375	2669.38
950.604	2539.38
950.833	2649.38
951.062	2621.38
951.291	2569.38
951.52	2543.38
951.749	2600.38
951.978	2542.38
952.206	2525.38
952.435	2533.38
952.664	2564.38
952.892	2589.38
953.121	2526.38
953.349	2566.38
953.578	2518.38
953.806	2520.38
954.035	2475.38
954.263	2514.38
954.491	2456.38
954.719	2483.38
954.948	2447.38
955.176	2412.38
955.404	2355.38
955.632	2438.38
955.86	2415.38
956.088	2376.38
956.316	2442.38
956.544	2398.38
956.772	2351.38
956.999	2356.38
957.227	2433.38
957.455	2327.38
957.683	2337.38
957.91	2296.38
958.138	2305.38
958.365	2302.38
958.593	2269.38
958.82	2222.38
959.048	2296.38
959.275	2264.38
959.502	2261.38
959.73	2222.38
959.957	2253.38
960.184	2243.38
960.411	2215.38
960.638	2287.38
960.865	2237.38
961.092	2244.38
961.319	2142.38
961.546	2255.38
961.773	2255.38
962	2217.38
962.227	2282.38
962.454	2204.38
962.68	2231.38
962.907	2235.38
963.134	2175.38
963.36	2192.38
963.587	2172.38
963.813	2127.38
964.04	2206.38
964.266	2109.38
964.493	2172.38
964.719	2136.38
964.945	2185.38
965.171	2046.38
965.398	2107.38
965.624	2115.38
965.85	2054.38
966.076	2051.38
966.302	2078.38
966.528	2053.38
966.754	2096.38
966.98	2069.38
967.206	2071.38
967.431	1983.38
967.657	2067.38
967.883	2054.38
968.109	2058.38
968.334	1963.38
968.56	1976.38
968.785	2003.38
969.011	1949.38
969.236	2019.38
969.462	1950.38
969.687	1955.38
969.912	2018.38
970.138	1997.38
970.363	1926.38
970.588	1950.38
970.813	1956.38
971.038	1897.38
971.263	1929.38
971.488	1925.38
971.713	1988.38
971.938	1933.38
972.163	1865.38
972.388	1886.38
972.613	1859.38
972.838	1876.38
973.062	1862.38
973.287	1866.38
973.512	1814.38
973.736	1822.38
973.961	1822.38
974.185	1795.38
974.41	1826.38
974.634	1747.38
974.858	1764.38
975.083	1813.38
975.307	1794.38
975.531	1734.38
975.755	1700.38
975.98	1733.38
976.204	1682.38
976.428	1696.38
976.652	1669.38
976.876	1663.38
977.1	1712.38
977.324	1683.38
977.547	1723.38
977.771	1721.38
977.995	1693.38
978.219	1657.38
978.442	1715.38
978.666	1662.38
978.89	1704.38
979.113	1654.38
979.337	1660.38
979.56	1620.38
979.783	1699.38
980.007	1593.38
980.23	1642.38
980.453	1579.38
980.677	1656.38
980.9	1650.38
981.123	1537.38
981.346	1645.38
981.569	1605.38
981.792	1665.38
982.015	1598.38
982.238	1561.38
982.461	1597.38
982.684	1538.38
982.907	1507.38
983.129	1504.38
983.352	1555.38
983.575	1538.38
983.797	1544.38
984.02	1493.38
984.242	1525.38
984.465	1498.38
984.687	1532.38
984.91	1535.38
985.132	1558.38
985.354	1552.38
985.577	1509.38
985.799	1515.38
986.021	1457.38
986.243	1461.38
986.465	1474.38
986.687	1522.38
986.909	1563.38
987.131	1494.38
987.353	1465.38
987.575	1509.38
987.797	1451.38
988.019	1395.38
988.241	1485.38
988.462	1418.38
988.684	1477.38
988.906	1514.38
989.127	1546.38
989.349	1413.38
989.57	1446.38
989.792	1472.38
990.013	1494.38
990.234	1482.38
990.456	1530.38
990.677	1509.38
990.898	1438.38
991.119	1429.38
991.341	1473.38
991.562	1397.38
991.783	1441.38
992.004	1355.38
992.225	1369.38
992.446	1420.38
992.667	1321.38
992.887	1439.38
993.108	1305.38
993.329	1421.38
993.55	1402.38
993.77	1313.38
993.991	1343.38
994.212	1397.38
994.432	1380.38
994.653	1372.38
994.873	1359.38
995.093	1270.38
995.314	1289.38
995.534	1337.38
995.754	1411.38
995.975	1406.38
996.195	1303.38
996.415	1355.38
996.635	1332.38
996.855	1337.38
997.075	1323.38
997.295	1316.38
997.515	1302.38
997.735	1340.38
997.955	1315.38
998.174	1311.38
998.394	1284.38
998.614	1329.38
998.834	1270.38
999.053	1356.38
999.273	1345.38
999.492	1373.38
999.712	1331.38
999.931	1284.38
1000.151	1343.38
1000.37	1302.38
1000.589	1357.38
1000.809	1297.38
1001.028	1386.38
1001.247	1344.38
1001.466	1208.38
1001.685	1372.38
1001.904	1295.38
1002.123	1307.38
1002.342	1299.38
1002.561	1261.38
1002.78	1287.38
1002.999	1359.38
1003.218	1299.38
1003.436	1274.38
1003.655	1310.38
1003.874	1259.38
1004.092	1296.38
1004.311	1302.38
1004.53	1284.38
1004.748	1336.38
1004.966	1273.38
1005.185	1320.38
1005.403	1322.38
1005.622	1307.38
1005.84	1352.38
1006.058	1274.38
1006.276	1299.38
1006.494	1790.38
1006.712	1276.38
1006.931	1341.38
1007.149	1285.38
1007.367	1268.38
1007.584	1317.38
1007.802	1363.38
1008.02	1292.38
1008.238	1401.38
1008.456	1378.38
1008.673	1258.38
1008.891	1361.38
1009.109	1314.38
1009.326	1352.38
1009.544	1474.38
1009.761	1351.38
1009.979	1471.38
1010.196	1485.38
1010.413	1595.38
1010.631	1621.38
1010.848	1666.38
1011.065	1657.38
1011.282	1596.38
1011.5	1535.38
1011.717	1638.38
1011.934	1571.38
1012.151	1609.38
1012.368	1605.38
1012.585	1537.38
1012.801	1610.38
1013.018	1568.38
1013.235	1536.38
1013.452	1571.38
1013.669	1568.38
1013.885	1544.38
1014.102	1588.38
1014.318	1553.38
1014.535	1517.38
1014.751	1539.38
1014.968	1534.38
1015.184	1553.38
1015.401	1476.38
1015.617	1520.38
1015.833	1448.38
1016.049	1480.38
1016.266	1436.38
1016.482	1443.38
1016.698	1362.38
1016.914	1448.38
1017.13	1354.38
1017.346	1366.38
1017.562	1414.38
1017.778	1337.38
1017.993	1320.38
1018.209	1387.38
1018.425	1350.38
1018.641	1305.38
1018.856	1282.38
1019.072	1292.38
1019.288	1373.38
1019.503	1321.38
1019.719	1244.38
1019.934	1246.38
1020.149	1352.38
1020.365	1290.38
1020.58	1223.38
1020.795	1276.38
1021.011	1205.38
1021.226	1193.38
1021.441	1224.38
1021.656	1108.38
1021.871	1079.38
1022.086	1105.38
1022.301	1058.38
1022.516	1064.38
1022.731	1140.38
1022.946	1043.38
1023.16	1015.38
1023.375	1019.38
1023.59	987.38
1023.804	946.38
1024.019	1041.38
1024.234	904.38
1024.448	938.38
1024.663	872.38
1024.877	907.38
1025.092	913.38
1025.306	929.38
1025.52	818.38
1025.734	922.38
1025.949	836.38
1026.163	805.38
1026.377	761.38
1026.591	807.38
1026.805	743.38
1027.019	738.38
1027.233	716.38
1027.447	665.38
1027.661	759.38
1027.875	699.38
1028.088	709.38
1028.302	650.38
1028.516	630.38
1028.73	640.38
1028.943	625.38
1029.157	591.38
1029.37	546.38
1029.584	-1.62
1029.797	-4.62
1030.011	-0.62
1030.224	-1.62
