Data from QEP037381__120__11-40-55-597.txt Node

Date: Wed Dec 21 11:40:55 EST 2022
User: dcclab
Spectrometer: QEP03738
Trigger mode: 4
Integration Time (sec): 1.000000E1
Scans to average: 1
Electric dark correction enabled: true
Nonlinearity correction enabled: false
Boxcar width: 0
XAxis mode: Wavelengths
Number of Pixels in Spectrum: 1044
>>>>>Begin Spectral Data<<<<<
784.041	15.5
784.3	0.5
784.558	-4.5
784.817	-5.5
785.075	40421.5
785.334	8143.5
785.592	4231.5
785.851	3044.5
786.109	2319.5
786.368	1851.5
786.626	1508.5
786.884	1290.5
787.143	1116.5
787.401	899.5
787.659	876.5
787.917	756.5
788.175	709.5
788.433	630.5
788.691	584.5
788.949	560.5
789.207	562.5
789.465	474.5
789.723	475.5
789.98	421.5
790.238	481.5
790.496	446.5
790.753	434.5
791.011	503.5
791.268	424.5
791.526	423.5
791.783	434.5
792.041	429.5
792.298	337.5
792.556	415.5
792.813	397.5
793.07	380.5
793.327	371.5
793.584	451.5
793.841	382.5
794.099	392.5
794.356	452.5
794.613	364.5
794.869	397.5
795.126	355.5
795.383	345.5
795.64	379.5
795.897	337.5
796.153	382.5
796.41	372.5
796.667	351.5
796.923	354.5
797.18	346.5
797.436	386.5
797.693	350.5
797.949	395.5
798.206	414.5
798.462	341.5
798.718	386.5
798.974	360.5
799.231	403.5
799.487	388.5
799.743	392.5
799.999	414.5
800.255	408.5
800.511	371.5
800.767	424.5
801.023	396.5
801.279	417.5
801.534	425.5
801.79	467.5
802.046	465.5
802.302	537.5
802.557	581.5
802.813	681.5
803.068	755.5
803.324	994.5
803.579	1241.5
803.835	1681.5
804.09	2234.5
804.345	2840.5
804.601	3463.5
804.856	4237.5
805.111	4870.5
805.366	5342.5
805.621	5661.5
805.876	5872.5
806.131	6119.5
806.386	6095.5
806.641	6251.5
806.896	6312.5
807.151	6488.5
807.406	6559.5
807.661	6616.5
807.915	6790.5
808.17	6847.5
808.425	6975.5
808.679	7019.5
808.934	7137.5
809.188	7170.5
809.443	7225.5
809.697	7359.5
809.951	7352.5
810.206	7477.5
810.46	7521.5
810.714	7593.5
810.968	7647.5
811.223	7662.5
811.477	7773.5
811.731	7882.5
811.985	7784.5
812.239	7842.5
812.493	7877.5
812.747	7897.5
813	7884.5
813.254	8006.5
813.508	8033.5
813.762	8095.5
814.015	8018.5
814.269	8176.5
814.522	8236.5
814.776	8289.5
815.03	8405.5
815.283	8452.5
815.536	8633.5
815.79	8778.5
816.043	8893.5
816.296	8998.5
816.55	9083.5
816.803	9162.5
817.056	9354.5
817.309	9355.5
817.562	9438.5
817.815	9644.5
818.068	9655.5
818.321	9804.5
818.574	9844.5
818.827	10010.5
819.079	10146.5
819.332	10380.5
819.585	10487.5
819.838	10492.5
820.09	10455.5
820.343	10598.5
820.595	10627.5
820.848	10726.5
821.1	10823.5
821.353	10735.5
821.605	10667.5
821.857	10761.5
822.11	10570.5
822.362	10673.5
822.614	10558.5
822.866	10622.5
823.118	10526.5
823.37	10736.5
823.622	10714.5
823.874	10652.5
824.126	10790.5
824.378	10752.5
824.63	10846.5
824.882	10802.5
825.134	10799.5
825.385	10748.5
825.637	10762.5
825.888	10704.5
826.14	10696.5
826.392	10701.5
826.643	10553.5
826.895	10510.5
827.146	10467.5
827.397	10431.5
827.649	10471.5
827.9	10354.5
828.151	10400.5
828.402	10398.5
828.653	10535.5
828.905	10525.5
829.156	10573.5
829.407	10523.5
829.658	10545.5
829.909	10542.5
830.159	10536.5
830.41	10579.5
830.661	10466.5
830.912	10367.5
831.162	10333.5
831.413	10254.5
831.664	10378.5
831.914	10239.5
832.165	10227.5
832.415	10359.5
832.666	10254.5
832.916	10277.5
833.167	10263.5
833.417	10256.5
833.667	10253.5
833.917	10175.5
834.168	10235.5
834.418	10203.5
834.668	10079.5
834.918	9989.5
835.168	10004.5
835.418	9886.5
835.668	9958.5
835.918	9972.5
836.167	9833.5
836.417	9853.5
836.667	9888.5
836.917	9908.5
837.166	9791.5
837.416	9858.5
837.666	9828.5
837.915	9752.5
838.165	9816.5
838.414	9767.5
838.663	9625.5
838.913	9795.5
839.162	9725.5
839.411	9761.5
839.661	9708.5
839.91	9653.5
840.159	9684.5
840.408	9726.5
840.657	9655.5
840.906	9655.5
841.155	9715.5
841.404	9658.5
841.653	9693.5
841.902	9603.5
842.15	9714.5
842.399	9709.5
842.648	9654.5
842.897	9635.5
843.145	9542.5
843.394	9411.5
843.642	9377.5
843.891	9411.5
844.139	9359.5
844.388	9209.5
844.636	9244.5
844.884	9192.5
845.133	9161.5
845.381	9139.5
845.629	9172.5
845.877	9098.5
846.125	9161.5
846.373	9186.5
846.621	9085.5
846.869	9042.5
847.117	9048.5
847.365	9017.5
847.613	8924.5
847.861	8967.5
848.108	9021.5
848.356	8931.5
848.604	8887.5
848.851	8843.5
849.099	8925.5
849.346	8859.5
849.594	9030.5
849.841	9107.5
850.089	9134.5
850.336	9201.5
850.583	9281.5
850.831	9192.5
851.078	9143.5
851.325	9047.5
851.572	9052.5
851.819	8848.5
852.066	8659.5
852.313	8632.5
852.56	8512.5
852.807	8450.5
853.054	8432.5
853.301	8489.5
853.548	8507.5
853.794	8551.5
854.041	8548.5
854.288	8559.5
854.534	8592.5
854.781	8682.5
855.028	8543.5
855.274	8631.5
855.52	8540.5
855.767	8509.5
856.013	8567.5
856.26	8828.5
856.506	8423.5
856.752	8414.5
856.998	8471.5
857.244	8436.5
857.49	8560.5
857.736	8533.5
857.982	8565.5
858.228	8498.5
858.474	8373.5
858.72	8318.5
858.966	8263.5
859.212	8194.5
859.458	8115.5
859.703	8040.5
859.949	7880.5
860.195	7943.5
860.44	7900.5
860.686	7834.5
860.931	7850.5
861.177	7745.5
861.422	7803.5
861.667	7690.5
861.913	7684.5
862.158	7727.5
862.403	7744.5
862.648	7738.5
862.893	7812.5
863.138	7750.5
863.384	7757.5
863.629	7694.5
863.873	7755.5
864.118	7681.5
864.363	7564.5
864.608	7671.5
864.853	7572.5
865.098	7544.5
865.342	7518.5
865.587	7472.5
865.832	7483.5
866.076	7444.5
866.321	7389.5
866.565	7421.5
866.81	7363.5
867.054	7369.5
867.298	7332.5
867.543	7321.5
867.787	7393.5
868.031	7290.5
868.275	7314.5
868.519	7275.5
868.764	7298.5
869.008	7240.5
869.252	7330.5
869.496	7260.5
869.739	7223.5
869.983	7280.5
870.227	7316.5
870.471	7251.5
870.715	7363.5
870.958	7324.5
871.202	7304.5
871.446	7315.5
871.689	7293.5
871.933	7304.5
872.176	7364.5
872.42	7302.5
872.663	7258.5
872.906	7296.5
873.15	7288.5
873.393	7205.5
873.636	7311.5
873.879	7210.5
874.122	7108.5
874.366	6989.5
874.609	6909.5
874.852	6873.5
875.095	6824.5
875.337	6703.5
875.58	6778.5
875.823	6794.5
876.066	6735.5
876.309	6733.5
876.551	6605.5
876.794	6572.5
877.037	6623.5
877.279	6547.5
877.522	6551.5
877.764	6598.5
878.007	6566.5
878.249	6592.5
878.491	6539.5
878.734	6556.5
878.976	6501.5
879.218	6479.5
879.46	6470.5
879.702	6454.5
879.945	6386.5
880.187	6280.5
880.429	6273.5
880.671	6246.5
880.912	6229.5
881.154	6193.5
881.396	6094.5
881.638	6200.5
881.88	6203.5
882.121	6128.5
882.363	6068.5
882.605	6191.5
882.846	6138.5
883.088	6195.5
883.329	6137.5
883.571	6165.5
883.812	6267.5
884.053	6400.5
884.295	6539.5
884.536	6632.5
884.777	6540.5
885.018	6448.5
885.259	6434.5
885.5	6356.5
885.742	6597.5
885.982	6432.5
886.223	6276.5
886.464	6215.5
886.705	6128.5
886.946	6123.5
887.187	6048.5
887.428	5949.5
887.668	5896.5
887.909	5790.5
888.15	5697.5
888.39	5736.5
888.631	5699.5
888.871	5625.5
889.111	5638.5
889.352	5500.5
889.592	5448.5
889.833	5415.5
890.073	5456.5
890.313	5474.5
890.553	5310.5
890.793	5331.5
891.033	5263.5
891.273	5238.5
891.513	5308.5
891.753	5318.5
891.993	5270.5
892.233	5296.5
892.473	5384.5
892.713	5337.5
892.952	5257.5
893.192	5280.5
893.432	5274.5
893.671	5280.5
893.911	5245.5
894.15	5198.5
894.39	5173.5
894.629	5164.5
894.869	5137.5
895.108	5118.5
895.347	5092.5
895.587	5121.5
895.826	5069.5
896.065	5005.5
896.304	5038.5
896.543	5149.5
896.782	5021.5
897.021	5058.5
897.26	5004.5
897.499	5094.5
897.738	5069.5
897.977	5017.5
898.216	4968.5
898.454	4972.5
898.693	4949.5
898.932	4957.5
899.17	4910.5
899.409	4934.5
899.647	4877.5
899.886	4881.5
900.124	4857.5
900.363	4889.5
900.601	4915.5
900.839	4938.5
901.078	4917.5
901.316	4928.5
901.554	5011.5
901.792	4998.5
902.03	4971.5
902.268	4980.5
902.506	5007.5
902.744	4905.5
902.982	4880.5
903.22	4788.5
903.458	4757.5
903.695	4665.5
903.933	4600.5
904.171	4494.5
904.409	4443.5
904.646	4409.5
904.884	4335.5
905.121	4312.5
905.359	4261.5
905.596	4215.5
905.833	4123.5
906.071	4179.5
906.308	4159.5
906.545	4093.5
906.783	4087.5
907.02	4065.5
907.257	3988.5
907.494	4081.5
907.731	4083.5
907.968	4074.5
908.205	3967.5
908.442	3948.5
908.679	3948.5
908.915	3919.5
909.152	3907.5
909.389	3790.5
909.626	3783.5
909.862	3756.5
910.099	3762.5
910.335	3821.5
910.572	3694.5
910.808	3724.5
911.045	3699.5
911.281	3649.5
911.518	3745.5
911.754	3644.5
911.99	3657.5
912.226	3599.5
912.463	3550.5
912.699	3594.5
912.935	3554.5
913.171	3525.5
913.407	3455.5
913.643	3476.5
913.879	3483.5
914.114	3417.5
914.35	3284.5
914.586	3404.5
914.822	3329.5
915.057	3370.5
915.293	3228.5
915.529	3229.5
915.764	3315.5
916	3316.5
916.235	3273.5
916.471	3288.5
916.706	3201.5
916.941	3231.5
917.177	3229.5
917.412	3255.5
917.647	3244.5
917.882	3169.5
918.117	3231.5
918.352	3206.5
918.588	3262.5
918.823	3171.5
919.057	3116.5
919.292	3056.5
919.527	3168.5
919.762	3076.5
919.997	3085.5
920.232	2997.5
920.466	3007.5
920.701	2893.5
920.935	2948.5
921.17	2927.5
921.405	2905.5
921.639	2935.5
921.873	2917.5
922.108	2903.5
922.342	2890.5
922.576	2854.5
922.811	2869.5
923.045	2885.5
923.279	2929.5
923.513	2750.5
923.747	2861.5
923.981	2824.5
924.215	2749.5
924.449	2736.5
924.683	2712.5
924.917	2718.5
925.151	2710.5
925.385	2757.5
925.618	2732.5
925.852	2699.5
926.086	2650.5
926.319	2719.5
926.553	2690.5
926.786	2725.5
927.02	2688.5
927.253	2746.5
927.486	2748.5
927.72	2636.5
927.953	2729.5
928.186	2644.5
928.42	2672.5
928.653	2620.5
928.886	2611.5
929.119	2579.5
929.352	2618.5
929.585	2585.5
929.818	2528.5
930.051	2562.5
930.284	2584.5
930.516	2461.5
930.749	2511.5
930.982	2521.5
931.215	2522.5
931.447	2442.5
931.68	2448.5
931.912	2444.5
932.145	2451.5
932.377	2480.5
932.61	2598.5
932.842	2410.5
933.074	2448.5
933.307	2403.5
933.539	2503.5
933.771	2509.5
934.003	2396.5
934.236	2522.5
934.468	2539.5
934.7	2434.5
934.932	2468.5
935.164	2392.5
935.395	2405.5
935.627	2434.5
935.859	2390.5
936.091	2370.5
936.323	2407.5
936.554	2434.5
936.786	2387.5
937.017	2332.5
937.249	2383.5
937.481	2300.5
937.712	2348.5
937.943	2354.5
938.175	2297.5
938.406	2306.5
938.637	2414.5
938.869	2265.5
939.1	2346.5
939.331	2327.5
939.562	2342.5
939.793	2327.5
940.024	2335.5
940.255	2318.5
940.486	2287.5
940.717	2261.5
940.948	2272.5
941.179	2226.5
941.409	2248.5
941.64	2232.5
941.871	2262.5
942.102	2233.5
942.332	2237.5
942.563	2245.5
942.793	2229.5
943.024	2177.5
943.254	2253.5
943.484	2233.5
943.715	2240.5
943.945	2236.5
944.175	2175.5
944.405	2139.5
944.636	2187.5
944.866	2220.5
945.096	2226.5
945.326	2165.5
945.556	2212.5
945.786	2225.5
946.016	2211.5
946.245	2107.5
946.475	2139.5
946.705	2100.5
946.935	2112.5
947.164	2131.5
947.394	2063.5
947.624	2089.5
947.853	2109.5
948.083	2129.5
948.312	2063.5
948.542	2027.5
948.771	2007.5
949	2027.5
949.23	2039.5
949.459	2072.5
949.688	2102.5
949.917	2038.5
950.146	2057.5
950.375	2078.5
950.604	2000.5
950.833	2079.5
951.062	2087.5
951.291	2003.5
951.52	1998.5
951.749	2019.5
951.978	1926.5
952.206	1946.5
952.435	1990.5
952.664	1996.5
952.892	1997.5
953.121	1970.5
953.349	2034.5
953.578	1993.5
953.806	1960.5
954.035	1908.5
954.263	1948.5
954.491	1880.5
954.719	1941.5
954.948	1869.5
955.176	1867.5
955.404	1807.5
955.632	1891.5
955.86	1888.5
956.088	1894.5
956.316	1864.5
956.544	1905.5
956.772	1855.5
956.999	1840.5
957.227	1924.5
957.455	1803.5
957.683	1821.5
957.91	1777.5
958.138	1755.5
958.365	1810.5
958.593	1784.5
958.82	1736.5
959.048	1804.5
959.275	1776.5
959.502	1750.5
959.73	1728.5
959.957	1788.5
960.184	1789.5
960.411	1745.5
960.638	1797.5
960.865	1747.5
961.092	1784.5
961.319	1686.5
961.546	1800.5
961.773	1770.5
962	1758.5
962.227	1768.5
962.454	1733.5
962.68	1732.5
962.907	1739.5
963.134	1715.5
963.36	1729.5
963.587	1746.5
963.813	1667.5
964.04	1746.5
964.266	1643.5
964.493	1780.5
964.719	1713.5
964.945	1713.5
965.171	1620.5
965.398	1683.5
965.624	1675.5
965.85	1617.5
966.076	1603.5
966.302	1654.5
966.528	1600.5
966.754	1662.5
966.98	1645.5
967.206	1631.5
967.431	1568.5
967.657	1678.5
967.883	1627.5
968.109	1599.5
968.334	1583.5
968.56	1575.5
968.785	1588.5
969.011	1520.5
969.236	1599.5
969.462	1563.5
969.687	1550.5
969.912	1629.5
970.138	1604.5
970.363	1533.5
970.588	1560.5
970.813	1537.5
971.038	1502.5
971.263	1543.5
971.488	1559.5
971.713	1582.5
971.938	1567.5
972.163	1454.5
972.388	1513.5
972.613	1498.5
972.838	1494.5
973.062	1492.5
973.287	1484.5
973.512	1403.5
973.736	1451.5
973.961	1443.5
974.185	1460.5
974.41	1495.5
974.634	1390.5
974.858	1411.5
975.083	1451.5
975.307	1473.5
975.531	1394.5
975.755	1359.5
975.98	1393.5
976.204	1332.5
976.428	1343.5
976.652	1341.5
976.876	1334.5
977.1	1378.5
977.324	1329.5
977.547	1414.5
977.771	1391.5
977.995	1356.5
978.219	1291.5
978.442	1430.5
978.666	1360.5
978.89	1346.5
979.113	1360.5
979.337	1325.5
979.56	1339.5
979.783	1403.5
980.007	1305.5
980.23	1330.5
980.453	1311.5
980.677	1355.5
980.9	1309.5
981.123	1239.5
981.346	1330.5
981.569	1312.5
981.792	1341.5
982.015	1299.5
982.238	1252.5
982.461	1282.5
982.684	1266.5
982.907	1248.5
983.129	1233.5
983.352	1280.5
983.575	1270.5
983.797	1288.5
984.02	1235.5
984.242	1255.5
984.465	1243.5
984.687	1256.5
984.91	1323.5
985.132	1278.5
985.354	1297.5
985.577	1254.5
985.799	1259.5
986.021	1164.5
986.243	1214.5
986.465	1193.5
986.687	1276.5
986.909	1297.5
987.131	1254.5
987.353	1217.5
987.575	1234.5
987.797	1204.5
988.019	1141.5
988.241	1235.5
988.462	1157.5
988.684	1234.5
988.906	1258.5
989.127	1261.5
989.349	1179.5
989.57	1216.5
989.792	1232.5
990.013	1232.5
990.234	1263.5
990.456	1285.5
990.677	1255.5
990.898	1188.5
991.119	1196.5
991.341	1222.5
991.562	1149.5
991.783	1223.5
992.004	1139.5
992.225	1123.5
992.446	1172.5
992.667	1120.5
992.887	1189.5
993.108	1101.5
993.329	1231.5
993.55	1153.5
993.77	1108.5
993.991	1132.5
994.212	1171.5
994.432	1145.5
994.653	1166.5
994.873	1154.5
995.093	1041.5
995.314	1098.5
995.534	1150.5
995.754	1193.5
995.975	1197.5
996.195	1069.5
996.415	1136.5
996.635	1135.5
996.855	1156.5
997.075	1101.5
997.295	1123.5
997.515	1099.5
997.735	1140.5
997.955	1127.5
998.174	1090.5
998.394	1101.5
998.614	1141.5
998.834	1085.5
999.053	1157.5
999.273	1143.5
999.492	1182.5
999.712	1105.5
999.931	1091.5
1000.151	1155.5
1000.37	1132.5
1000.589	1161.5
1000.809	1111.5
1001.028	1207.5
1001.247	1187.5
1001.466	1044.5
1001.685	1200.5
1001.904	1137.5
1002.123	1105.5
1002.342	1146.5
1002.561	1099.5
1002.78	1148.5
1002.999	1178.5
1003.218	1128.5
1003.436	1106.5
1003.655	1138.5
1003.874	1110.5
1004.092	1146.5
1004.311	1188.5
1004.53	1136.5
1004.748	1177.5
1004.966	1099.5
1005.185	1184.5
1005.403	1192.5
1005.622	1137.5
1005.84	1230.5
1006.058	1125.5
1006.276	1157.5
1006.494	1637.5
1006.712	1145.5
1006.931	1205.5
1007.149	1125.5
1007.367	1104.5
1007.584	1147.5
1007.802	1210.5
1008.02	1130.5
1008.238	1247.5
1008.456	1242.5
1008.673	1104.5
1008.891	1208.5
1009.109	1162.5
1009.326	1193.5
1009.544	1284.5
1009.761	1203.5
1009.979	1273.5
1010.196	1294.5
1010.413	1357.5
1010.631	1389.5
1010.848	1418.5
1011.065	1422.5
1011.282	1398.5
1011.5	1288.5
1011.717	1409.5
1011.934	1361.5
1012.151	1371.5
1012.368	1377.5
1012.585	1310.5
1012.801	1369.5
1013.018	1322.5
1013.235	1336.5
1013.452	1348.5
1013.669	1346.5
1013.885	1319.5
1014.102	1370.5
1014.318	1322.5
1014.535	1322.5
1014.751	1342.5
1014.968	1330.5
1015.184	1347.5
1015.401	1267.5
1015.617	1299.5
1015.833	1231.5
1016.049	1241.5
1016.266	1244.5
1016.482	1259.5
1016.698	1173.5
1016.914	1241.5
1017.13	1190.5
1017.346	1186.5
1017.562	1262.5
1017.778	1176.5
1017.993	1151.5
1018.209	1193.5
1018.425	1156.5
1018.641	1129.5
1018.856	1145.5
1019.072	1184.5
1019.288	1213.5
1019.503	1131.5
1019.719	1084.5
1019.934	1101.5
1020.149	1169.5
1020.365	1136.5
1020.58	1069.5
1020.795	1122.5
1021.011	1066.5
1021.226	1061.5
1021.441	1068.5
1021.656	1013.5
1021.871	946.5
1022.086	945.5
1022.301	950.5
1022.516	944.5
1022.731	1034.5
1022.946	928.5
1023.16	888.5
1023.375	905.5
1023.59	879.5
1023.804	855.5
1024.019	937.5
1024.234	823.5
1024.448	870.5
1024.663	805.5
1024.877	805.5
1025.092	829.5
1025.306	838.5
1025.52	737.5
1025.734	834.5
1025.949	774.5
1026.163	747.5
1026.377	701.5
1026.591	740.5
1026.805	682.5
1027.019	675.5
1027.233	631.5
1027.447	604.5
1027.661	696.5
1027.875	642.5
1028.088	644.5
1028.302	586.5
1028.516	582.5
1028.73	595.5
1028.943	585.5
1029.157	537.5
1029.37	528.5
1029.584	-0.5
1029.797	-1.5
1030.011	-4.5
1030.224	0.5
