Data from QEP037381__78__11-33-55-596.txt Node

Date: Wed Dec 21 11:33:55 EST 2022
User: dcclab
Spectrometer: QEP03738
Trigger mode: 4
Integration Time (sec): 1.000000E1
Scans to average: 1
Electric dark correction enabled: true
Nonlinearity correction enabled: false
Boxcar width: 0
XAxis mode: Wavelengths
Number of Pixels in Spectrum: 1044
>>>>>Begin Spectral Data<<<<<
784.041	12.12
784.3	-2.88
784.558	-1.88
784.817	-1.88
785.075	40522.12
785.334	8293.12
785.592	4356.12
785.851	3107.12
786.109	2425.12
786.368	1926.12
786.626	1555.12
786.884	1345.12
787.143	1146.12
787.401	925.12
787.659	893.12
787.917	765.12
788.175	735.12
788.433	644.12
788.691	588.12
788.949	556.12
789.207	556.12
789.465	480.12
789.723	477.12
789.98	450.12
790.238	493.12
790.496	458.12
790.753	442.12
791.011	501.12
791.268	437.12
791.526	428.12
791.783	441.12
792.041	447.12
792.298	365.12
792.556	429.12
792.813	411.12
793.07	391.12
793.327	370.12
793.584	447.12
793.841	378.12
794.099	401.12
794.356	466.12
794.613	362.12
794.869	401.12
795.126	361.12
795.383	354.12
795.64	374.12
795.897	333.12
796.153	384.12
796.41	372.12
796.667	360.12
796.923	363.12
797.18	360.12
797.436	384.12
797.693	347.12
797.949	411.12
798.206	424.12
798.462	340.12
798.718	395.12
798.974	373.12
799.231	411.12
799.487	415.12
799.743	406.12
799.999	438.12
800.255	414.12
800.511	395.12
800.767	439.12
801.023	420.12
801.279	435.12
801.534	448.12
801.79	474.12
802.046	482.12
802.302	563.12
802.557	621.12
802.813	731.12
803.068	824.12
803.324	1094.12
803.579	1421.12
803.835	1870.12
804.09	2556.12
804.345	3201.12
804.601	3978.12
804.856	4786.12
805.111	5472.12
805.366	6000.12
805.621	6344.12
805.876	6635.12
806.131	6855.12
806.386	7022.12
806.641	7030.12
806.896	7156.12
807.151	7324.12
807.406	7378.12
807.661	7581.12
807.915	7674.12
808.17	7778.12
808.425	7918.12
808.679	7876.12
808.934	8089.12
809.188	8071.12
809.443	8187.12
809.697	8272.12
809.951	8317.12
810.206	8410.12
810.46	8494.12
810.714	8605.12
810.968	8679.12
811.223	8576.12
811.477	8769.12
811.731	8804.12
811.985	8760.12
812.239	8940.12
812.493	8866.12
812.747	8964.12
813	8861.12
813.254	9015.12
813.508	9071.12
813.762	9035.12
814.015	9113.12
814.269	9194.12
814.522	9211.12
814.776	9356.12
815.03	9430.12
815.283	9560.12
815.536	9781.12
815.79	9792.12
816.043	9937.12
816.296	10083.12
816.55	10184.12
816.803	10256.12
817.056	10504.12
817.309	10559.12
817.562	10659.12
817.815	10777.12
818.068	10826.12
818.321	10902.12
818.574	11053.12
818.827	11227.12
819.079	11293.12
819.332	11541.12
819.585	11634.12
819.838	11839.12
820.09	11829.12
820.343	11946.12
820.595	11934.12
820.848	12040.12
821.1	12013.12
821.353	12086.12
821.605	12071.12
821.857	12067.12
822.11	11866.12
822.362	11878.12
822.614	11844.12
822.866	11892.12
823.118	11808.12
823.37	12028.12
823.622	11963.12
823.874	12066.12
824.126	12059.12
824.378	11993.12
824.63	12147.12
824.882	12053.12
825.134	12079.12
825.385	11983.12
825.637	12020.12
825.888	11945.12
826.14	11985.12
826.392	11888.12
826.643	11797.12
826.895	11842.12
827.146	11729.12
827.397	11666.12
827.649	11735.12
827.9	11684.12
828.151	11613.12
828.402	11721.12
828.653	11741.12
828.905	11749.12
829.156	11785.12
829.407	11762.12
829.658	11773.12
829.909	11869.12
830.159	11837.12
830.41	11831.12
830.661	11744.12
830.912	11579.12
831.162	11519.12
831.413	11592.12
831.664	11535.12
831.914	11521.12
832.165	11522.12
832.415	11540.12
832.666	11525.12
832.916	11566.12
833.167	11555.12
833.417	11550.12
833.667	11386.12
833.917	11422.12
834.168	11478.12
834.418	11334.12
834.668	11335.12
834.918	11198.12
835.168	11268.12
835.418	11049.12
835.668	11087.12
835.918	11161.12
836.167	11158.12
836.417	11028.12
836.667	11090.12
836.917	11014.12
837.166	11117.12
837.416	11077.12
837.666	11075.12
837.915	11032.12
838.165	11003.12
838.414	10914.12
838.663	10896.12
838.913	10970.12
839.162	10859.12
839.411	10892.12
839.661	10901.12
839.91	10892.12
840.159	10846.12
840.408	10863.12
840.657	10844.12
840.906	10823.12
841.155	10837.12
841.404	10720.12
841.653	10835.12
841.902	10862.12
842.15	10862.12
842.399	10908.12
842.648	10857.12
842.897	10859.12
843.145	10755.12
843.394	10652.12
843.642	10558.12
843.891	10576.12
844.139	10415.12
844.388	10353.12
844.636	10245.12
844.884	10297.12
845.133	10339.12
845.381	10293.12
845.629	10331.12
845.877	10278.12
846.125	10268.12
846.373	10263.12
846.621	10221.12
846.869	10179.12
847.117	10160.12
847.365	10013.12
847.613	10086.12
847.861	10037.12
848.108	10098.12
848.356	10057.12
848.604	9957.12
848.851	9983.12
849.099	10045.12
849.346	10048.12
849.594	10117.12
849.841	10156.12
850.089	10221.12
850.336	10303.12
850.583	10301.12
850.831	10350.12
851.078	10172.12
851.325	10101.12
851.572	10109.12
851.819	10044.12
852.066	9802.12
852.313	9672.12
852.56	9531.12
852.807	9520.12
853.054	9431.12
853.301	9536.12
853.548	9447.12
853.794	9567.12
854.041	9578.12
854.288	9573.12
854.534	9775.12
854.781	9728.12
855.028	9592.12
855.274	9750.12
855.52	9653.12
855.767	9622.12
856.013	9757.12
856.26	9934.12
856.506	9550.12
856.752	9488.12
856.998	9506.12
857.244	9507.12
857.49	9563.12
857.736	9568.12
857.982	9571.12
858.228	9594.12
858.474	9416.12
858.72	9338.12
858.966	9245.12
859.212	9190.12
859.458	9111.12
859.703	8999.12
859.949	8924.12
860.195	8869.12
860.44	8864.12
860.686	8846.12
860.931	8835.12
861.177	8694.12
861.422	8679.12
861.667	8563.12
861.913	8597.12
862.158	8622.12
862.403	8687.12
862.648	8624.12
862.893	8718.12
863.138	8605.12
863.384	8562.12
863.629	8674.12
863.873	8633.12
864.118	8572.12
864.363	8526.12
864.608	8625.12
864.853	8513.12
865.098	8488.12
865.342	8436.12
865.587	8391.12
865.832	8364.12
866.076	8385.12
866.321	8335.12
866.565	8315.12
866.81	8251.12
867.054	8261.12
867.298	8177.12
867.543	8216.12
867.787	8187.12
868.031	8210.12
868.275	8217.12
868.519	8116.12
868.764	8196.12
869.008	8151.12
869.252	8166.12
869.496	8014.12
869.739	8143.12
869.983	8160.12
870.227	8141.12
870.471	8125.12
870.715	8145.12
870.958	8186.12
871.202	8214.12
871.446	8249.12
871.689	8179.12
871.933	8262.12
872.176	8231.12
872.42	8127.12
872.663	8187.12
872.906	8261.12
873.15	8177.12
873.393	8206.12
873.636	8231.12
873.879	8084.12
874.122	8035.12
874.366	7868.12
874.609	7807.12
874.852	7715.12
875.095	7646.12
875.337	7663.12
875.58	7537.12
875.823	7568.12
876.066	7492.12
876.309	7564.12
876.551	7444.12
876.794	7396.12
877.037	7411.12
877.279	7331.12
877.522	7359.12
877.764	7415.12
878.007	7300.12
878.249	7392.12
878.491	7285.12
878.734	7298.12
878.976	7262.12
879.218	7249.12
879.46	7248.12
879.702	7203.12
879.945	7128.12
880.187	7009.12
880.429	6967.12
880.671	6935.12
880.912	6923.12
881.154	6902.12
881.396	6818.12
881.638	6944.12
881.88	6846.12
882.121	6849.12
882.363	6884.12
882.605	6914.12
882.846	6893.12
883.088	6884.12
883.329	6874.12
883.571	6919.12
883.812	7092.12
884.053	7267.12
884.295	7425.12
884.536	7586.12
884.777	7497.12
885.018	7372.12
885.259	7313.12
885.5	7250.12
885.742	7441.12
885.982	7257.12
886.223	7119.12
886.464	7097.12
886.705	6932.12
886.946	6899.12
887.187	6698.12
887.428	6716.12
887.668	6561.12
887.909	6393.12
888.15	6336.12
888.39	6330.12
888.631	6292.12
888.871	6253.12
889.111	6254.12
889.352	6152.12
889.592	6024.12
889.833	6070.12
890.073	6007.12
890.313	6045.12
890.553	5855.12
890.793	5961.12
891.033	5840.12
891.273	5849.12
891.513	5851.12
891.753	5867.12
891.993	5792.12
892.233	5842.12
892.473	5898.12
892.713	5859.12
892.952	5775.12
893.192	5835.12
893.432	5805.12
893.671	5831.12
893.911	5784.12
894.15	5774.12
894.39	5706.12
894.629	5697.12
894.869	5652.12
895.108	5647.12
895.347	5603.12
895.587	5599.12
895.826	5594.12
896.065	5582.12
896.304	5607.12
896.543	5611.12
896.782	5525.12
897.021	5543.12
897.26	5598.12
897.499	5648.12
897.738	5586.12
897.977	5527.12
898.216	5468.12
898.454	5407.12
898.693	5362.12
898.932	5423.12
899.17	5389.12
899.409	5351.12
899.647	5437.12
899.886	5358.12
900.124	5415.12
900.363	5413.12
900.601	5431.12
900.839	5472.12
901.078	5437.12
901.316	5474.12
901.554	5517.12
901.792	5590.12
902.03	5526.12
902.268	5537.12
902.506	5538.12
902.744	5458.12
902.982	5460.12
903.22	5277.12
903.458	5212.12
903.695	5151.12
903.933	5105.12
904.171	4943.12
904.409	4891.12
904.646	4892.12
904.884	4747.12
905.121	4755.12
905.359	4593.12
905.596	4608.12
905.833	4601.12
906.071	4591.12
906.308	4570.12
906.545	4559.12
906.783	4463.12
907.02	4505.12
907.257	4435.12
907.494	4444.12
907.731	4434.12
907.968	4455.12
908.205	4418.12
908.442	4348.12
908.679	4332.12
908.915	4318.12
909.152	4295.12
909.389	4131.12
909.626	4195.12
909.862	4121.12
910.099	4135.12
910.335	4166.12
910.572	4077.12
910.808	4066.12
911.045	4040.12
911.281	4010.12
911.518	4108.12
911.754	4026.12
911.99	4015.12
912.226	3979.12
912.463	3945.12
912.699	3908.12
912.935	3883.12
913.171	3909.12
913.407	3828.12
913.643	3849.12
913.879	3764.12
914.114	3738.12
914.35	3699.12
914.586	3681.12
914.822	3620.12
915.057	3750.12
915.293	3528.12
915.529	3601.12
915.764	3606.12
916	3626.12
916.235	3583.12
916.471	3637.12
916.706	3521.12
916.941	3544.12
917.177	3496.12
917.412	3560.12
917.647	3549.12
917.882	3493.12
918.117	3588.12
918.352	3544.12
918.588	3572.12
918.823	3467.12
919.057	3415.12
919.292	3348.12
919.527	3501.12
919.762	3360.12
919.997	3371.12
920.232	3263.12
920.466	3265.12
920.701	3192.12
920.935	3252.12
921.17	3244.12
921.405	3155.12
921.639	3225.12
921.873	3153.12
922.108	3178.12
922.342	3188.12
922.576	3123.12
922.811	3118.12
923.045	3128.12
923.279	3180.12
923.513	3038.12
923.747	3107.12
923.981	3058.12
924.215	3010.12
924.449	3016.12
924.683	2956.12
924.917	2973.12
925.151	2958.12
925.385	3028.12
925.618	2967.12
925.852	2999.12
926.086	2904.12
926.319	2973.12
926.553	2902.12
926.786	2981.12
927.02	2919.12
927.253	2936.12
927.486	2977.12
927.72	2858.12
927.953	2937.12
928.186	2863.12
928.42	2920.12
928.653	2848.12
928.886	2849.12
929.119	2884.12
929.352	2845.12
929.585	2849.12
929.818	2779.12
930.051	2811.12
930.284	2820.12
930.516	2701.12
930.749	2717.12
930.982	2733.12
931.215	2746.12
931.447	2627.12
931.68	2680.12
931.912	2662.12
932.145	2652.12
932.377	2690.12
932.61	2791.12
932.842	2620.12
933.074	2704.12
933.307	2605.12
933.539	2731.12
933.771	2728.12
934.003	2663.12
934.236	2682.12
934.468	2717.12
934.7	2622.12
934.932	2657.12
935.164	2618.12
935.395	2614.12
935.627	2609.12
935.859	2652.12
936.091	2579.12
936.323	2628.12
936.554	2626.12
936.786	2620.12
937.017	2524.12
937.249	2564.12
937.481	2546.12
937.712	2595.12
937.943	2546.12
938.175	2534.12
938.406	2529.12
938.637	2583.12
938.869	2493.12
939.1	2548.12
939.331	2494.12
939.562	2526.12
939.793	2521.12
940.024	2500.12
940.255	2561.12
940.486	2479.12
940.717	2474.12
940.948	2441.12
941.179	2427.12
941.409	2432.12
941.64	2407.12
941.871	2418.12
942.102	2416.12
942.332	2386.12
942.563	2445.12
942.793	2426.12
943.024	2388.12
943.254	2423.12
943.484	2454.12
943.715	2455.12
943.945	2445.12
944.175	2353.12
944.405	2334.12
944.636	2365.12
944.866	2362.12
945.096	2389.12
945.326	2334.12
945.556	2349.12
945.786	2399.12
946.016	2351.12
946.245	2301.12
946.475	2322.12
946.705	2286.12
946.935	2305.12
947.164	2278.12
947.394	2245.12
947.624	2257.12
947.853	2297.12
948.083	2268.12
948.312	2240.12
948.542	2163.12
948.771	2194.12
949	2193.12
949.23	2183.12
949.459	2200.12
949.688	2262.12
949.917	2186.12
950.146	2199.12
950.375	2259.12
950.604	2172.12
950.833	2233.12
951.062	2231.12
951.291	2183.12
951.52	2182.12
951.749	2172.12
951.978	2113.12
952.206	2129.12
952.435	2126.12
952.664	2136.12
952.892	2181.12
953.121	2134.12
953.349	2153.12
953.578	2142.12
953.806	2128.12
954.035	2041.12
954.263	2104.12
954.491	2037.12
954.719	2087.12
954.948	2026.12
955.176	2023.12
955.404	1935.12
955.632	2031.12
955.86	2067.12
956.088	2029.12
956.316	2010.12
956.544	2055.12
956.772	1977.12
956.999	1961.12
957.227	2018.12
957.455	1945.12
957.683	1930.12
957.91	1941.12
958.138	1933.12
958.365	1926.12
958.593	1910.12
958.82	1867.12
959.048	1924.12
959.275	1909.12
959.502	1887.12
959.73	1873.12
959.957	1913.12
960.184	1924.12
960.411	1870.12
960.638	1943.12
960.865	1901.12
961.092	1934.12
961.319	1819.12
961.546	1889.12
961.773	1901.12
962	1866.12
962.227	1922.12
962.454	1866.12
962.68	1840.12
962.907	1887.12
963.134	1825.12
963.36	1828.12
963.587	1873.12
963.813	1811.12
964.04	1853.12
964.266	1745.12
964.493	1889.12
964.719	1808.12
964.945	1824.12
965.171	1738.12
965.398	1756.12
965.624	1796.12
965.85	1728.12
966.076	1766.12
966.302	1787.12
966.528	1697.12
966.754	1801.12
966.98	1774.12
967.206	1743.12
967.431	1681.12
967.657	1755.12
967.883	1751.12
968.109	1740.12
968.334	1706.12
968.56	1663.12
968.785	1679.12
969.011	1651.12
969.236	1699.12
969.462	1643.12
969.687	1680.12
969.912	1692.12
970.138	1721.12
970.363	1677.12
970.588	1683.12
970.813	1667.12
971.038	1607.12
971.263	1670.12
971.488	1655.12
971.713	1685.12
971.938	1668.12
972.163	1586.12
972.388	1595.12
972.613	1580.12
972.838	1610.12
973.062	1595.12
973.287	1594.12
973.512	1548.12
973.736	1564.12
973.961	1567.12
974.185	1527.12
974.41	1584.12
974.634	1482.12
974.858	1494.12
975.083	1537.12
975.307	1542.12
975.531	1486.12
975.755	1471.12
975.98	1464.12
976.204	1436.12
976.428	1430.12
976.652	1429.12
976.876	1430.12
977.1	1467.12
977.324	1423.12
977.547	1483.12
977.771	1459.12
977.995	1459.12
978.219	1353.12
978.442	1513.12
978.666	1444.12
978.89	1435.12
979.113	1452.12
979.337	1426.12
979.56	1401.12
979.783	1481.12
980.007	1378.12
980.23	1406.12
980.453	1366.12
980.677	1421.12
980.9	1424.12
981.123	1293.12
981.346	1407.12
981.569	1388.12
981.792	1417.12
982.015	1367.12
982.238	1332.12
982.461	1379.12
982.684	1325.12
982.907	1314.12
983.129	1312.12
983.352	1387.12
983.575	1358.12
983.797	1349.12
984.02	1311.12
984.242	1296.12
984.465	1317.12
984.687	1356.12
984.91	1371.12
985.132	1344.12
985.354	1367.12
985.577	1342.12
985.799	1315.12
986.021	1228.12
986.243	1292.12
986.465	1293.12
986.687	1351.12
986.909	1372.12
987.131	1338.12
987.353	1267.12
987.575	1297.12
987.797	1276.12
988.019	1215.12
988.241	1284.12
988.462	1255.12
988.684	1306.12
988.906	1330.12
989.127	1335.12
989.349	1233.12
989.57	1264.12
989.792	1306.12
990.013	1331.12
990.234	1324.12
990.456	1342.12
990.677	1313.12
990.898	1246.12
991.119	1274.12
991.341	1309.12
991.562	1227.12
991.783	1250.12
992.004	1220.12
992.225	1191.12
992.446	1277.12
992.667	1167.12
992.887	1248.12
993.108	1159.12
993.329	1302.12
993.55	1237.12
993.77	1166.12
993.991	1190.12
994.212	1218.12
994.432	1193.12
994.653	1217.12
994.873	1235.12
995.093	1117.12
995.314	1151.12
995.534	1216.12
995.754	1246.12
995.975	1269.12
996.195	1164.12
996.415	1237.12
996.635	1189.12
996.855	1228.12
997.075	1180.12
997.295	1187.12
997.515	1180.12
997.735	1203.12
997.955	1190.12
998.174	1186.12
998.394	1170.12
998.614	1226.12
998.834	1162.12
999.053	1237.12
999.273	1212.12
999.492	1238.12
999.712	1203.12
999.931	1176.12
1000.151	1207.12
1000.37	1188.12
1000.589	1238.12
1000.809	1159.12
1001.028	1279.12
1001.247	1194.12
1001.466	1094.12
1001.685	1255.12
1001.904	1212.12
1002.123	1179.12
1002.342	1187.12
1002.561	1142.12
1002.78	1160.12
1002.999	1236.12
1003.218	1175.12
1003.436	1154.12
1003.655	1223.12
1003.874	1149.12
1004.092	1188.12
1004.311	1228.12
1004.53	1200.12
1004.748	1254.12
1004.966	1189.12
1005.185	1225.12
1005.403	1232.12
1005.622	1216.12
1005.84	1314.12
1006.058	1192.12
1006.276	1194.12
1006.494	1701.12
1006.712	1190.12
1006.931	1265.12
1007.149	1178.12
1007.367	1179.12
1007.584	1210.12
1007.802	1255.12
1008.02	1193.12
1008.238	1309.12
1008.456	1305.12
1008.673	1178.12
1008.891	1280.12
1009.109	1255.12
1009.326	1317.12
1009.544	1404.12
1009.761	1305.12
1009.979	1394.12
1010.196	1422.12
1010.413	1537.12
1010.631	1575.12
1010.848	1575.12
1011.065	1621.12
1011.282	1555.12
1011.5	1482.12
1011.717	1592.12
1011.934	1528.12
1012.151	1559.12
1012.368	1552.12
1012.585	1506.12
1012.801	1562.12
1013.018	1512.12
1013.235	1501.12
1013.452	1515.12
1013.669	1517.12
1013.885	1541.12
1014.102	1544.12
1014.318	1514.12
1014.535	1493.12
1014.751	1499.12
1014.968	1467.12
1015.184	1527.12
1015.401	1435.12
1015.617	1457.12
1015.833	1405.12
1016.049	1443.12
1016.266	1397.12
1016.482	1421.12
1016.698	1323.12
1016.914	1396.12
1017.13	1320.12
1017.346	1321.12
1017.562	1375.12
1017.778	1301.12
1017.993	1276.12
1018.209	1312.12
1018.425	1322.12
1018.641	1287.12
1018.856	1277.12
1019.072	1299.12
1019.288	1322.12
1019.503	1298.12
1019.719	1207.12
1019.934	1202.12
1020.149	1276.12
1020.365	1237.12
1020.58	1180.12
1020.795	1231.12
1021.011	1153.12
1021.226	1149.12
1021.441	1189.12
1021.656	1100.12
1021.871	1046.12
1022.086	1027.12
1022.301	1043.12
1022.516	1024.12
1022.731	1095.12
1022.946	996.12
1023.16	984.12
1023.375	964.12
1023.59	943.12
1023.804	894.12
1024.019	1009.12
1024.234	877.12
1024.448	910.12
1024.663	854.12
1024.877	856.12
1025.092	890.12
1025.306	892.12
1025.52	804.12
1025.734	892.12
1025.949	825.12
1026.163	787.12
1026.377	728.12
1026.591	799.12
1026.805	710.12
1027.019	720.12
1027.233	677.12
1027.447	630.12
1027.661	730.12
1027.875	676.12
1028.088	671.12
1028.302	616.12
1028.516	622.12
1028.73	627.12
1028.943	603.12
1029.157	576.12
1029.37	528.12
1029.584	-3.88
1029.797	-1.88
1030.011	0.12
1030.224	0.12
