Data from QEP037381__46__11-28-35-594.txt Node

Date: Wed Dec 21 11:28:35 EST 2022
User: dcclab
Spectrometer: QEP03738
Trigger mode: 4
Integration Time (sec): 1.000000E1
Scans to average: 1
Electric dark correction enabled: true
Nonlinearity correction enabled: false
Boxcar width: 0
XAxis mode: Wavelengths
Number of Pixels in Spectrum: 1044
>>>>>Begin Spectral Data<<<<<
784.041	11.5
784.3	-0.5
784.558	-3.5
784.817	-1.5
785.075	37760.5
785.334	7877.5
785.592	4205.5
785.851	2992.5
786.109	2333.5
786.368	1812.5
786.626	1507.5
786.884	1294.5
787.143	1088.5
787.401	907.5
787.659	859.5
787.917	748.5
788.175	709.5
788.433	641.5
788.691	593.5
788.949	561.5
789.207	543.5
789.465	465.5
789.723	475.5
789.98	456.5
790.238	487.5
790.496	464.5
790.753	453.5
791.011	488.5
791.268	430.5
791.526	434.5
791.783	449.5
792.041	426.5
792.298	371.5
792.556	424.5
792.813	402.5
793.07	392.5
793.327	385.5
793.584	467.5
793.841	382.5
794.099	407.5
794.356	465.5
794.613	367.5
794.869	411.5
795.126	363.5
795.383	363.5
795.64	379.5
795.897	336.5
796.153	378.5
796.41	379.5
796.667	378.5
796.923	381.5
797.18	375.5
797.436	402.5
797.693	358.5
797.949	411.5
798.206	454.5
798.462	356.5
798.718	420.5
798.974	390.5
799.231	432.5
799.487	409.5
799.743	408.5
799.999	458.5
800.255	437.5
800.511	427.5
800.767	476.5
801.023	453.5
801.279	470.5
801.534	493.5
801.79	547.5
802.046	539.5
802.302	662.5
802.557	724.5
802.813	879.5
803.068	1031.5
803.324	1409.5
803.579	1892.5
803.835	2512.5
804.09	3414.5
804.345	4377.5
804.601	5456.5
804.856	6607.5
805.111	7686.5
805.366	8380.5
805.621	8977.5
805.876	9449.5
806.131	9667.5
806.386	9853.5
806.641	10030.5
806.896	10174.5
807.151	10510.5
807.406	10525.5
807.661	10767.5
807.915	11011.5
808.17	11102.5
808.425	11273.5
808.679	11334.5
808.934	11462.5
809.188	11565.5
809.443	11743.5
809.697	11831.5
809.951	11990.5
810.206	12014.5
810.46	12194.5
810.714	12309.5
810.968	12411.5
811.223	12428.5
811.477	12498.5
811.731	12697.5
811.985	12738.5
812.239	12777.5
812.493	12868.5
812.747	12932.5
813	12889.5
813.254	13010.5
813.508	13104.5
813.762	13131.5
814.015	13204.5
814.269	13259.5
814.522	13496.5
814.776	13593.5
815.03	13769.5
815.283	14014.5
815.536	14180.5
815.79	14451.5
816.043	14551.5
816.296	14769.5
816.55	14947.5
816.803	15153.5
817.056	15367.5
817.309	15423.5
817.562	15661.5
817.815	15771.5
818.068	15793.5
818.321	16096.5
818.574	16235.5
818.827	16465.5
819.079	16591.5
819.332	17029.5
819.585	17097.5
819.838	17332.5
820.09	17413.5
820.343	17553.5
820.595	17611.5
820.848	17749.5
821.1	17755.5
821.353	17808.5
821.605	17820.5
821.857	17864.5
822.11	17697.5
822.362	17697.5
822.614	17524.5
822.866	17566.5
823.118	17511.5
823.37	17653.5
823.622	17689.5
823.874	17787.5
824.126	17921.5
824.378	17837.5
824.63	17935.5
824.882	17924.5
825.134	17905.5
825.385	17933.5
825.637	17815.5
825.888	17744.5
826.14	17727.5
826.392	17591.5
826.643	17569.5
826.895	17576.5
827.146	17503.5
827.397	17402.5
827.649	17545.5
827.9	17453.5
828.151	17430.5
828.402	17485.5
828.653	17537.5
828.905	17515.5
829.156	17648.5
829.407	17646.5
829.658	17607.5
829.909	17693.5
830.159	17807.5
830.41	17634.5
830.661	17531.5
830.912	17357.5
831.162	17157.5
831.413	17279.5
831.664	17251.5
831.914	17171.5
832.165	17147.5
832.415	17200.5
832.666	17121.5
832.916	17256.5
833.167	17202.5
833.417	17127.5
833.667	17172.5
833.917	17054.5
834.168	17089.5
834.418	17066.5
834.668	16883.5
834.918	16821.5
835.168	16842.5
835.418	16698.5
835.668	16712.5
835.918	16573.5
836.167	16631.5
836.417	16526.5
836.667	16514.5
836.917	16564.5
837.166	16590.5
837.416	16539.5
837.666	16499.5
837.915	16470.5
838.165	16526.5
838.414	16452.5
838.663	16340.5
838.913	16476.5
839.162	16293.5
839.411	16390.5
839.661	16263.5
839.91	16200.5
840.159	16192.5
840.408	16261.5
840.657	16156.5
840.906	16232.5
841.155	16265.5
841.404	16163.5
841.653	16299.5
841.902	16198.5
842.15	16194.5
842.399	16259.5
842.648	16321.5
842.897	16247.5
843.145	16000.5
843.394	15902.5
843.642	15882.5
843.891	15818.5
844.139	15703.5
844.388	15590.5
844.636	15510.5
844.884	15522.5
845.133	15513.5
845.381	15486.5
845.629	15524.5
845.877	15538.5
846.125	15356.5
846.373	15465.5
846.621	15436.5
846.869	15333.5
847.117	15245.5
847.365	15169.5
847.613	15040.5
847.861	15011.5
848.108	15138.5
848.356	15011.5
848.604	14874.5
848.851	14942.5
849.099	15072.5
849.346	15077.5
849.594	15156.5
849.841	15248.5
850.089	15297.5
850.336	15331.5
850.583	15500.5
850.831	15348.5
851.078	15167.5
851.325	15192.5
851.572	15076.5
851.819	14850.5
852.066	14480.5
852.313	14506.5
852.56	14242.5
852.807	14188.5
853.054	14229.5
853.301	14192.5
853.548	14258.5
853.794	14281.5
854.041	14343.5
854.288	14359.5
854.534	14559.5
854.781	14541.5
855.028	14427.5
855.274	14497.5
855.52	14396.5
855.767	14374.5
856.013	14383.5
856.26	14635.5
856.506	14151.5
856.752	14181.5
856.998	14094.5
857.244	14229.5
857.49	14247.5
857.736	14400.5
857.982	14294.5
858.228	14253.5
858.474	13981.5
858.72	13961.5
858.966	13885.5
859.212	13817.5
859.458	13571.5
859.703	13488.5
859.949	13321.5
860.195	13361.5
860.44	13216.5
860.686	13127.5
860.931	13230.5
861.177	13061.5
861.422	12993.5
861.667	13026.5
861.913	12921.5
862.158	12953.5
862.403	13035.5
862.648	13052.5
862.893	13004.5
863.138	13056.5
863.384	12974.5
863.629	12978.5
863.873	12952.5
864.118	12831.5
864.363	12763.5
864.608	12803.5
864.853	12770.5
865.098	12683.5
865.342	12677.5
865.587	12581.5
865.832	12612.5
866.076	12591.5
866.321	12441.5
866.565	12489.5
866.81	12341.5
867.054	12346.5
867.298	12320.5
867.543	12277.5
867.787	12326.5
868.031	12251.5
868.275	12270.5
868.519	12240.5
868.764	12177.5
869.008	12115.5
869.252	12105.5
869.496	12121.5
869.739	12148.5
869.983	12083.5
870.227	12113.5
870.471	12130.5
870.715	12086.5
870.958	12151.5
871.202	12116.5
871.446	12178.5
871.689	12164.5
871.933	12231.5
872.176	12078.5
872.42	12059.5
872.663	12051.5
872.906	12123.5
873.15	12065.5
873.393	12058.5
873.636	12089.5
873.879	11909.5
874.122	11738.5
874.366	11577.5
874.609	11498.5
874.852	11314.5
875.095	11264.5
875.337	11235.5
875.58	11137.5
875.823	11203.5
876.066	11229.5
876.309	11168.5
876.551	10972.5
876.794	10949.5
877.037	10950.5
877.279	10856.5
877.522	10893.5
877.764	10957.5
878.007	10898.5
878.249	10828.5
878.491	10798.5
878.734	10902.5
878.976	10749.5
879.218	10723.5
879.46	10691.5
879.702	10624.5
879.945	10495.5
880.187	10486.5
880.429	10335.5
880.671	10337.5
880.912	10258.5
881.154	10307.5
881.396	10172.5
881.638	10279.5
881.88	10210.5
882.121	10253.5
882.363	10140.5
882.605	10156.5
882.846	10183.5
883.088	10174.5
883.329	10168.5
883.571	10141.5
883.812	10327.5
884.053	10471.5
884.295	10646.5
884.536	10838.5
884.777	10635.5
885.018	10571.5
885.259	10545.5
885.5	10434.5
885.742	10616.5
885.982	10385.5
886.223	10333.5
886.464	10260.5
886.705	10081.5
886.946	9972.5
887.187	9796.5
887.428	9770.5
887.668	9545.5
887.909	9526.5
888.15	9356.5
888.39	9371.5
888.631	9304.5
888.871	9188.5
889.111	9179.5
889.352	9067.5
889.592	8973.5
889.833	8909.5
890.073	8927.5
890.313	8933.5
890.553	8695.5
890.793	8719.5
891.033	8702.5
891.273	8595.5
891.513	8590.5
891.753	8647.5
891.993	8517.5
892.233	8590.5
892.473	8646.5
892.713	8560.5
892.952	8613.5
893.192	8612.5
893.432	8639.5
893.671	8567.5
893.911	8494.5
894.15	8469.5
894.39	8380.5
894.629	8387.5
894.869	8354.5
895.108	8319.5
895.347	8220.5
895.587	8240.5
895.826	8245.5
896.065	8170.5
896.304	8204.5
896.543	8161.5
896.782	8106.5
897.021	8119.5
897.26	8096.5
897.499	8121.5
897.738	8044.5
897.977	7993.5
898.216	7950.5
898.454	7886.5
898.693	7848.5
898.932	7923.5
899.17	7771.5
899.409	7743.5
899.647	7762.5
899.886	7807.5
900.124	7764.5
900.363	7723.5
900.601	7745.5
900.839	7840.5
901.078	7864.5
901.316	7801.5
901.554	7904.5
901.792	7844.5
902.03	7787.5
902.268	7936.5
902.506	7913.5
902.744	7796.5
902.982	7747.5
903.22	7628.5
903.458	7524.5
903.695	7443.5
903.933	7298.5
904.171	7126.5
904.409	7105.5
904.646	7048.5
904.884	6929.5
905.121	6906.5
905.359	6767.5
905.596	6682.5
905.833	6662.5
906.071	6624.5
906.308	6640.5
906.545	6583.5
906.783	6559.5
907.02	6542.5
907.257	6467.5
907.494	6477.5
907.731	6452.5
907.968	6483.5
908.205	6391.5
908.442	6279.5
908.679	6323.5
908.915	6220.5
909.152	6197.5
909.389	6086.5
909.626	6112.5
909.862	6087.5
910.099	6060.5
910.335	6095.5
910.572	5925.5
910.808	5971.5
911.045	5947.5
911.281	5933.5
911.518	5916.5
911.754	5875.5
911.99	5857.5
912.226	5729.5
912.463	5671.5
912.699	5723.5
912.935	5703.5
913.171	5566.5
913.407	5550.5
913.643	5555.5
913.879	5491.5
914.114	5480.5
914.35	5406.5
914.586	5370.5
914.822	5286.5
915.057	5410.5
915.293	5177.5
915.529	5155.5
915.764	5291.5
916	5212.5
916.235	5170.5
916.471	5264.5
916.706	5099.5
916.941	5132.5
917.177	5095.5
917.412	5156.5
917.647	5116.5
917.882	5106.5
918.117	5071.5
918.352	5079.5
918.588	5046.5
918.823	5021.5
919.057	4934.5
919.292	4815.5
919.527	4949.5
919.762	4816.5
919.997	4812.5
920.232	4749.5
920.466	4733.5
920.701	4614.5
920.935	4644.5
921.17	4603.5
921.405	4515.5
921.639	4589.5
921.873	4550.5
922.108	4539.5
922.342	4579.5
922.576	4466.5
922.811	4443.5
923.045	4463.5
923.279	4511.5
923.513	4365.5
923.747	4464.5
923.981	4399.5
924.215	4317.5
924.449	4338.5
924.683	4261.5
924.917	4224.5
925.151	4262.5
925.385	4285.5
925.618	4232.5
925.852	4207.5
926.086	4135.5
926.319	4171.5
926.553	4192.5
926.786	4224.5
927.02	4137.5
927.253	4195.5
927.486	4197.5
927.72	4141.5
927.953	4176.5
928.186	4120.5
928.42	4163.5
928.653	4074.5
928.886	4044.5
929.119	4034.5
929.352	4029.5
929.585	4015.5
929.818	3955.5
930.051	3924.5
930.284	3947.5
930.516	3835.5
930.749	3841.5
930.982	3888.5
931.215	3842.5
931.447	3754.5
931.68	3788.5
931.912	3788.5
932.145	3784.5
932.377	3767.5
932.61	3898.5
932.842	3674.5
933.074	3789.5
933.307	3724.5
933.539	3803.5
933.771	3806.5
934.003	3749.5
934.236	3789.5
934.468	3814.5
934.7	3744.5
934.932	3722.5
935.164	3674.5
935.395	3694.5
935.627	3704.5
935.859	3721.5
936.091	3650.5
936.323	3686.5
936.554	3694.5
936.786	3582.5
937.017	3583.5
937.249	3621.5
937.481	3531.5
937.712	3619.5
937.943	3578.5
938.175	3591.5
938.406	3499.5
938.637	3623.5
938.869	3491.5
939.1	3534.5
939.331	3505.5
939.562	3513.5
939.793	3478.5
940.024	3503.5
940.255	3494.5
940.486	3458.5
940.717	3436.5
940.948	3412.5
941.179	3358.5
941.409	3373.5
941.64	3382.5
941.871	3353.5
942.102	3338.5
942.332	3386.5
942.563	3417.5
942.793	3360.5
943.024	3349.5
943.254	3302.5
943.484	3386.5
943.715	3385.5
943.945	3362.5
944.175	3267.5
944.405	3264.5
944.636	3319.5
944.866	3368.5
945.096	3388.5
945.326	3238.5
945.556	3329.5
945.786	3328.5
946.016	3261.5
946.245	3186.5
946.475	3221.5
946.705	3220.5
946.935	3198.5
947.164	3175.5
947.394	3129.5
947.624	3137.5
947.853	3182.5
948.083	3101.5
948.312	3065.5
948.542	3044.5
948.771	3036.5
949	3062.5
949.23	3004.5
949.459	3012.5
949.688	3096.5
949.917	3040.5
950.146	3072.5
950.375	3107.5
950.604	2955.5
950.833	3081.5
951.062	3031.5
951.291	2997.5
951.52	2985.5
951.749	2999.5
951.978	2922.5
952.206	2974.5
952.435	2918.5
952.664	2947.5
952.892	2973.5
953.121	2948.5
953.349	2969.5
953.578	2977.5
953.806	2909.5
954.035	2860.5
954.263	2887.5
954.491	2830.5
954.719	2853.5
954.948	2834.5
955.176	2780.5
955.404	2747.5
955.632	2802.5
955.86	2777.5
956.088	2766.5
956.316	2791.5
956.544	2781.5
956.772	2749.5
956.999	2745.5
957.227	2788.5
957.455	2684.5
957.683	2727.5
957.91	2638.5
958.138	2649.5
958.365	2636.5
958.593	2637.5
958.82	2609.5
959.048	2653.5
959.275	2602.5
959.502	2605.5
959.73	2585.5
959.957	2572.5
960.184	2621.5
960.411	2570.5
960.638	2595.5
960.865	2572.5
961.092	2603.5
961.319	2460.5
961.546	2583.5
961.773	2591.5
962	2541.5
962.227	2585.5
962.454	2509.5
962.68	2518.5
962.907	2579.5
963.134	2454.5
963.36	2500.5
963.587	2527.5
963.813	2473.5
964.04	2507.5
964.266	2389.5
964.493	2476.5
964.719	2450.5
964.945	2450.5
965.171	2358.5
965.398	2383.5
965.624	2424.5
965.85	2343.5
966.076	2339.5
966.302	2404.5
966.528	2363.5
966.754	2402.5
966.98	2347.5
967.206	2337.5
967.431	2270.5
967.657	2351.5
967.883	2316.5
968.109	2325.5
968.334	2265.5
968.56	2228.5
968.785	2287.5
969.011	2241.5
969.236	2266.5
969.462	2226.5
969.687	2240.5
969.912	2275.5
970.138	2271.5
970.363	2194.5
970.588	2233.5
970.813	2224.5
971.038	2179.5
971.263	2213.5
971.488	2227.5
971.713	2223.5
971.938	2196.5
972.163	2122.5
972.388	2115.5
972.613	2143.5
972.838	2114.5
973.062	2113.5
973.287	2133.5
973.512	2029.5
973.736	2081.5
973.961	2084.5
974.185	2043.5
974.41	2084.5
974.634	2014.5
974.858	2045.5
975.083	2031.5
975.307	2047.5
975.531	1973.5
975.755	1918.5
975.98	1957.5
976.204	1936.5
976.428	1895.5
976.652	1916.5
976.876	1886.5
977.1	1924.5
977.324	1874.5
977.547	1924.5
977.771	1921.5
977.995	1896.5
978.219	1840.5
978.442	1977.5
978.666	1907.5
978.89	1884.5
979.113	1878.5
979.337	1858.5
979.56	1830.5
979.783	1926.5
980.007	1811.5
980.23	1870.5
980.453	1845.5
980.677	1854.5
980.9	1835.5
981.123	1738.5
981.346	1845.5
981.569	1817.5
981.792	1845.5
982.015	1783.5
982.238	1744.5
982.461	1783.5
982.684	1699.5
982.907	1758.5
983.129	1710.5
983.352	1761.5
983.575	1742.5
983.797	1718.5
984.02	1671.5
984.242	1710.5
984.465	1703.5
984.687	1717.5
984.91	1742.5
985.132	1721.5
985.354	1733.5
985.577	1707.5
985.799	1700.5
986.021	1595.5
986.243	1643.5
986.465	1632.5
986.687	1681.5
986.909	1719.5
987.131	1634.5
987.353	1616.5
987.575	1640.5
987.797	1620.5
988.019	1560.5
988.241	1629.5
988.462	1587.5
988.684	1636.5
988.906	1661.5
989.127	1678.5
989.349	1571.5
989.57	1605.5
989.792	1629.5
990.013	1612.5
990.234	1655.5
990.456	1663.5
990.677	1621.5
990.898	1597.5
991.119	1576.5
991.341	1577.5
991.562	1558.5
991.783	1570.5
992.004	1535.5
992.225	1492.5
992.446	1563.5
992.667	1475.5
992.887	1545.5
993.108	1429.5
993.329	1580.5
993.55	1526.5
993.77	1444.5
993.991	1453.5
994.212	1500.5
994.432	1507.5
994.653	1502.5
994.873	1512.5
995.093	1382.5
995.314	1433.5
995.534	1473.5
995.754	1509.5
995.975	1548.5
996.195	1440.5
996.415	1490.5
996.635	1463.5
996.855	1458.5
997.075	1439.5
997.295	1435.5
997.515	1420.5
997.735	1476.5
997.955	1457.5
998.174	1391.5
998.394	1397.5
998.614	1471.5
998.834	1440.5
999.053	1477.5
999.273	1421.5
999.492	1481.5
999.712	1439.5
999.931	1405.5
1000.151	1440.5
1000.37	1431.5
1000.589	1469.5
1000.809	1377.5
1001.028	1497.5
1001.247	1437.5
1001.466	1327.5
1001.685	1479.5
1001.904	1391.5
1002.123	1410.5
1002.342	1426.5
1002.561	1372.5
1002.78	1386.5
1002.999	1432.5
1003.218	1371.5
1003.436	1357.5
1003.655	1413.5
1003.874	1336.5
1004.092	1360.5
1004.311	1411.5
1004.53	1342.5
1004.748	1449.5
1004.966	1347.5
1005.185	1420.5
1005.403	1417.5
1005.622	1375.5
1005.84	1466.5
1006.058	1352.5
1006.276	1363.5
1006.494	1894.5
1006.712	1392.5
1006.931	1426.5
1007.149	1348.5
1007.367	1356.5
1007.584	1408.5
1007.802	1411.5
1008.02	1353.5
1008.238	1457.5
1008.456	1453.5
1008.673	1310.5
1008.891	1451.5
1009.109	1378.5
1009.326	1433.5
1009.544	1528.5
1009.761	1435.5
1009.979	1566.5
1010.196	1538.5
1010.413	1602.5
1010.631	1664.5
1010.848	1670.5
1011.065	1696.5
1011.282	1613.5
1011.5	1578.5
1011.717	1701.5
1011.934	1602.5
1012.151	1661.5
1012.368	1645.5
1012.585	1593.5
1012.801	1629.5
1013.018	1618.5
1013.235	1554.5
1013.452	1578.5
1013.669	1604.5
1013.885	1594.5
1014.102	1648.5
1014.318	1594.5
1014.535	1563.5
1014.751	1563.5
1014.968	1595.5
1015.184	1580.5
1015.401	1531.5
1015.617	1554.5
1015.833	1467.5
1016.049	1504.5
1016.266	1466.5
1016.482	1481.5
1016.698	1398.5
1016.914	1454.5
1017.13	1398.5
1017.346	1396.5
1017.562	1443.5
1017.778	1381.5
1017.993	1351.5
1018.209	1403.5
1018.425	1369.5
1018.641	1358.5
1018.856	1315.5
1019.072	1379.5
1019.288	1390.5
1019.503	1345.5
1019.719	1271.5
1019.934	1269.5
1020.149	1350.5
1020.365	1296.5
1020.58	1233.5
1020.795	1294.5
1021.011	1221.5
1021.226	1238.5
1021.441	1223.5
1021.656	1168.5
1021.871	1100.5
1022.086	1115.5
1022.301	1126.5
1022.516	1092.5
1022.731	1151.5
1022.946	1056.5
1023.16	1065.5
1023.375	1027.5
1023.59	1003.5
1023.804	974.5
1024.019	1070.5
1024.234	956.5
1024.448	986.5
1024.663	921.5
1024.877	912.5
1025.092	940.5
1025.306	951.5
1025.52	858.5
1025.734	966.5
1025.949	858.5
1026.163	849.5
1026.377	789.5
1026.591	823.5
1026.805	768.5
1027.019	781.5
1027.233	739.5
1027.447	691.5
1027.661	776.5
1027.875	724.5
1028.088	742.5
1028.302	656.5
1028.516	650.5
1028.73	657.5
1028.943	646.5
1029.157	608.5
1029.37	563.5
1029.584	-2.5
1029.797	-1.5
1030.011	0.5
1030.224	-2.5
