Data from QEP037381__39__11-27-25-594.txt Node

Date: Wed Dec 21 11:27:25 EST 2022
User: dcclab
Spectrometer: QEP03738
Trigger mode: 4
Integration Time (sec): 1.000000E1
Scans to average: 1
Electric dark correction enabled: true
Nonlinearity correction enabled: false
Boxcar width: 0
XAxis mode: Wavelengths
Number of Pixels in Spectrum: 1044
>>>>>Begin Spectral Data<<<<<
784.041	12.38
784.3	-0.62
784.558	-2.62
784.817	-1.62
785.075	40923.38
785.334	8352.38
785.592	4450.38
785.851	3213.38
786.109	2447.38
786.368	1950.38
786.626	1631.38
786.884	1363.38
787.143	1157.38
787.401	943.38
787.659	903.38
787.917	773.38
788.175	747.38
788.433	645.38
788.691	600.38
788.949	573.38
789.207	563.38
789.465	481.38
789.723	456.38
789.98	439.38
790.238	492.38
790.496	464.38
790.753	434.38
791.011	495.38
791.268	440.38
791.526	427.38
791.783	435.38
792.041	431.38
792.298	365.38
792.556	420.38
792.813	408.38
793.07	381.38
793.327	376.38
793.584	452.38
793.841	385.38
794.099	388.38
794.356	468.38
794.613	363.38
794.869	411.38
795.126	365.38
795.383	354.38
795.64	373.38
795.897	331.38
796.153	387.38
796.41	367.38
796.667	359.38
796.923	374.38
797.18	374.38
797.436	393.38
797.693	341.38
797.949	402.38
798.206	431.38
798.462	340.38
798.718	406.38
798.974	389.38
799.231	412.38
799.487	392.38
799.743	393.38
799.999	438.38
800.255	415.38
800.511	395.38
800.767	431.38
801.023	421.38
801.279	438.38
801.534	455.38
801.79	472.38
802.046	481.38
802.302	547.38
802.557	575.38
802.813	701.38
803.068	773.38
803.324	1031.38
803.579	1307.38
803.835	1740.38
804.09	2397.38
804.345	2991.38
804.601	3664.38
804.856	4530.38
805.111	5217.38
805.366	5670.38
805.621	6109.38
805.876	6362.38
806.131	6596.38
806.386	6659.38
806.641	6764.38
806.896	6883.38
807.151	7040.38
807.406	7117.38
807.661	7285.38
807.915	7412.38
808.17	7530.38
808.425	7588.38
808.679	7606.38
808.934	7806.38
809.188	7754.38
809.443	7896.38
809.697	8043.38
809.951	8028.38
810.206	8024.38
810.46	8152.38
810.714	8238.38
810.968	8280.38
811.223	8291.38
811.477	8426.38
811.731	8514.38
811.985	8536.38
812.239	8428.38
812.493	8538.38
812.747	8642.38
813	8650.38
813.254	8665.38
813.508	8764.38
813.762	8651.38
814.015	8782.38
814.269	8829.38
814.522	8914.38
814.776	9050.38
815.03	9159.38
815.283	9220.38
815.536	9435.38
815.79	9553.38
816.043	9693.38
816.296	9818.38
816.55	9918.38
816.803	10046.38
817.056	10169.38
817.309	10279.38
817.562	10315.38
817.815	10429.38
818.068	10487.38
818.321	10607.38
818.574	10746.38
818.827	10916.38
819.079	10934.38
819.332	11230.38
819.585	11254.38
819.838	11450.38
820.09	11372.38
820.343	11485.38
820.595	11554.38
820.848	11669.38
821.1	11677.38
821.353	11609.38
821.605	11594.38
821.857	11609.38
822.11	11485.38
822.362	11509.38
822.614	11454.38
822.866	11569.38
823.118	11483.38
823.37	11551.38
823.622	11540.38
823.874	11578.38
824.126	11693.38
824.378	11665.38
824.63	11726.38
824.882	11675.38
825.134	11654.38
825.385	11655.38
825.637	11632.38
825.888	11589.38
826.14	11568.38
826.392	11481.38
826.643	11356.38
826.895	11447.38
827.146	11440.38
827.397	11257.38
827.649	11349.38
827.9	11280.38
828.151	11274.38
828.402	11299.38
828.653	11314.38
828.905	11354.38
829.156	11480.38
829.407	11401.38
829.658	11428.38
829.909	11580.38
830.159	11555.38
830.41	11422.38
830.661	11325.38
830.912	11344.38
831.162	11279.38
831.413	11166.38
831.664	11333.38
831.914	11185.38
832.165	11160.38
832.415	11235.38
832.666	11237.38
832.916	11154.38
833.167	11139.38
833.417	11240.38
833.667	11137.38
833.917	11103.38
834.168	11075.38
834.418	11064.38
834.668	10986.38
834.918	10924.38
835.168	10824.38
835.418	10802.38
835.668	10789.38
835.918	10860.38
836.167	10825.38
836.417	10726.38
836.667	10777.38
836.917	10769.38
837.166	10713.38
837.416	10781.38
837.666	10846.38
837.915	10768.38
838.165	10674.38
838.414	10642.38
838.663	10580.38
838.913	10642.38
839.162	10669.38
839.411	10761.38
839.661	10692.38
839.91	10719.38
840.159	10563.38
840.408	10581.38
840.657	10583.38
840.906	10573.38
841.155	10618.38
841.404	10635.38
841.653	10654.38
841.902	10761.38
842.15	10662.38
842.399	10741.38
842.648	10638.38
842.897	10605.38
843.145	10505.38
843.394	10394.38
843.642	10318.38
843.891	10333.38
844.139	10226.38
844.388	10148.38
844.636	10094.38
844.884	10113.38
845.133	10118.38
845.381	10128.38
845.629	10142.38
845.877	10100.38
846.125	10034.38
846.373	10144.38
846.621	9993.38
846.869	10008.38
847.117	9936.38
847.365	9900.38
847.613	9825.38
847.861	9817.38
848.108	9802.38
848.356	9864.38
848.604	9795.38
848.851	9792.38
849.099	9878.38
849.346	9849.38
849.594	9892.38
849.841	10015.38
850.089	10054.38
850.336	10149.38
850.583	10201.38
850.831	10202.38
851.078	10096.38
851.325	10003.38
851.572	10011.38
851.819	9852.38
852.066	9696.38
852.313	9421.38
852.56	9325.38
852.807	9352.38
853.054	9336.38
853.301	9387.38
853.548	9413.38
853.794	9447.38
854.041	9463.38
854.288	9428.38
854.534	9625.38
854.781	9523.38
855.028	9559.38
855.274	9586.38
855.52	9501.38
855.767	9505.38
856.013	9582.38
856.26	9859.38
856.506	9428.38
856.752	9430.38
856.998	9431.38
857.244	9426.38
857.49	9460.38
857.736	9570.38
857.982	9508.38
858.228	9460.38
858.474	9405.38
858.72	9269.38
858.966	9179.38
859.212	9121.38
859.458	8977.38
859.703	8945.38
859.949	8788.38
860.195	8870.38
860.44	8777.38
860.686	8688.38
860.931	8810.38
861.177	8682.38
861.422	8665.38
861.667	8563.38
861.913	8539.38
862.158	8499.38
862.403	8578.38
862.648	8549.38
862.893	8641.38
863.138	8579.38
863.384	8592.38
863.629	8569.38
863.873	8497.38
864.118	8516.38
864.363	8432.38
864.608	8473.38
864.853	8461.38
865.098	8388.38
865.342	8384.38
865.587	8365.38
865.832	8311.38
866.076	8276.38
866.321	8286.38
866.565	8256.38
866.81	8190.38
867.054	8179.38
867.298	8228.38
867.543	8141.38
867.787	8226.38
868.031	8119.38
868.275	8152.38
868.519	8050.38
868.764	8100.38
869.008	8087.38
869.252	8114.38
869.496	8087.38
869.739	8122.38
869.983	8142.38
870.227	8150.38
870.471	8121.38
870.715	8154.38
870.958	8189.38
871.202	8162.38
871.446	8207.38
871.689	8265.38
871.933	8299.38
872.176	8318.38
872.42	8218.38
872.663	8221.38
872.906	8234.38
873.15	8293.38
873.393	8242.38
873.636	8286.38
873.879	8164.38
874.122	8024.38
874.366	7868.38
874.609	7873.38
874.852	7789.38
875.095	7712.38
875.337	7573.38
875.58	7524.38
875.823	7642.38
876.066	7568.38
876.309	7613.38
876.551	7446.38
876.794	7365.38
877.037	7476.38
877.279	7418.38
877.522	7409.38
877.764	7460.38
878.007	7365.38
878.249	7343.38
878.491	7288.38
878.734	7365.38
878.976	7327.38
879.218	7244.38
879.46	7284.38
879.702	7202.38
879.945	7085.38
880.187	6968.38
880.429	7008.38
880.671	7015.38
880.912	7024.38
881.154	6956.38
881.396	6845.38
881.638	6910.38
881.88	6912.38
882.121	6900.38
882.363	6898.38
882.605	6949.38
882.846	6962.38
883.088	6957.38
883.329	6896.38
883.571	7013.38
883.812	7205.38
884.053	7351.38
884.295	7621.38
884.536	7757.38
884.777	7599.38
885.018	7481.38
885.259	7453.38
885.5	7323.38
885.742	7518.38
885.982	7363.38
886.223	7265.38
886.464	7169.38
886.705	7116.38
886.946	6968.38
887.187	6750.38
887.428	6722.38
887.668	6585.38
887.909	6554.38
888.15	6356.38
888.39	6425.38
888.631	6353.38
888.871	6332.38
889.111	6275.38
889.352	6214.38
889.592	6117.38
889.833	6085.38
890.073	6095.38
890.313	6064.38
890.553	6003.38
890.793	5903.38
891.033	5879.38
891.273	5894.38
891.513	5869.38
891.753	5919.38
891.993	5836.38
892.233	5861.38
892.473	5987.38
892.713	5911.38
892.952	5863.38
893.192	5923.38
893.432	5862.38
893.671	5905.38
893.911	5855.38
894.15	5828.38
894.39	5780.38
894.629	5778.38
894.869	5767.38
895.108	5751.38
895.347	5676.38
895.587	5710.38
895.826	5660.38
896.065	5599.38
896.304	5675.38
896.543	5712.38
896.782	5638.38
897.021	5702.38
897.26	5667.38
897.499	5696.38
897.738	5696.38
897.977	5574.38
898.216	5553.38
898.454	5538.38
898.693	5475.38
898.932	5536.38
899.17	5496.38
899.409	5493.38
899.647	5495.38
899.886	5445.38
900.124	5540.38
900.363	5512.38
900.601	5528.38
900.839	5490.38
901.078	5562.38
901.316	5613.38
901.554	5651.38
901.792	5719.38
902.03	5627.38
902.268	5690.38
902.506	5665.38
902.744	5560.38
902.982	5564.38
903.22	5412.38
903.458	5335.38
903.695	5306.38
903.933	5163.38
904.171	5106.38
904.409	4991.38
904.646	4967.38
904.884	4816.38
905.121	4818.38
905.359	4739.38
905.596	4723.38
905.833	4670.38
906.071	4629.38
906.308	4656.38
906.545	4600.38
906.783	4580.38
907.02	4597.38
907.257	4558.38
907.494	4533.38
907.731	4528.38
907.968	4560.38
908.205	4477.38
908.442	4454.38
908.679	4409.38
908.915	4435.38
909.152	4360.38
909.389	4312.38
909.626	4284.38
909.862	4196.38
910.099	4209.38
910.335	4234.38
910.572	4139.38
910.808	4177.38
911.045	4156.38
911.281	4136.38
911.518	4188.38
911.754	4125.38
911.99	4105.38
912.226	4060.38
912.463	3997.38
912.699	3973.38
912.935	3997.38
913.171	3926.38
913.407	3895.38
913.643	3923.38
913.879	3864.38
914.114	3815.38
914.35	3791.38
914.586	3762.38
914.822	3703.38
915.057	3800.38
915.293	3638.38
915.529	3654.38
915.764	3701.38
916	3697.38
916.235	3673.38
916.471	3653.38
916.706	3590.38
916.941	3611.38
917.177	3626.38
917.412	3655.38
917.647	3628.38
917.882	3561.38
918.117	3645.38
918.352	3610.38
918.588	3661.38
918.823	3535.38
919.057	3512.38
919.292	3405.38
919.527	3517.38
919.762	3423.38
919.997	3467.38
920.232	3388.38
920.466	3376.38
920.701	3269.38
920.935	3332.38
921.17	3271.38
921.405	3237.38
921.639	3279.38
921.873	3221.38
922.108	3258.38
922.342	3270.38
922.576	3164.38
922.811	3216.38
923.045	3220.38
923.279	3222.38
923.513	3085.38
923.747	3225.38
923.981	3149.38
924.215	3104.38
924.449	3058.38
924.683	3030.38
924.917	3041.38
925.151	3057.38
925.385	3076.38
925.618	3045.38
925.852	3041.38
926.086	2992.38
926.319	3041.38
926.553	3015.38
926.786	3016.38
927.02	2980.38
927.253	3041.38
927.486	3041.38
927.72	2974.38
927.953	3016.38
928.186	2949.38
928.42	3028.38
928.653	2900.38
928.886	2932.38
929.119	2942.38
929.352	2960.38
929.585	2941.38
929.818	2857.38
930.051	2899.38
930.284	2885.38
930.516	2783.38
930.749	2788.38
930.982	2813.38
931.215	2843.38
931.447	2716.38
931.68	2742.38
931.912	2739.38
932.145	2735.38
932.377	2768.38
932.61	2848.38
932.842	2678.38
933.074	2760.38
933.307	2705.38
933.539	2808.38
933.771	2767.38
934.003	2740.38
934.236	2792.38
934.468	2837.38
934.7	2703.38
934.932	2790.38
935.164	2699.38
935.395	2686.38
935.627	2726.38
935.859	2735.38
936.091	2648.38
936.323	2674.38
936.554	2732.38
936.786	2664.38
937.017	2599.38
937.249	2657.38
937.481	2598.38
937.712	2683.38
937.943	2632.38
938.175	2625.38
938.406	2603.38
938.637	2675.38
938.869	2568.38
939.1	2635.38
939.331	2569.38
939.562	2640.38
939.793	2613.38
940.024	2634.38
940.255	2615.38
940.486	2555.38
940.717	2547.38
940.948	2520.38
941.179	2482.38
941.409	2495.38
941.64	2501.38
941.871	2515.38
942.102	2495.38
942.332	2519.38
942.563	2538.38
942.793	2519.38
943.024	2446.38
943.254	2507.38
943.484	2503.38
943.715	2525.38
943.945	2543.38
944.175	2415.38
944.405	2438.38
944.636	2439.38
944.866	2447.38
945.096	2488.38
945.326	2427.38
945.556	2460.38
945.786	2461.38
946.016	2430.38
946.245	2391.38
946.475	2374.38
946.705	2391.38
946.935	2380.38
947.164	2381.38
947.394	2325.38
947.624	2369.38
947.853	2377.38
948.083	2360.38
948.312	2316.38
948.542	2283.38
948.771	2264.38
949	2300.38
949.23	2269.38
949.459	2293.38
949.688	2322.38
949.917	2278.38
950.146	2301.38
950.375	2348.38
950.604	2232.38
950.833	2311.38
951.062	2299.38
951.291	2257.38
951.52	2231.38
951.749	2259.38
951.978	2214.38
952.206	2214.38
952.435	2200.38
952.664	2239.38
952.892	2258.38
953.121	2215.38
953.349	2243.38
953.578	2237.38
953.806	2187.38
954.035	2084.38
954.263	2207.38
954.491	2107.38
954.719	2181.38
954.948	2157.38
955.176	2107.38
955.404	2026.38
955.632	2119.38
955.86	2146.38
956.088	2126.38
956.316	2143.38
956.544	2117.38
956.772	2076.38
956.999	2045.38
957.227	2145.38
957.455	2021.38
957.683	2052.38
957.91	2012.38
958.138	2036.38
958.365	1991.38
958.593	2016.38
958.82	1934.38
959.048	2027.38
959.275	2002.38
959.502	2002.38
959.73	1942.38
959.957	2004.38
960.184	1999.38
960.411	1955.38
960.638	2015.38
960.865	1980.38
961.092	1975.38
961.319	1905.38
961.546	1983.38
961.773	2017.38
962	1925.38
962.227	2000.38
962.454	1952.38
962.68	1912.38
962.907	1973.38
963.134	1917.38
963.36	1921.38
963.587	1952.38
963.813	1875.38
964.04	1914.38
964.266	1865.38
964.493	1930.38
964.719	1903.38
964.945	1903.38
965.171	1806.38
965.398	1848.38
965.624	1906.38
965.85	1825.38
966.076	1811.38
966.302	1843.38
966.528	1825.38
966.754	1838.38
966.98	1839.38
967.206	1824.38
967.431	1763.38
967.657	1815.38
967.883	1820.38
968.109	1791.38
968.334	1761.38
968.56	1748.38
968.785	1777.38
969.011	1737.38
969.236	1795.38
969.462	1737.38
969.687	1751.38
969.912	1787.38
970.138	1781.38
970.363	1713.38
970.588	1765.38
970.813	1716.38
971.038	1686.38
971.263	1736.38
971.488	1749.38
971.713	1761.38
971.938	1739.38
972.163	1664.38
972.388	1654.38
972.613	1648.38
972.838	1673.38
973.062	1663.38
973.287	1638.38
973.512	1617.38
973.736	1642.38
973.961	1656.38
974.185	1602.38
974.41	1650.38
974.634	1557.38
974.858	1573.38
975.083	1642.38
975.307	1632.38
975.531	1566.38
975.755	1514.38
975.98	1577.38
976.204	1516.38
976.428	1497.38
976.652	1503.38
976.876	1496.38
977.1	1532.38
977.324	1477.38
977.547	1492.38
977.771	1519.38
977.995	1508.38
978.219	1463.38
978.442	1566.38
978.666	1510.38
978.89	1501.38
979.113	1510.38
979.337	1485.38
979.56	1432.38
979.783	1544.38
980.007	1432.38
980.23	1454.38
980.453	1434.38
980.677	1465.38
980.9	1470.38
981.123	1380.38
981.346	1476.38
981.569	1461.38
981.792	1482.38
982.015	1421.38
982.238	1410.38
982.461	1432.38
982.684	1375.38
982.907	1374.38
983.129	1360.38
983.352	1404.38
983.575	1379.38
983.797	1420.38
984.02	1358.38
984.242	1354.38
984.465	1371.38
984.687	1409.38
984.91	1433.38
985.132	1413.38
985.354	1395.38
985.577	1402.38
985.799	1378.38
986.021	1328.38
986.243	1339.38
986.465	1365.38
986.687	1370.38
986.909	1436.38
987.131	1370.38
987.353	1333.38
987.575	1352.38
987.797	1306.38
988.019	1271.38
988.241	1350.38
988.462	1295.38
988.684	1371.38
988.906	1381.38
989.127	1392.38
989.349	1280.38
989.57	1320.38
989.792	1353.38
990.013	1391.38
990.234	1372.38
990.456	1390.38
990.677	1363.38
990.898	1316.38
991.119	1345.38
991.341	1376.38
991.562	1269.38
991.783	1316.38
992.004	1258.38
992.225	1239.38
992.446	1319.38
992.667	1225.38
992.887	1327.38
993.108	1181.38
993.329	1330.38
993.55	1271.38
993.77	1212.38
993.991	1232.38
994.212	1268.38
994.432	1257.38
994.653	1272.38
994.873	1247.38
995.093	1142.38
995.314	1201.38
995.534	1270.38
995.754	1271.38
995.975	1296.38
996.195	1196.38
996.415	1266.38
996.635	1246.38
996.855	1271.38
997.075	1218.38
997.295	1209.38
997.515	1209.38
997.735	1283.38
997.955	1218.38
998.174	1211.38
998.394	1201.38
998.614	1246.38
998.834	1197.38
999.053	1259.38
999.273	1237.38
999.492	1287.38
999.712	1198.38
999.931	1188.38
1000.151	1240.38
1000.37	1206.38
1000.589	1273.38
1000.809	1195.38
1001.028	1297.38
1001.247	1252.38
1001.466	1157.38
1001.685	1284.38
1001.904	1229.38
1002.123	1226.38
1002.342	1231.38
1002.561	1180.38
1002.78	1214.38
1002.999	1260.38
1003.218	1227.38
1003.436	1194.38
1003.655	1250.38
1003.874	1162.38
1004.092	1229.38
1004.311	1249.38
1004.53	1197.38
1004.748	1301.38
1004.966	1196.38
1005.185	1274.38
1005.403	1262.38
1005.622	1222.38
1005.84	1285.38
1006.058	1211.38
1006.276	1233.38
1006.494	1728.38
1006.712	1221.38
1006.931	1302.38
1007.149	1196.38
1007.367	1218.38
1007.584	1259.38
1007.802	1284.38
1008.02	1240.38
1008.238	1351.38
1008.456	1323.38
1008.673	1197.38
1008.891	1313.38
1009.109	1292.38
1009.326	1318.38
1009.544	1413.38
1009.761	1338.38
1009.979	1443.38
1010.196	1414.38
1010.413	1519.38
1010.631	1591.38
1010.848	1593.38
1011.065	1628.38
1011.282	1558.38
1011.5	1529.38
1011.717	1614.38
1011.934	1570.38
1012.151	1611.38
1012.368	1566.38
1012.585	1527.38
1012.801	1567.38
1013.018	1563.38
1013.235	1516.38
1013.452	1540.38
1013.669	1566.38
1013.885	1556.38
1014.102	1601.38
1014.318	1540.38
1014.535	1514.38
1014.751	1528.38
1014.968	1531.38
1015.184	1571.38
1015.401	1484.38
1015.617	1477.38
1015.833	1443.38
1016.049	1443.38
1016.266	1402.38
1016.482	1449.38
1016.698	1368.38
1016.914	1410.38
1017.13	1372.38
1017.346	1334.38
1017.562	1403.38
1017.778	1344.38
1017.993	1325.38
1018.209	1350.38
1018.425	1336.38
1018.641	1309.38
1018.856	1296.38
1019.072	1321.38
1019.288	1374.38
1019.503	1329.38
1019.719	1213.38
1019.934	1252.38
1020.149	1303.38
1020.365	1277.38
1020.58	1214.38
1020.795	1265.38
1021.011	1194.38
1021.226	1163.38
1021.441	1219.38
1021.656	1145.38
1021.871	1055.38
1022.086	1066.38
1022.301	1051.38
1022.516	1067.38
1022.731	1109.38
1022.946	1025.38
1023.16	1022.38
1023.375	961.38
1023.59	975.38
1023.804	935.38
1024.019	1026.38
1024.234	901.38
1024.448	941.38
1024.663	889.38
1024.877	886.38
1025.092	909.38
1025.306	900.38
1025.52	807.38
1025.734	910.38
1025.949	842.38
1026.163	819.38
1026.377	734.38
1026.591	810.38
1026.805	738.38
1027.019	721.38
1027.233	694.38
1027.447	643.38
1027.661	736.38
1027.875	701.38
1028.088	704.38
1028.302	623.38
1028.516	631.38
1028.73	628.38
1028.943	637.38
1029.157	567.38
1029.37	547.38
1029.584	-4.62
1029.797	-0.62
1030.011	-2.62
1030.224	0.38
