Data from QEP037381__76__11-33-35-596.txt Node

Date: Wed Dec 21 11:33:35 EST 2022
User: dcclab
Spectrometer: QEP03738
Trigger mode: 4
Integration Time (sec): 1.000000E1
Scans to average: 1
Electric dark correction enabled: true
Nonlinearity correction enabled: false
Boxcar width: 0
XAxis mode: Wavelengths
Number of Pixels in Spectrum: 1044
>>>>>Begin Spectral Data<<<<<
784.041	11.75
784.3	0.75
784.558	-2.25
784.817	-2.25
785.075	42317.75
785.334	8415.75
785.592	4402.75
785.851	3139.75
786.109	2446.75
786.368	1953.75
786.626	1600.75
786.884	1342.75
787.143	1165.75
787.401	952.75
787.659	899.75
787.917	774.75
788.175	734.75
788.433	643.75
788.691	611.75
788.949	574.75
789.207	550.75
789.465	483.75
789.723	476.75
789.98	430.75
790.238	495.75
790.496	451.75
790.753	436.75
791.011	496.75
791.268	434.75
791.526	427.75
791.783	441.75
792.041	426.75
792.298	348.75
792.556	421.75
792.813	407.75
793.07	367.75
793.327	365.75
793.584	463.75
793.841	380.75
794.099	414.75
794.356	464.75
794.613	366.75
794.869	405.75
795.126	365.75
795.383	348.75
795.64	379.75
795.897	330.75
796.153	391.75
796.41	379.75
796.667	356.75
796.923	364.75
797.18	351.75
797.436	389.75
797.693	351.75
797.949	408.75
798.206	428.75
798.462	347.75
798.718	402.75
798.974	376.75
799.231	423.75
799.487	394.75
799.743	405.75
799.999	432.75
800.255	419.75
800.511	399.75
800.767	433.75
801.023	423.75
801.279	439.75
801.534	450.75
801.79	476.75
802.046	469.75
802.302	552.75
802.557	584.75
802.813	692.75
803.068	765.75
803.324	1020.75
803.579	1308.75
803.835	1711.75
804.09	2327.75
804.345	2991.75
804.601	3783.75
804.856	4525.75
805.111	5325.75
805.366	6017.75
805.621	6478.75
805.876	6634.75
806.131	6678.75
806.386	6775.75
806.641	6908.75
806.896	7003.75
807.151	7199.75
807.406	7271.75
807.661	7413.75
807.915	7568.75
808.17	7645.75
808.425	7797.75
808.679	7861.75
808.934	7966.75
809.188	7963.75
809.443	8024.75
809.697	8157.75
809.951	8238.75
810.206	8339.75
810.46	8396.75
810.714	8449.75
810.968	8524.75
811.223	8454.75
811.477	8637.75
811.731	8730.75
811.985	8679.75
812.239	8677.75
812.493	8852.75
812.747	8876.75
813	8806.75
813.254	8823.75
813.508	8906.75
813.762	8926.75
814.015	9000.75
814.269	9018.75
814.522	9152.75
814.776	9296.75
815.03	9364.75
815.283	9445.75
815.536	9614.75
815.79	9797.75
816.043	9913.75
816.296	10019.75
816.55	10140.75
816.803	10276.75
817.056	10456.75
817.309	10465.75
817.562	10580.75
817.815	10776.75
818.068	10735.75
818.321	10876.75
818.574	10925.75
818.827	11160.75
819.079	11200.75
819.332	11478.75
819.585	11536.75
819.838	11727.75
820.09	11716.75
820.343	11771.75
820.595	11885.75
820.848	11948.75
821.1	11999.75
821.353	11950.75
821.605	11908.75
821.857	11960.75
822.11	11847.75
822.362	11860.75
822.614	11851.75
822.866	11852.75
823.118	11850.75
823.37	11966.75
823.622	11898.75
823.874	11955.75
824.126	12084.75
824.378	11985.75
824.63	11985.75
824.882	12034.75
825.134	12082.75
825.385	11989.75
825.637	12016.75
825.888	12001.75
826.14	11875.75
826.392	11786.75
826.643	11796.75
826.895	11801.75
827.146	11764.75
827.397	11680.75
827.649	11652.75
827.9	11613.75
828.151	11625.75
828.402	11672.75
828.653	11610.75
828.905	11756.75
829.156	11822.75
829.407	11722.75
829.658	11838.75
829.909	11841.75
830.159	11876.75
830.41	11729.75
830.661	11645.75
830.912	11533.75
831.162	11530.75
831.413	11469.75
831.664	11518.75
831.914	11489.75
832.165	11501.75
832.415	11436.75
832.666	11460.75
832.916	11497.75
833.167	11489.75
833.417	11482.75
833.667	11382.75
833.917	11371.75
834.168	11437.75
834.418	11361.75
834.668	11319.75
834.918	11189.75
835.168	11259.75
835.418	11081.75
835.668	11118.75
835.918	11028.75
836.167	11074.75
836.417	11008.75
836.667	11049.75
836.917	11063.75
837.166	11003.75
837.416	11023.75
837.666	11096.75
837.915	10898.75
838.165	11066.75
838.414	10867.75
838.663	10797.75
838.913	10980.75
839.162	10862.75
839.411	10917.75
839.661	10847.75
839.91	10819.75
840.159	10854.75
840.408	10747.75
840.657	10792.75
840.906	10870.75
841.155	10938.75
841.404	10801.75
841.653	10807.75
841.902	10817.75
842.15	10877.75
842.399	10891.75
842.648	10824.75
842.897	10881.75
843.145	10677.75
843.394	10608.75
843.642	10607.75
843.891	10517.75
844.139	10480.75
844.388	10306.75
844.636	10262.75
844.884	10308.75
845.133	10293.75
845.381	10297.75
845.629	10262.75
845.877	10209.75
846.125	10215.75
846.373	10240.75
846.621	10174.75
846.869	10243.75
847.117	10063.75
847.365	10095.75
847.613	10069.75
847.861	10011.75
848.108	9990.75
848.356	9990.75
848.604	9917.75
848.851	9980.75
849.099	10048.75
849.346	10009.75
849.594	10125.75
849.841	10269.75
850.089	10354.75
850.336	10365.75
850.583	10358.75
850.831	10386.75
851.078	10281.75
851.325	10129.75
851.572	10207.75
851.819	9973.75
852.066	9756.75
852.313	9635.75
852.56	9513.75
852.807	9528.75
853.054	9434.75
853.301	9487.75
853.548	9507.75
853.794	9606.75
854.041	9657.75
854.288	9637.75
854.534	9760.75
854.781	9722.75
855.028	9710.75
855.274	9680.75
855.52	9668.75
855.767	9621.75
856.013	9680.75
856.26	9857.75
856.506	9512.75
856.752	9489.75
856.998	9550.75
857.244	9543.75
857.49	9677.75
857.736	9641.75
857.982	9638.75
858.228	9590.75
858.474	9440.75
858.72	9423.75
858.966	9243.75
859.212	9192.75
859.458	9064.75
859.703	9025.75
859.949	8938.75
860.195	8928.75
860.44	8890.75
860.686	8873.75
860.931	8819.75
861.177	8719.75
861.422	8751.75
861.667	8654.75
861.913	8602.75
862.158	8680.75
862.403	8727.75
862.648	8738.75
862.893	8775.75
863.138	8709.75
863.384	8656.75
863.629	8710.75
863.873	8669.75
864.118	8660.75
864.363	8530.75
864.608	8587.75
864.853	8617.75
865.098	8476.75
865.342	8454.75
865.587	8442.75
865.832	8487.75
866.076	8469.75
866.321	8361.75
866.565	8395.75
866.81	8280.75
867.054	8316.75
867.298	8243.75
867.543	8205.75
867.787	8327.75
868.031	8278.75
868.275	8192.75
868.519	8228.75
868.764	8218.75
869.008	8237.75
869.252	8215.75
869.496	8186.75
869.739	8148.75
869.983	8245.75
870.227	8170.75
870.471	8171.75
870.715	8218.75
870.958	8188.75
871.202	8260.75
871.446	8315.75
871.689	8291.75
871.933	8298.75
872.176	8265.75
872.42	8276.75
872.663	8219.75
872.906	8251.75
873.15	8217.75
873.393	8136.75
873.636	8190.75
873.879	8148.75
874.122	8073.75
874.366	7851.75
874.609	7803.75
874.852	7778.75
875.095	7712.75
875.337	7651.75
875.58	7614.75
875.823	7639.75
876.066	7659.75
876.309	7641.75
876.551	7476.75
876.794	7422.75
877.037	7501.75
877.279	7434.75
877.522	7472.75
877.764	7508.75
878.007	7391.75
878.249	7424.75
878.491	7339.75
878.734	7391.75
878.976	7400.75
879.218	7320.75
879.46	7353.75
879.702	7272.75
879.945	7181.75
880.187	7095.75
880.429	7107.75
880.671	7093.75
880.912	7011.75
881.154	7041.75
881.396	6933.75
881.638	6971.75
881.88	6964.75
882.121	6922.75
882.363	6941.75
882.605	7022.75
882.846	6993.75
883.088	7015.75
883.329	6946.75
883.571	6970.75
883.812	7135.75
884.053	7264.75
884.295	7408.75
884.536	7562.75
884.777	7414.75
885.018	7324.75
885.259	7311.75
885.5	7195.75
885.742	7494.75
885.982	7237.75
886.223	7136.75
886.464	7116.75
886.705	6957.75
886.946	6954.75
887.187	6817.75
887.428	6808.75
887.668	6620.75
887.909	6525.75
888.15	6450.75
888.39	6460.75
888.631	6472.75
888.871	6353.75
889.111	6353.75
889.352	6256.75
889.592	6181.75
889.833	6169.75
890.073	6088.75
890.313	6137.75
890.553	6074.75
890.793	5984.75
891.033	6001.75
891.273	5952.75
891.513	5929.75
891.753	6004.75
891.993	5930.75
892.233	5961.75
892.473	5980.75
892.713	5986.75
892.952	5921.75
893.192	5939.75
893.432	5929.75
893.671	5960.75
893.911	5887.75
894.15	5887.75
894.39	5838.75
894.629	5847.75
894.869	5809.75
895.108	5758.75
895.347	5722.75
895.587	5801.75
895.826	5712.75
896.065	5680.75
896.304	5736.75
896.543	5758.75
896.782	5657.75
897.021	5684.75
897.26	5720.75
897.499	5806.75
897.738	5720.75
897.977	5661.75
898.216	5597.75
898.454	5545.75
898.693	5565.75
898.932	5584.75
899.17	5508.75
899.409	5517.75
899.647	5520.75
899.886	5509.75
900.124	5559.75
900.363	5467.75
900.601	5588.75
900.839	5564.75
901.078	5590.75
901.316	5619.75
901.554	5640.75
901.792	5721.75
902.03	5609.75
902.268	5635.75
902.506	5682.75
902.744	5578.75
902.982	5551.75
903.22	5429.75
903.458	5348.75
903.695	5297.75
903.933	5184.75
904.171	5100.75
904.409	5062.75
904.646	4989.75
904.884	4877.75
905.121	4879.75
905.359	4828.75
905.596	4741.75
905.833	4691.75
906.071	4716.75
906.308	4696.75
906.545	4666.75
906.783	4597.75
907.02	4602.75
907.257	4538.75
907.494	4606.75
907.731	4549.75
907.968	4526.75
908.205	4495.75
908.442	4413.75
908.679	4486.75
908.915	4458.75
909.152	4414.75
909.389	4268.75
909.626	4308.75
909.862	4238.75
910.099	4279.75
910.335	4287.75
910.572	4175.75
910.808	4208.75
911.045	4189.75
911.281	4171.75
911.518	4189.75
911.754	4122.75
911.99	4154.75
912.226	4060.75
912.463	4032.75
912.699	4026.75
912.935	4006.75
913.171	3973.75
913.407	3881.75
913.643	3940.75
913.879	3918.75
914.114	3898.75
914.35	3837.75
914.586	3818.75
914.822	3772.75
915.057	3773.75
915.293	3677.75
915.529	3672.75
915.764	3717.75
916	3684.75
916.235	3708.75
916.471	3683.75
916.706	3647.75
916.941	3629.75
917.177	3608.75
917.412	3686.75
917.647	3647.75
917.882	3586.75
918.117	3655.75
918.352	3592.75
918.588	3652.75
918.823	3546.75
919.057	3543.75
919.292	3424.75
919.527	3539.75
919.762	3439.75
919.997	3472.75
920.232	3374.75
920.466	3453.75
920.701	3295.75
920.935	3318.75
921.17	3287.75
921.405	3245.75
921.639	3345.75
921.873	3265.75
922.108	3278.75
922.342	3273.75
922.576	3196.75
922.811	3199.75
923.045	3237.75
923.279	3228.75
923.513	3132.75
923.747	3222.75
923.981	3178.75
924.215	3090.75
924.449	3128.75
924.683	3074.75
924.917	3032.75
925.151	3039.75
925.385	3101.75
925.618	3067.75
925.852	3114.75
926.086	2997.75
926.319	3049.75
926.553	3026.75
926.786	3020.75
927.02	3015.75
927.253	3031.75
927.486	3063.75
927.72	3031.75
927.953	3057.75
928.186	2991.75
928.42	3005.75
928.653	2914.75
928.886	2939.75
929.119	3003.75
929.352	2947.75
929.585	2941.75
929.818	2883.75
930.051	2921.75
930.284	2901.75
930.516	2788.75
930.749	2810.75
930.982	2852.75
931.215	2846.75
931.447	2732.75
931.68	2761.75
931.912	2781.75
932.145	2767.75
932.377	2799.75
932.61	2905.75
932.842	2663.75
933.074	2811.75
933.307	2713.75
933.539	2810.75
933.771	2783.75
934.003	2746.75
934.236	2816.75
934.468	2839.75
934.7	2715.75
934.932	2773.75
935.164	2708.75
935.395	2699.75
935.627	2713.75
935.859	2729.75
936.091	2679.75
936.323	2725.75
936.554	2739.75
936.786	2674.75
937.017	2608.75
937.249	2671.75
937.481	2587.75
937.712	2688.75
937.943	2649.75
938.175	2655.75
938.406	2620.75
938.637	2698.75
938.869	2586.75
939.1	2654.75
939.331	2556.75
939.562	2626.75
939.793	2606.75
940.024	2633.75
940.255	2610.75
940.486	2563.75
940.717	2547.75
940.948	2533.75
941.179	2520.75
941.409	2516.75
941.64	2517.75
941.871	2522.75
942.102	2465.75
942.332	2485.75
942.563	2553.75
942.793	2546.75
943.024	2489.75
943.254	2490.75
943.484	2567.75
943.715	2559.75
943.945	2500.75
944.175	2464.75
944.405	2430.75
944.636	2417.75
944.866	2481.75
945.096	2477.75
945.326	2416.75
945.556	2514.75
945.786	2486.75
946.016	2452.75
946.245	2405.75
946.475	2406.75
946.705	2385.75
946.935	2379.75
947.164	2388.75
947.394	2358.75
947.624	2337.75
947.853	2396.75
948.083	2320.75
948.312	2324.75
948.542	2281.75
948.771	2227.75
949	2267.75
949.23	2291.75
949.459	2287.75
949.688	2350.75
949.917	2314.75
950.146	2317.75
950.375	2336.75
950.604	2232.75
950.833	2315.75
951.062	2339.75
951.291	2268.75
951.52	2220.75
951.749	2226.75
951.978	2247.75
952.206	2216.75
952.435	2205.75
952.664	2255.75
952.892	2241.75
953.121	2239.75
953.349	2240.75
953.578	2182.75
953.806	2197.75
954.035	2136.75
954.263	2191.75
954.491	2124.75
954.719	2156.75
954.948	2128.75
955.176	2107.75
955.404	2026.75
955.632	2106.75
955.86	2141.75
956.088	2104.75
956.316	2133.75
956.544	2152.75
956.772	2054.75
956.999	2024.75
957.227	2144.75
957.455	2039.75
957.683	2083.75
957.91	2028.75
958.138	1991.75
958.365	2008.75
958.593	2007.75
958.82	1951.75
959.048	2009.75
959.275	2012.75
959.502	1979.75
959.73	1928.75
959.957	1967.75
960.184	1991.75
960.411	1907.75
960.638	2005.75
960.865	1977.75
961.092	1995.75
961.319	1885.75
961.546	1975.75
961.773	1998.75
962	1945.75
962.227	1988.75
962.454	1959.75
962.68	1904.75
962.907	1956.75
963.134	1878.75
963.36	1914.75
963.587	1949.75
963.813	1882.75
964.04	1928.75
964.266	1857.75
964.493	1946.75
964.719	1899.75
964.945	1911.75
965.171	1791.75
965.398	1880.75
965.624	1895.75
965.85	1793.75
966.076	1781.75
966.302	1823.75
966.528	1818.75
966.754	1809.75
966.98	1797.75
967.206	1833.75
967.431	1746.75
967.657	1823.75
967.883	1806.75
968.109	1823.75
968.334	1748.75
968.56	1755.75
968.785	1766.75
969.011	1754.75
969.236	1785.75
969.462	1742.75
969.687	1747.75
969.912	1790.75
970.138	1798.75
970.363	1710.75
970.588	1727.75
970.813	1728.75
971.038	1688.75
971.263	1743.75
971.488	1738.75
971.713	1750.75
971.938	1752.75
972.163	1624.75
972.388	1680.75
972.613	1633.75
972.838	1678.75
973.062	1659.75
973.287	1658.75
973.512	1585.75
973.736	1627.75
973.961	1619.75
974.185	1585.75
974.41	1664.75
974.634	1544.75
974.858	1585.75
975.083	1610.75
975.307	1612.75
975.531	1588.75
975.755	1524.75
975.98	1561.75
976.204	1474.75
976.428	1513.75
976.652	1496.75
976.876	1494.75
977.1	1525.75
977.324	1464.75
977.547	1518.75
977.771	1541.75
977.995	1499.75
978.219	1469.75
978.442	1550.75
978.666	1494.75
978.89	1492.75
979.113	1482.75
979.337	1491.75
979.56	1452.75
979.783	1522.75
980.007	1402.75
980.23	1490.75
980.453	1430.75
980.677	1455.75
980.9	1469.75
981.123	1383.75
981.346	1476.75
981.569	1448.75
981.792	1481.75
982.015	1417.75
982.238	1413.75
982.461	1412.75
982.684	1393.75
982.907	1383.75
983.129	1371.75
983.352	1444.75
983.575	1404.75
983.797	1374.75
984.02	1372.75
984.242	1375.75
984.465	1362.75
984.687	1371.75
984.91	1431.75
985.132	1372.75
985.354	1412.75
985.577	1371.75
985.799	1366.75
986.021	1275.75
986.243	1319.75
986.465	1333.75
986.687	1387.75
986.909	1427.75
987.131	1344.75
987.353	1327.75
987.575	1384.75
987.797	1305.75
988.019	1257.75
988.241	1306.75
988.462	1290.75
988.684	1357.75
988.906	1396.75
989.127	1383.75
989.349	1264.75
989.57	1314.75
989.792	1364.75
990.013	1338.75
990.234	1376.75
990.456	1394.75
990.677	1375.75
990.898	1308.75
991.119	1337.75
991.341	1335.75
991.562	1278.75
991.783	1333.75
992.004	1267.75
992.225	1243.75
992.446	1292.75
992.667	1210.75
992.887	1298.75
993.108	1184.75
993.329	1334.75
993.55	1271.75
993.77	1205.75
993.991	1203.75
994.212	1253.75
994.432	1262.75
994.653	1246.75
994.873	1254.75
995.093	1147.75
995.314	1217.75
995.534	1271.75
995.754	1295.75
995.975	1295.75
996.195	1198.75
996.415	1246.75
996.635	1247.75
996.855	1236.75
997.075	1234.75
997.295	1228.75
997.515	1198.75
997.735	1251.75
997.955	1239.75
998.174	1236.75
998.394	1200.75
998.614	1248.75
998.834	1203.75
999.053	1280.75
999.273	1240.75
999.492	1282.75
999.712	1202.75
999.931	1193.75
1000.151	1237.75
1000.37	1212.75
1000.589	1262.75
1000.809	1181.75
1001.028	1332.75
1001.247	1247.75
1001.466	1150.75
1001.685	1307.75
1001.904	1228.75
1002.123	1213.75
1002.342	1230.75
1002.561	1169.75
1002.78	1201.75
1002.999	1263.75
1003.218	1214.75
1003.436	1168.75
1003.655	1230.75
1003.874	1156.75
1004.092	1204.75
1004.311	1240.75
1004.53	1209.75
1004.748	1282.75
1004.966	1198.75
1005.185	1255.75
1005.403	1249.75
1005.622	1214.75
1005.84	1301.75
1006.058	1215.75
1006.276	1225.75
1006.494	1698.75
1006.712	1218.75
1006.931	1290.75
1007.149	1213.75
1007.367	1183.75
1007.584	1242.75
1007.802	1278.75
1008.02	1228.75
1008.238	1336.75
1008.456	1307.75
1008.673	1187.75
1008.891	1282.75
1009.109	1263.75
1009.326	1295.75
1009.544	1404.75
1009.761	1302.75
1009.979	1387.75
1010.196	1412.75
1010.413	1500.75
1010.631	1567.75
1010.848	1561.75
1011.065	1578.75
1011.282	1503.75
1011.5	1454.75
1011.717	1536.75
1011.934	1519.75
1012.151	1541.75
1012.368	1535.75
1012.585	1453.75
1012.801	1521.75
1013.018	1506.75
1013.235	1446.75
1013.452	1493.75
1013.669	1493.75
1013.885	1463.75
1014.102	1512.75
1014.318	1485.75
1014.535	1444.75
1014.751	1435.75
1014.968	1490.75
1015.184	1493.75
1015.401	1404.75
1015.617	1461.75
1015.833	1375.75
1016.049	1387.75
1016.266	1359.75
1016.482	1364.75
1016.698	1292.75
1016.914	1381.75
1017.13	1301.75
1017.346	1299.75
1017.562	1373.75
1017.778	1329.75
1017.993	1279.75
1018.209	1326.75
1018.425	1302.75
1018.641	1260.75
1018.856	1231.75
1019.072	1275.75
1019.288	1313.75
1019.503	1277.75
1019.719	1181.75
1019.934	1204.75
1020.149	1291.75
1020.365	1214.75
1020.58	1190.75
1020.795	1226.75
1021.011	1155.75
1021.226	1137.75
1021.441	1146.75
1021.656	1096.75
1021.871	1031.75
1022.086	1037.75
1022.301	1021.75
1022.516	1032.75
1022.731	1115.75
1022.946	1003.75
1023.16	1003.75
1023.375	961.75
1023.59	957.75
1023.804	926.75
1024.019	1023.75
1024.234	894.75
1024.448	916.75
1024.663	878.75
1024.877	869.75
1025.092	893.75
1025.306	901.75
1025.52	788.75
1025.734	909.75
1025.949	820.75
1026.163	799.75
1026.377	726.75
1026.591	802.75
1026.805	721.75
1027.019	735.75
1027.233	699.75
1027.447	649.75
1027.661	749.75
1027.875	677.75
1028.088	704.75
1028.302	616.75
1028.516	637.75
1028.73	637.75
1028.943	638.75
1029.157	582.75
1029.37	534.75
1029.584	-1.25
1029.797	-2.25
1030.011	-4.25
1030.224	-0.25
