Data from QEP037381__30__11-25-55-594.txt Node

Date: Wed Dec 21 11:25:55 EST 2022
User: dcclab
Spectrometer: QEP03738
Trigger mode: 4
Integration Time (sec): 1.000000E1
Scans to average: 1
Electric dark correction enabled: true
Nonlinearity correction enabled: false
Boxcar width: 0
XAxis mode: Wavelengths
Number of Pixels in Spectrum: 1044
>>>>>Begin Spectral Data<<<<<
784.041	13.12
784.3	-0.88
784.558	0.12
784.817	-3.88
785.075	43892.12
785.334	8931.12
785.592	4687.12
785.851	3335.12
786.109	2575.12
786.368	2017.12
786.626	1659.12
786.884	1414.12
787.143	1187.12
787.401	969.12
787.659	931.12
787.917	808.12
788.175	769.12
788.433	669.12
788.691	629.12
788.949	589.12
789.207	584.12
789.465	498.12
789.723	487.12
789.98	451.12
790.238	510.12
790.496	475.12
790.753	453.12
791.011	503.12
791.268	463.12
791.526	442.12
791.783	450.12
792.041	450.12
792.298	355.12
792.556	430.12
792.813	427.12
793.07	395.12
793.327	390.12
793.584	456.12
793.841	389.12
794.099	417.12
794.356	474.12
794.613	366.12
794.869	413.12
795.126	378.12
795.383	370.12
795.64	371.12
795.897	346.12
796.153	396.12
796.41	395.12
796.667	378.12
796.923	376.12
797.18	361.12
797.436	395.12
797.693	368.12
797.949	414.12
798.206	449.12
798.462	342.12
798.718	404.12
798.974	386.12
799.231	430.12
799.487	428.12
799.743	418.12
799.999	444.12
800.255	432.12
800.511	419.12
800.767	463.12
801.023	428.12
801.279	455.12
801.534	485.12
801.79	511.12
802.046	507.12
802.302	603.12
802.557	654.12
802.813	770.12
803.068	903.12
803.324	1218.12
803.579	1574.12
803.835	2144.12
804.09	2913.12
804.345	3773.12
804.601	4671.12
804.856	5673.12
805.111	6441.12
805.366	7108.12
805.621	7611.12
805.876	7931.12
806.131	8056.12
806.386	8195.12
806.641	8293.12
806.896	8518.12
807.151	8655.12
807.406	8754.12
807.661	8981.12
807.915	9076.12
808.17	9265.12
808.425	9345.12
808.679	9439.12
808.934	9622.12
809.188	9644.12
809.443	9771.12
809.697	9885.12
809.951	9912.12
810.206	9935.12
810.46	10087.12
810.714	10212.12
810.968	10238.12
811.223	10273.12
811.477	10374.12
811.731	10503.12
811.985	10488.12
812.239	10501.12
812.493	10574.12
812.747	10622.12
813	10610.12
813.254	10675.12
813.508	10829.12
813.762	10885.12
814.015	10870.12
814.269	10923.12
814.522	11003.12
814.776	11103.12
815.03	11233.12
815.283	11413.12
815.536	11666.12
815.79	11773.12
816.043	12005.12
816.296	12119.12
816.55	12242.12
816.803	12409.12
817.056	12577.12
817.309	12574.12
817.562	12783.12
817.815	12883.12
818.068	12847.12
818.321	13014.12
818.574	13295.12
818.827	13321.12
819.079	13504.12
819.332	13835.12
819.585	13936.12
819.838	14113.12
820.09	14079.12
820.343	14333.12
820.595	14286.12
820.848	14371.12
821.1	14375.12
821.353	14403.12
821.605	14388.12
821.857	14409.12
822.11	14299.12
822.362	14276.12
822.614	14136.12
822.866	14187.12
823.118	14247.12
823.37	14397.12
823.622	14385.12
823.874	14296.12
824.126	14380.12
824.378	14423.12
824.63	14393.12
824.882	14495.12
825.134	14499.12
825.385	14496.12
825.637	14417.12
825.888	14417.12
826.14	14379.12
826.392	14180.12
826.643	14104.12
826.895	14207.12
827.146	14188.12
827.397	14111.12
827.649	14091.12
827.9	14050.12
828.151	14074.12
828.402	14117.12
828.653	14127.12
828.905	14163.12
829.156	14184.12
829.407	14112.12
829.658	14279.12
829.909	14338.12
830.159	14242.12
830.41	14138.12
830.661	14031.12
830.912	13943.12
831.162	13813.12
831.413	13891.12
831.664	13867.12
831.914	13925.12
832.165	13843.12
832.415	13846.12
832.666	13890.12
832.916	13862.12
833.167	13870.12
833.417	13853.12
833.667	13805.12
833.917	13782.12
834.168	13713.12
834.418	13679.12
834.668	13599.12
834.918	13599.12
835.168	13551.12
835.418	13512.12
835.668	13407.12
835.918	13482.12
836.167	13380.12
836.417	13326.12
836.667	13371.12
836.917	13308.12
837.166	13365.12
837.416	13314.12
837.666	13321.12
837.915	13348.12
838.165	13231.12
838.414	13181.12
838.663	13116.12
838.913	13103.12
839.162	13095.12
839.411	13172.12
839.661	13129.12
839.91	13100.12
840.159	13098.12
840.408	13075.12
840.657	13085.12
840.906	13044.12
841.155	13125.12
841.404	13023.12
841.653	13086.12
841.902	13075.12
842.15	13162.12
842.399	13107.12
842.648	13124.12
842.897	13053.12
843.145	12947.12
843.394	12886.12
843.642	12755.12
843.891	12756.12
844.139	12613.12
844.388	12533.12
844.636	12461.12
844.884	12574.12
845.133	12454.12
845.381	12501.12
845.629	12511.12
845.877	12480.12
846.125	12448.12
846.373	12430.12
846.621	12307.12
846.869	12441.12
847.117	12238.12
847.365	12200.12
847.613	12166.12
847.861	12128.12
848.108	12190.12
848.356	12208.12
848.604	12059.12
848.851	12150.12
849.099	12172.12
849.346	12153.12
849.594	12247.12
849.841	12362.12
850.089	12516.12
850.336	12549.12
850.583	12569.12
850.831	12472.12
851.078	12420.12
851.325	12348.12
851.572	12267.12
851.819	12076.12
852.066	11904.12
852.313	11666.12
852.56	11540.12
852.807	11488.12
853.054	11464.12
853.301	11471.12
853.548	11539.12
853.794	11558.12
854.041	11580.12
854.288	11617.12
854.534	11872.12
854.781	11733.12
855.028	11679.12
855.274	11763.12
855.52	11619.12
855.767	11622.12
856.013	11728.12
856.26	11875.12
856.506	11477.12
856.752	11548.12
856.998	11494.12
857.244	11551.12
857.49	11628.12
857.736	11606.12
857.982	11595.12
858.228	11611.12
858.474	11480.12
858.72	11405.12
858.966	11345.12
859.212	11180.12
859.458	11042.12
859.703	11003.12
859.949	10870.12
860.195	10798.12
860.44	10847.12
860.686	10680.12
860.931	10764.12
861.177	10634.12
861.422	10584.12
861.667	10513.12
861.913	10519.12
862.158	10553.12
862.403	10635.12
862.648	10643.12
862.893	10684.12
863.138	10599.12
863.384	10561.12
863.629	10616.12
863.873	10636.12
864.118	10576.12
864.363	10480.12
864.608	10447.12
864.853	10479.12
865.098	10408.12
865.342	10390.12
865.587	10252.12
865.832	10305.12
866.076	10257.12
866.321	10137.12
866.565	10239.12
866.81	10132.12
867.054	10186.12
867.298	10049.12
867.543	10081.12
867.787	10089.12
868.031	10007.12
868.275	10059.12
868.519	10044.12
868.764	10019.12
869.008	10013.12
869.252	10027.12
869.496	9971.12
869.739	9973.12
869.983	10014.12
870.227	9999.12
870.471	9928.12
870.715	9971.12
870.958	10042.12
871.202	9927.12
871.446	9989.12
871.689	9958.12
871.933	10054.12
872.176	9997.12
872.42	9992.12
872.663	9959.12
872.906	10044.12
873.15	9939.12
873.393	9950.12
873.636	9978.12
873.879	9865.12
874.122	9780.12
874.366	9599.12
874.609	9502.12
874.852	9414.12
875.095	9415.12
875.337	9334.12
875.58	9206.12
875.823	9243.12
876.066	9319.12
876.309	9191.12
876.551	9148.12
876.794	9055.12
877.037	9123.12
877.279	9039.12
877.522	9084.12
877.764	9166.12
878.007	9042.12
878.249	9171.12
878.491	9028.12
878.734	9041.12
878.976	9055.12
879.218	8927.12
879.46	8902.12
879.702	8845.12
879.945	8831.12
880.187	8666.12
880.429	8718.12
880.671	8559.12
880.912	8626.12
881.154	8587.12
881.396	8527.12
881.638	8520.12
881.88	8590.12
882.121	8469.12
882.363	8503.12
882.605	8507.12
882.846	8510.12
883.088	8599.12
883.329	8432.12
883.571	8508.12
883.812	8598.12
884.053	8838.12
884.295	8950.12
884.536	9014.12
884.777	8962.12
885.018	8830.12
885.259	8853.12
885.5	8653.12
885.742	8983.12
885.982	8768.12
886.223	8627.12
886.464	8664.12
886.705	8445.12
886.946	8402.12
887.187	8287.12
887.428	8269.12
887.668	8069.12
887.909	8011.12
888.15	7906.12
888.39	7890.12
888.631	7858.12
888.871	7832.12
889.111	7719.12
889.352	7712.12
889.592	7576.12
889.833	7563.12
890.073	7530.12
890.313	7581.12
890.553	7318.12
890.793	7412.12
891.033	7322.12
891.273	7345.12
891.513	7377.12
891.753	7350.12
891.993	7264.12
892.233	7258.12
892.473	7356.12
892.713	7358.12
892.952	7328.12
893.192	7338.12
893.432	7227.12
893.671	7293.12
893.911	7248.12
894.15	7254.12
894.39	7125.12
894.629	7147.12
894.869	7155.12
895.108	7110.12
895.347	7039.12
895.587	7066.12
895.826	7044.12
896.065	6985.12
896.304	6978.12
896.543	7042.12
896.782	6981.12
897.021	7011.12
897.26	6922.12
897.499	7037.12
897.738	6996.12
897.977	6859.12
898.216	6882.12
898.454	6866.12
898.693	6738.12
898.932	6843.12
899.17	6734.12
899.409	6707.12
899.647	6720.12
899.886	6729.12
900.124	6731.12
900.363	6789.12
900.601	6795.12
900.839	6788.12
901.078	6811.12
901.316	6838.12
901.554	6914.12
901.792	6967.12
902.03	6891.12
902.268	6844.12
902.506	6863.12
902.744	6807.12
902.982	6777.12
903.22	6586.12
903.458	6497.12
903.695	6456.12
903.933	6454.12
904.171	6216.12
904.409	6142.12
904.646	6144.12
904.884	5988.12
905.121	5999.12
905.359	5904.12
905.596	5813.12
905.833	5746.12
906.071	5740.12
906.308	5719.12
906.545	5728.12
906.783	5659.12
907.02	5670.12
907.257	5594.12
907.494	5618.12
907.731	5628.12
907.968	5585.12
908.205	5476.12
908.442	5442.12
908.679	5502.12
908.915	5419.12
909.152	5399.12
909.389	5267.12
909.626	5302.12
909.862	5241.12
910.099	5248.12
910.335	5263.12
910.572	5185.12
910.808	5217.12
911.045	5192.12
911.281	5108.12
911.518	5201.12
911.754	5044.12
911.99	5064.12
912.226	5051.12
912.463	4968.12
912.699	4938.12
912.935	4927.12
913.171	4957.12
913.407	4852.12
913.643	4848.12
913.879	4811.12
914.114	4752.12
914.35	4670.12
914.586	4627.12
914.822	4608.12
915.057	4693.12
915.293	4517.12
915.529	4508.12
915.764	4598.12
916	4593.12
916.235	4543.12
916.471	4543.12
916.706	4493.12
916.941	4513.12
917.177	4480.12
917.412	4440.12
917.647	4481.12
917.882	4398.12
918.117	4477.12
918.352	4446.12
918.588	4469.12
918.823	4426.12
919.057	4369.12
919.292	4234.12
919.527	4337.12
919.762	4227.12
919.997	4250.12
920.232	4177.12
920.466	4160.12
920.701	4028.12
920.935	4064.12
921.17	4031.12
921.405	4027.12
921.639	4044.12
921.873	4036.12
922.108	4047.12
922.342	4055.12
922.576	3918.12
922.811	3917.12
923.045	4012.12
923.279	4015.12
923.513	3825.12
923.747	3932.12
923.981	3878.12
924.215	3819.12
924.449	3787.12
924.683	3722.12
924.917	3767.12
925.151	3736.12
925.385	3780.12
925.618	3761.12
925.852	3772.12
926.086	3682.12
926.319	3694.12
926.553	3699.12
926.786	3719.12
927.02	3705.12
927.253	3738.12
927.486	3707.12
927.72	3672.12
927.953	3713.12
928.186	3633.12
928.42	3664.12
928.653	3614.12
928.886	3589.12
929.119	3633.12
929.352	3635.12
929.585	3596.12
929.818	3520.12
930.051	3529.12
930.284	3516.12
930.516	3480.12
930.749	3481.12
930.982	3450.12
931.215	3509.12
931.447	3356.12
931.68	3379.12
931.912	3370.12
932.145	3378.12
932.377	3381.12
932.61	3501.12
932.842	3321.12
933.074	3404.12
933.307	3337.12
933.539	3452.12
933.771	3408.12
934.003	3353.12
934.236	3423.12
934.468	3410.12
934.7	3348.12
934.932	3385.12
935.164	3338.12
935.395	3267.12
935.627	3321.12
935.859	3331.12
936.091	3256.12
936.323	3311.12
936.554	3348.12
936.786	3236.12
937.017	3170.12
937.249	3258.12
937.481	3205.12
937.712	3258.12
937.943	3213.12
938.175	3175.12
938.406	3205.12
938.637	3247.12
938.869	3158.12
939.1	3200.12
939.331	3113.12
939.562	3197.12
939.793	3200.12
940.024	3222.12
940.255	3196.12
940.486	3141.12
940.717	3109.12
940.948	3096.12
941.179	3047.12
941.409	3073.12
941.64	3054.12
941.871	3073.12
942.102	3048.12
942.332	3073.12
942.563	3118.12
942.793	3053.12
943.024	3023.12
943.254	3068.12
943.484	3108.12
943.715	3113.12
943.945	3094.12
944.175	3004.12
944.405	2977.12
944.636	2990.12
944.866	3025.12
945.096	3012.12
945.326	2940.12
945.556	3056.12
945.786	3018.12
946.016	2988.12
946.245	2915.12
946.475	2887.12
946.705	2896.12
946.935	2914.12
947.164	2895.12
947.394	2843.12
947.624	2832.12
947.853	2888.12
948.083	2845.12
948.312	2793.12
948.542	2766.12
948.771	2739.12
949	2730.12
949.23	2737.12
949.459	2768.12
949.688	2802.12
949.917	2752.12
950.146	2767.12
950.375	2827.12
950.604	2738.12
950.833	2795.12
951.062	2793.12
951.291	2760.12
951.52	2701.12
951.749	2708.12
951.978	2708.12
952.206	2709.12
952.435	2658.12
952.664	2727.12
952.892	2724.12
953.121	2667.12
953.349	2747.12
953.578	2672.12
953.806	2694.12
954.035	2598.12
954.263	2627.12
954.491	2591.12
954.719	2615.12
954.948	2592.12
955.176	2548.12
955.404	2520.12
955.632	2577.12
955.86	2568.12
956.088	2543.12
956.316	2546.12
956.544	2531.12
956.772	2515.12
956.999	2523.12
957.227	2536.12
957.455	2461.12
957.683	2460.12
957.91	2449.12
958.138	2391.12
958.365	2378.12
958.593	2414.12
958.82	2360.12
959.048	2416.12
959.275	2388.12
959.502	2366.12
959.73	2347.12
959.957	2412.12
960.184	2432.12
960.411	2320.12
960.638	2406.12
960.865	2354.12
961.092	2421.12
961.319	2318.12
961.546	2411.12
961.773	2361.12
962	2339.12
962.227	2390.12
962.454	2354.12
962.68	2337.12
962.907	2329.12
963.134	2300.12
963.36	2309.12
963.587	2333.12
963.813	2254.12
964.04	2275.12
964.266	2186.12
964.493	2315.12
964.719	2308.12
964.945	2289.12
965.171	2166.12
965.398	2225.12
965.624	2272.12
965.85	2153.12
966.076	2162.12
966.302	2207.12
966.528	2161.12
966.754	2221.12
966.98	2172.12
967.206	2146.12
967.431	2104.12
967.657	2192.12
967.883	2184.12
968.109	2155.12
968.334	2067.12
968.56	2079.12
968.785	2063.12
969.011	2053.12
969.236	2126.12
969.462	2077.12
969.687	2095.12
969.912	2097.12
970.138	2142.12
970.363	2058.12
970.588	2075.12
970.813	2067.12
971.038	2035.12
971.263	2063.12
971.488	2036.12
971.713	2048.12
971.938	2058.12
972.163	1972.12
972.388	1988.12
972.613	1968.12
972.838	1961.12
973.062	1965.12
973.287	1995.12
973.512	1902.12
973.736	1969.12
973.961	1923.12
974.185	1896.12
974.41	1955.12
974.634	1862.12
974.858	1862.12
975.083	1896.12
975.307	1928.12
975.531	1845.12
975.755	1784.12
975.98	1856.12
976.204	1760.12
976.428	1789.12
976.652	1749.12
976.876	1771.12
977.1	1820.12
977.324	1759.12
977.547	1820.12
977.771	1818.12
977.995	1769.12
978.219	1739.12
978.442	1855.12
978.666	1780.12
978.89	1785.12
979.113	1778.12
979.337	1762.12
979.56	1739.12
979.783	1840.12
980.007	1694.12
980.23	1735.12
980.453	1703.12
980.677	1734.12
980.9	1724.12
981.123	1634.12
981.346	1741.12
981.569	1689.12
981.792	1756.12
982.015	1681.12
982.238	1639.12
982.461	1661.12
982.684	1620.12
982.907	1611.12
983.129	1611.12
983.352	1667.12
983.575	1627.12
983.797	1648.12
984.02	1611.12
984.242	1591.12
984.465	1606.12
984.687	1648.12
984.91	1650.12
985.132	1622.12
985.354	1633.12
985.577	1590.12
985.799	1600.12
986.021	1496.12
986.243	1537.12
986.465	1546.12
986.687	1600.12
986.909	1633.12
987.131	1577.12
987.353	1548.12
987.575	1576.12
987.797	1573.12
988.019	1486.12
988.241	1560.12
988.462	1510.12
988.684	1573.12
988.906	1549.12
989.127	1571.12
989.349	1502.12
989.57	1539.12
989.792	1528.12
990.013	1566.12
990.234	1572.12
990.456	1594.12
990.677	1556.12
990.898	1504.12
991.119	1504.12
991.341	1520.12
991.562	1464.12
991.783	1527.12
992.004	1464.12
992.225	1421.12
992.446	1479.12
992.667	1420.12
992.887	1498.12
993.108	1371.12
993.329	1501.12
993.55	1450.12
993.77	1407.12
993.991	1388.12
994.212	1460.12
994.432	1399.12
994.653	1443.12
994.873	1433.12
995.093	1317.12
995.314	1370.12
995.534	1453.12
995.754	1465.12
995.975	1457.12
996.195	1376.12
996.415	1409.12
996.635	1406.12
996.855	1434.12
997.075	1376.12
997.295	1403.12
997.515	1378.12
997.735	1430.12
997.955	1396.12
998.174	1389.12
998.394	1349.12
998.614	1422.12
998.834	1335.12
999.053	1427.12
999.273	1406.12
999.492	1426.12
999.712	1381.12
999.931	1333.12
1000.151	1380.12
1000.37	1372.12
1000.589	1422.12
1000.809	1358.12
1001.028	1491.12
1001.247	1382.12
1001.466	1280.12
1001.685	1444.12
1001.904	1359.12
1002.123	1367.12
1002.342	1390.12
1002.561	1311.12
1002.78	1347.12
1002.999	1430.12
1003.218	1351.12
1003.436	1349.12
1003.655	1382.12
1003.874	1304.12
1004.092	1340.12
1004.311	1388.12
1004.53	1336.12
1004.748	1409.12
1004.966	1338.12
1005.185	1395.12
1005.403	1382.12
1005.622	1369.12
1005.84	1439.12
1006.058	1322.12
1006.276	1337.12
1006.494	1882.12
1006.712	1343.12
1006.931	1395.12
1007.149	1341.12
1007.367	1338.12
1007.584	1378.12
1007.802	1391.12
1008.02	1338.12
1008.238	1439.12
1008.456	1435.12
1008.673	1321.12
1008.891	1422.12
1009.109	1374.12
1009.326	1431.12
1009.544	1505.12
1009.761	1399.12
1009.979	1500.12
1010.196	1511.12
1010.413	1635.12
1010.631	1661.12
1010.848	1694.12
1011.065	1698.12
1011.282	1646.12
1011.5	1555.12
1011.717	1690.12
1011.934	1614.12
1012.151	1659.12
1012.368	1639.12
1012.585	1568.12
1012.801	1629.12
1013.018	1632.12
1013.235	1586.12
1013.452	1612.12
1013.669	1631.12
1013.885	1564.12
1014.102	1633.12
1014.318	1592.12
1014.535	1559.12
1014.751	1590.12
1014.968	1573.12
1015.184	1609.12
1015.401	1519.12
1015.617	1528.12
1015.833	1491.12
1016.049	1516.12
1016.266	1488.12
1016.482	1486.12
1016.698	1422.12
1016.914	1481.12
1017.13	1414.12
1017.346	1406.12
1017.562	1466.12
1017.778	1393.12
1017.993	1390.12
1018.209	1435.12
1018.425	1430.12
1018.641	1370.12
1018.856	1351.12
1019.072	1372.12
1019.288	1440.12
1019.503	1376.12
1019.719	1297.12
1019.934	1339.12
1020.149	1373.12
1020.365	1337.12
1020.58	1266.12
1020.795	1318.12
1021.011	1258.12
1021.226	1253.12
1021.441	1301.12
1021.656	1191.12
1021.871	1130.12
1022.086	1152.12
1022.301	1145.12
1022.516	1124.12
1022.731	1188.12
1022.946	1085.12
1023.16	1082.12
1023.375	1061.12
1023.59	1033.12
1023.804	1018.12
1024.019	1085.12
1024.234	974.12
1024.448	1020.12
1024.663	937.12
1024.877	959.12
1025.092	981.12
1025.306	990.12
1025.52	891.12
1025.734	967.12
1025.949	890.12
1026.163	868.12
1026.377	808.12
1026.591	877.12
1026.805	795.12
1027.019	796.12
1027.233	776.12
1027.447	708.12
1027.661	811.12
1027.875	744.12
1028.088	764.12
1028.302	685.12
1028.516	680.12
1028.73	676.12
1028.943	680.12
1029.157	617.12
1029.37	593.12
1029.584	-0.88
1029.797	-4.88
1030.011	-0.88
1030.224	-1.88
