Data from QEP037381__64__11-31-35-594.txt Node

Date: Wed Dec 21 11:31:35 EST 2022
User: dcclab
Spectrometer: QEP03738
Trigger mode: 4
Integration Time (sec): 1.000000E1
Scans to average: 1
Electric dark correction enabled: true
Nonlinearity correction enabled: false
Boxcar width: 0
XAxis mode: Wavelengths
Number of Pixels in Spectrum: 1044
>>>>>Begin Spectral Data<<<<<
784.041	10.5
784.3	1.5
784.558	-0.5
784.817	-6.5
785.075	41829.5
785.334	8608.5
785.592	4583.5
785.851	3259.5
786.109	2513.5
786.368	1986.5
786.626	1609.5
786.884	1384.5
787.143	1167.5
787.401	959.5
787.659	917.5
787.917	783.5
788.175	745.5
788.433	657.5
788.691	605.5
788.949	564.5
789.207	578.5
789.465	479.5
789.723	488.5
789.98	446.5
790.238	477.5
790.496	467.5
790.753	446.5
791.011	490.5
791.268	437.5
791.526	426.5
791.783	452.5
792.041	438.5
792.298	329.5
792.556	425.5
792.813	396.5
793.07	390.5
793.327	375.5
793.584	438.5
793.841	372.5
794.099	397.5
794.356	441.5
794.613	371.5
794.869	393.5
795.126	355.5
795.383	348.5
795.64	372.5
795.897	340.5
796.153	382.5
796.41	366.5
796.667	347.5
796.923	353.5
797.18	365.5
797.436	386.5
797.693	342.5
797.949	395.5
798.206	423.5
798.462	347.5
798.718	370.5
798.974	367.5
799.231	404.5
799.487	411.5
799.743	380.5
799.999	422.5
800.255	419.5
800.511	385.5
800.767	422.5
801.023	412.5
801.279	431.5
801.534	445.5
801.79	460.5
802.046	457.5
802.302	542.5
802.557	566.5
802.813	655.5
803.068	742.5
803.324	955.5
803.579	1207.5
803.835	1610.5
804.09	2186.5
804.345	2718.5
804.601	3311.5
804.856	4001.5
805.111	4669.5
805.366	5141.5
805.621	5431.5
805.876	5766.5
806.131	5909.5
806.386	5957.5
806.641	6089.5
806.896	6144.5
807.151	6317.5
807.406	6385.5
807.661	6514.5
807.915	6635.5
808.17	6702.5
808.425	6806.5
808.679	6755.5
808.934	6963.5
809.188	6968.5
809.443	7081.5
809.697	7097.5
809.951	7179.5
810.206	7215.5
810.46	7321.5
810.714	7446.5
810.968	7509.5
811.223	7469.5
811.477	7529.5
811.731	7644.5
811.985	7575.5
812.239	7559.5
812.493	7672.5
812.747	7708.5
813	7652.5
813.254	7712.5
813.508	7775.5
813.762	7751.5
814.015	7739.5
814.269	7845.5
814.522	7961.5
814.776	8051.5
815.03	8086.5
815.283	8297.5
815.536	8360.5
815.79	8512.5
816.043	8595.5
816.296	8649.5
816.55	8782.5
816.803	8883.5
817.056	9078.5
817.309	9079.5
817.562	9149.5
817.815	9252.5
818.068	9317.5
818.321	9376.5
818.574	9489.5
818.827	9674.5
819.079	9678.5
819.332	9972.5
819.585	10019.5
819.838	10132.5
820.09	10114.5
820.343	10241.5
820.595	10192.5
820.848	10219.5
821.1	10291.5
821.353	10291.5
821.605	10259.5
821.857	10329.5
822.11	10096.5
822.362	10198.5
822.614	10059.5
822.866	10134.5
823.118	10125.5
823.37	10292.5
823.622	10274.5
823.874	10241.5
824.126	10312.5
824.378	10228.5
824.63	10312.5
824.882	10267.5
825.134	10226.5
825.385	10271.5
825.637	10173.5
825.888	10239.5
826.14	10231.5
826.392	10091.5
826.643	10075.5
826.895	10074.5
827.146	9964.5
827.397	9947.5
827.649	10071.5
827.9	9943.5
828.151	9895.5
828.402	10001.5
828.653	9942.5
828.905	10001.5
829.156	10066.5
829.407	10048.5
829.658	10106.5
829.909	10178.5
830.159	10156.5
830.41	10076.5
830.661	10047.5
830.912	9931.5
831.162	9869.5
831.413	9813.5
831.664	9924.5
831.914	9820.5
832.165	9801.5
832.415	9840.5
832.666	9810.5
832.916	9845.5
833.167	9761.5
833.417	9874.5
833.667	9751.5
833.917	9731.5
834.168	9802.5
834.418	9675.5
834.668	9682.5
834.918	9515.5
835.168	9544.5
835.418	9500.5
835.668	9474.5
835.918	9566.5
836.167	9477.5
836.417	9330.5
836.667	9399.5
836.917	9482.5
837.166	9381.5
837.416	9449.5
837.666	9435.5
837.915	9413.5
838.165	9433.5
838.414	9361.5
838.663	9317.5
838.913	9330.5
839.162	9269.5
839.411	9397.5
839.661	9301.5
839.91	9261.5
840.159	9202.5
840.408	9299.5
840.657	9228.5
840.906	9312.5
841.155	9344.5
841.404	9305.5
841.653	9256.5
841.902	9240.5
842.15	9336.5
842.399	9316.5
842.648	9360.5
842.897	9301.5
843.145	9208.5
843.394	9106.5
843.642	9027.5
843.891	9074.5
844.139	8982.5
844.388	8890.5
844.636	8774.5
844.884	8837.5
845.133	8849.5
845.381	8874.5
845.629	8930.5
845.877	8815.5
846.125	8796.5
846.373	8801.5
846.621	8777.5
846.869	8738.5
847.117	8698.5
847.365	8646.5
847.613	8614.5
847.861	8620.5
848.108	8648.5
848.356	8568.5
848.604	8542.5
848.851	8590.5
849.099	8572.5
849.346	8696.5
849.594	8684.5
849.841	8719.5
850.089	8821.5
850.336	8863.5
850.583	8952.5
850.831	8888.5
851.078	8824.5
851.325	8757.5
851.572	8770.5
851.819	8595.5
852.066	8384.5
852.313	8306.5
852.56	8190.5
852.807	8065.5
853.054	8097.5
853.301	8181.5
853.548	8099.5
853.794	8249.5
854.041	8254.5
854.288	8308.5
854.534	8437.5
854.781	8311.5
855.028	8327.5
855.274	8327.5
855.52	8300.5
855.767	8243.5
856.013	8444.5
856.26	8602.5
856.506	8203.5
856.752	8202.5
856.998	8254.5
857.244	8264.5
857.49	8307.5
857.736	8262.5
857.982	8186.5
858.228	8252.5
858.474	8130.5
858.72	8072.5
858.966	7999.5
859.212	7918.5
859.458	7804.5
859.703	7773.5
859.949	7629.5
860.195	7655.5
860.44	7671.5
860.686	7592.5
860.931	7629.5
861.177	7546.5
861.422	7473.5
861.667	7418.5
861.913	7364.5
862.158	7436.5
862.403	7452.5
862.648	7397.5
862.893	7437.5
863.138	7449.5
863.384	7394.5
863.629	7388.5
863.873	7353.5
864.118	7392.5
864.363	7275.5
864.608	7313.5
864.853	7318.5
865.098	7252.5
865.342	7190.5
865.587	7188.5
865.832	7177.5
866.076	7169.5
866.321	7178.5
866.565	7127.5
866.81	7008.5
867.054	7097.5
867.298	7095.5
867.543	6991.5
867.787	7053.5
868.031	7040.5
868.275	7017.5
868.519	7011.5
868.764	7001.5
869.008	6985.5
869.252	7047.5
869.496	6955.5
869.739	7006.5
869.983	7004.5
870.227	7048.5
870.471	7036.5
870.715	7112.5
870.958	7104.5
871.202	7172.5
871.446	7083.5
871.689	7139.5
871.933	7095.5
872.176	7061.5
872.42	7037.5
872.663	6993.5
872.906	7089.5
873.15	7133.5
873.393	7176.5
873.636	7171.5
873.879	7044.5
874.122	6961.5
874.366	6824.5
874.609	6805.5
874.852	6711.5
875.095	6654.5
875.337	6618.5
875.58	6478.5
875.823	6505.5
876.066	6539.5
876.309	6526.5
876.551	6394.5
876.794	6401.5
877.037	6398.5
877.279	6394.5
877.522	6340.5
877.764	6360.5
878.007	6320.5
878.249	6360.5
878.491	6272.5
878.734	6277.5
878.976	6263.5
879.218	6215.5
879.46	6167.5
879.702	6177.5
879.945	6085.5
880.187	6020.5
880.429	6079.5
880.671	5998.5
880.912	5955.5
881.154	5959.5
881.396	5878.5
881.638	5924.5
881.88	5894.5
882.121	5928.5
882.363	5960.5
882.605	5961.5
882.846	5945.5
883.088	5946.5
883.329	5987.5
883.571	6041.5
883.812	6173.5
884.053	6363.5
884.295	6483.5
884.536	6699.5
884.777	6594.5
885.018	6492.5
885.259	6527.5
885.5	6356.5
885.742	6599.5
885.982	6364.5
886.223	6239.5
886.464	6187.5
886.705	6012.5
886.946	6047.5
887.187	5844.5
887.428	5807.5
887.668	5644.5
887.909	5538.5
888.15	5517.5
888.39	5457.5
888.631	5458.5
888.871	5364.5
889.111	5317.5
889.352	5297.5
889.592	5188.5
889.833	5137.5
890.073	5140.5
890.313	5215.5
890.553	5063.5
890.793	5057.5
891.033	4996.5
891.273	5011.5
891.513	5009.5
891.753	5040.5
891.993	5004.5
892.233	5020.5
892.473	5106.5
892.713	4999.5
892.952	4955.5
893.192	5051.5
893.432	4978.5
893.671	4991.5
893.911	4911.5
894.15	4961.5
894.39	4862.5
894.629	4879.5
894.869	4907.5
895.108	4827.5
895.347	4803.5
895.587	4840.5
895.826	4825.5
896.065	4773.5
896.304	4872.5
896.543	4833.5
896.782	4724.5
897.021	4794.5
897.26	4771.5
897.499	4802.5
897.738	4882.5
897.977	4778.5
898.216	4718.5
898.454	4723.5
898.693	4661.5
898.932	4672.5
899.17	4708.5
899.409	4690.5
899.647	4671.5
899.886	4662.5
900.124	4699.5
900.363	4640.5
900.601	4700.5
900.839	4687.5
901.078	4839.5
901.316	4761.5
901.554	4818.5
901.792	4902.5
902.03	4848.5
902.268	4831.5
902.506	4900.5
902.744	4795.5
902.982	4777.5
903.22	4542.5
903.458	4583.5
903.695	4508.5
903.933	4408.5
904.171	4309.5
904.409	4214.5
904.646	4203.5
904.884	4171.5
905.121	4115.5
905.359	4030.5
905.596	3970.5
905.833	3907.5
906.071	3935.5
906.308	3906.5
906.545	3894.5
906.783	3834.5
907.02	3846.5
907.257	3804.5
907.494	3817.5
907.731	3861.5
907.968	3760.5
908.205	3735.5
908.442	3752.5
908.679	3724.5
908.915	3706.5
909.152	3698.5
909.389	3623.5
909.626	3580.5
909.862	3554.5
910.099	3621.5
910.335	3619.5
910.572	3497.5
910.808	3497.5
911.045	3533.5
911.281	3440.5
911.518	3529.5
911.754	3411.5
911.99	3446.5
912.226	3387.5
912.463	3379.5
912.699	3358.5
912.935	3335.5
913.171	3314.5
913.407	3246.5
913.643	3302.5
913.879	3245.5
914.114	3227.5
914.35	3179.5
914.586	3154.5
914.822	3143.5
915.057	3172.5
915.293	3060.5
915.529	3058.5
915.764	3122.5
916	3112.5
916.235	3068.5
916.471	3110.5
916.706	3038.5
916.941	3027.5
917.177	3029.5
917.412	3066.5
917.647	3051.5
917.882	3019.5
918.117	3062.5
918.352	3034.5
918.588	3066.5
918.823	2970.5
919.057	2943.5
919.292	2866.5
919.527	2929.5
919.762	2838.5
919.997	2916.5
920.232	2859.5
920.466	2864.5
920.701	2742.5
920.935	2755.5
921.17	2746.5
921.405	2708.5
921.639	2779.5
921.873	2734.5
922.108	2732.5
922.342	2725.5
922.576	2644.5
922.811	2645.5
923.045	2719.5
923.279	2690.5
923.513	2593.5
923.747	2711.5
923.981	2656.5
924.215	2590.5
924.449	2609.5
924.683	2568.5
924.917	2551.5
925.151	2525.5
925.385	2596.5
925.618	2576.5
925.852	2593.5
926.086	2492.5
926.319	2522.5
926.553	2546.5
926.786	2519.5
927.02	2517.5
927.253	2560.5
927.486	2564.5
927.72	2477.5
927.953	2524.5
928.186	2479.5
928.42	2512.5
928.653	2485.5
928.886	2442.5
929.119	2488.5
929.352	2448.5
929.585	2466.5
929.818	2405.5
930.051	2428.5
930.284	2415.5
930.516	2318.5
930.749	2348.5
930.982	2391.5
931.215	2358.5
931.447	2313.5
931.68	2332.5
931.912	2329.5
932.145	2298.5
932.377	2342.5
932.61	2465.5
932.842	2269.5
933.074	2319.5
933.307	2298.5
933.539	2371.5
933.771	2374.5
934.003	2289.5
934.236	2348.5
934.468	2365.5
934.7	2284.5
934.932	2321.5
935.164	2266.5
935.395	2247.5
935.627	2272.5
935.859	2267.5
936.091	2211.5
936.323	2258.5
936.554	2277.5
936.786	2218.5
937.017	2219.5
937.249	2203.5
937.481	2163.5
937.712	2212.5
937.943	2219.5
938.175	2207.5
938.406	2176.5
938.637	2272.5
938.869	2141.5
939.1	2182.5
939.331	2138.5
939.562	2203.5
939.793	2166.5
940.024	2202.5
940.255	2180.5
940.486	2142.5
940.717	2137.5
940.948	2161.5
941.179	2115.5
941.409	2112.5
941.64	2105.5
941.871	2140.5
942.102	2083.5
942.332	2116.5
942.563	2140.5
942.793	2139.5
943.024	2084.5
943.254	2122.5
943.484	2132.5
943.715	2154.5
943.945	2095.5
944.175	2050.5
944.405	2059.5
944.636	2068.5
944.866	2089.5
945.096	2123.5
945.326	2015.5
945.556	2098.5
945.786	2114.5
946.016	2049.5
946.245	1989.5
946.475	2014.5
946.705	1993.5
946.935	2001.5
947.164	2003.5
947.394	1956.5
947.624	1978.5
947.853	2018.5
948.083	1973.5
948.312	1942.5
948.542	1903.5
948.771	1920.5
949	1887.5
949.23	1901.5
949.459	1921.5
949.688	1977.5
949.917	1915.5
950.146	1939.5
950.375	1963.5
950.604	1878.5
950.833	1987.5
951.062	1959.5
951.291	1923.5
951.52	1886.5
951.749	1913.5
951.978	1826.5
952.206	1896.5
952.435	1860.5
952.664	1882.5
952.892	1896.5
953.121	1886.5
953.349	1911.5
953.578	1902.5
953.806	1826.5
954.035	1803.5
954.263	1845.5
954.491	1803.5
954.719	1842.5
954.948	1783.5
955.176	1791.5
955.404	1712.5
955.632	1770.5
955.86	1784.5
956.088	1772.5
956.316	1790.5
956.544	1823.5
956.772	1742.5
956.999	1715.5
957.227	1821.5
957.455	1703.5
957.683	1723.5
957.91	1682.5
958.138	1667.5
958.365	1689.5
958.593	1664.5
958.82	1618.5
959.048	1721.5
959.275	1673.5
959.502	1659.5
959.73	1656.5
959.957	1670.5
960.184	1691.5
960.411	1629.5
960.638	1711.5
960.865	1650.5
961.092	1684.5
961.319	1601.5
961.546	1698.5
961.773	1701.5
962	1640.5
962.227	1695.5
962.454	1630.5
962.68	1627.5
962.907	1634.5
963.134	1600.5
963.36	1641.5
963.587	1651.5
963.813	1604.5
964.04	1628.5
964.266	1573.5
964.493	1636.5
964.719	1600.5
964.945	1625.5
965.171	1554.5
965.398	1570.5
965.624	1598.5
965.85	1528.5
966.076	1517.5
966.302	1590.5
966.528	1546.5
966.754	1598.5
966.98	1564.5
967.206	1526.5
967.431	1483.5
967.657	1571.5
967.883	1579.5
968.109	1543.5
968.334	1503.5
968.56	1488.5
968.785	1510.5
969.011	1458.5
969.236	1522.5
969.462	1454.5
969.687	1472.5
969.912	1516.5
970.138	1528.5
970.363	1450.5
970.588	1479.5
970.813	1465.5
971.038	1443.5
971.263	1489.5
971.488	1495.5
971.713	1503.5
971.938	1499.5
972.163	1408.5
972.388	1417.5
972.613	1415.5
972.838	1434.5
973.062	1413.5
973.287	1425.5
973.512	1346.5
973.736	1436.5
973.961	1358.5
974.185	1361.5
974.41	1426.5
974.634	1333.5
974.858	1342.5
975.083	1388.5
975.307	1395.5
975.531	1364.5
975.755	1296.5
975.98	1322.5
976.204	1283.5
976.428	1280.5
976.652	1282.5
976.876	1253.5
977.1	1303.5
977.324	1243.5
977.547	1326.5
977.771	1338.5
977.995	1301.5
978.219	1245.5
978.442	1351.5
978.666	1295.5
978.89	1281.5
979.113	1269.5
979.337	1292.5
979.56	1257.5
979.783	1355.5
980.007	1220.5
980.23	1264.5
980.453	1215.5
980.677	1280.5
980.9	1256.5
981.123	1180.5
981.346	1272.5
981.569	1246.5
981.792	1271.5
982.015	1236.5
982.238	1211.5
982.461	1232.5
982.684	1189.5
982.907	1206.5
983.129	1183.5
983.352	1228.5
983.575	1214.5
983.797	1235.5
984.02	1187.5
984.242	1187.5
984.465	1202.5
984.687	1221.5
984.91	1245.5
985.132	1201.5
985.354	1240.5
985.577	1207.5
985.799	1190.5
986.021	1099.5
986.243	1118.5
986.465	1192.5
986.687	1219.5
986.909	1229.5
987.131	1184.5
987.353	1154.5
987.575	1199.5
987.797	1145.5
988.019	1100.5
988.241	1159.5
988.462	1104.5
988.684	1194.5
988.906	1225.5
989.127	1230.5
989.349	1105.5
989.57	1147.5
989.792	1178.5
990.013	1180.5
990.234	1205.5
990.456	1227.5
990.677	1207.5
990.898	1162.5
991.119	1164.5
991.341	1180.5
991.562	1102.5
991.783	1179.5
992.004	1112.5
992.225	1083.5
992.446	1148.5
992.667	1071.5
992.887	1136.5
993.108	1064.5
993.329	1179.5
993.55	1138.5
993.77	1062.5
993.991	1080.5
994.212	1118.5
994.432	1081.5
994.653	1127.5
994.873	1125.5
995.093	1038.5
995.314	1054.5
995.534	1137.5
995.754	1167.5
995.975	1168.5
996.195	1061.5
996.415	1104.5
996.635	1095.5
996.855	1124.5
997.075	1086.5
997.295	1076.5
997.515	1083.5
997.735	1144.5
997.955	1110.5
998.174	1082.5
998.394	1071.5
998.614	1121.5
998.834	1076.5
999.053	1143.5
999.273	1098.5
999.492	1156.5
999.712	1105.5
999.931	1066.5
1000.151	1124.5
1000.37	1077.5
1000.589	1151.5
1000.809	1066.5
1001.028	1183.5
1001.247	1106.5
1001.466	1028.5
1001.685	1186.5
1001.904	1118.5
1002.123	1096.5
1002.342	1114.5
1002.561	1060.5
1002.78	1101.5
1002.999	1167.5
1003.218	1096.5
1003.436	1076.5
1003.655	1145.5
1003.874	1084.5
1004.092	1100.5
1004.311	1147.5
1004.53	1082.5
1004.748	1174.5
1004.966	1104.5
1005.185	1161.5
1005.403	1153.5
1005.622	1128.5
1005.84	1199.5
1006.058	1107.5
1006.276	1134.5
1006.494	1649.5
1006.712	1145.5
1006.931	1199.5
1007.149	1105.5
1007.367	1115.5
1007.584	1164.5
1007.802	1184.5
1008.02	1158.5
1008.238	1232.5
1008.456	1239.5
1008.673	1109.5
1008.891	1201.5
1009.109	1179.5
1009.326	1217.5
1009.544	1313.5
1009.761	1222.5
1009.979	1300.5
1010.196	1333.5
1010.413	1425.5
1010.631	1467.5
1010.848	1489.5
1011.065	1516.5
1011.282	1449.5
1011.5	1369.5
1011.717	1505.5
1011.934	1426.5
1012.151	1484.5
1012.368	1449.5
1012.585	1402.5
1012.801	1475.5
1013.018	1420.5
1013.235	1383.5
1013.452	1419.5
1013.669	1437.5
1013.885	1421.5
1014.102	1429.5
1014.318	1422.5
1014.535	1396.5
1014.751	1428.5
1014.968	1425.5
1015.184	1432.5
1015.401	1346.5
1015.617	1377.5
1015.833	1316.5
1016.049	1335.5
1016.266	1312.5
1016.482	1314.5
1016.698	1249.5
1016.914	1305.5
1017.13	1238.5
1017.346	1244.5
1017.562	1339.5
1017.778	1241.5
1017.993	1225.5
1018.209	1257.5
1018.425	1245.5
1018.641	1228.5
1018.856	1186.5
1019.072	1244.5
1019.288	1289.5
1019.503	1234.5
1019.719	1138.5
1019.934	1151.5
1020.149	1249.5
1020.365	1176.5
1020.58	1130.5
1020.795	1187.5
1021.011	1119.5
1021.226	1074.5
1021.441	1116.5
1021.656	1063.5
1021.871	982.5
1022.086	1017.5
1022.301	983.5
1022.516	982.5
1022.731	1068.5
1022.946	939.5
1023.16	942.5
1023.375	902.5
1023.59	912.5
1023.804	863.5
1024.019	962.5
1024.234	838.5
1024.448	864.5
1024.663	808.5
1024.877	844.5
1025.092	850.5
1025.306	846.5
1025.52	761.5
1025.734	846.5
1025.949	788.5
1026.163	743.5
1026.377	707.5
1026.591	739.5
1026.805	672.5
1027.019	674.5
1027.233	641.5
1027.447	604.5
1027.661	712.5
1027.875	633.5
1028.088	657.5
1028.302	584.5
1028.516	589.5
1028.73	580.5
1028.943	576.5
1029.157	542.5
1029.37	504.5
1029.584	-1.5
1029.797	-1.5
1030.011	-0.5
1030.224	-1.5
