Data from QEP037381__1__11-21-05-593.txt Node

Date: Wed Dec 21 11:21:05 EST 2022
User: dcclab
Spectrometer: QEP03738
Trigger mode: 4
Integration Time (sec): 1.000000E1
Scans to average: 1
Electric dark correction enabled: true
Nonlinearity correction enabled: false
Boxcar width: 0
XAxis mode: Wavelengths
Number of Pixels in Spectrum: 1044
>>>>>Begin Spectral Data<<<<<
784.041	11
784.3	2
784.558	-3
784.817	-3
785.075	38902
785.334	8030
785.592	4306
785.851	3032
786.109	2312
786.368	1871
786.626	1571
786.884	1331
787.143	1124
787.401	943
787.659	899
787.917	785
788.175	763
788.433	681
788.691	604
788.949	572
789.207	568
789.465	503
789.723	496
789.98	471
790.238	509
790.496	489
790.753	464
791.011	527
791.268	472
791.526	461
791.783	480
792.041	467
792.298	387
792.556	451
792.813	453
793.07	429
793.327	407
793.584	488
793.841	421
794.099	432
794.356	503
794.613	404
794.869	447
795.126	411
795.383	398
795.64	418
795.897	389
796.153	437
796.41	421
796.667	410
796.923	430
797.18	417
797.436	451
797.693	407
797.949	481
798.206	504
798.462	411
798.718	491
798.974	467
799.231	512
799.487	496
799.743	493
799.999	537
800.255	528
800.511	508
800.767	571
801.023	579
801.279	602
801.534	644
801.79	719
802.046	786
802.302	964
802.557	1112
802.813	1390
803.068	1792
803.324	2529
803.579	3438
803.835	4821
804.09	6610
804.345	8568
804.601	10894
804.856	13199
805.111	15399
805.366	16908
805.621	18037
805.876	18932
806.131	19484
806.386	19949
806.641	20255
806.896	20540
807.151	21033
807.406	21282
807.661	21746
807.915	22161
808.17	22379
808.425	22778
808.679	22999
808.934	23353
809.188	23382
809.443	23676
809.697	24101
809.951	24066
810.206	24519
810.46	24641
810.714	24906
810.968	25169
811.223	25335
811.477	25582
811.731	25713
811.985	25858
812.239	26162
812.493	26233
812.747	26478
813	26369
813.254	26489
813.508	26675
813.762	26810
814.015	26941
814.269	27292
814.522	27563
814.776	27797
815.03	28050
815.283	28584
815.536	29216
815.79	29517
816.043	30043
816.296	30294
816.55	30793
816.803	31213
817.056	31686
817.309	31883
817.562	32202
817.815	32543
818.068	32746
818.321	33252
818.574	33633
818.827	33947
819.079	34371
819.332	34940
819.585	35404
819.838	35949
820.09	36153
820.343	36471
820.595	36574
820.848	36859
821.1	37109
821.353	37115
821.605	37041
821.857	37186
822.11	36830
822.362	36848
822.614	36700
822.866	36782
823.118	36688
823.37	36979
823.622	37077
823.874	37155
824.126	37379
824.378	37300
824.63	37356
824.882	37486
825.134	37607
825.385	37565
825.637	37445
825.888	37440
826.14	37412
826.392	37237
826.643	37112
826.895	36995
827.146	36718
827.397	36706
827.649	36864
827.9	36714
828.151	36838
828.402	36919
828.653	37072
828.905	37134
829.156	37211
829.407	37153
829.658	37031
829.909	37296
830.159	37108
830.41	36952
830.661	36742
830.912	36701
831.162	36394
831.413	36220
831.664	36224
831.914	36375
832.165	36258
832.415	36159
832.666	36260
832.916	36240
833.167	36389
833.417	36488
833.667	36317
833.917	36007
834.168	35935
834.418	35922
834.668	35690
834.918	35580
835.168	35559
835.418	35312
835.668	35207
835.918	35334
836.167	35140
836.417	35134
836.667	35098
836.917	35093
837.166	34877
837.416	34942
837.666	34984
837.915	34907
838.165	34835
838.414	34769
838.663	34646
838.913	34683
839.162	34415
839.411	34310
839.661	34239
839.91	34374
840.159	34260
840.408	34150
840.657	34202
840.906	34185
841.155	34170
841.404	34085
841.653	34308
841.902	34279
842.15	34296
842.399	34308
842.648	34155
842.897	34070
843.145	33836
843.394	33773
843.642	33479
843.891	33334
844.139	33116
844.388	33040
844.636	33022
844.884	32874
845.133	32846
845.381	32770
845.629	32849
845.877	32737
846.125	32645
846.373	32652
846.621	32557
846.869	32418
847.117	32372
847.365	32045
847.613	31832
847.861	31807
848.108	31822
848.356	31744
848.604	31654
848.851	31719
849.099	31628
849.346	31767
849.594	32078
849.841	32151
850.089	32145
850.336	32325
850.583	32358
850.831	32156
851.078	31916
851.325	31731
851.572	31568
851.819	31229
852.066	30769
852.313	30491
852.56	30380
852.807	30252
853.054	30045
853.301	29939
853.548	29969
853.794	30164
854.041	30185
854.288	30355
854.534	30615
854.781	30419
855.028	30500
855.274	30371
855.52	30207
855.767	30084
856.013	29943
856.26	30221
856.506	29636
856.752	29790
856.998	29762
857.244	29712
857.49	29919
857.736	30024
857.982	30038
858.228	29792
858.474	29686
858.72	29344
858.966	29216
859.212	28688
859.458	28635
859.703	28423
859.949	28080
860.195	28056
860.44	27918
860.686	27739
860.931	27665
861.177	27442
861.422	27290
861.667	27248
861.913	27409
862.158	27498
862.403	27550
862.648	27424
862.893	27581
863.138	27573
863.384	27576
863.629	27380
863.873	27377
864.118	27334
864.363	27025
864.608	27030
864.853	26894
865.098	26795
865.342	26716
865.587	26583
865.832	26633
866.076	26483
866.321	26303
866.565	26333
866.81	26217
867.054	26103
867.298	26035
867.543	25859
867.787	25894
868.031	25945
868.275	25665
868.519	25651
868.764	25612
869.008	25572
869.252	25511
869.496	25387
869.739	25302
869.983	25313
870.227	25210
870.471	25201
870.715	25208
870.958	25309
871.202	25320
871.446	25296
871.689	25283
871.933	25214
872.176	25287
872.42	25193
872.663	25067
872.906	24973
873.15	24875
873.393	24720
873.636	24566
873.879	24436
874.122	24181
874.366	23968
874.609	23565
874.852	23578
875.095	23486
875.337	23403
875.58	23360
875.823	23165
876.066	23180
876.309	23156
876.551	22942
876.794	22840
877.037	22885
877.279	22678
877.522	22862
877.764	22800
878.007	22733
878.249	22703
878.491	22683
878.734	22705
878.976	22728
879.218	22469
879.46	22504
879.702	22283
879.945	22152
880.187	21843
880.429	21924
880.671	21666
880.912	21586
881.154	21558
881.396	21516
881.638	21459
881.88	21420
882.121	21459
882.363	21364
882.605	21233
882.846	21131
883.088	21052
883.329	21012
883.571	20978
883.812	20902
884.053	20984
884.295	21332
884.536	21399
884.777	21054
885.018	21064
885.259	21070
885.5	20899
885.742	21127
885.982	20932
886.223	20833
886.464	20626
886.705	20526
886.946	20418
887.187	20176
887.428	20032
887.668	19863
887.909	19697
888.15	19547
888.39	19526
888.631	19362
888.871	19239
889.111	19244
889.352	19004
889.592	18794
889.833	18658
890.073	18525
890.313	18499
890.553	18332
890.793	18254
891.033	18215
891.273	18160
891.513	17945
891.753	18039
891.993	17882
892.233	17888
892.473	18074
892.713	17979
892.952	17938
893.192	18022
893.432	17886
893.671	17956
893.911	17793
894.15	17678
894.39	17550
894.629	17476
894.869	17363
895.108	17219
895.347	17082
895.587	17075
895.826	17012
896.065	16953
896.304	16991
896.543	16953
896.782	16814
897.021	16835
897.26	16687
897.499	16744
897.738	16576
897.977	16419
898.216	16292
898.454	16225
898.693	16055
898.932	16010
899.17	15931
899.409	15878
899.647	15790
899.886	15762
900.124	15806
900.363	15730
900.601	15775
900.839	15799
901.078	15680
901.316	15825
901.554	15821
901.792	15887
902.03	15692
902.268	15683
902.506	15601
902.744	15467
902.982	15474
903.22	15237
903.458	15183
903.695	14945
903.933	14874
904.171	14612
904.409	14504
904.646	14393
904.884	14151
905.121	14032
905.359	13868
905.596	13712
905.833	13610
906.071	13470
906.308	13656
906.545	13457
906.783	13491
907.02	13463
907.257	13382
907.494	13374
907.731	13298
907.968	13278
908.205	13198
908.442	13005
908.679	12993
908.915	12840
909.152	12878
909.389	12655
909.626	12598
909.862	12445
910.099	12557
910.335	12431
910.572	12309
910.808	12348
911.045	12214
911.281	12268
911.518	12267
911.754	12060
911.99	12059
912.226	11933
912.463	11796
912.699	11751
912.935	11679
913.171	11572
913.407	11419
913.643	11447
913.879	11274
914.114	11232
914.35	11065
914.586	10933
914.822	10865
915.057	10909
915.293	10724
915.529	10609
915.764	10759
916	10655
916.235	10645
916.471	10608
916.706	10401
916.941	10511
917.177	10481
917.412	10428
917.647	10520
917.882	10430
918.117	10399
918.352	10298
918.588	10381
918.823	10181
919.057	10117
919.292	9955
919.527	9971
919.762	9782
919.997	9864
920.232	9599
920.466	9570
920.701	9441
920.935	9404
921.17	9360
921.405	9254
921.639	9283
921.873	9178
922.108	9209
922.342	9159
922.576	9090
922.811	9039
923.045	9077
923.279	9067
923.513	8858
923.747	8954
923.981	8846
924.215	8752
924.449	8749
924.683	8618
924.917	8603
925.151	8521
925.385	8541
925.618	8478
925.852	8505
926.086	8403
926.319	8460
926.553	8459
926.786	8448
927.02	8405
927.253	8375
927.486	8320
927.72	8306
927.953	8335
928.186	8280
928.42	8236
928.653	8112
928.886	8191
929.119	8078
929.352	8083
929.585	8077
929.818	7937
930.051	7912
930.284	7913
930.516	7723
930.749	7730
930.982	7705
931.215	7663
931.447	7545
931.68	7503
931.912	7473
932.145	7494
932.377	7530
932.61	7640
932.842	7460
933.074	7554
933.307	7480
933.539	7553
933.771	7493
934.003	7428
934.236	7403
934.468	7505
934.7	7408
934.932	7355
935.164	7306
935.395	7305
935.627	7289
935.859	7271
936.091	7268
936.323	7235
936.554	7202
936.786	7075
937.017	7060
937.249	7143
937.481	6955
937.712	7061
937.943	6999
938.175	7026
938.406	6957
938.637	7007
938.869	6937
939.1	6939
939.331	6862
939.562	6913
939.793	6831
940.024	6883
940.255	6823
940.486	6702
940.717	6703
940.948	6722
941.179	6679
941.409	6599
941.64	6610
941.871	6655
942.102	6570
942.332	6604
942.563	6610
942.793	6605
943.024	6550
943.254	6526
943.484	6607
943.715	6604
943.945	6600
944.175	6461
944.405	6491
944.636	6482
944.866	6520
945.096	6494
945.326	6371
945.556	6438
945.786	6386
946.016	6345
946.245	6214
946.475	6208
946.705	6202
946.935	6185
947.164	6189
947.394	6125
947.624	6076
947.853	6086
948.083	6088
948.312	6023
948.542	5957
948.771	5895
949	5913
949.23	5915
949.459	5906
949.688	5956
949.917	5896
950.146	5859
950.375	5935
950.604	5832
950.833	5867
951.062	5906
951.291	5822
951.52	5786
951.749	5783
951.978	5712
952.206	5663
952.435	5665
952.664	5727
952.892	5696
953.121	5681
953.349	5667
953.578	5580
953.806	5530
954.035	5483
954.263	5522
954.491	5433
954.719	5489
954.948	5455
955.176	5411
955.404	5301
955.632	5303
955.86	5329
956.088	5332
956.316	5283
956.544	5280
956.772	5234
956.999	5164
957.227	5244
957.455	5095
957.683	5099
957.91	5074
958.138	5035
958.365	5004
958.593	4990
958.82	4891
959.048	4987
959.275	4952
959.502	4868
959.73	4937
959.957	4959
960.184	4948
960.411	4854
960.638	4907
960.865	4882
961.092	4869
961.319	4752
961.546	4880
961.773	4865
962	4802
962.227	4858
962.454	4785
962.68	4792
962.907	4747
963.134	4698
963.36	4713
963.587	4688
963.813	4573
964.04	4597
964.266	4569
964.493	4622
964.719	4532
964.945	4522
965.171	4421
965.398	4450
965.624	4471
965.85	4393
966.076	4330
966.302	4382
966.528	4342
966.754	4356
966.98	4336
967.206	4269
967.431	4203
967.657	4292
967.883	4255
968.109	4225
968.334	4161
968.56	4142
968.785	4187
969.011	4108
969.236	4173
969.462	4087
969.687	4114
969.912	4143
970.138	4169
970.363	4037
970.588	4102
970.813	4043
971.038	4028
971.263	3975
971.488	4048
971.713	4000
971.938	3980
972.163	3897
972.388	3905
972.613	3891
972.838	3876
973.062	3851
973.287	3862
973.512	3747
973.736	3781
973.961	3778
974.185	3760
974.41	3683
974.634	3658
974.858	3643
975.083	3665
975.307	3691
975.531	3606
975.755	3538
975.98	3540
976.204	3487
976.428	3463
976.652	3434
976.876	3449
977.1	3459
977.324	3407
977.547	3457
977.771	3429
977.995	3404
978.219	3346
978.442	3467
978.666	3389
978.89	3403
979.113	3345
979.337	3322
979.56	3309
979.783	3390
980.007	3238
980.23	3276
980.453	3208
980.677	3259
980.9	3246
981.123	3127
981.346	3235
981.569	3186
981.792	3190
982.015	3142
982.238	3139
982.461	3096
982.684	3064
982.907	3067
983.129	3009
983.352	3008
983.575	3035
983.797	2985
984.02	2957
984.242	2987
984.465	2969
984.687	2969
984.91	2988
985.132	2954
985.354	2992
985.577	2932
985.799	2912
986.021	2815
986.243	2827
986.465	2828
986.687	2908
986.909	2883
987.131	2849
987.353	2816
987.575	2869
987.797	2767
988.019	2748
988.241	2758
988.462	2712
988.684	2787
988.906	2792
989.127	2813
989.349	2657
989.57	2707
989.792	2731
990.013	2768
990.234	2695
990.456	2767
990.677	2728
990.898	2643
991.119	2618
991.341	2664
991.562	2600
991.783	2611
992.004	2554
992.225	2548
992.446	2535
992.667	2499
992.887	2559
993.108	2408
993.329	2526
993.55	2490
993.77	2413
993.991	2437
994.212	2453
994.432	2389
994.653	2444
994.873	2390
995.093	2300
995.314	2314
995.534	2400
995.754	2427
995.975	2421
996.195	2323
996.415	2351
996.635	2322
996.855	2320
997.075	2310
997.295	2290
997.515	2268
997.735	2304
997.955	2281
998.174	2263
998.394	2241
998.614	2282
998.834	2233
999.053	2324
999.273	2243
999.492	2284
999.712	2231
999.931	2175
1000.151	2231
1000.37	2226
1000.589	2254
1000.809	2165
1001.028	2286
1001.247	2201
1001.466	2086
1001.685	2242
1001.904	2150
1002.123	2125
1002.342	2130
1002.561	2090
1002.78	2102
1002.999	2127
1003.218	2090
1003.436	2060
1003.655	2070
1003.874	2006
1004.092	2071
1004.311	2087
1004.53	2013
1004.748	2096
1004.966	2014
1005.185	2063
1005.403	2069
1005.622	1980
1005.84	2079
1006.058	1990
1006.276	2008
1006.494	2479
1006.712	1997
1006.931	2045
1007.149	1937
1007.367	1959
1007.584	1990
1007.802	2026
1008.02	1926
1008.238	2066
1008.456	2022
1008.673	1889
1008.891	2001
1009.109	1926
1009.326	1965
1009.544	2069
1009.761	1967
1009.979	2080
1010.196	2045
1010.413	2113
1010.631	2209
1010.848	2174
1011.065	2160
1011.282	2106
1011.5	2047
1011.717	2154
1011.934	2087
1012.151	2104
1012.368	2087
1012.585	2018
1012.801	2075
1013.018	2043
1013.235	1997
1013.452	2029
1013.669	2027
1013.885	2052
1014.102	2043
1014.318	2002
1014.535	1959
1014.751	1945
1014.968	1968
1015.184	2010
1015.401	1927
1015.617	1917
1015.833	1876
1016.049	1857
1016.266	1851
1016.482	1866
1016.698	1803
1016.914	1829
1017.13	1763
1017.346	1739
1017.562	1824
1017.778	1766
1017.993	1729
1018.209	1773
1018.425	1760
1018.641	1715
1018.856	1688
1019.072	1710
1019.288	1775
1019.503	1708
1019.719	1616
1019.934	1625
1020.149	1703
1020.365	1628
1020.58	1587
1020.795	1663
1021.011	1552
1021.226	1575
1021.441	1593
1021.656	1490
1021.871	1434
1022.086	1425
1022.301	1422
1022.516	1416
1022.731	1436
1022.946	1370
1023.16	1362
1023.375	1300
1023.59	1293
1023.804	1250
1024.019	1396
1024.234	1255
1024.448	1283
1024.663	1182
1024.877	1208
1025.092	1225
1025.306	1213
1025.52	1124
1025.734	1213
1025.949	1144
1026.163	1118
1026.377	1036
1026.591	1085
1026.805	1007
1027.019	1015
1027.233	954
1027.447	906
1027.661	1006
1027.875	944
1028.088	933
1028.302	871
1028.516	862
1028.73	853
1028.943	829
1029.157	779
1029.37	738
1029.584	1
1029.797	-1
1030.011	-2
1030.224	-5
