Data from QEP037381__117__11-40-25-598.txt Node

Date: Wed Dec 21 11:40:25 EST 2022
User: dcclab
Spectrometer: QEP03738
Trigger mode: 4
Integration Time (sec): 1.000000E1
Scans to average: 1
Electric dark correction enabled: true
Nonlinearity correction enabled: false
Boxcar width: 0
XAxis mode: Wavelengths
Number of Pixels in Spectrum: 1044
>>>>>Begin Spectral Data<<<<<
784.041	12.62
784.3	1.62
784.558	-1.38
784.817	-5.38
785.075	41949.62
785.334	8300.62
785.592	4306.62
785.851	3030.62
786.109	2335.62
786.368	1861.62
786.626	1545.62
786.884	1278.62
787.143	1120.62
787.401	934.62
787.659	866.62
787.917	773.62
788.175	733.62
788.433	634.62
788.691	586.62
788.949	552.62
789.207	546.62
789.465	485.62
789.723	473.62
789.98	436.62
790.238	489.62
790.496	447.62
790.753	432.62
791.011	504.62
791.268	425.62
791.526	412.62
791.783	421.62
792.041	428.62
792.298	332.62
792.556	414.62
792.813	400.62
793.07	391.62
793.327	368.62
793.584	453.62
793.841	375.62
794.099	406.62
794.356	455.62
794.613	363.62
794.869	397.62
795.126	365.62
795.383	350.62
795.64	363.62
795.897	325.62
796.153	386.62
796.41	366.62
796.667	348.62
796.923	363.62
797.18	354.62
797.436	372.62
797.693	334.62
797.949	401.62
798.206	418.62
798.462	335.62
798.718	387.62
798.974	358.62
799.231	405.62
799.487	396.62
799.743	385.62
799.999	400.62
800.255	420.62
800.511	383.62
800.767	411.62
801.023	385.62
801.279	405.62
801.534	424.62
801.79	456.62
802.046	439.62
802.302	534.62
802.557	535.62
802.813	635.62
803.068	679.62
803.324	875.62
803.579	1086.62
803.835	1428.62
804.09	1920.62
804.345	2387.62
804.601	2920.62
804.856	3574.62
805.111	4018.62
805.366	4417.62
805.621	4718.62
805.876	4923.62
806.131	5004.62
806.386	5086.62
806.641	5169.62
806.896	5261.62
807.151	5369.62
807.406	5405.62
807.661	5531.62
807.915	5636.62
808.17	5715.62
808.425	5792.62
808.679	5750.62
808.934	5947.62
809.188	5900.62
809.443	5967.62
809.697	6062.62
809.951	6075.62
810.206	6096.62
810.46	6195.62
810.714	6250.62
810.968	6306.62
811.223	6355.62
811.477	6344.62
811.731	6402.62
811.985	6416.62
812.239	6392.62
812.493	6432.62
812.747	6474.62
813	6448.62
813.254	6592.62
813.508	6552.62
813.762	6529.62
814.015	6524.62
814.269	6635.62
814.522	6665.62
814.776	6810.62
815.03	6821.62
815.283	6900.62
815.536	6984.62
815.79	7104.62
816.043	7173.62
816.296	7266.62
816.55	7396.62
816.803	7424.62
817.056	7569.62
817.309	7588.62
817.562	7659.62
817.815	7762.62
818.068	7818.62
818.321	7845.62
818.574	7897.62
818.827	8055.62
819.079	8106.62
819.332	8362.62
819.585	8355.62
819.838	8469.62
820.09	8411.62
820.343	8465.62
820.595	8470.62
820.848	8581.62
821.1	8580.62
821.353	8585.62
821.605	8551.62
821.857	8618.62
822.11	8476.62
822.362	8454.62
822.614	8398.62
822.866	8392.62
823.118	8373.62
823.37	8474.62
823.622	8519.62
823.874	8565.62
824.126	8555.62
824.378	8519.62
824.63	8549.62
824.882	8572.62
825.134	8593.62
825.385	8568.62
825.637	8512.62
825.888	8406.62
826.14	8437.62
826.392	8347.62
826.643	8366.62
826.895	8329.62
827.146	8280.62
827.397	8237.62
827.649	8298.62
827.9	8202.62
828.151	8158.62
828.402	8186.62
828.653	8271.62
828.905	8376.62
829.156	8332.62
829.407	8245.62
829.658	8361.62
829.909	8372.62
830.159	8410.62
830.41	8326.62
830.661	8309.62
830.912	8177.62
831.162	8178.62
831.413	8164.62
831.664	8221.62
831.914	8114.62
832.165	8170.62
832.415	8134.62
832.666	8112.62
832.916	8202.62
833.167	8116.62
833.417	8152.62
833.667	8076.62
833.917	8081.62
834.168	8059.62
834.418	8059.62
834.668	8003.62
834.918	7915.62
835.168	7923.62
835.418	7821.62
835.668	7925.62
835.918	7816.62
836.167	7822.62
836.417	7744.62
836.667	7783.62
836.917	7803.62
837.166	7789.62
837.416	7828.62
837.666	7843.62
837.915	7751.62
838.165	7735.62
838.414	7708.62
838.663	7675.62
838.913	7789.62
839.162	7735.62
839.411	7700.62
839.661	7693.62
839.91	7647.62
840.159	7748.62
840.408	7728.62
840.657	7661.62
840.906	7689.62
841.155	7712.62
841.404	7639.62
841.653	7655.62
841.902	7694.62
842.15	7750.62
842.399	7775.62
842.648	7734.62
842.897	7655.62
843.145	7592.62
843.394	7578.62
843.642	7482.62
843.891	7436.62
844.139	7343.62
844.388	7308.62
844.636	7243.62
844.884	7271.62
845.133	7255.62
845.381	7303.62
845.629	7266.62
845.877	7242.62
846.125	7237.62
846.373	7262.62
846.621	7145.62
846.869	7226.62
847.117	7098.62
847.365	7104.62
847.613	7061.62
847.861	7095.62
848.108	7078.62
848.356	7085.62
848.604	7057.62
848.851	7057.62
849.099	7114.62
849.346	7062.62
849.594	7242.62
849.841	7228.62
850.089	7259.62
850.336	7377.62
850.583	7450.62
850.831	7373.62
851.078	7338.62
851.325	7269.62
851.572	7255.62
851.819	7179.62
852.066	6895.62
852.313	6795.62
852.56	6703.62
852.807	6704.62
853.054	6722.62
853.301	6722.62
853.548	6783.62
853.794	6904.62
854.041	6837.62
854.288	6748.62
854.534	6961.62
854.781	6864.62
855.028	6871.62
855.274	6963.62
855.52	6868.62
855.767	6882.62
856.013	6979.62
856.26	7180.62
856.506	6800.62
856.752	6830.62
856.998	6835.62
857.244	6858.62
857.49	6891.62
857.736	6882.62
857.982	6873.62
858.228	6857.62
858.474	6742.62
858.72	6709.62
858.966	6617.62
859.212	6566.62
859.458	6475.62
859.703	6347.62
859.949	6335.62
860.195	6360.62
860.44	6297.62
860.686	6240.62
860.931	6320.62
861.177	6183.62
861.422	6186.62
861.667	6095.62
861.913	6123.62
862.158	6092.62
862.403	6190.62
862.648	6117.62
862.893	6187.62
863.138	6120.62
863.384	6064.62
863.629	6110.62
863.873	6102.62
864.118	6146.62
864.363	6013.62
864.608	6031.62
864.853	6079.62
865.098	5995.62
865.342	5919.62
865.587	5950.62
865.832	5954.62
866.076	5939.62
866.321	5863.62
866.565	5891.62
866.81	5767.62
867.054	5849.62
867.298	5813.62
867.543	5779.62
867.787	5881.62
868.031	5788.62
868.275	5793.62
868.519	5773.62
868.764	5811.62
869.008	5793.62
869.252	5805.62
869.496	5782.62
869.739	5823.62
869.983	5840.62
870.227	5872.62
870.471	5811.62
870.715	5905.62
870.958	5875.62
871.202	5848.62
871.446	5922.62
871.689	5872.62
871.933	5910.62
872.176	5874.62
872.42	5926.62
872.663	5858.62
872.906	5908.62
873.15	5956.62
873.393	5966.62
873.636	6030.62
873.879	5917.62
874.122	5887.62
874.366	5675.62
874.609	5603.62
874.852	5577.62
875.095	5510.62
875.337	5495.62
875.58	5402.62
875.823	5432.62
876.066	5393.62
876.309	5409.62
876.551	5348.62
876.794	5285.62
877.037	5360.62
877.279	5194.62
877.522	5227.62
877.764	5380.62
878.007	5249.62
878.249	5194.62
878.491	5223.62
878.734	5238.62
878.976	5178.62
879.218	5138.62
879.46	5124.62
879.702	5098.62
879.945	5039.62
880.187	5024.62
880.429	5007.62
880.671	4998.62
880.912	4977.62
881.154	4891.62
881.396	4835.62
881.638	4915.62
881.88	4907.62
882.121	4854.62
882.363	4872.62
882.605	4951.62
882.846	4963.62
883.088	4984.62
883.329	4975.62
883.571	5045.62
883.812	5126.62
884.053	5318.62
884.295	5504.62
884.536	5660.62
884.777	5558.62
885.018	5493.62
885.259	5439.62
885.5	5361.62
885.742	5556.62
885.982	5339.62
886.223	5241.62
886.464	5177.62
886.705	5072.62
886.946	5041.62
887.187	4850.62
887.428	4832.62
887.668	4664.62
887.909	4606.62
888.15	4499.62
888.39	4513.62
888.631	4565.62
888.871	4479.62
889.111	4417.62
889.352	4418.62
889.592	4333.62
889.833	4316.62
890.073	4259.62
890.313	4319.62
890.553	4191.62
890.793	4170.62
891.033	4214.62
891.273	4158.62
891.513	4200.62
891.753	4211.62
891.993	4158.62
892.233	4178.62
892.473	4242.62
892.713	4181.62
892.952	4138.62
893.192	4160.62
893.432	4133.62
893.671	4204.62
893.911	4163.62
894.15	4150.62
894.39	4053.62
894.629	4110.62
894.869	4061.62
895.108	4063.62
895.347	3970.62
895.587	4059.62
895.826	3991.62
896.065	4011.62
896.304	4019.62
896.543	4086.62
896.782	3964.62
897.021	4033.62
897.26	4004.62
897.499	4082.62
897.738	4096.62
897.977	4030.62
898.216	3987.62
898.454	3960.62
898.693	3942.62
898.932	3974.62
899.17	3953.62
899.409	3951.62
899.647	3961.62
899.886	3928.62
900.124	3960.62
900.363	3921.62
900.601	3994.62
900.839	3981.62
901.078	4041.62
901.316	4027.62
901.554	4084.62
901.792	4100.62
902.03	4136.62
902.268	4151.62
902.506	4109.62
902.744	4043.62
902.982	4088.62
903.22	3909.62
903.458	3862.62
903.695	3804.62
903.933	3778.62
904.171	3641.62
904.409	3576.62
904.646	3561.62
904.884	3451.62
905.121	3480.62
905.359	3380.62
905.596	3390.62
905.833	3349.62
906.071	3252.62
906.308	3316.62
906.545	3281.62
906.783	3279.62
907.02	3238.62
907.257	3193.62
907.494	3200.62
907.731	3233.62
907.968	3226.62
908.205	3122.62
908.442	3131.62
908.679	3131.62
908.915	3117.62
909.152	3104.62
909.389	2994.62
909.626	3022.62
909.862	3000.62
910.099	2991.62
910.335	3009.62
910.572	2891.62
910.808	2965.62
911.045	2922.62
911.281	2864.62
911.518	2947.62
911.754	2895.62
911.99	2906.62
912.226	2843.62
912.463	2818.62
912.699	2793.62
912.935	2829.62
913.171	2826.62
913.407	2743.62
913.643	2759.62
913.879	2704.62
914.114	2672.62
914.35	2672.62
914.586	2663.62
914.822	2607.62
915.057	2699.62
915.293	2582.62
915.529	2567.62
915.764	2604.62
916	2620.62
916.235	2606.62
916.471	2593.62
916.706	2553.62
916.941	2512.62
917.177	2555.62
917.412	2584.62
917.647	2593.62
917.882	2539.62
918.117	2566.62
918.352	2532.62
918.588	2624.62
918.823	2487.62
919.057	2498.62
919.292	2392.62
919.527	2507.62
919.762	2422.62
919.997	2498.62
920.232	2375.62
920.466	2398.62
920.701	2316.62
920.935	2373.62
921.17	2346.62
921.405	2308.62
921.639	2343.62
921.873	2292.62
922.108	2298.62
922.342	2279.62
922.576	2272.62
922.811	2269.62
923.045	2308.62
923.279	2315.62
923.513	2179.62
923.747	2253.62
923.981	2241.62
924.215	2199.62
924.449	2193.62
924.683	2176.62
924.917	2203.62
925.151	2132.62
925.385	2240.62
925.618	2159.62
925.852	2196.62
926.086	2107.62
926.319	2171.62
926.553	2146.62
926.786	2151.62
927.02	2149.62
927.253	2188.62
927.486	2194.62
927.72	2104.62
927.953	2180.62
928.186	2130.62
928.42	2168.62
928.653	2136.62
928.886	2096.62
929.119	2142.62
929.352	2098.62
929.585	2121.62
929.818	2087.62
930.051	2075.62
930.284	2094.62
930.516	1965.62
930.749	1998.62
930.982	2071.62
931.215	2035.62
931.447	1997.62
931.68	1983.62
931.912	1990.62
932.145	1964.62
932.377	2016.62
932.61	2099.62
932.842	1904.62
933.074	1997.62
933.307	1954.62
933.539	2033.62
933.771	2021.62
934.003	1989.62
934.236	2036.62
934.468	2050.62
934.7	1986.62
934.932	1995.62
935.164	1940.62
935.395	1926.62
935.627	1983.62
935.859	1978.62
936.091	1908.62
936.323	1936.62
936.554	1977.62
936.786	1946.62
937.017	1867.62
937.249	1967.62
937.481	1842.62
937.712	1937.62
937.943	1926.62
938.175	1868.62
938.406	1892.62
938.637	1930.62
938.869	1879.62
939.1	1899.62
939.331	1836.62
939.562	1883.62
939.793	1904.62
940.024	1923.62
940.255	1925.62
940.486	1864.62
940.717	1865.62
940.948	1838.62
941.179	1805.62
941.409	1841.62
941.64	1806.62
941.871	1856.62
942.102	1784.62
942.332	1813.62
942.563	1840.62
942.793	1828.62
943.024	1779.62
943.254	1819.62
943.484	1866.62
943.715	1875.62
943.945	1827.62
944.175	1775.62
944.405	1739.62
944.636	1732.62
944.866	1826.62
945.096	1808.62
945.326	1759.62
945.556	1833.62
945.786	1791.62
946.016	1773.62
946.245	1712.62
946.475	1737.62
946.705	1722.62
946.935	1742.62
947.164	1735.62
947.394	1702.62
947.624	1733.62
947.853	1740.62
948.083	1718.62
948.312	1688.62
948.542	1648.62
948.771	1636.62
949	1633.62
949.23	1669.62
949.459	1671.62
949.688	1716.62
949.917	1682.62
950.146	1678.62
950.375	1715.62
950.604	1619.62
950.833	1702.62
951.062	1727.62
951.291	1677.62
951.52	1625.62
951.749	1677.62
951.978	1600.62
952.206	1623.62
952.435	1617.62
952.664	1682.62
952.892	1639.62
953.121	1607.62
953.349	1650.62
953.578	1622.62
953.806	1601.62
954.035	1546.62
954.263	1597.62
954.491	1560.62
954.719	1586.62
954.948	1560.62
955.176	1566.62
955.404	1482.62
955.632	1564.62
955.86	1564.62
956.088	1554.62
956.316	1553.62
956.544	1561.62
956.772	1534.62
956.999	1494.62
957.227	1584.62
957.455	1476.62
957.683	1528.62
957.91	1480.62
958.138	1451.62
958.365	1466.62
958.593	1485.62
958.82	1411.62
959.048	1486.62
959.275	1469.62
959.502	1442.62
959.73	1422.62
959.957	1456.62
960.184	1475.62
960.411	1428.62
960.638	1511.62
960.865	1455.62
961.092	1465.62
961.319	1352.62
961.546	1487.62
961.773	1488.62
962	1435.62
962.227	1488.62
962.454	1453.62
962.68	1407.62
962.907	1468.62
963.134	1386.62
963.36	1430.62
963.587	1472.62
963.813	1404.62
964.04	1474.62
964.266	1350.62
964.493	1454.62
964.719	1432.62
964.945	1437.62
965.171	1362.62
965.398	1368.62
965.624	1420.62
965.85	1359.62
966.076	1349.62
966.302	1406.62
966.528	1356.62
966.754	1400.62
966.98	1392.62
967.206	1398.62
967.431	1290.62
967.657	1390.62
967.883	1372.62
968.109	1344.62
968.334	1347.62
968.56	1279.62
968.785	1349.62
969.011	1301.62
969.236	1362.62
969.462	1273.62
969.687	1314.62
969.912	1343.62
970.138	1343.62
970.363	1285.62
970.588	1317.62
970.813	1296.62
971.038	1285.62
971.263	1319.62
971.488	1337.62
971.713	1335.62
971.938	1321.62
972.163	1237.62
972.388	1261.62
972.613	1239.62
972.838	1267.62
973.062	1244.62
973.287	1275.62
973.512	1181.62
973.736	1253.62
973.961	1242.62
974.185	1224.62
974.41	1257.62
974.634	1173.62
974.858	1178.62
975.083	1242.62
975.307	1257.62
975.531	1204.62
975.755	1169.62
975.98	1173.62
976.204	1140.62
976.428	1130.62
976.652	1126.62
976.876	1126.62
977.1	1134.62
977.324	1129.62
977.547	1156.62
977.771	1196.62
977.995	1162.62
978.219	1105.62
978.442	1193.62
978.666	1169.62
978.89	1136.62
979.113	1145.62
979.337	1139.62
979.56	1116.62
979.783	1211.62
980.007	1077.62
980.23	1141.62
980.453	1115.62
980.677	1151.62
980.9	1133.62
981.123	1053.62
981.346	1153.62
981.569	1143.62
981.792	1150.62
982.015	1099.62
982.238	1094.62
982.461	1099.62
982.684	1070.62
982.907	1060.62
983.129	1051.62
983.352	1120.62
983.575	1094.62
983.797	1102.62
984.02	1061.62
984.242	1075.62
984.465	1079.62
984.687	1098.62
984.91	1105.62
985.132	1100.62
985.354	1125.62
985.577	1110.62
985.799	1076.62
986.021	1030.62
986.243	1037.62
986.465	1040.62
986.687	1117.62
986.909	1122.62
987.131	1079.62
987.353	1056.62
987.575	1080.62
987.797	1049.62
988.019	998.62
988.241	1075.62
988.462	1027.62
988.684	1082.62
988.906	1119.62
989.127	1133.62
989.349	1017.62
989.57	1020.62
989.792	1084.62
990.013	1094.62
990.234	1099.62
990.456	1128.62
990.677	1125.62
990.898	1060.62
991.119	1038.62
991.341	1076.62
991.562	1030.62
991.783	1074.62
992.004	1010.62
992.225	980.62
992.446	1043.62
992.667	965.62
992.887	1056.62
993.108	963.62
993.329	1081.62
993.55	1042.62
993.77	978.62
993.991	1007.62
994.212	1049.62
994.432	1029.62
994.653	1044.62
994.873	1051.62
995.093	939.62
995.314	977.62
995.534	1043.62
995.754	1096.62
995.975	1078.62
996.195	986.62
996.415	1038.62
996.635	1018.62
996.855	1055.62
997.075	1028.62
997.295	1004.62
997.515	986.62
997.735	1048.62
997.955	1042.62
998.174	1008.62
998.394	982.62
998.614	1051.62
998.834	1011.62
999.053	1098.62
999.273	1027.62
999.492	1096.62
999.712	1024.62
999.931	1001.62
1000.151	1039.62
1000.37	1003.62
1000.589	1087.62
1000.809	1011.62
1001.028	1125.62
1001.247	1043.62
1001.466	970.62
1001.685	1129.62
1001.904	1057.62
1002.123	1038.62
1002.342	1036.62
1002.561	1016.62
1002.78	1032.62
1002.999	1104.62
1003.218	1048.62
1003.436	1027.62
1003.655	1068.62
1003.874	1008.62
1004.092	1034.62
1004.311	1083.62
1004.53	1052.62
1004.748	1144.62
1004.966	1052.62
1005.185	1077.62
1005.403	1090.62
1005.622	1083.62
1005.84	1159.62
1006.058	1047.62
1006.276	1062.62
1006.494	1569.62
1006.712	1093.62
1006.931	1143.62
1007.149	1040.62
1007.367	1062.62
1007.584	1087.62
1007.802	1125.62
1008.02	1073.62
1008.238	1191.62
1008.456	1190.62
1008.673	1056.62
1008.891	1168.62
1009.109	1136.62
1009.326	1203.62
1009.544	1280.62
1009.761	1169.62
1009.979	1279.62
1010.196	1300.62
1010.413	1402.62
1010.631	1433.62
1010.848	1476.62
1011.065	1471.62
1011.282	1434.62
1011.5	1354.62
1011.717	1464.62
1011.934	1407.62
1012.151	1439.62
1012.368	1450.62
1012.585	1351.62
1012.801	1436.62
1013.018	1377.62
1013.235	1397.62
1013.452	1409.62
1013.669	1380.62
1013.885	1407.62
1014.102	1433.62
1014.318	1398.62
1014.535	1369.62
1014.751	1375.62
1014.968	1377.62
1015.184	1414.62
1015.401	1302.62
1015.617	1361.62
1015.833	1282.62
1016.049	1301.62
1016.266	1311.62
1016.482	1285.62
1016.698	1222.62
1016.914	1283.62
1017.13	1224.62
1017.346	1241.62
1017.562	1302.62
1017.778	1236.62
1017.993	1191.62
1018.209	1238.62
1018.425	1223.62
1018.641	1189.62
1018.856	1166.62
1019.072	1207.62
1019.288	1237.62
1019.503	1193.62
1019.719	1115.62
1019.934	1124.62
1020.149	1210.62
1020.365	1140.62
1020.58	1101.62
1020.795	1137.62
1021.011	1096.62
1021.226	1039.62
1021.441	1100.62
1021.656	1012.62
1021.871	980.62
1022.086	979.62
1022.301	959.62
1022.516	962.62
1022.731	1035.62
1022.946	944.62
1023.16	912.62
1023.375	895.62
1023.59	872.62
1023.804	837.62
1024.019	957.62
1024.234	823.62
1024.448	852.62
1024.663	775.62
1024.877	789.62
1025.092	826.62
1025.306	860.62
1025.52	737.62
1025.734	837.62
1025.949	749.62
1026.163	737.62
1026.377	686.62
1026.591	713.62
1026.805	660.62
1027.019	669.62
1027.233	638.62
1027.447	591.62
1027.661	682.62
1027.875	639.62
1028.088	631.62
1028.302	569.62
1028.516	567.62
1028.73	565.62
1028.943	573.62
1029.157	542.62
1029.37	480.62
1029.584	-2.38
1029.797	0.62
1030.011	-5.38
1030.224	-0.38
