Data from QEP037381__25__11-25-05-594.txt Node

Date: Wed Dec 21 11:25:05 EST 2022
User: dcclab
Spectrometer: QEP03738
Trigger mode: 4
Integration Time (sec): 1.000000E1
Scans to average: 1
Electric dark correction enabled: true
Nonlinearity correction enabled: false
Boxcar width: 0
XAxis mode: Wavelengths
Number of Pixels in Spectrum: 1044
>>>>>Begin Spectral Data<<<<<
784.041	11.25
784.3	-0.75
784.558	-1.75
784.817	-4.75
785.075	40592.25
785.334	8802.25
785.592	4782.25
785.851	3412.25
786.109	2602.25
786.368	2046.25
786.626	1679.25
786.884	1432.25
787.143	1229.25
787.401	986.25
787.659	941.25
787.917	800.25
788.175	770.25
788.433	688.25
788.691	628.25
788.949	571.25
789.207	554.25
789.465	488.25
789.723	478.25
789.98	435.25
790.238	502.25
790.496	464.25
790.753	445.25
791.011	502.25
791.268	439.25
791.526	436.25
791.783	457.25
792.041	439.25
792.298	361.25
792.556	416.25
792.813	396.25
793.07	390.25
793.327	378.25
793.584	463.25
793.841	383.25
794.099	412.25
794.356	460.25
794.613	357.25
794.869	400.25
795.126	361.25
795.383	354.25
795.64	380.25
795.897	326.25
796.153	384.25
796.41	373.25
796.667	351.25
796.923	359.25
797.18	370.25
797.436	385.25
797.693	353.25
797.949	401.25
798.206	430.25
798.462	325.25
798.718	383.25
798.974	384.25
799.231	411.25
799.487	397.25
799.743	406.25
799.999	430.25
800.255	421.25
800.511	397.25
800.767	445.25
801.023	402.25
801.279	434.25
801.534	459.25
801.79	471.25
802.046	474.25
802.302	580.25
802.557	610.25
802.813	747.25
803.068	842.25
803.324	1091.25
803.579	1436.25
803.835	1883.25
804.09	2559.25
804.345	3222.25
804.601	3967.25
804.856	4829.25
805.111	5506.25
805.366	6028.25
805.621	6431.25
805.876	6731.25
806.131	6875.25
806.386	6991.25
806.641	7073.25
806.896	7213.25
807.151	7319.25
807.406	7386.25
807.661	7506.25
807.915	7683.25
808.17	7772.25
808.425	7904.25
808.679	7889.25
808.934	8076.25
809.188	8115.25
809.443	8125.25
809.697	8267.25
809.951	8303.25
810.206	8367.25
810.46	8445.25
810.714	8520.25
810.968	8575.25
811.223	8591.25
811.477	8689.25
811.731	8795.25
811.985	8821.25
812.239	8782.25
812.493	8838.25
812.747	8933.25
813	8881.25
813.254	8936.25
813.508	9024.25
813.762	8909.25
814.015	9037.25
814.269	9088.25
814.522	9171.25
814.776	9262.25
815.03	9430.25
815.283	9518.25
815.536	9698.25
815.79	9844.25
816.043	9922.25
816.296	10024.25
816.55	10084.25
816.803	10206.25
817.056	10433.25
817.309	10446.25
817.562	10589.25
817.815	10614.25
818.068	10705.25
818.321	10822.25
818.574	10898.25
818.827	11104.25
819.079	11153.25
819.332	11481.25
819.585	11500.25
819.838	11682.25
820.09	11569.25
820.343	11680.25
820.595	11724.25
820.848	11916.25
821.1	11882.25
821.353	11789.25
821.605	11727.25
821.857	11886.25
822.11	11646.25
822.362	11673.25
822.614	11709.25
822.866	11672.25
823.118	11663.25
823.37	11789.25
823.622	11849.25
823.874	11815.25
824.126	11926.25
824.378	11800.25
824.63	11820.25
824.882	11866.25
825.134	11787.25
825.385	11907.25
825.637	11897.25
825.888	11777.25
826.14	11765.25
826.392	11632.25
826.643	11603.25
826.895	11584.25
827.146	11490.25
827.397	11476.25
827.649	11531.25
827.9	11454.25
828.151	11440.25
828.402	11548.25
828.653	11489.25
828.905	11515.25
829.156	11639.25
829.407	11547.25
829.658	11542.25
829.909	11755.25
830.159	11688.25
830.41	11629.25
830.661	11521.25
830.912	11439.25
831.162	11427.25
831.413	11430.25
831.664	11453.25
831.914	11340.25
832.165	11340.25
832.415	11342.25
832.666	11353.25
832.916	11401.25
833.167	11349.25
833.417	11372.25
833.667	11287.25
833.917	11274.25
834.168	11240.25
834.418	11299.25
834.668	11226.25
834.918	11044.25
835.168	11086.25
835.418	10992.25
835.668	11039.25
835.918	10928.25
836.167	10969.25
836.417	10863.25
836.667	10955.25
836.917	10950.25
837.166	10921.25
837.416	10940.25
837.666	10912.25
837.915	10912.25
838.165	10896.25
838.414	10785.25
838.663	10843.25
838.913	10890.25
839.162	10771.25
839.411	10836.25
839.661	10767.25
839.91	10789.25
840.159	10706.25
840.408	10793.25
840.657	10777.25
840.906	10764.25
841.155	10769.25
841.404	10725.25
841.653	10802.25
841.902	10834.25
842.15	10848.25
842.399	10917.25
842.648	10837.25
842.897	10702.25
843.145	10683.25
843.394	10616.25
843.642	10557.25
843.891	10475.25
844.139	10490.25
844.388	10387.25
844.636	10261.25
844.884	10302.25
845.133	10300.25
845.381	10252.25
845.629	10240.25
845.877	10222.25
846.125	10250.25
846.373	10203.25
846.621	10104.25
846.869	10139.25
847.117	10092.25
847.365	9947.25
847.613	10027.25
847.861	10003.25
848.108	10070.25
848.356	9979.25
848.604	9988.25
848.851	9992.25
849.099	10051.25
849.346	10016.25
849.594	10110.25
849.841	10181.25
850.089	10294.25
850.336	10340.25
850.583	10417.25
850.831	10353.25
851.078	10266.25
851.325	10184.25
851.572	10148.25
851.819	9987.25
852.066	9776.25
852.313	9647.25
852.56	9515.25
852.807	9566.25
853.054	9530.25
853.301	9497.25
853.548	9512.25
853.794	9632.25
854.041	9614.25
854.288	9625.25
854.534	9724.25
854.781	9756.25
855.028	9673.25
855.274	9772.25
855.52	9748.25
855.767	9712.25
856.013	9810.25
856.26	10063.25
856.506	9616.25
856.752	9638.25
856.998	9641.25
857.244	9613.25
857.49	9777.25
857.736	9668.25
857.982	9699.25
858.228	9540.25
858.474	9501.25
858.72	9468.25
858.966	9356.25
859.212	9345.25
859.458	9212.25
859.703	9068.25
859.949	9003.25
860.195	8927.25
860.44	8921.25
860.686	8855.25
860.931	8987.25
861.177	8793.25
861.422	8809.25
861.667	8684.25
861.913	8670.25
862.158	8697.25
862.403	8727.25
862.648	8824.25
862.893	8771.25
863.138	8725.25
863.384	8717.25
863.629	8659.25
863.873	8701.25
864.118	8583.25
864.363	8622.25
864.608	8598.25
864.853	8553.25
865.098	8622.25
865.342	8553.25
865.587	8473.25
865.832	8512.25
866.076	8479.25
866.321	8438.25
866.565	8399.25
866.81	8284.25
867.054	8338.25
867.298	8333.25
867.543	8277.25
867.787	8315.25
868.031	8338.25
868.275	8234.25
868.519	8240.25
868.764	8307.25
869.008	8255.25
869.252	8301.25
869.496	8241.25
869.739	8263.25
869.983	8277.25
870.227	8311.25
870.471	8261.25
870.715	8315.25
870.958	8314.25
871.202	8338.25
871.446	8353.25
871.689	8358.25
871.933	8425.25
872.176	8390.25
872.42	8278.25
872.663	8371.25
872.906	8477.25
873.15	8374.25
873.393	8428.25
873.636	8471.25
873.879	8386.25
874.122	8275.25
874.366	8078.25
874.609	7971.25
874.852	7954.25
875.095	7815.25
875.337	7819.25
875.58	7758.25
875.823	7744.25
876.066	7718.25
876.309	7684.25
876.551	7569.25
876.794	7509.25
877.037	7646.25
877.279	7528.25
877.522	7532.25
877.764	7533.25
878.007	7500.25
878.249	7485.25
878.491	7534.25
878.734	7450.25
878.976	7466.25
879.218	7315.25
879.46	7390.25
879.702	7401.25
879.945	7242.25
880.187	7119.25
880.429	7076.25
880.671	7121.25
880.912	7101.25
881.154	7062.25
881.396	6981.25
881.638	7029.25
881.88	7102.25
882.121	6960.25
882.363	7041.25
882.605	7040.25
882.846	7103.25
883.088	7067.25
883.329	7068.25
883.571	7153.25
883.812	7318.25
884.053	7590.25
884.295	7737.25
884.536	7914.25
884.777	7789.25
885.018	7744.25
885.259	7672.25
885.5	7495.25
885.742	7744.25
885.982	7526.25
886.223	7389.25
886.464	7384.25
886.705	7188.25
886.946	7091.25
887.187	6951.25
887.428	6817.25
887.668	6724.25
887.909	6549.25
888.15	6543.25
888.39	6519.25
888.631	6502.25
888.871	6410.25
889.111	6383.25
889.352	6343.25
889.592	6199.25
889.833	6200.25
890.073	6203.25
890.313	6246.25
890.553	6016.25
890.793	6051.25
891.033	5989.25
891.273	5988.25
891.513	6059.25
891.753	6044.25
891.993	5969.25
892.233	5994.25
892.473	6059.25
892.713	5963.25
892.952	5973.25
893.192	6056.25
893.432	5929.25
893.671	6017.25
893.911	5958.25
894.15	5930.25
894.39	5881.25
894.629	5903.25
894.869	5783.25
895.108	5829.25
895.347	5780.25
895.587	5775.25
895.826	5782.25
896.065	5750.25
896.304	5774.25
896.543	5798.25
896.782	5745.25
897.021	5751.25
897.26	5763.25
897.499	5737.25
897.738	5762.25
897.977	5725.25
898.216	5700.25
898.454	5619.25
898.693	5565.25
898.932	5634.25
899.17	5614.25
899.409	5604.25
899.647	5527.25
899.886	5577.25
900.124	5641.25
900.363	5600.25
900.601	5606.25
900.839	5702.25
901.078	5737.25
901.316	5729.25
901.554	5791.25
901.792	5788.25
902.03	5742.25
902.268	5775.25
902.506	5793.25
902.744	5656.25
902.982	5702.25
903.22	5536.25
903.458	5449.25
903.695	5430.25
903.933	5319.25
904.171	5196.25
904.409	5107.25
904.646	5068.25
904.884	4996.25
905.121	4976.25
905.359	4866.25
905.596	4834.25
905.833	4720.25
906.071	4723.25
906.308	4743.25
906.545	4681.25
906.783	4639.25
907.02	4649.25
907.257	4627.25
907.494	4666.25
907.731	4612.25
907.968	4635.25
908.205	4553.25
908.442	4523.25
908.679	4498.25
908.915	4480.25
909.152	4433.25
909.389	4306.25
909.626	4338.25
909.862	4312.25
910.099	4330.25
910.335	4338.25
910.572	4223.25
910.808	4298.25
911.045	4244.25
911.281	4208.25
911.518	4270.25
911.754	4182.25
911.99	4206.25
912.226	4147.25
912.463	4015.25
912.699	4055.25
912.935	4060.25
913.171	4018.25
913.407	3939.25
913.643	3996.25
913.879	3943.25
914.114	3935.25
914.35	3832.25
914.586	3840.25
914.822	3714.25
915.057	3866.25
915.293	3706.25
915.529	3709.25
915.764	3788.25
916	3757.25
916.235	3718.25
916.471	3724.25
916.706	3644.25
916.941	3681.25
917.177	3644.25
917.412	3696.25
917.647	3699.25
917.882	3643.25
918.117	3679.25
918.352	3638.25
918.588	3686.25
918.823	3556.25
919.057	3599.25
919.292	3482.25
919.527	3577.25
919.762	3467.25
919.997	3553.25
920.232	3428.25
920.466	3459.25
920.701	3309.25
920.935	3360.25
921.17	3362.25
921.405	3310.25
921.639	3358.25
921.873	3360.25
922.108	3343.25
922.342	3321.25
922.576	3249.25
922.811	3237.25
923.045	3293.25
923.279	3315.25
923.513	3162.25
923.747	3230.25
923.981	3193.25
924.215	3165.25
924.449	3160.25
924.683	3132.25
924.917	3119.25
925.151	3071.25
925.385	3161.25
925.618	3099.25
925.852	3061.25
926.086	2990.25
926.319	3079.25
926.553	3047.25
926.786	3075.25
927.02	3087.25
927.253	3105.25
927.486	3093.25
927.72	2942.25
927.953	3073.25
928.186	3041.25
928.42	2998.25
928.653	2992.25
928.886	3006.25
929.119	3012.25
929.352	2972.25
929.585	2994.25
929.818	2906.25
930.051	2945.25
930.284	2929.25
930.516	2815.25
930.749	2835.25
930.982	2896.25
931.215	2848.25
931.447	2814.25
931.68	2796.25
931.912	2798.25
932.145	2789.25
932.377	2819.25
932.61	2931.25
932.842	2741.25
933.074	2801.25
933.307	2763.25
933.539	2851.25
933.771	2836.25
934.003	2768.25
934.236	2850.25
934.468	2862.25
934.7	2766.25
934.932	2810.25
935.164	2715.25
935.395	2735.25
935.627	2776.25
935.859	2749.25
936.091	2691.25
936.323	2769.25
936.554	2773.25
936.786	2732.25
937.017	2658.25
937.249	2691.25
937.481	2618.25
937.712	2713.25
937.943	2660.25
938.175	2667.25
938.406	2667.25
938.637	2723.25
938.869	2661.25
939.1	2674.25
939.331	2645.25
939.562	2676.25
939.793	2652.25
940.024	2642.25
940.255	2668.25
940.486	2591.25
940.717	2607.25
940.948	2556.25
941.179	2529.25
941.409	2600.25
941.64	2563.25
941.871	2535.25
942.102	2520.25
942.332	2524.25
942.563	2609.25
942.793	2562.25
943.024	2521.25
943.254	2563.25
943.484	2577.25
943.715	2581.25
943.945	2528.25
944.175	2476.25
944.405	2483.25
944.636	2496.25
944.866	2568.25
945.096	2507.25
945.326	2473.25
945.556	2511.25
945.786	2536.25
946.016	2472.25
946.245	2403.25
946.475	2452.25
946.705	2391.25
946.935	2428.25
947.164	2392.25
947.394	2382.25
947.624	2400.25
947.853	2412.25
948.083	2383.25
948.312	2336.25
948.542	2300.25
948.771	2281.25
949	2313.25
949.23	2306.25
949.459	2282.25
949.688	2361.25
949.917	2318.25
950.146	2326.25
950.375	2384.25
950.604	2297.25
950.833	2365.25
951.062	2356.25
951.291	2316.25
951.52	2261.25
951.749	2263.25
951.978	2244.25
952.206	2282.25
952.435	2260.25
952.664	2301.25
952.892	2280.25
953.121	2287.25
953.349	2282.25
953.578	2298.25
953.806	2236.25
954.035	2177.25
954.263	2202.25
954.491	2133.25
954.719	2210.25
954.948	2133.25
955.176	2149.25
955.404	2086.25
955.632	2149.25
955.86	2152.25
956.088	2105.25
956.316	2166.25
956.544	2182.25
956.772	2094.25
956.999	2106.25
957.227	2124.25
957.455	2066.25
957.683	2083.25
957.91	2051.25
958.138	2026.25
958.365	2056.25
958.593	2027.25
958.82	1998.25
959.048	2044.25
959.275	2017.25
959.502	1993.25
959.73	1975.25
959.957	2017.25
960.184	2025.25
960.411	2001.25
960.638	2051.25
960.865	1995.25
961.092	2027.25
961.319	1912.25
961.546	2004.25
961.773	2014.25
962	1977.25
962.227	2037.25
962.454	1989.25
962.68	1989.25
962.907	1991.25
963.134	1930.25
963.36	1916.25
963.587	1968.25
963.813	1887.25
964.04	1930.25
964.266	1894.25
964.493	1960.25
964.719	1900.25
964.945	1945.25
965.171	1830.25
965.398	1911.25
965.624	1907.25
965.85	1826.25
966.076	1823.25
966.302	1877.25
966.528	1841.25
966.754	1868.25
966.98	1867.25
967.206	1826.25
967.431	1778.25
967.657	1874.25
967.883	1847.25
968.109	1830.25
968.334	1788.25
968.56	1730.25
968.785	1768.25
969.011	1738.25
969.236	1792.25
969.462	1741.25
969.687	1766.25
969.912	1790.25
970.138	1846.25
970.363	1756.25
970.588	1774.25
970.813	1707.25
971.038	1686.25
971.263	1768.25
971.488	1760.25
971.713	1774.25
971.938	1757.25
972.163	1665.25
972.388	1666.25
972.613	1698.25
972.838	1709.25
973.062	1646.25
973.287	1675.25
973.512	1627.25
973.736	1670.25
973.961	1656.25
974.185	1589.25
974.41	1662.25
974.634	1581.25
974.858	1578.25
975.083	1636.25
975.307	1656.25
975.531	1581.25
975.755	1523.25
975.98	1565.25
976.204	1508.25
976.428	1505.25
976.652	1528.25
976.876	1518.25
977.1	1512.25
977.324	1491.25
977.547	1543.25
977.771	1563.25
977.995	1512.25
978.219	1469.25
978.442	1587.25
978.666	1526.25
978.89	1517.25
979.113	1533.25
979.337	1490.25
979.56	1473.25
979.783	1577.25
980.007	1455.25
980.23	1495.25
980.453	1462.25
980.677	1494.25
980.9	1487.25
981.123	1406.25
981.346	1486.25
981.569	1457.25
981.792	1498.25
982.015	1439.25
982.238	1437.25
982.461	1443.25
982.684	1409.25
982.907	1389.25
983.129	1362.25
983.352	1445.25
983.575	1419.25
983.797	1420.25
984.02	1378.25
984.242	1379.25
984.465	1412.25
984.687	1424.25
984.91	1433.25
985.132	1413.25
985.354	1426.25
985.577	1424.25
985.799	1397.25
986.021	1319.25
986.243	1345.25
986.465	1375.25
986.687	1400.25
986.909	1452.25
987.131	1393.25
987.353	1338.25
987.575	1382.25
987.797	1343.25
988.019	1298.25
988.241	1327.25
988.462	1294.25
988.684	1377.25
988.906	1391.25
989.127	1429.25
989.349	1301.25
989.57	1326.25
989.792	1351.25
990.013	1378.25
990.234	1349.25
990.456	1439.25
990.677	1382.25
990.898	1322.25
991.119	1348.25
991.341	1364.25
991.562	1299.25
991.783	1337.25
992.004	1259.25
992.225	1275.25
992.446	1326.25
992.667	1246.25
992.887	1326.25
993.108	1216.25
993.329	1348.25
993.55	1311.25
993.77	1241.25
993.991	1218.25
994.212	1275.25
994.432	1271.25
994.653	1285.25
994.873	1277.25
995.093	1159.25
995.314	1200.25
995.534	1280.25
995.754	1306.25
995.975	1329.25
996.195	1236.25
996.415	1258.25
996.635	1266.25
996.855	1263.25
997.075	1231.25
997.295	1252.25
997.515	1228.25
997.735	1283.25
997.955	1262.25
998.174	1252.25
998.394	1206.25
998.614	1271.25
998.834	1191.25
999.053	1283.25
999.273	1242.25
999.492	1306.25
999.712	1245.25
999.931	1215.25
1000.151	1243.25
1000.37	1227.25
1000.589	1288.25
1000.809	1212.25
1001.028	1342.25
1001.247	1261.25
1001.466	1158.25
1001.685	1283.25
1001.904	1258.25
1002.123	1252.25
1002.342	1239.25
1002.561	1184.25
1002.78	1245.25
1002.999	1275.25
1003.218	1238.25
1003.436	1204.25
1003.655	1261.25
1003.874	1192.25
1004.092	1215.25
1004.311	1274.25
1004.53	1250.25
1004.748	1317.25
1004.966	1221.25
1005.185	1269.25
1005.403	1268.25
1005.622	1250.25
1005.84	1301.25
1006.058	1188.25
1006.276	1262.25
1006.494	1753.25
1006.712	1259.25
1006.931	1300.25
1007.149	1232.25
1007.367	1224.25
1007.584	1253.25
1007.802	1316.25
1008.02	1253.25
1008.238	1386.25
1008.456	1351.25
1008.673	1255.25
1008.891	1347.25
1009.109	1305.25
1009.326	1378.25
1009.544	1451.25
1009.761	1374.25
1009.979	1505.25
1010.196	1528.25
1010.413	1614.25
1010.631	1691.25
1010.848	1726.25
1011.065	1727.25
1011.282	1660.25
1011.5	1618.25
1011.717	1703.25
1011.934	1659.25
1012.151	1662.25
1012.368	1678.25
1012.585	1614.25
1012.801	1677.25
1013.018	1628.25
1013.235	1627.25
1013.452	1637.25
1013.669	1642.25
1013.885	1650.25
1014.102	1683.25
1014.318	1630.25
1014.535	1613.25
1014.751	1631.25
1014.968	1615.25
1015.184	1659.25
1015.401	1575.25
1015.617	1587.25
1015.833	1536.25
1016.049	1532.25
1016.266	1507.25
1016.482	1503.25
1016.698	1449.25
1016.914	1478.25
1017.13	1430.25
1017.346	1416.25
1017.562	1475.25
1017.778	1416.25
1017.993	1387.25
1018.209	1434.25
1018.425	1416.25
1018.641	1372.25
1018.856	1350.25
1019.072	1388.25
1019.288	1437.25
1019.503	1380.25
1019.719	1313.25
1019.934	1324.25
1020.149	1401.25
1020.365	1329.25
1020.58	1286.25
1020.795	1306.25
1021.011	1245.25
1021.226	1220.25
1021.441	1255.25
1021.656	1167.25
1021.871	1125.25
1022.086	1104.25
1022.301	1122.25
1022.516	1101.25
1022.731	1149.25
1022.946	1066.25
1023.16	1048.25
1023.375	1036.25
1023.59	986.25
1023.804	969.25
1024.019	1049.25
1024.234	925.25
1024.448	974.25
1024.663	899.25
1024.877	905.25
1025.092	921.25
1025.306	920.25
1025.52	837.25
1025.734	906.25
1025.949	851.25
1026.163	808.25
1026.377	783.25
1026.591	833.25
1026.805	738.25
1027.019	754.25
1027.233	717.25
1027.447	663.25
1027.661	771.25
1027.875	722.25
1028.088	737.25
1028.302	647.25
1028.516	629.25
1028.73	632.25
1028.943	637.25
1029.157	587.25
1029.37	537.25
1029.584	-1.75
1029.797	-2.75
1030.011	-0.75
1030.224	1.25
