Data from QEP037381__34__11-26-35-594.txt Node

Date: Wed Dec 21 11:26:35 EST 2022
User: dcclab
Spectrometer: QEP03738
Trigger mode: 4
Integration Time (sec): 1.000000E1
Scans to average: 1
Electric dark correction enabled: true
Nonlinearity correction enabled: false
Boxcar width: 0
XAxis mode: Wavelengths
Number of Pixels in Spectrum: 1044
>>>>>Begin Spectral Data<<<<<
784.041	13
784.3	0
784.558	-4
784.817	-3
785.075	44940
785.334	8931
785.592	4656
785.851	3310
786.109	2501
786.368	2016
786.626	1639
786.884	1386
787.143	1209
787.401	985
787.659	941
787.917	797
788.175	774
788.433	673
788.691	623
788.949	578
789.207	587
789.465	494
789.723	497
789.98	450
790.238	501
790.496	471
790.753	446
791.011	505
791.268	446
791.526	431
791.783	455
792.041	445
792.298	356
792.556	438
792.813	396
793.07	400
793.327	387
793.584	462
793.841	376
794.099	399
794.356	459
794.613	375
794.869	406
795.126	366
795.383	356
795.64	375
795.897	332
796.153	384
796.41	372
796.667	349
796.923	362
797.18	357
797.436	390
797.693	343
797.949	395
798.206	432
798.462	330
798.718	390
798.974	371
799.231	419
799.487	392
799.743	409
799.999	414
800.255	422
800.511	374
800.767	441
801.023	409
801.279	422
801.534	436
801.79	468
802.046	454
802.302	548
802.557	574
802.813	658
803.068	716
803.324	958
803.579	1232
803.835	1630
804.09	2142
804.345	2703
804.601	3405
804.856	4099
805.111	4690
805.366	5154
805.621	5523
805.876	5736
806.131	5868
806.386	5938
806.641	6033
806.896	6176
807.151	6294
807.406	6343
807.661	6435
807.915	6534
808.17	6620
808.425	6725
808.679	6804
808.934	6937
809.188	6835
809.443	6971
809.697	7051
809.951	7042
810.206	7101
810.46	7186
810.714	7265
810.968	7390
811.223	7323
811.477	7407
811.731	7469
811.985	7482
812.239	7536
812.493	7589
812.747	7551
813	7507
813.254	7625
813.508	7663
813.762	7679
814.015	7657
814.269	7753
814.522	7770
814.776	7874
815.03	8007
815.283	7959
815.536	8159
815.79	8307
816.043	8382
816.296	8533
816.55	8519
816.803	8636
817.056	8871
817.309	8832
817.562	8871
817.815	8981
818.068	9013
818.321	9165
818.574	9175
818.827	9315
819.079	9376
819.332	9664
819.585	9661
819.838	9841
820.09	9782
820.343	9920
820.595	9889
820.848	10012
821.1	10068
821.353	9951
821.605	10021
821.857	10041
822.11	9816
822.362	9877
822.614	9883
822.866	9828
823.118	9790
823.37	9929
823.622	9895
823.874	9902
824.126	10003
824.378	9913
824.63	9898
824.882	10009
825.134	9912
825.385	9905
825.637	9859
825.888	9835
826.14	9860
826.392	9733
826.643	9669
826.895	9715
827.146	9623
827.397	9589
827.649	9669
827.9	9605
828.151	9563
828.402	9578
828.653	9613
828.905	9670
829.156	9722
829.407	9690
829.658	9768
829.909	9780
830.159	9814
830.41	9694
830.661	9655
830.912	9570
831.162	9582
831.413	9485
831.664	9519
831.914	9500
832.165	9521
832.415	9433
832.666	9491
832.916	9456
833.167	9442
833.417	9529
833.667	9382
833.917	9328
834.168	9424
834.418	9333
834.668	9334
834.918	9178
835.168	9206
835.418	9120
835.668	9167
835.918	9184
836.167	9112
836.417	9065
836.667	9075
836.917	9065
837.166	9070
837.416	9085
837.666	9130
837.915	9053
838.165	9032
838.414	9024
838.663	8895
838.913	9096
839.162	8973
839.411	9040
839.661	8980
839.91	8967
840.159	8963
840.408	8951
840.657	8936
840.906	8975
841.155	8984
841.404	8901
841.653	9020
841.902	8980
842.15	9037
842.399	9049
842.648	9057
842.897	8965
843.145	8877
843.394	8765
843.642	8813
843.891	8744
844.139	8579
844.388	8542
844.636	8484
844.884	8492
845.133	8495
845.381	8461
845.629	8537
845.877	8439
846.125	8431
846.373	8453
846.621	8411
846.869	8413
847.117	8365
847.365	8322
847.613	8273
847.861	8290
848.108	8386
848.356	8258
848.604	8164
848.851	8279
849.099	8276
849.346	8303
849.594	8386
849.841	8404
850.089	8478
850.336	8585
850.583	8707
850.831	8606
851.078	8530
851.325	8429
851.572	8458
851.819	8319
852.066	8088
852.313	7928
852.56	7835
852.807	7847
853.054	7810
853.301	7854
853.548	7876
853.794	7973
854.041	7943
854.288	7927
854.534	8092
854.781	8043
855.028	8026
855.274	8110
855.52	8075
855.767	8050
856.013	8124
856.26	8383
856.506	8015
856.752	7958
856.998	7969
857.244	7947
857.49	7983
857.736	8014
857.982	8035
858.228	7955
858.474	7823
858.72	7808
858.966	7697
859.212	7652
859.458	7602
859.703	7457
859.949	7420
860.195	7409
860.44	7378
860.686	7348
860.931	7418
861.177	7206
861.422	7182
861.667	7159
861.913	7143
862.158	7113
862.403	7248
862.648	7238
862.893	7197
863.138	7188
863.384	7051
863.629	7126
863.873	7178
864.118	7089
864.363	7010
864.608	7055
864.853	7073
865.098	6979
865.342	6991
865.587	6972
865.832	6938
866.076	6911
866.321	6912
866.565	6918
866.81	6792
867.054	6819
867.298	6800
867.543	6779
867.787	6793
868.031	6815
868.275	6759
868.519	6804
868.764	6787
869.008	6773
869.252	6810
869.496	6754
869.739	6794
869.983	6839
870.227	6850
870.471	6774
870.715	6858
870.958	6816
871.202	6865
871.446	6899
871.689	6822
871.933	6868
872.176	6869
872.42	6891
872.663	6864
872.906	6958
873.15	6967
873.393	6946
873.636	6998
873.879	6903
874.122	6741
874.366	6702
874.609	6582
874.852	6536
875.095	6504
875.337	6341
875.58	6287
875.823	6346
876.066	6319
876.309	6356
876.551	6229
876.794	6186
877.037	6292
877.279	6196
877.522	6136
877.764	6206
878.007	6117
878.249	6196
878.491	6055
878.734	6121
878.976	6087
879.218	6026
879.46	6057
879.702	5975
879.945	5942
880.187	5875
880.429	5851
880.671	5837
880.912	5747
881.154	5792
881.396	5689
881.638	5750
881.88	5749
882.121	5670
882.363	5772
882.605	5833
882.846	5736
883.088	5769
883.329	5795
883.571	5839
883.812	6053
884.053	6228
884.295	6550
884.536	6599
884.777	6502
885.018	6429
885.259	6363
885.5	6261
885.742	6496
885.982	6246
886.223	6109
886.464	6104
886.705	5983
886.946	5841
887.187	5717
887.428	5663
887.668	5486
887.909	5385
888.15	5343
888.39	5357
888.631	5365
888.871	5214
889.111	5154
889.352	5151
889.592	5097
889.833	5127
890.073	5024
890.313	5051
890.553	4933
890.793	4904
891.033	4881
891.273	4847
891.513	4852
891.753	4950
891.993	4867
892.233	4903
892.473	4925
892.713	4867
892.952	4891
893.192	4864
893.432	4896
893.671	4852
893.911	4862
894.15	4817
894.39	4792
894.629	4795
894.869	4786
895.108	4755
895.347	4672
895.587	4730
895.826	4741
896.065	4727
896.304	4745
896.543	4777
896.782	4664
897.021	4695
897.26	4692
897.499	4757
897.738	4753
897.977	4699
898.216	4675
898.454	4631
898.693	4556
898.932	4641
899.17	4559
899.409	4610
899.647	4560
899.886	4561
900.124	4632
900.363	4657
900.601	4655
900.839	4731
901.078	4719
901.316	4785
901.554	4789
901.792	4864
902.03	4763
902.268	4844
902.506	4858
902.744	4788
902.982	4722
903.22	4581
903.458	4531
903.695	4420
903.933	4359
904.171	4252
904.409	4208
904.646	4097
904.884	4067
905.121	4077
905.359	3990
905.596	3939
905.833	3852
906.071	3866
906.308	3858
906.545	3800
906.783	3801
907.02	3786
907.257	3697
907.494	3759
907.731	3732
907.968	3769
908.205	3715
908.442	3683
908.679	3664
908.915	3630
909.152	3603
909.389	3534
909.626	3555
909.862	3500
910.099	3475
910.335	3460
910.572	3432
910.808	3448
911.045	3420
911.281	3371
911.518	3423
911.754	3384
911.99	3391
912.226	3339
912.463	3259
912.699	3286
912.935	3303
913.171	3290
913.407	3247
913.643	3241
913.879	3216
914.114	3118
914.35	3127
914.586	3078
914.822	3060
915.057	3130
915.293	2998
915.529	2993
915.764	3088
916	3039
916.235	3017
916.471	3025
916.706	2941
916.941	2976
917.177	3006
917.412	2978
917.647	2993
917.882	2927
918.117	3004
918.352	2964
918.588	2958
918.823	2924
919.057	2931
919.292	2778
919.527	2854
919.762	2817
919.997	2855
920.232	2778
920.466	2794
920.701	2701
920.935	2717
921.17	2689
921.405	2655
921.639	2745
921.873	2681
922.108	2695
922.342	2688
922.576	2637
922.811	2649
923.045	2663
923.279	2695
923.513	2555
923.747	2641
923.981	2618
924.215	2553
924.449	2566
924.683	2489
924.917	2508
925.151	2545
925.385	2557
925.618	2520
925.852	2553
926.086	2464
926.319	2506
926.553	2488
926.786	2479
927.02	2517
927.253	2537
927.486	2541
927.72	2447
927.953	2508
928.186	2468
928.42	2497
928.653	2418
928.886	2420
929.119	2459
929.352	2422
929.585	2425
929.818	2386
930.051	2424
930.284	2393
930.516	2293
930.749	2321
930.982	2345
931.215	2363
931.447	2278
931.68	2290
931.912	2249
932.145	2301
932.377	2324
932.61	2398
932.842	2204
933.074	2330
933.307	2240
933.539	2340
933.771	2328
934.003	2252
934.236	2335
934.468	2382
934.7	2273
934.932	2290
935.164	2236
935.395	2231
935.627	2250
935.859	2407
936.091	3350
936.323	3288
936.554	2326
936.786	2210
937.017	2164
937.249	2235
937.481	2147
937.712	2243
937.943	2209
938.175	2182
938.406	2186
938.637	2264
938.869	2151
939.1	2207
939.331	2152
939.562	2195
939.793	2176
940.024	2205
940.255	2194
940.486	2155
940.717	2127
940.948	2128
941.179	2069
941.409	2123
941.64	2073
941.871	2083
942.102	2086
942.332	2097
942.563	2123
942.793	2072
943.024	2032
943.254	2077
943.484	2135
943.715	2147
943.945	2114
944.175	2048
944.405	2037
944.636	2036
944.866	2076
945.096	2092
945.326	1998
945.556	2072
945.786	2081
946.016	2029
946.245	1990
946.475	1997
946.705	1976
946.935	1984
947.164	2015
947.394	1998
947.624	1982
947.853	1997
948.083	1957
948.312	1930
948.542	1898
948.771	1882
949	1900
949.23	1862
949.459	1900
949.688	1960
949.917	1873
950.146	1925
950.375	1975
950.604	1865
950.833	1963
951.062	1949
951.291	1870
951.52	1856
951.749	1905
951.978	1860
952.206	1832
952.435	1844
952.664	1885
952.892	1894
953.121	1852
953.349	1861
953.578	1887
953.806	1868
954.035	1784
954.263	1802
954.491	1792
954.719	1818
954.948	1766
955.176	1793
955.404	1675
955.632	1776
955.86	1791
956.088	1773
956.316	1775
956.544	1767
956.772	1696
956.999	1701
957.227	1787
957.455	1666
957.683	1715
957.91	1652
958.138	1674
958.365	1677
958.593	1650
958.82	1618
959.048	1681
959.275	1679
959.502	1677
959.73	1629
959.957	1665
960.184	1668
960.411	1612
960.638	1701
960.865	1651
961.092	1681
961.319	1575
961.546	1681
961.773	1684
962	1612
962.227	1676
962.454	1625
962.68	1628
962.907	1628
963.134	1607
963.36	1630
963.587	1652
963.813	1571
964.04	1644
964.266	1555
964.493	1645
964.719	1601
964.945	1599
965.171	1521
965.398	1575
965.624	1624
965.85	1540
966.076	1517
966.302	1596
966.528	1539
966.754	1575
966.98	1504
967.206	1550
967.431	1458
967.657	1583
967.883	1566
968.109	1540
968.334	1500
968.56	1482
968.785	1500
969.011	1476
969.236	1517
969.462	1460
969.687	1462
969.912	1508
970.138	1556
970.363	1422
970.588	1460
970.813	1470
971.038	1421
971.263	1472
971.488	1468
971.713	1524
971.938	1487
972.163	1389
972.388	1434
972.613	1425
972.838	1446
973.062	1416
973.287	1398
973.512	1337
973.736	1395
973.961	1387
974.185	1348
974.41	1403
974.634	1291
974.858	1332
975.083	1362
975.307	1396
975.531	1341
975.755	1265
975.98	1317
976.204	1233
976.428	1269
976.652	1298
976.876	1266
977.1	1263
977.324	1252
977.547	1329
977.771	1315
977.995	1284
978.219	1220
978.442	1388
978.666	1291
978.89	1291
979.113	1292
979.337	1263
979.56	1239
979.783	1341
980.007	1225
980.23	1278
980.453	1231
980.677	1265
980.9	1256
981.123	1167
981.346	1254
981.569	1243
981.792	1251
982.015	1224
982.238	1199
982.461	1241
982.684	1198
982.907	1170
983.129	1187
983.352	1235
983.575	1198
983.797	1228
984.02	1175
984.242	1168
984.465	1175
984.687	1207
984.91	1224
985.132	1234
985.354	1194
985.577	1212
985.799	1187
986.021	1129
986.243	1175
986.465	1165
986.687	1240
986.909	1252
987.131	1182
987.353	1158
987.575	1198
987.797	1147
988.019	1112
988.241	1159
988.462	1129
988.684	1181
988.906	1217
989.127	1217
989.349	1127
989.57	1159
989.792	1210
990.013	1195
990.234	1199
990.456	1232
990.677	1213
990.898	1167
991.119	1133
991.341	1182
991.562	1121
991.783	1168
992.004	1097
992.225	1101
992.446	1168
992.667	1052
992.887	1160
993.108	1075
993.329	1196
993.55	1133
993.77	1074
993.991	1113
994.212	1136
994.432	1114
994.653	1126
994.873	1133
995.093	1038
995.314	1077
995.534	1137
995.754	1161
995.975	1188
996.195	1059
996.415	1139
996.635	1107
996.855	1133
997.075	1091
997.295	1099
997.515	1088
997.735	1140
997.955	1097
998.174	1090
998.394	1079
998.614	1144
998.834	1077
999.053	1155
999.273	1099
999.492	1180
999.712	1093
999.931	1066
1000.151	1117
1000.37	1101
1000.589	1155
1000.809	1064
1001.028	1201
1001.247	1152
1001.466	1056
1001.685	1179
1001.904	1108
1002.123	1128
1002.342	1119
1002.561	1067
1002.78	1115
1002.999	1199
1003.218	1090
1003.436	1080
1003.655	1165
1003.874	1087
1004.092	1119
1004.311	1161
1004.53	1126
1004.748	1218
1004.966	1118
1005.185	1169
1005.403	1172
1005.622	1140
1005.84	1232
1006.058	1112
1006.276	1135
1006.494	1653
1006.712	1150
1006.931	1219
1007.149	1127
1007.367	1150
1007.584	1151
1007.802	1207
1008.02	1147
1008.238	1282
1008.456	1253
1008.673	1133
1008.891	1249
1009.109	1180
1009.326	1275
1009.544	1358
1009.761	1269
1009.979	1378
1010.196	1421
1010.413	1532
1010.631	1564
1010.848	1608
1011.065	1632
1011.282	1559
1011.5	1499
1011.717	1622
1011.934	1556
1012.151	1585
1012.368	1568
1012.585	1505
1012.801	1585
1013.018	1546
1013.235	1512
1013.452	1562
1013.669	1523
1013.885	1520
1014.102	1595
1014.318	1546
1014.535	1542
1014.751	1548
1014.968	1563
1015.184	1556
1015.401	1470
1015.617	1501
1015.833	1428
1016.049	1445
1016.266	1410
1016.482	1419
1016.698	1377
1016.914	1406
1017.13	1356
1017.346	1366
1017.562	1411
1017.778	1323
1017.993	1295
1018.209	1379
1018.425	1355
1018.641	1300
1018.856	1280
1019.072	1328
1019.288	1349
1019.503	1301
1019.719	1250
1019.934	1245
1020.149	1313
1020.365	1271
1020.58	1201
1020.795	1261
1021.011	1190
1021.226	1151
1021.441	1169
1021.656	1100
1021.871	1052
1022.086	1065
1022.301	1043
1022.516	1053
1022.731	1094
1022.946	1011
1023.16	995
1023.375	978
1023.59	951
1023.804	919
1024.019	1002
1024.234	873
1024.448	912
1024.663	844
1024.877	873
1025.092	880
1025.306	897
1025.52	797
1025.734	880
1025.949	813
1026.163	778
1026.377	705
1026.591	793
1026.805	716
1027.019	708
1027.233	669
1027.447	630
1027.661	721
1027.875	664
1028.088	675
1028.302	602
1028.516	612
1028.73	622
1028.943	624
1029.157	550
1029.37	526
1029.584	0
1029.797	-3
1030.011	1
1030.224	-4
