Data from QEP037381__49__11-29-05-595.txt Node

Date: Wed Dec 21 11:29:05 EST 2022
User: dcclab
Spectrometer: QEP03738
Trigger mode: 4
Integration Time (sec): 1.000000E1
Scans to average: 1
Electric dark correction enabled: true
Nonlinearity correction enabled: false
Boxcar width: 0
XAxis mode: Wavelengths
Number of Pixels in Spectrum: 1044
>>>>>Begin Spectral Data<<<<<
784.041	12.88
784.3	0.88
784.558	-1.12
784.817	-6.12
785.075	39372.88
785.334	8107.88
785.592	4374.88
785.851	3080.88
786.109	2381.88
786.368	1863.88
786.626	1574.88
786.884	1322.88
787.143	1114.88
787.401	906.88
787.659	903.88
787.917	758.88
788.175	713.88
788.433	642.88
788.691	593.88
788.949	564.88
789.207	553.88
789.465	470.88
789.723	477.88
789.98	429.88
790.238	495.88
790.496	461.88
790.753	433.88
791.011	491.88
791.268	429.88
791.526	412.88
791.783	433.88
792.041	437.88
792.298	358.88
792.556	437.88
792.813	403.88
793.07	374.88
793.327	377.88
793.584	447.88
793.841	375.88
794.099	398.88
794.356	457.88
794.613	365.88
794.869	393.88
795.126	361.88
795.383	351.88
795.64	363.88
795.897	315.88
796.153	386.88
796.41	378.88
796.667	359.88
796.923	362.88
797.18	360.88
797.436	393.88
797.693	360.88
797.949	403.88
798.206	443.88
798.462	338.88
798.718	409.88
798.974	372.88
799.231	415.88
799.487	388.88
799.743	396.88
799.999	420.88
800.255	416.88
800.511	405.88
800.767	432.88
801.023	425.88
801.279	440.88
801.534	461.88
801.79	476.88
802.046	468.88
802.302	581.88
802.557	612.88
802.813	717.88
803.068	814.88
803.324	1088.88
803.579	1375.88
803.835	1853.88
804.09	2489.88
804.345	3168.88
804.601	3865.88
804.856	4661.88
805.111	5333.88
805.366	5821.88
805.621	6199.88
805.876	6466.88
806.131	6657.88
806.386	6659.88
806.641	6809.88
806.896	6873.88
807.151	7135.88
807.406	7167.88
807.661	7287.88
807.915	7473.88
808.17	7581.88
808.425	7650.88
808.679	7681.88
808.934	7857.88
809.188	7839.88
809.443	7959.88
809.697	8081.88
809.951	8088.88
810.206	8210.88
810.46	8344.88
810.714	8313.88
810.968	8439.88
811.223	8393.88
811.477	8544.88
811.731	8598.88
811.985	8622.88
812.239	8538.88
812.493	8604.88
812.747	8665.88
813	8682.88
813.254	8723.88
813.508	8861.88
813.762	8775.88
814.015	8824.88
814.269	8915.88
814.522	9007.88
814.776	9031.88
815.03	9177.88
815.283	9284.88
815.536	9466.88
815.79	9578.88
816.043	9789.88
816.296	9862.88
816.55	9976.88
816.803	10093.88
817.056	10282.88
817.309	10263.88
817.562	10383.88
817.815	10535.88
818.068	10436.88
818.321	10624.88
818.574	10719.88
818.827	10904.88
819.079	10991.88
819.332	11329.88
819.585	11337.88
819.838	11543.88
820.09	11435.88
820.343	11553.88
820.595	11491.88
820.848	11658.88
821.1	11676.88
821.353	11634.88
821.605	11647.88
821.857	11651.88
822.11	11483.88
822.362	11579.88
822.614	11552.88
822.866	11639.88
823.118	11526.88
823.37	11657.88
823.622	11686.88
823.874	11615.88
824.126	11744.88
824.378	11646.88
824.63	11697.88
824.882	11688.88
825.134	11689.88
825.385	11694.88
825.637	11625.88
825.888	11558.88
826.14	11607.88
826.392	11535.88
826.643	11387.88
826.895	11508.88
827.146	11392.88
827.397	11350.88
827.649	11414.88
827.9	11292.88
828.151	11267.88
828.402	11377.88
828.653	11391.88
828.905	11412.88
829.156	11462.88
829.407	11454.88
829.658	11446.88
829.909	11602.88
830.159	11567.88
830.41	11497.88
830.661	11429.88
830.912	11322.88
831.162	11266.88
831.413	11244.88
831.664	11341.88
831.914	11232.88
832.165	11244.88
832.415	11248.88
832.666	11215.88
832.916	11212.88
833.167	11207.88
833.417	11313.88
833.667	11145.88
833.917	11167.88
834.168	11128.88
834.418	11095.88
834.668	11016.88
834.918	10895.88
835.168	10941.88
835.418	10847.88
835.668	10915.88
835.918	10899.88
836.167	10836.88
836.417	10741.88
836.667	10786.88
836.917	10818.88
837.166	10752.88
837.416	10843.88
837.666	10802.88
837.915	10828.88
838.165	10742.88
838.414	10700.88
838.663	10690.88
838.913	10754.88
839.162	10612.88
839.411	10798.88
839.661	10576.88
839.91	10598.88
840.159	10673.88
840.408	10735.88
840.657	10673.88
840.906	10663.88
841.155	10705.88
841.404	10528.88
841.653	10583.88
841.902	10682.88
842.15	10759.88
842.399	10751.88
842.648	10669.88
842.897	10685.88
843.145	10625.88
843.394	10475.88
843.642	10412.88
843.891	10360.88
844.139	10302.88
844.388	10188.88
844.636	10100.88
844.884	10176.88
845.133	10187.88
845.381	10128.88
845.629	10098.88
845.877	10131.88
846.125	10131.88
846.373	10155.88
846.621	10055.88
846.869	9985.88
847.117	9991.88
847.365	9903.88
847.613	9968.88
847.861	9909.88
848.108	9897.88
848.356	9921.88
848.604	9901.88
848.851	9827.88
849.099	9894.88
849.346	9911.88
849.594	9983.88
849.841	10121.88
850.089	10161.88
850.336	10210.88
850.583	10233.88
850.831	10160.88
851.078	10157.88
851.325	10087.88
851.572	10070.88
851.819	9971.88
852.066	9716.88
852.313	9514.88
852.56	9324.88
852.807	9386.88
853.054	9429.88
853.301	9455.88
853.548	9468.88
853.794	9493.88
854.041	9502.88
854.288	9575.88
854.534	9681.88
854.781	9641.88
855.028	9566.88
855.274	9642.88
855.52	9616.88
855.767	9605.88
856.013	9701.88
856.26	9911.88
856.506	9492.88
856.752	9516.88
856.998	9494.88
857.244	9521.88
857.49	9655.88
857.736	9565.88
857.982	9629.88
858.228	9517.88
858.474	9424.88
858.72	9397.88
858.966	9253.88
859.212	9171.88
859.458	9044.88
859.703	8946.88
859.949	8850.88
860.195	8880.88
860.44	8839.88
860.686	8761.88
860.931	8854.88
861.177	8746.88
861.422	8661.88
861.667	8566.88
861.913	8510.88
862.158	8565.88
862.403	8581.88
862.648	8537.88
862.893	8688.88
863.138	8648.88
863.384	8536.88
863.629	8634.88
863.873	8566.88
864.118	8597.88
864.363	8500.88
864.608	8532.88
864.853	8475.88
865.098	8338.88
865.342	8400.88
865.587	8338.88
865.832	8328.88
866.076	8313.88
866.321	8261.88
866.565	8305.88
866.81	8244.88
867.054	8239.88
867.298	8227.88
867.543	8188.88
867.787	8266.88
868.031	8232.88
868.275	8172.88
868.519	8130.88
868.764	8151.88
869.008	8088.88
869.252	8141.88
869.496	8148.88
869.739	8153.88
869.983	8165.88
870.227	8228.88
870.471	8151.88
870.715	8246.88
870.958	8277.88
871.202	8253.88
871.446	8294.88
871.689	8306.88
871.933	8324.88
872.176	8281.88
872.42	8254.88
872.663	8259.88
872.906	8341.88
873.15	8291.88
873.393	8340.88
873.636	8409.88
873.879	8254.88
874.122	8148.88
874.366	7928.88
874.609	7926.88
874.852	7838.88
875.095	7693.88
875.337	7665.88
875.58	7594.88
875.823	7648.88
876.066	7609.88
876.309	7629.88
876.551	7490.88
876.794	7445.88
877.037	7444.88
877.279	7403.88
877.522	7432.88
877.764	7432.88
878.007	7370.88
878.249	7370.88
878.491	7340.88
878.734	7343.88
878.976	7375.88
879.218	7293.88
879.46	7308.88
879.702	7214.88
879.945	7138.88
880.187	7036.88
880.429	7023.88
880.671	7001.88
880.912	6960.88
881.154	6974.88
881.396	6844.88
881.638	6922.88
881.88	6921.88
882.121	6882.88
882.363	6919.88
882.605	6969.88
882.846	6905.88
883.088	6979.88
883.329	6938.88
883.571	7068.88
883.812	7217.88
884.053	7495.88
884.295	7729.88
884.536	7873.88
884.777	7722.88
885.018	7625.88
885.259	7614.88
885.5	7520.88
885.742	7736.88
885.982	7481.88
886.223	7351.88
886.464	7244.88
886.705	7150.88
886.946	6990.88
887.187	6828.88
887.428	6860.88
887.668	6597.88
887.909	6504.88
888.15	6418.88
888.39	6401.88
888.631	6318.88
888.871	6295.88
889.111	6222.88
889.352	6174.88
889.592	6124.88
889.833	6076.88
890.073	6000.88
890.313	6079.88
890.553	5890.88
890.793	5896.88
891.033	5881.88
891.273	5861.88
891.513	5838.88
891.753	5849.88
891.993	5833.88
892.233	5892.88
892.473	5938.88
892.713	5882.88
892.952	5795.88
893.192	5879.88
893.432	5872.88
893.671	5958.88
893.911	5854.88
894.15	5819.88
894.39	5759.88
894.629	5743.88
894.869	5745.88
895.108	5711.88
895.347	5670.88
895.587	5743.88
895.826	5663.88
896.065	5634.88
896.304	5662.88
896.543	5661.88
896.782	5539.88
897.021	5642.88
897.26	5637.88
897.499	5673.88
897.738	5719.88
897.977	5602.88
898.216	5559.88
898.454	5556.88
898.693	5515.88
898.932	5503.88
899.17	5486.88
899.409	5471.88
899.647	5500.88
899.886	5462.88
900.124	5529.88
900.363	5482.88
900.601	5559.88
900.839	5554.88
901.078	5556.88
901.316	5664.88
901.554	5694.88
901.792	5721.88
902.03	5742.88
902.268	5767.88
902.506	5763.88
902.744	5623.88
902.982	5622.88
903.22	5432.88
903.458	5398.88
903.695	5300.88
903.933	5180.88
904.171	5072.88
904.409	4991.88
904.646	4962.88
904.884	4849.88
905.121	4870.88
905.359	4756.88
905.596	4734.88
905.833	4616.88
906.071	4629.88
906.308	4626.88
906.545	4579.88
906.783	4545.88
907.02	4559.88
907.257	4495.88
907.494	4538.88
907.731	4506.88
907.968	4475.88
908.205	4426.88
908.442	4398.88
908.679	4440.88
908.915	4376.88
909.152	4330.88
909.389	4220.88
909.626	4217.88
909.862	4205.88
910.099	4208.88
910.335	4229.88
910.572	4136.88
910.808	4197.88
911.045	4151.88
911.281	4040.88
911.518	4169.88
911.754	4046.88
911.99	4059.88
912.226	4020.88
912.463	3956.88
912.699	3949.88
912.935	3955.88
913.171	3911.88
913.407	3870.88
913.643	3887.88
913.879	3855.88
914.114	3796.88
914.35	3744.88
914.586	3735.88
914.822	3692.88
915.057	3747.88
915.293	3621.88
915.529	3608.88
915.764	3706.88
916	3660.88
916.235	3646.88
916.471	3640.88
916.706	3568.88
916.941	3565.88
917.177	3598.88
917.412	3618.88
917.647	3572.88
917.882	3558.88
918.117	3607.88
918.352	3567.88
918.588	3603.88
918.823	3499.88
919.057	3498.88
919.292	3362.88
919.527	3525.88
919.762	3380.88
919.997	3443.88
920.232	3364.88
920.466	3367.88
920.701	3267.88
920.935	3289.88
921.17	3230.88
921.405	3243.88
921.639	3282.88
921.873	3258.88
922.108	3227.88
922.342	3247.88
922.576	3186.88
922.811	3158.88
923.045	3228.88
923.279	3233.88
923.513	3071.88
923.747	3154.88
923.981	3145.88
924.215	3086.88
924.449	3071.88
924.683	3037.88
924.917	3013.88
925.151	3049.88
925.385	3076.88
925.618	3036.88
925.852	2994.88
926.086	2953.88
926.319	3004.88
926.553	3021.88
926.786	2981.88
927.02	2980.88
927.253	3035.88
927.486	3031.88
927.72	2917.88
927.953	2976.88
928.186	2966.88
928.42	2999.88
928.653	2906.88
928.886	2903.88
929.119	2939.88
929.352	2958.88
929.585	2916.88
929.818	2853.88
930.051	2882.88
930.284	2874.88
930.516	2734.88
930.749	2774.88
930.982	2847.88
931.215	2783.88
931.447	2683.88
931.68	2722.88
931.912	2715.88
932.145	2742.88
932.377	2749.88
932.61	2863.88
932.842	2688.88
933.074	2738.88
933.307	2700.88
933.539	2817.88
933.771	2739.88
934.003	2727.88
934.236	2808.88
934.468	2820.88
934.7	2748.88
934.932	2779.88
935.164	2696.88
935.395	2667.88
935.627	2715.88
935.859	2678.88
936.091	2652.88
936.323	2671.88
936.554	2706.88
936.786	2700.88
937.017	2599.88
937.249	2654.88
937.481	2591.88
937.712	2643.88
937.943	2634.88
938.175	2592.88
938.406	2600.88
938.637	2694.88
938.869	2561.88
939.1	2602.88
939.331	2568.88
939.562	2623.88
939.793	2582.88
940.024	2618.88
940.255	2632.88
940.486	2559.88
940.717	2523.88
940.948	2503.88
941.179	2477.88
941.409	2501.88
941.64	2505.88
941.871	2533.88
942.102	2512.88
942.332	2499.88
942.563	2530.88
942.793	2501.88
943.024	2489.88
943.254	2495.88
943.484	2559.88
943.715	2508.88
943.945	2503.88
944.175	2392.88
944.405	2408.88
944.636	2449.88
944.866	2499.88
945.096	2487.88
945.326	2395.88
945.556	2463.88
945.786	2458.88
946.016	2409.88
946.245	2385.88
946.475	2388.88
946.705	2372.88
946.935	2385.88
947.164	2354.88
947.394	2318.88
947.624	2322.88
947.853	2370.88
948.083	2344.88
948.312	2341.88
948.542	2247.88
948.771	2238.88
949	2270.88
949.23	2261.88
949.459	2283.88
949.688	2325.88
949.917	2276.88
950.146	2283.88
950.375	2333.88
950.604	2241.88
950.833	2360.88
951.062	2318.88
951.291	2218.88
951.52	2241.88
951.749	2244.88
951.978	2205.88
952.206	2218.88
952.435	2226.88
952.664	2219.88
952.892	2241.88
953.121	2210.88
953.349	2227.88
953.578	2208.88
953.806	2185.88
954.035	2124.88
954.263	2163.88
954.491	2115.88
954.719	2172.88
954.948	2136.88
955.176	2088.88
955.404	2059.88
955.632	2117.88
955.86	2105.88
956.088	2084.88
956.316	2131.88
956.544	2116.88
956.772	2068.88
956.999	1999.88
957.227	2129.88
957.455	2014.88
957.683	2058.88
957.91	2007.88
958.138	1994.88
958.365	1996.88
958.593	2001.88
958.82	1941.88
959.048	2055.88
959.275	1975.88
959.502	1951.88
959.73	1938.88
959.957	1951.88
960.184	1992.88
960.411	1910.88
960.638	2004.88
960.865	1976.88
961.092	1984.88
961.319	1887.88
961.546	2014.88
961.773	1994.88
962	1970.88
962.227	1997.88
962.454	1931.88
962.68	1917.88
962.907	1938.88
963.134	1911.88
963.36	1891.88
963.587	1935.88
963.813	1875.88
964.04	1900.88
964.266	1850.88
964.493	1908.88
964.719	1892.88
964.945	1895.88
965.171	1818.88
965.398	1832.88
965.624	1890.88
965.85	1791.88
966.076	1818.88
966.302	1841.88
966.528	1802.88
966.754	1826.88
966.98	1830.88
967.206	1821.88
967.431	1761.88
967.657	1811.88
967.883	1823.88
968.109	1777.88
968.334	1766.88
968.56	1735.88
968.785	1736.88
969.011	1719.88
969.236	1783.88
969.462	1707.88
969.687	1721.88
969.912	1765.88
970.138	1772.88
970.363	1695.88
970.588	1719.88
970.813	1731.88
971.038	1698.88
971.263	1731.88
971.488	1747.88
971.713	1735.88
971.938	1744.88
972.163	1653.88
972.388	1706.88
972.613	1650.88
972.838	1695.88
973.062	1659.88
973.287	1677.88
973.512	1595.88
973.736	1667.88
973.961	1634.88
974.185	1603.88
974.41	1655.88
974.634	1544.88
974.858	1550.88
975.083	1600.88
975.307	1617.88
975.531	1563.88
975.755	1516.88
975.98	1536.88
976.204	1467.88
976.428	1512.88
976.652	1502.88
976.876	1476.88
977.1	1545.88
977.324	1478.88
977.547	1519.88
977.771	1548.88
977.995	1501.88
978.219	1470.88
978.442	1572.88
978.666	1508.88
978.89	1473.88
979.113	1516.88
979.337	1519.88
979.56	1454.88
979.783	1551.88
980.007	1430.88
980.23	1487.88
980.453	1429.88
980.677	1476.88
980.9	1474.88
981.123	1391.88
981.346	1473.88
981.569	1440.88
981.792	1452.88
982.015	1462.88
982.238	1402.88
982.461	1422.88
982.684	1390.88
982.907	1355.88
983.129	1374.88
983.352	1438.88
983.575	1397.88
983.797	1399.88
984.02	1369.88
984.242	1374.88
984.465	1383.88
984.687	1428.88
984.91	1429.88
985.132	1397.88
985.354	1417.88
985.577	1389.88
985.799	1390.88
986.021	1307.88
986.243	1324.88
986.465	1344.88
986.687	1397.88
986.909	1413.88
987.131	1374.88
987.353	1333.88
987.575	1387.88
987.797	1323.88
988.019	1292.88
988.241	1339.88
988.462	1287.88
988.684	1355.88
988.906	1362.88
989.127	1393.88
989.349	1290.88
989.57	1327.88
989.792	1352.88
990.013	1356.88
990.234	1369.88
990.456	1417.88
990.677	1378.88
990.898	1322.88
991.119	1321.88
991.341	1332.88
991.562	1295.88
991.783	1348.88
992.004	1286.88
992.225	1224.88
992.446	1317.88
992.667	1209.88
992.887	1319.88
993.108	1195.88
993.329	1336.88
993.55	1295.88
993.77	1248.88
993.991	1251.88
994.212	1270.88
994.432	1257.88
994.653	1262.88
994.873	1278.88
995.093	1166.88
995.314	1202.88
995.534	1298.88
995.754	1291.88
995.975	1321.88
996.195	1210.88
996.415	1274.88
996.635	1237.88
996.855	1255.88
997.075	1232.88
997.295	1230.88
997.515	1220.88
997.735	1298.88
997.955	1257.88
998.174	1237.88
998.394	1230.88
998.614	1259.88
998.834	1233.88
999.053	1295.88
999.273	1244.88
999.492	1300.88
999.712	1219.88
999.931	1237.88
1000.151	1246.88
1000.37	1212.88
1000.589	1272.88
1000.809	1201.88
1001.028	1314.88
1001.247	1264.88
1001.466	1160.88
1001.685	1286.88
1001.904	1228.88
1002.123	1231.88
1002.342	1266.88
1002.561	1193.88
1002.78	1209.88
1002.999	1249.88
1003.218	1222.88
1003.436	1201.88
1003.655	1245.88
1003.874	1188.88
1004.092	1208.88
1004.311	1253.88
1004.53	1223.88
1004.748	1318.88
1004.966	1243.88
1005.185	1277.88
1005.403	1279.88
1005.622	1262.88
1005.84	1327.88
1006.058	1233.88
1006.276	1230.88
1006.494	1754.88
1006.712	1244.88
1006.931	1298.88
1007.149	1227.88
1007.367	1243.88
1007.584	1266.88
1007.802	1278.88
1008.02	1259.88
1008.238	1376.88
1008.456	1384.88
1008.673	1271.88
1008.891	1379.88
1009.109	1321.88
1009.326	1386.88
1009.544	1447.88
1009.761	1383.88
1009.979	1476.88
1010.196	1507.88
1010.413	1657.88
1010.631	1705.88
1010.848	1729.88
1011.065	1747.88
1011.282	1717.88
1011.5	1641.88
1011.717	1740.88
1011.934	1661.88
1012.151	1683.88
1012.368	1662.88
1012.585	1633.88
1012.801	1692.88
1013.018	1672.88
1013.235	1625.88
1013.452	1675.88
1013.669	1678.88
1013.885	1658.88
1014.102	1715.88
1014.318	1656.88
1014.535	1627.88
1014.751	1649.88
1014.968	1660.88
1015.184	1659.88
1015.401	1584.88
1015.617	1595.88
1015.833	1552.88
1016.049	1590.88
1016.266	1531.88
1016.482	1546.88
1016.698	1471.88
1016.914	1526.88
1017.13	1464.88
1017.346	1463.88
1017.562	1519.88
1017.778	1461.88
1017.993	1395.88
1018.209	1462.88
1018.425	1451.88
1018.641	1418.88
1018.856	1396.88
1019.072	1429.88
1019.288	1470.88
1019.503	1393.88
1019.719	1345.88
1019.934	1352.88
1020.149	1413.88
1020.365	1354.88
1020.58	1292.88
1020.795	1346.88
1021.011	1270.88
1021.226	1246.88
1021.441	1262.88
1021.656	1169.88
1021.871	1127.88
1022.086	1123.88
1022.301	1127.88
1022.516	1110.88
1022.731	1166.88
1022.946	1075.88
1023.16	1047.88
1023.375	1039.88
1023.59	1015.88
1023.804	976.88
1024.019	1071.88
1024.234	939.88
1024.448	969.88
1024.663	909.88
1024.877	923.88
1025.092	928.88
1025.306	931.88
1025.52	833.88
1025.734	940.88
1025.949	846.88
1026.163	820.88
1026.377	777.88
1026.591	805.88
1026.805	749.88
1027.019	750.88
1027.233	708.88
1027.447	664.88
1027.661	767.88
1027.875	705.88
1028.088	705.88
1028.302	626.88
1028.516	633.88
1028.73	648.88
1028.943	639.88
1029.157	582.88
1029.37	559.88
1029.584	-4.12
1029.797	-1.12
1030.011	0.88
1030.224	-2.12
