Data from QEP037381__81__11-34-25-596.txt Node

Date: Wed Dec 21 11:34:25 EST 2022
User: dcclab
Spectrometer: QEP03738
Trigger mode: 4
Integration Time (sec): 1.000000E1
Scans to average: 1
Electric dark correction enabled: true
Nonlinearity correction enabled: false
Boxcar width: 0
XAxis mode: Wavelengths
Number of Pixels in Spectrum: 1044
>>>>>Begin Spectral Data<<<<<
784.041	13.25
784.3	-0.75
784.558	-1.75
784.817	-6.75
785.075	42956.25
785.334	8449.25
785.592	4478.25
785.851	3167.25
786.109	2419.25
786.368	1938.25
786.626	1612.25
786.884	1373.25
787.143	1163.25
787.401	973.25
787.659	900.25
787.917	797.25
788.175	765.25
788.433	676.25
788.691	606.25
788.949	586.25
789.207	567.25
789.465	504.25
789.723	490.25
789.98	454.25
790.238	483.25
790.496	468.25
790.753	460.25
791.011	496.25
791.268	440.25
791.526	434.25
791.783	454.25
792.041	438.25
792.298	359.25
792.556	440.25
792.813	414.25
793.07	395.25
793.327	373.25
793.584	461.25
793.841	404.25
794.099	406.25
794.356	459.25
794.613	378.25
794.869	403.25
795.126	377.25
795.383	368.25
795.64	405.25
795.897	347.25
796.153	401.25
796.41	376.25
796.667	373.25
796.923	376.25
797.18	368.25
797.436	405.25
797.693	360.25
797.949	407.25
798.206	445.25
798.462	354.25
798.718	422.25
798.974	378.25
799.231	439.25
799.487	425.25
799.743	430.25
799.999	447.25
800.255	428.25
800.511	422.25
800.767	467.25
801.023	435.25
801.279	469.25
801.534	481.25
801.79	519.25
802.046	528.25
802.302	607.25
802.557	694.25
802.813	817.25
803.068	931.25
803.324	1251.25
803.579	1674.25
803.835	2203.25
804.09	3039.25
804.345	3963.25
804.601	5005.25
804.856	6151.25
805.111	7165.25
805.366	7923.25
805.621	8460.25
805.876	8844.25
806.131	9111.25
806.386	9327.25
806.641	9397.25
806.896	9577.25
807.151	9853.25
807.406	9981.25
807.661	10222.25
807.915	10361.25
808.17	10530.25
808.425	10682.25
808.679	10641.25
808.934	10889.25
809.188	10926.25
809.443	11079.25
809.697	11242.25
809.951	11268.25
810.206	11421.25
810.46	11483.25
810.714	11604.25
810.968	11766.25
811.223	11756.25
811.477	11904.25
811.731	11969.25
811.985	11973.25
812.239	12017.25
812.493	12157.25
812.747	12210.25
813	12203.25
813.254	12239.25
813.508	12371.25
813.762	12372.25
814.015	12373.25
814.269	12530.25
814.522	12627.25
814.776	12789.25
815.03	13022.25
815.283	13231.25
815.536	13355.25
815.79	13555.25
816.043	13782.25
816.296	13990.25
816.55	14124.25
816.803	14323.25
817.056	14560.25
817.309	14661.25
817.562	14821.25
817.815	14947.25
818.068	15001.25
818.321	15214.25
818.574	15391.25
818.827	15612.25
819.079	15701.25
819.332	16098.25
819.585	16300.25
819.838	16545.25
820.09	16496.25
820.343	16686.25
820.595	16712.25
820.848	16844.25
821.1	16933.25
821.353	16833.25
821.605	16878.25
821.857	16899.25
822.11	16772.25
822.362	16798.25
822.614	16659.25
822.866	16797.25
823.118	16680.25
823.37	16801.25
823.622	16834.25
823.874	16902.25
824.126	16957.25
824.378	16858.25
824.63	17015.25
824.882	17043.25
825.134	16957.25
825.385	16994.25
825.637	17012.25
825.888	16954.25
826.14	16909.25
826.392	16814.25
826.643	16704.25
826.895	16750.25
827.146	16529.25
827.397	16559.25
827.649	16612.25
827.9	16484.25
828.151	16653.25
828.402	16599.25
828.653	16603.25
828.905	16655.25
829.156	16757.25
829.407	16800.25
829.658	16810.25
829.909	16950.25
830.159	16858.25
830.41	16803.25
830.661	16673.25
830.912	16457.25
831.162	16442.25
831.413	16465.25
831.664	16453.25
831.914	16336.25
832.165	16283.25
832.415	16324.25
832.666	16429.25
832.916	16437.25
833.167	16452.25
833.417	16251.25
833.667	16342.25
833.917	16220.25
834.168	16230.25
834.418	16192.25
834.668	16121.25
834.918	16041.25
835.168	15943.25
835.418	15931.25
835.668	15955.25
835.918	15895.25
836.167	15778.25
836.417	15713.25
836.667	15810.25
836.917	15825.25
837.166	15720.25
837.416	15758.25
837.666	15829.25
837.915	15802.25
838.165	15720.25
838.414	15673.25
838.663	15595.25
838.913	15637.25
839.162	15520.25
839.411	15634.25
839.661	15528.25
839.91	15491.25
840.159	15468.25
840.408	15439.25
840.657	15468.25
840.906	15449.25
841.155	15496.25
841.404	15491.25
841.653	15415.25
841.902	15548.25
842.15	15581.25
842.399	15514.25
842.648	15515.25
842.897	15442.25
843.145	15325.25
843.394	15236.25
843.642	15131.25
843.891	15036.25
844.139	15041.25
844.388	14864.25
844.636	14866.25
844.884	14911.25
845.133	14769.25
845.381	14744.25
845.629	14821.25
845.877	14797.25
846.125	14679.25
846.373	14803.25
846.621	14627.25
846.869	14579.25
847.117	14536.25
847.365	14470.25
847.613	14469.25
847.861	14465.25
848.108	14452.25
848.356	14434.25
848.604	14401.25
848.851	14400.25
849.099	14440.25
849.346	14508.25
849.594	14544.25
849.841	14668.25
850.089	14717.25
850.336	14854.25
850.583	14888.25
850.831	14816.25
851.078	14728.25
851.325	14584.25
851.572	14498.25
851.819	14274.25
852.066	13987.25
852.313	13928.25
852.56	13792.25
852.807	13739.25
853.054	13635.25
853.301	13685.25
853.548	13629.25
853.794	13783.25
854.041	13920.25
854.288	13828.25
854.534	13991.25
854.781	13940.25
855.028	13843.25
855.274	13899.25
855.52	13790.25
855.767	13785.25
856.013	13778.25
856.26	14013.25
856.506	13604.25
856.752	13663.25
856.998	13704.25
857.244	13629.25
857.49	13772.25
857.736	13815.25
857.982	13754.25
858.228	13683.25
858.474	13637.25
858.72	13485.25
858.966	13437.25
859.212	13274.25
859.458	13147.25
859.703	13007.25
859.949	12843.25
860.195	12857.25
860.44	12863.25
860.686	12645.25
860.931	12807.25
861.177	12570.25
861.422	12600.25
861.667	12502.25
861.913	12510.25
862.158	12564.25
862.403	12595.25
862.648	12570.25
862.893	12676.25
863.138	12599.25
863.384	12599.25
863.629	12600.25
863.873	12647.25
864.118	12590.25
864.363	12472.25
864.608	12460.25
864.853	12454.25
865.098	12262.25
865.342	12358.25
865.587	12237.25
865.832	12209.25
866.076	12201.25
866.321	12155.25
866.565	12077.25
866.81	12038.25
867.054	12029.25
867.298	12020.25
867.543	12067.25
867.787	11999.25
868.031	11940.25
868.275	11923.25
868.519	11850.25
868.764	11844.25
869.008	11909.25
869.252	11808.25
869.496	11751.25
869.739	11804.25
869.983	11823.25
870.227	11771.25
870.471	11748.25
870.715	11874.25
870.958	11795.25
871.202	11847.25
871.446	11937.25
871.689	11882.25
871.933	11810.25
872.176	11873.25
872.42	11847.25
872.663	11798.25
872.906	11827.25
873.15	11730.25
873.393	11659.25
873.636	11704.25
873.879	11568.25
874.122	11544.25
874.366	11354.25
874.609	11284.25
874.852	11160.25
875.095	11072.25
875.337	11039.25
875.58	10954.25
875.823	11047.25
876.066	11039.25
876.309	10965.25
876.551	10765.25
876.794	10772.25
877.037	10753.25
877.279	10634.25
877.522	10739.25
877.764	10790.25
878.007	10679.25
878.249	10754.25
878.491	10673.25
878.734	10788.25
878.976	10593.25
879.218	10636.25
879.46	10613.25
879.702	10575.25
879.945	10498.25
880.187	10267.25
880.429	10325.25
880.671	10239.25
880.912	10188.25
881.154	10154.25
881.396	10070.25
881.638	10192.25
881.88	10176.25
882.121	10041.25
882.363	10064.25
882.605	10140.25
882.846	10084.25
883.088	10056.25
883.329	9988.25
883.571	10021.25
883.812	10112.25
884.053	10340.25
884.295	10458.25
884.536	10526.25
884.777	10387.25
885.018	10337.25
885.259	10355.25
885.5	10238.25
885.742	10402.25
885.982	10209.25
886.223	10105.25
886.464	10089.25
886.705	9970.25
886.946	9923.25
887.187	9756.25
887.428	9713.25
887.668	9623.25
887.909	9488.25
888.15	9439.25
888.39	9400.25
888.631	9343.25
888.871	9199.25
889.111	9177.25
889.352	9128.25
889.592	8993.25
889.833	8962.25
890.073	8946.25
890.313	8936.25
890.553	8740.25
890.793	8771.25
891.033	8691.25
891.273	8710.25
891.513	8661.25
891.753	8666.25
891.993	8597.25
892.233	8603.25
892.473	8754.25
892.713	8695.25
892.952	8664.25
893.192	8679.25
893.432	8672.25
893.671	8675.25
893.911	8606.25
894.15	8579.25
894.39	8385.25
894.629	8440.25
894.869	8445.25
895.108	8401.25
895.347	8322.25
895.587	8366.25
895.826	8293.25
896.065	8304.25
896.304	8294.25
896.543	8315.25
896.782	8209.25
897.021	8210.25
897.26	8230.25
897.499	8192.25
897.738	8235.25
897.977	8135.25
898.216	8050.25
898.454	8029.25
898.693	7963.25
898.932	7915.25
899.17	7904.25
899.409	7895.25
899.647	7961.25
899.886	7866.25
900.124	7912.25
900.363	7858.25
900.601	7941.25
900.839	7996.25
901.078	7915.25
901.316	7930.25
901.554	8015.25
901.792	8063.25
902.03	7972.25
902.268	7935.25
902.506	7969.25
902.744	7928.25
902.982	7821.25
903.22	7660.25
903.458	7698.25
903.695	7571.25
903.933	7457.25
904.171	7357.25
904.409	7165.25
904.646	7203.25
904.884	7028.25
905.121	7056.25
905.359	6892.25
905.596	6882.25
905.833	6752.25
906.071	6780.25
906.308	6833.25
906.545	6739.25
906.783	6644.25
907.02	6633.25
907.257	6617.25
907.494	6646.25
907.731	6669.25
907.968	6658.25
908.205	6547.25
908.442	6509.25
908.679	6495.25
908.915	6416.25
909.152	6342.25
909.389	6232.25
909.626	6251.25
909.862	6275.25
910.099	6219.25
910.335	6265.25
910.572	6100.25
910.808	6131.25
911.045	6115.25
911.281	6043.25
911.518	6120.25
911.754	6092.25
911.99	6017.25
912.226	5966.25
912.463	5870.25
912.699	5868.25
912.935	5839.25
913.171	5822.25
913.407	5743.25
913.643	5705.25
913.879	5735.25
914.114	5569.25
914.35	5526.25
914.586	5547.25
914.822	5424.25
915.057	5483.25
915.293	5319.25
915.529	5356.25
915.764	5420.25
916	5394.25
916.235	5357.25
916.471	5371.25
916.706	5257.25
916.941	5299.25
917.177	5247.25
917.412	5287.25
917.647	5282.25
917.882	5227.25
918.117	5287.25
918.352	5298.25
918.588	5270.25
918.823	5180.25
919.057	5146.25
919.292	5011.25
919.527	5090.25
919.762	4955.25
919.997	5008.25
920.232	4942.25
920.466	4930.25
920.701	4819.25
920.935	4825.25
921.17	4809.25
921.405	4705.25
921.639	4804.25
921.873	4758.25
922.108	4714.25
922.342	4679.25
922.576	4611.25
922.811	4591.25
923.045	4660.25
923.279	4675.25
923.513	4530.25
923.747	4627.25
923.981	4567.25
924.215	4477.25
924.449	4483.25
924.683	4416.25
924.917	4418.25
925.151	4361.25
925.385	4481.25
925.618	4442.25
925.852	4403.25
926.086	4357.25
926.319	4385.25
926.553	4374.25
926.786	4397.25
927.02	4362.25
927.253	4355.25
927.486	4375.25
927.72	4338.25
927.953	4353.25
928.186	4306.25
928.42	4320.25
928.653	4260.25
928.886	4221.25
929.119	4272.25
929.352	4231.25
929.585	4199.25
929.818	4152.25
930.051	4138.25
930.284	4144.25
930.516	4081.25
930.749	4073.25
930.982	4051.25
931.215	4055.25
931.447	3964.25
931.68	3954.25
931.912	3974.25
932.145	3942.25
932.377	3989.25
932.61	4124.25
932.842	3899.25
933.074	3949.25
933.307	3929.25
933.539	3984.25
933.771	3997.25
934.003	3930.25
934.236	4000.25
934.468	4012.25
934.7	3937.25
934.932	3946.25
935.164	3898.25
935.395	3871.25
935.627	3930.25
935.859	3888.25
936.091	3843.25
936.323	3867.25
936.554	3894.25
936.786	3851.25
937.017	3774.25
937.249	3817.25
937.481	3709.25
937.712	3806.25
937.943	3771.25
938.175	3737.25
938.406	3749.25
938.637	3809.25
938.869	3683.25
939.1	3762.25
939.331	3705.25
939.562	3762.25
939.793	3735.25
940.024	3733.25
940.255	3708.25
940.486	3677.25
940.717	3667.25
940.948	3664.25
941.179	3537.25
941.409	3611.25
941.64	3598.25
941.871	3595.25
942.102	3548.25
942.332	3578.25
942.563	3616.25
942.793	3593.25
943.024	3573.25
943.254	3568.25
943.484	3562.25
943.715	3600.25
943.945	3537.25
944.175	3488.25
944.405	3525.25
944.636	3480.25
944.866	3542.25
945.096	3560.25
945.326	3443.25
945.556	3549.25
945.786	3550.25
946.016	3478.25
946.245	3418.25
946.475	3412.25
946.705	3420.25
946.935	3419.25
947.164	3361.25
947.394	3315.25
947.624	3343.25
947.853	3390.25
948.083	3314.25
948.312	3286.25
948.542	3236.25
948.771	3222.25
949	3233.25
949.23	3266.25
949.459	3236.25
949.688	3258.25
949.917	3273.25
950.146	3253.25
950.375	3312.25
950.604	3189.25
950.833	3281.25
951.062	3256.25
951.291	3232.25
951.52	3191.25
951.749	3176.25
951.978	3186.25
952.206	3161.25
952.435	3124.25
952.664	3187.25
952.892	3176.25
953.121	3145.25
953.349	3180.25
953.578	3158.25
953.806	3102.25
954.035	3065.25
954.263	3059.25
954.491	3017.25
954.719	3059.25
954.948	2984.25
955.176	3003.25
955.404	2959.25
955.632	2987.25
955.86	2976.25
956.088	2972.25
956.316	2972.25
956.544	2970.25
956.772	2905.25
956.999	2890.25
957.227	2973.25
957.455	2865.25
957.683	2894.25
957.91	2887.25
958.138	2819.25
958.365	2789.25
958.593	2839.25
958.82	2776.25
959.048	2837.25
959.275	2821.25
959.502	2795.25
959.73	2796.25
959.957	2805.25
960.184	2791.25
960.411	2720.25
960.638	2792.25
960.865	2791.25
961.092	2761.25
961.319	2664.25
961.546	2757.25
961.773	2761.25
962	2734.25
962.227	2760.25
962.454	2749.25
962.68	2722.25
962.907	2713.25
963.134	2690.25
963.36	2657.25
963.587	2721.25
963.813	2611.25
964.04	2686.25
964.266	2605.25
964.493	2685.25
964.719	2659.25
964.945	2639.25
965.171	2544.25
965.398	2568.25
965.624	2611.25
965.85	2485.25
966.076	2502.25
966.302	2546.25
966.528	2513.25
966.754	2543.25
966.98	2556.25
967.206	2536.25
967.431	2451.25
967.657	2552.25
967.883	2508.25
968.109	2479.25
968.334	2428.25
968.56	2422.25
968.785	2421.25
969.011	2413.25
969.236	2477.25
969.462	2374.25
969.687	2415.25
969.912	2432.25
970.138	2427.25
970.363	2385.25
970.588	2443.25
970.813	2345.25
971.038	2343.25
971.263	2382.25
971.488	2362.25
971.713	2422.25
971.938	2367.25
972.163	2276.25
972.388	2328.25
972.613	2291.25
972.838	2260.25
973.062	2276.25
973.287	2292.25
973.512	2203.25
973.736	2249.25
973.961	2257.25
974.185	2183.25
974.41	2267.25
974.634	2138.25
974.858	2174.25
975.083	2205.25
975.307	2193.25
975.531	2153.25
975.755	2090.25
975.98	2114.25
976.204	2098.25
976.428	2015.25
976.652	2087.25
976.876	2043.25
977.1	2053.25
977.324	2026.25
977.547	2088.25
977.771	2084.25
977.995	2071.25
978.219	1952.25
978.442	2107.25
978.666	2062.25
978.89	2060.25
979.113	2016.25
979.337	2065.25
979.56	1969.25
979.783	2064.25
980.007	1953.25
980.23	2011.25
980.453	1962.25
980.677	2005.25
980.9	1959.25
981.123	1884.25
981.346	1993.25
981.569	1982.25
981.792	1971.25
982.015	1936.25
982.238	1882.25
982.461	1929.25
982.684	1867.25
982.907	1861.25
983.129	1861.25
983.352	1932.25
983.575	1854.25
983.797	1859.25
984.02	1828.25
984.242	1846.25
984.465	1858.25
984.687	1855.25
984.91	1874.25
985.132	1836.25
985.354	1862.25
985.577	1820.25
985.799	1834.25
986.021	1741.25
986.243	1779.25
986.465	1783.25
986.687	1847.25
986.909	1861.25
987.131	1808.25
987.353	1756.25
987.575	1772.25
987.797	1769.25
988.019	1677.25
988.241	1752.25
988.462	1697.25
988.684	1783.25
988.906	1760.25
989.127	1809.25
989.349	1700.25
989.57	1736.25
989.792	1774.25
990.013	1765.25
990.234	1780.25
990.456	1802.25
990.677	1752.25
990.898	1710.25
991.119	1722.25
991.341	1773.25
991.562	1685.25
991.783	1706.25
992.004	1667.25
992.225	1617.25
992.446	1686.25
992.667	1607.25
992.887	1669.25
993.108	1561.25
993.329	1694.25
993.55	1638.25
993.77	1588.25
993.991	1591.25
994.212	1619.25
994.432	1619.25
994.653	1623.25
994.873	1612.25
995.093	1480.25
995.314	1552.25
995.534	1619.25
995.754	1613.25
995.975	1636.25
996.195	1540.25
996.415	1579.25
996.635	1564.25
996.855	1569.25
997.075	1547.25
997.295	1511.25
997.515	1532.25
997.735	1566.25
997.955	1534.25
998.174	1508.25
998.394	1500.25
998.614	1549.25
998.834	1514.25
999.053	1578.25
999.273	1519.25
999.492	1585.25
999.712	1551.25
999.931	1491.25
1000.151	1538.25
1000.37	1539.25
1000.589	1581.25
1000.809	1487.25
1001.028	1622.25
1001.247	1547.25
1001.466	1441.25
1001.685	1579.25
1001.904	1475.25
1002.123	1490.25
1002.342	1488.25
1002.561	1446.25
1002.78	1488.25
1002.999	1561.25
1003.218	1478.25
1003.436	1440.25
1003.655	1518.25
1003.874	1432.25
1004.092	1508.25
1004.311	1501.25
1004.53	1467.25
1004.748	1548.25
1004.966	1453.25
1005.185	1510.25
1005.403	1515.25
1005.622	1486.25
1005.84	1559.25
1006.058	1462.25
1006.276	1468.25
1006.494	1983.25
1006.712	1483.25
1006.931	1499.25
1007.149	1454.25
1007.367	1448.25
1007.584	1472.25
1007.802	1511.25
1008.02	1443.25
1008.238	1544.25
1008.456	1509.25
1008.673	1398.25
1008.891	1510.25
1009.109	1464.25
1009.326	1544.25
1009.544	1590.25
1009.761	1498.25
1009.979	1588.25
1010.196	1594.25
1010.413	1690.25
1010.631	1721.25
1010.848	1755.25
1011.065	1771.25
1011.282	1695.25
1011.5	1625.25
1011.717	1772.25
1011.934	1698.25
1012.151	1704.25
1012.368	1700.25
1012.585	1649.25
1012.801	1677.25
1013.018	1668.25
1013.235	1596.25
1013.452	1632.25
1013.669	1656.25
1013.885	1644.25
1014.102	1672.25
1014.318	1629.25
1014.535	1626.25
1014.751	1613.25
1014.968	1634.25
1015.184	1634.25
1015.401	1555.25
1015.617	1590.25
1015.833	1527.25
1016.049	1578.25
1016.266	1521.25
1016.482	1510.25
1016.698	1448.25
1016.914	1520.25
1017.13	1465.25
1017.346	1456.25
1017.562	1514.25
1017.778	1442.25
1017.993	1378.25
1018.209	1496.25
1018.425	1448.25
1018.641	1408.25
1018.856	1395.25
1019.072	1413.25
1019.288	1478.25
1019.503	1401.25
1019.719	1330.25
1019.934	1328.25
1020.149	1420.25
1020.365	1378.25
1020.58	1327.25
1020.795	1364.25
1021.011	1285.25
1021.226	1283.25
1021.441	1297.25
1021.656	1225.25
1021.871	1182.25
1022.086	1166.25
1022.301	1155.25
1022.516	1154.25
1022.731	1220.25
1022.946	1114.25
1023.16	1108.25
1023.375	1090.25
1023.59	1083.25
1023.804	1010.25
1024.019	1136.25
1024.234	1011.25
1024.448	1044.25
1024.663	986.25
1024.877	995.25
1025.092	1002.25
1025.306	998.25
1025.52	940.25
1025.734	1004.25
1025.949	920.25
1026.163	906.25
1026.377	848.25
1026.591	900.25
1026.805	844.25
1027.019	830.25
1027.233	786.25
1027.447	742.25
1027.661	849.25
1027.875	776.25
1028.088	786.25
1028.302	726.25
1028.516	706.25
1028.73	693.25
1028.943	722.25
1029.157	635.25
1029.37	599.25
1029.584	0.25
1029.797	-3.75
1030.011	1.25
1030.224	-1.75
