Data from QEP037381__56__11-30-15-595.txt Node

Date: Wed Dec 21 11:30:15 EST 2022
User: dcclab
Spectrometer: QEP03738
Trigger mode: 4
Integration Time (sec): 1.000000E1
Scans to average: 1
Electric dark correction enabled: true
Nonlinearity correction enabled: false
Boxcar width: 0
XAxis mode: Wavelengths
Number of Pixels in Spectrum: 1044
>>>>>Begin Spectral Data<<<<<
784.041	12.5
784.3	-0.5
784.558	-4.5
784.817	-4.5
785.075	43182.5
785.334	8682.5
785.592	4600.5
785.851	3197.5
786.109	2477.5
786.368	1973.5
786.626	1641.5
786.884	1376.5
787.143	1177.5
787.401	970.5
787.659	913.5
787.917	786.5
788.175	761.5
788.433	664.5
788.691	631.5
788.949	592.5
789.207	565.5
789.465	475.5
789.723	501.5
789.98	456.5
790.238	500.5
790.496	476.5
790.753	443.5
791.011	502.5
791.268	438.5
791.526	452.5
791.783	452.5
792.041	449.5
792.298	371.5
792.556	425.5
792.813	420.5
793.07	389.5
793.327	386.5
793.584	469.5
793.841	392.5
794.099	407.5
794.356	460.5
794.613	387.5
794.869	419.5
795.126	374.5
795.383	375.5
795.64	387.5
795.897	350.5
796.153	397.5
796.41	391.5
796.667	368.5
796.923	372.5
797.18	365.5
797.436	412.5
797.693	363.5
797.949	413.5
798.206	436.5
798.462	352.5
798.718	428.5
798.974	382.5
799.231	417.5
799.487	423.5
799.743	411.5
799.999	437.5
800.255	437.5
800.511	418.5
800.767	443.5
801.023	434.5
801.279	468.5
801.534	489.5
801.79	519.5
802.046	530.5
802.302	619.5
802.557	664.5
802.813	812.5
803.068	939.5
803.324	1228.5
803.579	1648.5
803.835	2249.5
804.09	3077.5
804.345	3959.5
804.601	5101.5
804.856	6178.5
805.111	7134.5
805.366	7872.5
805.621	8461.5
805.876	8845.5
806.131	9076.5
806.386	9189.5
806.641	9408.5
806.896	9624.5
807.151	9767.5
807.406	9886.5
807.661	10114.5
807.915	10248.5
808.17	10401.5
808.425	10581.5
808.679	10650.5
808.934	10737.5
809.188	10891.5
809.443	11034.5
809.697	11217.5
809.951	11201.5
810.206	11294.5
810.46	11427.5
810.714	11511.5
810.968	11723.5
811.223	11709.5
811.477	11826.5
811.731	11914.5
811.985	11960.5
812.239	12003.5
812.493	12078.5
812.747	12188.5
813	12140.5
813.254	12249.5
813.508	12268.5
813.762	12415.5
814.015	12380.5
814.269	12430.5
814.522	12681.5
814.776	12811.5
815.03	13019.5
815.283	13162.5
815.536	13402.5
815.79	13610.5
816.043	13818.5
816.296	13947.5
816.55	14074.5
816.803	14319.5
817.056	14425.5
817.309	14531.5
817.562	14725.5
817.815	14847.5
818.068	15027.5
818.321	15124.5
818.574	15373.5
818.827	15523.5
819.079	15792.5
819.332	16112.5
819.585	16093.5
819.838	16411.5
820.09	16468.5
820.343	16587.5
820.595	16681.5
820.848	16855.5
821.1	16789.5
821.353	16825.5
821.605	16915.5
821.857	16852.5
822.11	16734.5
822.362	16782.5
822.614	16669.5
822.866	16800.5
823.118	16628.5
823.37	16788.5
823.622	16817.5
823.874	16806.5
824.126	16956.5
824.378	16919.5
824.63	16966.5
824.882	17097.5
825.134	17033.5
825.385	16937.5
825.637	16934.5
825.888	16835.5
826.14	16946.5
826.392	16845.5
826.643	16664.5
826.895	16659.5
827.146	16611.5
827.397	16535.5
827.649	16727.5
827.9	16531.5
828.151	16554.5
828.402	16547.5
828.653	16661.5
828.905	16716.5
829.156	16798.5
829.407	16655.5
829.658	16717.5
829.909	16777.5
830.159	16756.5
830.41	16578.5
830.661	16506.5
830.912	16383.5
831.162	16306.5
831.413	16325.5
831.664	16368.5
831.914	16288.5
832.165	16332.5
832.415	16323.5
832.666	16301.5
832.916	16262.5
833.167	16306.5
833.417	16311.5
833.667	16276.5
833.917	16213.5
834.168	16168.5
834.418	16117.5
834.668	16047.5
834.918	15918.5
835.168	15884.5
835.418	15796.5
835.668	15811.5
835.918	15797.5
836.167	15760.5
836.417	15748.5
836.667	15748.5
836.917	15814.5
837.166	15731.5
837.416	15778.5
837.666	15672.5
837.915	15591.5
838.165	15566.5
838.414	15572.5
838.663	15528.5
838.913	15507.5
839.162	15425.5
839.411	15543.5
839.661	15356.5
839.91	15429.5
840.159	15458.5
840.408	15406.5
840.657	15365.5
840.906	15342.5
841.155	15420.5
841.404	15224.5
841.653	15328.5
841.902	15334.5
842.15	15486.5
842.399	15395.5
842.648	15464.5
842.897	15384.5
843.145	15263.5
843.394	15110.5
843.642	15113.5
843.891	15016.5
844.139	14885.5
844.388	14728.5
844.636	14692.5
844.884	14729.5
845.133	14657.5
845.381	14660.5
845.629	14733.5
845.877	14601.5
846.125	14708.5
846.373	14622.5
846.621	14516.5
846.869	14553.5
847.117	14366.5
847.365	14390.5
847.613	14332.5
847.861	14290.5
848.108	14335.5
848.356	14257.5
848.604	14216.5
848.851	14210.5
849.099	14308.5
849.346	14311.5
849.594	14382.5
849.841	14553.5
850.089	14586.5
850.336	14724.5
850.583	14746.5
850.831	14722.5
851.078	14511.5
851.325	14406.5
851.572	14349.5
851.819	14225.5
852.066	13905.5
852.313	13732.5
852.56	13591.5
852.807	13545.5
853.054	13536.5
853.301	13499.5
853.548	13583.5
853.794	13653.5
854.041	13663.5
854.288	13708.5
854.534	13900.5
854.781	13703.5
855.028	13734.5
855.274	13868.5
855.52	13674.5
855.767	13578.5
856.013	13655.5
856.26	13883.5
856.506	13420.5
856.752	13492.5
856.998	13439.5
857.244	13479.5
857.49	13637.5
857.736	13598.5
857.982	13524.5
858.228	13593.5
858.474	13457.5
858.72	13355.5
858.966	13240.5
859.212	13018.5
859.458	12936.5
859.703	12817.5
859.949	12683.5
860.195	12639.5
860.44	12644.5
860.686	12583.5
860.931	12576.5
861.177	12393.5
861.422	12407.5
861.667	12357.5
861.913	12306.5
862.158	12399.5
862.403	12424.5
862.648	12496.5
862.893	12547.5
863.138	12581.5
863.384	12468.5
863.629	12413.5
863.873	12438.5
864.118	12363.5
864.363	12252.5
864.608	12304.5
864.853	12299.5
865.098	12127.5
865.342	12110.5
865.587	12059.5
865.832	12154.5
866.076	12096.5
866.321	11931.5
866.565	11994.5
866.81	11823.5
867.054	11923.5
867.298	11861.5
867.543	11749.5
867.787	11806.5
868.031	11855.5
868.275	11763.5
868.519	11814.5
868.764	11740.5
869.008	11736.5
869.252	11724.5
869.496	11643.5
869.739	11648.5
869.983	11600.5
870.227	11659.5
870.471	11558.5
870.715	11689.5
870.958	11676.5
871.202	11655.5
871.446	11652.5
871.689	11658.5
871.933	11680.5
872.176	11624.5
872.42	11643.5
872.663	11579.5
872.906	11630.5
873.15	11525.5
873.393	11420.5
873.636	11545.5
873.879	11399.5
874.122	11301.5
874.366	11158.5
874.609	11107.5
874.852	10936.5
875.095	10949.5
875.337	10851.5
875.58	10780.5
875.823	10842.5
876.066	10782.5
876.309	10742.5
876.551	10660.5
876.794	10510.5
877.037	10570.5
877.279	10536.5
877.522	10515.5
877.764	10668.5
878.007	10605.5
878.249	10536.5
878.491	10590.5
878.734	10504.5
878.976	10411.5
879.218	10468.5
879.46	10400.5
879.702	10377.5
879.945	10256.5
880.187	10191.5
880.429	10080.5
880.671	10066.5
880.912	10094.5
881.154	10025.5
881.396	9956.5
881.638	10064.5
881.88	9964.5
882.121	9883.5
882.363	9879.5
882.605	9924.5
882.846	9915.5
883.088	9925.5
883.329	9776.5
883.571	9808.5
883.812	9938.5
884.053	10060.5
884.295	10227.5
884.536	10329.5
884.777	10272.5
885.018	10124.5
885.259	10150.5
885.5	9989.5
885.742	10252.5
885.982	9983.5
886.223	9861.5
886.464	9873.5
886.705	9798.5
886.946	9688.5
887.187	9512.5
887.428	9529.5
887.668	9382.5
887.909	9285.5
888.15	9170.5
888.39	9180.5
888.631	9157.5
888.871	9097.5
889.111	9051.5
889.352	9010.5
889.592	8767.5
889.833	8773.5
890.073	8710.5
890.313	8727.5
890.553	8571.5
890.793	8643.5
891.033	8582.5
891.273	8526.5
891.513	8543.5
891.753	8462.5
891.993	8430.5
892.233	8498.5
892.473	8545.5
892.713	8481.5
892.952	8450.5
893.192	8502.5
893.432	8477.5
893.671	8484.5
893.911	8452.5
894.15	8382.5
894.39	8350.5
894.629	8302.5
894.869	8285.5
895.108	8188.5
895.347	8112.5
895.587	8181.5
895.826	8101.5
896.065	8130.5
896.304	8129.5
896.543	8163.5
896.782	8051.5
897.021	8091.5
897.26	8066.5
897.499	8036.5
897.738	8068.5
897.977	7974.5
898.216	7896.5
898.454	7862.5
898.693	7776.5
898.932	7858.5
899.17	7773.5
899.409	7621.5
899.647	7716.5
899.886	7726.5
900.124	7716.5
900.363	7705.5
900.601	7714.5
900.839	7724.5
901.078	7791.5
901.316	7873.5
901.554	7786.5
901.792	7871.5
902.03	7773.5
902.268	7756.5
902.506	7775.5
902.744	7724.5
902.982	7711.5
903.22	7552.5
903.458	7514.5
903.695	7371.5
903.933	7315.5
904.171	7138.5
904.409	7056.5
904.646	6980.5
904.884	6872.5
905.121	6880.5
905.359	6768.5
905.596	6725.5
905.833	6580.5
906.071	6601.5
906.308	6659.5
906.545	6615.5
906.783	6502.5
907.02	6502.5
907.257	6481.5
907.494	6472.5
907.731	6487.5
907.968	6447.5
908.205	6335.5
908.442	6274.5
908.679	6344.5
908.915	6268.5
909.152	6226.5
909.389	6096.5
909.626	6100.5
909.862	6027.5
910.099	6060.5
910.335	6036.5
910.572	5964.5
910.808	6043.5
911.045	5998.5
911.281	5862.5
911.518	6044.5
911.754	5833.5
911.99	5900.5
912.226	5825.5
912.463	5750.5
912.699	5772.5
912.935	5684.5
913.171	5576.5
913.407	5528.5
913.643	5621.5
913.879	5506.5
914.114	5498.5
914.35	5380.5
914.586	5333.5
914.822	5330.5
915.057	5399.5
915.293	5208.5
915.529	5181.5
915.764	5262.5
916	5229.5
916.235	5223.5
916.471	5253.5
916.706	5131.5
916.941	5159.5
917.177	5189.5
917.412	5143.5
917.647	5185.5
917.882	5077.5
918.117	5148.5
918.352	5128.5
918.588	5092.5
918.823	5029.5
919.057	4956.5
919.292	4911.5
919.527	4965.5
919.762	4818.5
919.997	4882.5
920.232	4816.5
920.466	4833.5
920.701	4638.5
920.935	4707.5
921.17	4681.5
921.405	4590.5
921.639	4658.5
921.873	4559.5
922.108	4594.5
922.342	4594.5
922.576	4550.5
922.811	4506.5
923.045	4570.5
923.279	4593.5
923.513	4353.5
923.747	4472.5
923.981	4410.5
924.215	4354.5
924.449	4392.5
924.683	4271.5
924.917	4321.5
925.151	4307.5
925.385	4316.5
925.618	4267.5
925.852	4305.5
926.086	4212.5
926.319	4296.5
926.553	4196.5
926.786	4239.5
927.02	4261.5
927.253	4256.5
927.486	4273.5
927.72	4168.5
927.953	4237.5
928.186	4208.5
928.42	4227.5
928.653	4129.5
928.886	4105.5
929.119	4140.5
929.352	4092.5
929.585	4089.5
929.818	4039.5
930.051	4034.5
930.284	4028.5
930.516	3861.5
930.749	3925.5
930.982	3912.5
931.215	3944.5
931.447	3854.5
931.68	3845.5
931.912	3836.5
932.145	3815.5
932.377	3872.5
932.61	3973.5
932.842	3811.5
933.074	3851.5
933.307	3805.5
933.539	3847.5
933.771	3853.5
934.003	3819.5
934.236	3903.5
934.468	3909.5
934.7	3812.5
934.932	3795.5
935.164	3773.5
935.395	3726.5
935.627	3806.5
935.859	3762.5
936.091	3708.5
936.323	3720.5
936.554	3769.5
936.786	3707.5
937.017	3665.5
937.249	3730.5
937.481	3580.5
937.712	3722.5
937.943	3635.5
938.175	3651.5
938.406	3618.5
938.637	3725.5
938.869	3588.5
939.1	3644.5
939.331	3538.5
939.562	3598.5
939.793	3614.5
940.024	3573.5
940.255	3575.5
940.486	3553.5
940.717	3555.5
940.948	3511.5
941.179	3437.5
941.409	3439.5
941.64	3476.5
941.871	3461.5
942.102	3426.5
942.332	3504.5
942.563	3504.5
942.793	3478.5
943.024	3387.5
943.254	3442.5
943.484	3488.5
943.715	3477.5
943.945	3467.5
944.175	3402.5
944.405	3408.5
944.636	3371.5
944.866	3445.5
945.096	3412.5
945.326	3359.5
945.556	3444.5
945.786	3412.5
946.016	3344.5
946.245	3265.5
946.475	3316.5
946.705	3241.5
946.935	3254.5
947.164	3261.5
947.394	3195.5
947.624	3217.5
947.853	3270.5
948.083	3247.5
948.312	3180.5
948.542	3121.5
948.771	3097.5
949	3140.5
949.23	3127.5
949.459	3111.5
949.688	3173.5
949.917	3145.5
950.146	3132.5
950.375	3181.5
950.604	3074.5
950.833	3126.5
951.062	3162.5
951.291	3068.5
951.52	3045.5
951.749	3096.5
951.978	3051.5
952.206	3050.5
952.435	3027.5
952.664	3069.5
952.892	3071.5
953.121	3030.5
953.349	3058.5
953.578	3079.5
953.806	3013.5
954.035	2958.5
954.263	2949.5
954.491	2889.5
954.719	2965.5
954.948	2900.5
955.176	2872.5
955.404	2843.5
955.632	2900.5
955.86	2899.5
956.088	2880.5
956.316	2877.5
956.544	2900.5
956.772	2838.5
956.999	2776.5
957.227	2840.5
957.455	2758.5
957.683	2776.5
957.91	2748.5
958.138	2738.5
958.365	2715.5
958.593	2706.5
958.82	2654.5
959.048	2752.5
959.275	2710.5
959.502	2675.5
959.73	2669.5
959.957	2697.5
960.184	2723.5
960.411	2641.5
960.638	2744.5
960.865	2660.5
961.092	2689.5
961.319	2574.5
961.546	2686.5
961.773	2684.5
962	2649.5
962.227	2657.5
962.454	2618.5
962.68	2628.5
962.907	2639.5
963.134	2590.5
963.36	2598.5
963.587	2627.5
963.813	2525.5
964.04	2546.5
964.266	2499.5
964.493	2568.5
964.719	2552.5
964.945	2545.5
965.171	2439.5
965.398	2452.5
965.624	2478.5
965.85	2424.5
966.076	2425.5
966.302	2478.5
966.528	2392.5
966.754	2461.5
966.98	2460.5
967.206	2413.5
967.431	2366.5
967.657	2424.5
967.883	2415.5
968.109	2378.5
968.334	2307.5
968.56	2310.5
968.785	2339.5
969.011	2303.5
969.236	2370.5
969.462	2306.5
969.687	2315.5
969.912	2345.5
970.138	2364.5
970.363	2287.5
970.588	2302.5
970.813	2281.5
971.038	2246.5
971.263	2296.5
971.488	2295.5
971.713	2274.5
971.938	2300.5
972.163	2175.5
972.388	2219.5
972.613	2182.5
972.838	2254.5
973.062	2164.5
973.287	2192.5
973.512	2130.5
973.736	2167.5
973.961	2142.5
974.185	2138.5
974.41	2140.5
974.634	2075.5
974.858	2080.5
975.083	2105.5
975.307	2128.5
975.531	2067.5
975.755	2000.5
975.98	2050.5
976.204	1988.5
976.428	1981.5
976.652	1979.5
976.876	1967.5
977.1	1991.5
977.324	1936.5
977.547	2008.5
977.771	2006.5
977.995	1972.5
978.219	1908.5
978.442	1999.5
978.666	1952.5
978.89	1918.5
979.113	1960.5
979.337	1966.5
979.56	1910.5
979.783	2018.5
980.007	1877.5
980.23	1908.5
980.453	1877.5
980.677	1941.5
980.9	1904.5
981.123	1807.5
981.346	1944.5
981.569	1888.5
981.792	1915.5
982.015	1857.5
982.238	1815.5
982.461	1829.5
982.684	1803.5
982.907	1792.5
983.129	1748.5
983.352	1851.5
983.575	1793.5
983.797	1795.5
984.02	1768.5
984.242	1792.5
984.465	1753.5
984.687	1816.5
984.91	1832.5
985.132	1818.5
985.354	1797.5
985.577	1737.5
985.799	1769.5
986.021	1672.5
986.243	1708.5
986.465	1709.5
986.687	1762.5
986.909	1783.5
987.131	1713.5
987.353	1706.5
987.575	1747.5
987.797	1663.5
988.019	1649.5
988.241	1675.5
988.462	1656.5
988.684	1736.5
988.906	1722.5
989.127	1726.5
989.349	1602.5
989.57	1655.5
989.792	1710.5
990.013	1713.5
990.234	1688.5
990.456	1739.5
990.677	1730.5
990.898	1648.5
991.119	1635.5
991.341	1694.5
991.562	1600.5
991.783	1625.5
992.004	1575.5
992.225	1558.5
992.446	1650.5
992.667	1538.5
992.887	1620.5
993.108	1513.5
993.329	1626.5
993.55	1559.5
993.77	1545.5
993.991	1527.5
994.212	1537.5
994.432	1536.5
994.653	1557.5
994.873	1560.5
995.093	1450.5
995.314	1469.5
995.534	1551.5
995.754	1558.5
995.975	1568.5
996.195	1478.5
996.415	1523.5
996.635	1499.5
996.855	1530.5
997.075	1467.5
997.295	1481.5
997.515	1474.5
997.735	1504.5
997.955	1487.5
998.174	1476.5
998.394	1438.5
998.614	1505.5
998.834	1455.5
999.053	1521.5
999.273	1466.5
999.492	1535.5
999.712	1494.5
999.931	1443.5
1000.151	1500.5
1000.37	1474.5
1000.589	1512.5
1000.809	1433.5
1001.028	1549.5
1001.247	1524.5
1001.466	1353.5
1001.685	1520.5
1001.904	1453.5
1002.123	1466.5
1002.342	1458.5
1002.561	1415.5
1002.78	1450.5
1002.999	1522.5
1003.218	1435.5
1003.436	1420.5
1003.655	1475.5
1003.874	1377.5
1004.092	1419.5
1004.311	1444.5
1004.53	1415.5
1004.748	1508.5
1004.966	1404.5
1005.185	1463.5
1005.403	1438.5
1005.622	1428.5
1005.84	1483.5
1006.058	1405.5
1006.276	1407.5
1006.494	1929.5
1006.712	1421.5
1006.931	1486.5
1007.149	1407.5
1007.367	1406.5
1007.584	1416.5
1007.802	1442.5
1008.02	1397.5
1008.238	1516.5
1008.456	1492.5
1008.673	1357.5
1008.891	1477.5
1009.109	1439.5
1009.326	1465.5
1009.544	1555.5
1009.761	1473.5
1009.979	1527.5
1010.196	1540.5
1010.413	1655.5
1010.631	1691.5
1010.848	1694.5
1011.065	1692.5
1011.282	1650.5
1011.5	1579.5
1011.717	1721.5
1011.934	1632.5
1012.151	1665.5
1012.368	1642.5
1012.585	1602.5
1012.801	1660.5
1013.018	1610.5
1013.235	1584.5
1013.452	1591.5
1013.669	1607.5
1013.885	1611.5
1014.102	1637.5
1014.318	1588.5
1014.535	1544.5
1014.751	1584.5
1014.968	1569.5
1015.184	1614.5
1015.401	1536.5
1015.617	1557.5
1015.833	1502.5
1016.049	1504.5
1016.266	1501.5
1016.482	1475.5
1016.698	1444.5
1016.914	1482.5
1017.13	1419.5
1017.346	1416.5
1017.562	1495.5
1017.778	1391.5
1017.993	1378.5
1018.209	1423.5
1018.425	1419.5
1018.641	1360.5
1018.856	1349.5
1019.072	1383.5
1019.288	1418.5
1019.503	1382.5
1019.719	1310.5
1019.934	1317.5
1020.149	1395.5
1020.365	1310.5
1020.58	1265.5
1020.795	1337.5
1021.011	1283.5
1021.226	1271.5
1021.441	1266.5
1021.656	1185.5
1021.871	1133.5
1022.086	1142.5
1022.301	1138.5
1022.516	1142.5
1022.731	1198.5
1022.946	1121.5
1023.16	1095.5
1023.375	1061.5
1023.59	1028.5
1023.804	1003.5
1024.019	1116.5
1024.234	986.5
1024.448	1029.5
1024.663	945.5
1024.877	970.5
1025.092	989.5
1025.306	1008.5
1025.52	914.5
1025.734	999.5
1025.949	922.5
1026.163	886.5
1026.377	840.5
1026.591	880.5
1026.805	788.5
1027.019	811.5
1027.233	782.5
1027.447	718.5
1027.661	826.5
1027.875	769.5
1028.088	778.5
1028.302	697.5
1028.516	691.5
1028.73	695.5
1028.943	689.5
1029.157	626.5
1029.37	609.5
1029.584	-2.5
1029.797	-0.5
1030.011	-0.5
1030.224	0.5
