Data from QEP037381__15__11-23-25-593.txt Node

Date: Wed Dec 21 11:23:25 EST 2022
User: dcclab
Spectrometer: QEP03738
Trigger mode: 4
Integration Time (sec): 1.000000E1
Scans to average: 1
Electric dark correction enabled: true
Nonlinearity correction enabled: false
Boxcar width: 0
XAxis mode: Wavelengths
Number of Pixels in Spectrum: 1044
>>>>>Begin Spectral Data<<<<<
784.041	16
784.3	-1
784.558	-2
784.817	-4
785.075	38372
785.334	8095
785.592	4250
785.851	3092
786.109	2359
786.368	1875
786.626	1542
786.884	1321
787.143	1132
787.401	924
787.659	888
787.917	763
788.175	741
788.433	650
788.691	605
788.949	564
789.207	562
789.465	492
789.723	491
789.98	457
790.238	487
790.496	473
790.753	454
791.011	503
791.268	454
791.526	435
791.783	463
792.041	444
792.298	362
792.556	431
792.813	415
793.07	403
793.327	383
793.584	484
793.841	375
794.099	432
794.356	465
794.613	387
794.869	426
795.126	385
795.383	370
795.64	393
795.897	355
796.153	409
796.41	390
796.667	382
796.923	386
797.18	390
797.436	412
797.693	371
797.949	413
798.206	450
798.462	366
798.718	426
798.974	408
799.231	446
799.487	429
799.743	453
799.999	461
800.255	464
800.511	449
800.767	484
801.023	501
801.279	492
801.534	521
801.79	587
802.046	591
802.302	729
802.557	796
802.813	996
803.068	1201
803.324	1654
803.579	2213
803.835	3015
804.09	4073
804.345	5373
804.601	6739
804.856	8154
805.111	9515
805.366	10449
805.621	11161
805.876	11714
806.131	12056
806.386	12287
806.641	12491
806.896	12738
807.151	13000
807.406	13167
807.661	13514
807.915	13720
808.17	13940
808.425	14076
808.679	14270
808.934	14382
809.188	14555
809.443	14743
809.697	14854
809.951	15038
810.206	15098
810.46	15230
810.714	15389
810.968	15573
811.223	15575
811.477	15726
811.731	15917
811.985	15939
812.239	15956
812.493	16093
812.747	16143
813	16226
813.254	16243
813.508	16465
813.762	16400
814.015	16603
814.269	16648
814.522	16911
814.776	17067
815.03	17320
815.283	17506
815.536	17802
815.79	17964
816.043	18319
816.296	18608
816.55	18754
816.803	18964
817.056	19193
817.309	19360
817.562	19617
817.815	19959
818.068	19988
818.321	20327
818.574	20484
818.827	20743
819.079	20965
819.332	21411
819.585	21542
819.838	21871
820.09	21975
820.343	22189
820.595	22154
820.848	22329
821.1	22491
821.353	22532
821.605	22419
821.857	22422
822.11	22453
822.362	22315
822.614	22215
822.866	22350
823.118	22241
823.37	22394
823.622	22385
823.874	22453
824.126	22589
824.378	22635
824.63	22709
824.882	22743
825.134	22664
825.385	22752
825.637	22754
825.888	22583
826.14	22481
826.392	22457
826.643	22273
826.895	22327
827.146	22180
827.397	22091
827.649	22233
827.9	22169
828.151	22179
828.402	22130
828.653	22204
828.905	22359
829.156	22410
829.407	22337
829.658	22390
829.909	22408
830.159	22551
830.41	22324
830.661	22076
830.912	21948
831.162	22029
831.413	21873
831.664	21898
831.914	21849
832.165	21853
832.415	21838
832.666	21884
832.916	21863
833.167	21835
833.417	21901
833.667	21786
833.917	21728
834.168	21625
834.418	21634
834.668	21435
834.918	21349
835.168	21217
835.418	21257
835.668	21198
835.918	21068
836.167	21092
836.417	21074
836.667	21095
836.917	21047
837.166	20950
837.416	21005
837.666	21007
837.915	21082
838.165	20992
838.414	20758
838.663	20827
838.913	20784
839.162	20727
839.411	20797
839.661	20712
839.91	20664
840.159	20582
840.408	20585
840.657	20641
840.906	20544
841.155	20686
841.404	20615
841.653	20668
841.902	20644
842.15	20669
842.399	20787
842.648	20601
842.897	20623
843.145	20435
843.394	20340
843.642	20217
843.891	20081
844.139	19986
844.388	19959
844.636	19862
844.884	19762
845.133	19838
845.381	19662
845.629	19758
845.877	19684
846.125	19663
846.373	19633
846.621	19588
846.869	19435
847.117	19399
847.365	19333
847.613	19273
847.861	19171
848.108	19247
848.356	19098
848.604	19087
848.851	19075
849.099	19160
849.346	19107
849.594	19298
849.841	19374
850.089	19536
850.336	19563
850.583	19585
850.831	19468
851.078	19285
851.325	19247
851.572	19203
851.819	18984
852.066	18656
852.313	18377
852.56	18226
852.807	18332
853.054	18214
853.301	18083
853.548	18116
853.794	18256
854.041	18300
854.288	18316
854.534	18547
854.781	18474
855.028	18363
855.274	18458
855.52	18289
855.767	18189
856.013	18283
856.26	18486
856.506	18053
856.752	18014
856.998	18101
857.244	18092
857.49	18134
857.736	18133
857.982	18208
858.228	18173
858.474	17831
858.72	17889
858.966	17745
859.212	17543
859.458	17408
859.703	17257
859.949	16974
860.195	16944
860.44	16813
860.686	16724
860.931	16821
861.177	16766
861.422	16661
861.667	16532
861.913	16569
862.158	16599
862.403	16650
862.648	16695
862.893	16697
863.138	16659
863.384	16613
863.629	16539
863.873	16652
864.118	16548
864.363	16431
864.608	16388
864.853	16420
865.098	16283
865.342	16242
865.587	16089
865.832	16041
866.076	16109
866.321	16055
866.565	16009
866.81	15831
867.054	15832
867.298	15800
867.543	15812
867.787	15780
868.031	15730
868.275	15624
868.519	15557
868.764	15674
869.008	15551
869.252	15586
869.496	15458
869.739	15447
869.983	15469
870.227	15423
870.471	15373
870.715	15458
870.958	15528
871.202	15593
871.446	15557
871.689	15478
871.933	15503
872.176	15549
872.42	15466
872.663	15385
872.906	15466
873.15	15339
873.393	15253
873.636	15322
873.879	15134
874.122	14964
874.366	14793
874.609	14772
874.852	14555
875.095	14550
875.337	14395
875.58	14368
875.823	14408
876.066	14297
876.309	14268
876.551	14113
876.794	13990
877.037	14009
877.279	14011
877.522	14096
877.764	14007
878.007	13988
878.249	13969
878.491	13862
878.734	13937
878.976	13915
879.218	13810
879.46	13740
879.702	13693
879.945	13551
880.187	13506
880.429	13395
880.671	13342
880.912	13336
881.154	13238
881.396	13163
881.638	13238
881.88	13142
882.121	13145
882.363	13092
882.605	13154
882.846	13051
883.088	13040
883.329	12944
883.571	13018
883.812	13095
884.053	13318
884.295	13464
884.536	13587
884.777	13491
885.018	13377
885.259	13337
885.5	13267
885.742	13454
885.982	13237
886.223	13088
886.464	13098
886.705	12937
886.946	12773
887.187	12703
887.428	12528
887.668	12385
887.909	12210
888.15	12069
888.39	12126
888.631	12042
888.871	11939
889.111	11879
889.352	11730
889.592	11621
889.833	11583
890.073	11485
890.313	11471
890.553	11263
890.793	11303
891.033	11172
891.273	11184
891.513	11175
891.753	11191
891.993	11103
892.233	11077
892.473	11249
892.713	11142
892.952	11109
893.192	11169
893.432	11112
893.671	11117
893.911	11040
894.15	10931
894.39	10877
894.629	10883
894.869	10809
895.108	10690
895.347	10682
895.587	10652
895.826	10639
896.065	10605
896.304	10616
896.543	10595
896.782	10561
897.021	10518
897.26	10465
897.499	10520
897.738	10423
897.977	10367
898.216	10284
898.454	10211
898.693	10097
898.932	10100
899.17	9988
899.409	10015
899.647	10013
899.886	9976
900.124	9959
900.363	9968
900.601	10033
900.839	9980
901.078	9994
901.316	10015
901.554	10080
901.792	10110
902.03	10014
902.268	10036
902.506	10063
902.744	9936
902.982	9952
903.22	9764
903.458	9637
903.695	9584
903.933	9380
904.171	9253
904.409	9150
904.646	9103
904.884	8908
905.121	8919
905.359	8763
905.596	8744
905.833	8550
906.071	8618
906.308	8583
906.545	8531
906.783	8500
907.02	8523
907.257	8370
907.494	8380
907.731	8406
907.968	8429
908.205	8251
908.442	8260
908.679	8218
908.915	8195
909.152	8088
909.389	7990
909.626	7953
909.862	7926
910.099	7919
910.335	7908
910.572	7750
910.808	7827
911.045	7691
911.281	7665
911.518	7739
911.754	7622
911.99	7656
912.226	7581
912.463	7472
912.699	7409
912.935	7352
913.171	7323
913.407	7264
913.643	7296
913.879	7194
914.114	7077
914.35	7051
914.586	7012
914.822	6889
915.057	6987
915.293	6760
915.529	6755
915.764	6859
916	6757
916.235	6748
916.471	6773
916.706	6676
916.941	6662
917.177	6644
917.412	6696
917.647	6706
917.882	6599
918.117	6645
918.352	6618
918.588	6606
918.823	6482
919.057	6502
919.292	6348
919.527	6396
919.762	6336
919.997	6264
920.232	6157
920.466	6201
920.701	6008
920.935	6096
921.17	6007
921.405	5924
921.639	5967
921.873	5914
922.108	5898
922.342	5886
922.576	5837
922.811	5801
923.045	5820
923.279	5843
923.513	5640
923.747	5749
923.981	5673
924.215	5643
924.449	5621
924.683	5585
924.917	5500
925.151	5490
925.385	5551
925.618	5501
925.852	5476
926.086	5363
926.319	5476
926.553	5448
926.786	5429
927.02	5408
927.253	5472
927.486	5464
927.72	5322
927.953	5428
928.186	5356
928.42	5324
928.653	5307
928.886	5304
929.119	5308
929.352	5230
929.585	5202
929.818	5166
930.051	5155
930.284	5140
930.516	4978
930.749	4962
930.982	4993
931.215	5024
931.447	4875
931.68	4925
931.912	4911
932.145	4893
932.377	4922
932.61	5012
932.842	4850
933.074	4893
933.307	4872
933.539	4927
933.771	4892
934.003	4864
934.236	4905
934.468	4947
934.7	4792
934.932	4824
935.164	4761
935.395	4757
935.627	4810
935.859	4727
936.091	4702
936.323	4767
936.554	4750
936.786	4736
937.017	4661
937.249	4671
937.481	4579
937.712	4640
937.943	4582
938.175	4586
938.406	4603
938.637	4588
938.869	4529
939.1	4654
939.331	4514
939.562	4548
939.793	4527
940.024	4542
940.255	4518
940.486	4446
940.717	4414
940.948	4418
941.179	4326
941.409	4402
941.64	4369
941.871	4370
942.102	4386
942.332	4333
942.563	4399
942.793	4351
943.024	4308
943.254	4347
943.484	4356
943.715	4363
943.945	4321
944.175	4316
944.405	4248
944.636	4254
944.866	4292
945.096	4323
945.326	4225
945.556	4294
945.786	4259
946.016	4216
946.245	4164
946.475	4128
946.705	4159
946.935	4122
947.164	4118
947.394	4044
947.624	4048
947.853	4067
948.083	4020
948.312	3964
948.542	3897
948.771	3933
949	3944
949.23	3913
949.459	3911
949.688	3987
949.917	3940
950.146	3932
950.375	3962
950.604	3885
950.833	3953
951.062	3928
951.291	3867
951.52	3846
951.749	3839
951.978	3810
952.206	3814
952.435	3766
952.664	3836
952.892	3787
953.121	3780
953.349	3780
953.578	3767
953.806	3772
954.035	3686
954.263	3689
954.491	3649
954.719	3663
954.948	3648
955.176	3579
955.404	3564
955.632	3580
955.86	3615
956.088	3574
956.316	3574
956.544	3536
956.772	3547
956.999	3465
957.227	3587
957.455	3426
957.683	3440
957.91	3420
958.138	3382
958.365	3399
958.593	3356
958.82	3336
959.048	3371
959.275	3341
959.502	3310
959.73	3295
959.957	3323
960.184	3310
960.411	3229
960.638	3359
960.865	3307
961.092	3317
961.319	3230
961.546	3316
961.773	3300
962	3293
962.227	3297
962.454	3251
962.68	3254
962.907	3270
963.134	3157
963.36	3209
963.587	3230
963.813	3102
964.04	3177
964.266	3094
964.493	3178
964.719	3152
964.945	3139
965.171	3023
965.398	3046
965.624	3078
965.85	2968
966.076	3019
966.302	3015
966.528	2950
966.754	2983
966.98	2997
967.206	2977
967.431	2907
967.657	2946
967.883	2962
968.109	2938
968.334	2875
968.56	2863
968.785	2877
969.011	2848
969.236	2900
969.462	2844
969.687	2848
969.912	2874
970.138	2891
970.363	2792
970.588	2831
970.813	2784
971.038	2768
971.263	2774
971.488	2829
971.713	2817
971.938	2736
972.163	2688
972.388	2730
972.613	2674
972.838	2730
973.062	2687
973.287	2668
973.512	2596
973.736	2631
973.961	2648
974.185	2606
974.41	2652
974.634	2523
974.858	2522
975.083	2565
975.307	2603
975.531	2547
975.755	2425
975.98	2488
976.204	2418
976.428	2424
976.652	2418
976.876	2380
977.1	2446
977.324	2390
977.547	2441
977.771	2441
977.995	2423
978.219	2321
978.442	2450
978.666	2369
978.89	2354
979.113	2367
979.337	2368
979.56	2292
979.783	2404
980.007	2267
980.23	2290
980.453	2278
980.677	2318
980.9	2294
981.123	2186
981.346	2286
981.569	2279
981.792	2302
982.015	2211
982.238	2198
982.461	2208
982.684	2183
982.907	2172
983.129	2159
983.352	2189
983.575	2163
983.797	2133
984.02	2114
984.242	2084
984.465	2104
984.687	2136
984.91	2151
985.132	2102
985.354	2138
985.577	2087
985.799	2063
986.021	1988
986.243	2052
986.465	2037
986.687	2101
986.909	2121
987.131	2044
987.353	2008
987.575	2040
987.797	2000
988.019	1945
988.241	2000
988.462	1967
988.684	1995
988.906	2044
989.127	2025
989.349	1925
989.57	1974
989.792	1998
990.013	1994
990.234	1971
990.456	2031
990.677	1987
990.898	1908
991.119	1914
991.341	1947
991.562	1886
991.783	1935
992.004	1872
992.225	1864
992.446	1888
992.667	1797
992.887	1884
993.108	1777
993.329	1918
993.55	1863
993.77	1779
993.991	1792
994.212	1819
994.432	1796
994.653	1814
994.873	1791
995.093	1707
995.314	1740
995.534	1781
995.754	1811
995.975	1829
996.195	1739
996.415	1758
996.635	1726
996.855	1760
997.075	1739
997.295	1716
997.515	1690
997.735	1741
997.955	1712
998.174	1720
998.394	1685
998.614	1745
998.834	1663
999.053	1763
999.273	1691
999.492	1797
999.712	1702
999.931	1672
1000.151	1700
1000.37	1662
1000.589	1722
1000.809	1625
1001.028	1756
1001.247	1697
1001.466	1613
1001.685	1718
1001.904	1670
1002.123	1615
1002.342	1656
1002.561	1617
1002.78	1617
1002.999	1683
1003.218	1660
1003.436	1587
1003.655	1656
1003.874	1572
1004.092	1582
1004.311	1661
1004.53	1616
1004.748	1655
1004.966	1593
1005.185	1621
1005.403	1624
1005.622	1596
1005.84	1684
1006.058	1564
1006.276	1594
1006.494	2059
1006.712	1590
1006.931	1654
1007.149	1528
1007.367	1574
1007.584	1581
1007.802	1648
1008.02	1581
1008.238	1644
1008.456	1645
1008.673	1546
1008.891	1625
1009.109	1606
1009.326	1633
1009.544	1723
1009.761	1623
1009.979	1724
1010.196	1718
1010.413	1828
1010.631	1844
1010.848	1869
1011.065	1869
1011.282	1805
1011.5	1744
1011.717	1849
1011.934	1776
1012.151	1834
1012.368	1786
1012.585	1751
1012.801	1791
1013.018	1763
1013.235	1756
1013.452	1750
1013.669	1765
1013.885	1749
1014.102	1752
1014.318	1777
1014.535	1712
1014.751	1760
1014.968	1749
1015.184	1748
1015.401	1664
1015.617	1693
1015.833	1643
1016.049	1637
1016.266	1628
1016.482	1624
1016.698	1525
1016.914	1588
1017.13	1530
1017.346	1535
1017.562	1586
1017.778	1522
1017.993	1502
1018.209	1517
1018.425	1521
1018.641	1472
1018.856	1443
1019.072	1479
1019.288	1524
1019.503	1471
1019.719	1401
1019.934	1416
1020.149	1476
1020.365	1431
1020.58	1379
1020.795	1433
1021.011	1344
1021.226	1350
1021.441	1369
1021.656	1275
1021.871	1241
1022.086	1255
1022.301	1224
1022.516	1214
1022.731	1277
1022.946	1180
1023.16	1161
1023.375	1141
1023.59	1127
1023.804	1105
1024.019	1155
1024.234	1043
1024.448	1076
1024.663	997
1024.877	1023
1025.092	1043
1025.306	1058
1025.52	955
1025.734	1034
1025.949	974
1026.163	929
1026.377	877
1026.591	909
1026.805	850
1027.019	845
1027.233	821
1027.447	752
1027.661	844
1027.875	789
1028.088	796
1028.302	728
1028.516	735
1028.73	727
1028.943	706
1029.157	668
1029.37	638
1029.584	-4
1029.797	-2
1030.011	0
1030.224	-3
