Data from QEP037381__33__11-26-25-593.txt Node

Date: Wed Dec 21 11:26:25 EST 2022
User: dcclab
Spectrometer: QEP03738
Trigger mode: 4
Integration Time (sec): 1.000000E1
Scans to average: 1
Electric dark correction enabled: true
Nonlinearity correction enabled: false
Boxcar width: 0
XAxis mode: Wavelengths
Number of Pixels in Spectrum: 1044
>>>>>Begin Spectral Data<<<<<
784.041	15.38
784.3	-1.62
784.558	-2.62
784.817	-1.62
785.075	43315.38
785.334	8932.38
785.592	4723.38
785.851	3355.38
786.109	2577.38
786.368	2017.38
786.626	1666.38
786.884	1399.38
787.143	1212.38
787.401	1003.38
787.659	931.38
787.917	818.38
788.175	757.38
788.433	660.38
788.691	624.38
788.949	585.38
789.207	572.38
789.465	509.38
789.723	489.38
789.98	448.38
790.238	493.38
790.496	465.38
790.753	453.38
791.011	502.38
791.268	451.38
791.526	433.38
791.783	467.38
792.041	437.38
792.298	362.38
792.556	440.38
792.813	421.38
793.07	397.38
793.327	380.38
793.584	446.38
793.841	380.38
794.099	388.38
794.356	477.38
794.613	373.38
794.869	402.38
795.126	379.38
795.383	358.38
795.64	369.38
795.897	331.38
796.153	395.38
796.41	368.38
796.667	356.38
796.923	378.38
797.18	375.38
797.436	407.38
797.693	361.38
797.949	403.38
798.206	430.38
798.462	343.38
798.718	407.38
798.974	380.38
799.231	413.38
799.487	404.38
799.743	410.38
799.999	436.38
800.255	422.38
800.511	401.38
800.767	455.38
801.023	426.38
801.279	437.38
801.534	482.38
801.79	520.38
802.046	502.38
802.302	594.38
802.557	644.38
802.813	754.38
803.068	856.38
803.324	1135.38
803.579	1524.38
803.835	2005.38
804.09	2770.38
804.345	3568.38
804.601	4400.38
804.856	5413.38
805.111	6197.38
805.366	6794.38
805.621	7238.38
805.876	7528.38
806.131	7683.38
806.386	7869.38
806.641	7897.38
806.896	8054.38
807.151	8300.38
807.406	8350.38
807.661	8480.38
807.915	8637.38
808.17	8819.38
808.425	8840.38
808.679	8907.38
808.934	9122.38
809.188	9073.38
809.443	9222.38
809.697	9315.38
809.951	9399.38
810.206	9453.38
810.46	9598.38
810.714	9670.38
810.968	9824.38
811.223	9807.38
811.477	9892.38
811.731	9902.38
811.985	9953.38
812.239	9977.38
812.493	10053.38
812.747	10091.38
813	10054.38
813.254	10230.38
813.508	10248.38
813.762	10235.38
814.015	10267.38
814.269	10384.38
814.522	10473.38
814.776	10615.38
815.03	10726.38
815.283	10834.38
815.536	11016.38
815.79	11184.38
816.043	11405.38
816.296	11519.38
816.55	11608.38
816.803	11743.38
817.056	11948.38
817.309	12010.38
817.562	12114.38
817.815	12282.38
818.068	12348.38
818.321	12448.38
818.574	12580.38
818.827	12796.38
819.079	12865.38
819.332	13191.38
819.585	13223.38
819.838	13487.38
820.09	13433.38
820.343	13589.38
820.595	13535.38
820.848	13651.38
821.1	13802.38
821.353	13641.38
821.605	13759.38
821.857	13693.38
822.11	13499.38
822.362	13605.38
822.614	13594.38
822.866	13632.38
823.118	13606.38
823.37	13670.38
823.622	13680.38
823.874	13732.38
824.126	13822.38
824.378	13683.38
824.63	13848.38
824.882	13829.38
825.134	13807.38
825.385	13836.38
825.637	13772.38
825.888	13673.38
826.14	13642.38
826.392	13611.38
826.643	13530.38
826.895	13536.38
827.146	13476.38
827.397	13417.38
827.649	13520.38
827.9	13372.38
828.151	13389.38
828.402	13358.38
828.653	13504.38
828.905	13425.38
829.156	13556.38
829.407	13471.38
829.658	13588.38
829.909	13637.38
830.159	13616.38
830.41	13548.38
830.661	13411.38
830.912	13389.38
831.162	13367.38
831.413	13215.38
831.664	13202.38
831.914	13236.38
832.165	13231.38
832.415	13232.38
832.666	13211.38
832.916	13292.38
833.167	13211.38
833.417	13235.38
833.667	13170.38
833.917	13109.38
834.168	13099.38
834.418	13165.38
834.668	13064.38
834.918	12957.38
835.168	12891.38
835.418	12839.38
835.668	12905.38
835.918	12753.38
836.167	12861.38
836.417	12707.38
836.667	12746.38
836.917	12768.38
837.166	12674.38
837.416	12812.38
837.666	12785.38
837.915	12568.38
838.165	12724.38
838.414	12604.38
838.663	12645.38
838.913	12638.38
839.162	12631.38
839.411	12667.38
839.661	12632.38
839.91	12592.38
840.159	12492.38
840.408	12516.38
840.657	12540.38
840.906	12583.38
841.155	12494.38
841.404	12456.38
841.653	12531.38
841.902	12585.38
842.15	12625.38
842.399	12591.38
842.648	12621.38
842.897	12607.38
843.145	12457.38
843.394	12339.38
843.642	12309.38
843.891	12238.38
844.139	12138.38
844.388	11988.38
844.636	12000.38
844.884	11954.38
845.133	11940.38
845.381	11965.38
845.629	11966.38
845.877	11961.38
846.125	11888.38
846.373	11927.38
846.621	11774.38
846.869	11839.38
847.117	11780.38
847.365	11694.38
847.613	11634.38
847.861	11622.38
848.108	11693.38
848.356	11676.38
848.604	11598.38
848.851	11678.38
849.099	11604.38
849.346	11672.38
849.594	11787.38
849.841	11917.38
850.089	11944.38
850.336	12097.38
850.583	12054.38
850.831	12062.38
851.078	11886.38
851.325	11754.38
851.572	11748.38
851.819	11635.38
852.066	11332.38
852.313	11265.38
852.56	11134.38
852.807	11130.38
853.054	11042.38
853.301	11085.38
853.548	11059.38
853.794	11146.38
854.041	11194.38
854.288	11174.38
854.534	11353.38
854.781	11358.38
855.028	11340.38
855.274	11279.38
855.52	11224.38
855.767	11252.38
856.013	11301.38
856.26	11506.38
856.506	11104.38
856.752	11119.38
856.998	11107.38
857.244	11125.38
857.49	11168.38
857.736	11225.38
857.982	11214.38
858.228	11158.38
858.474	11036.38
858.72	10903.38
858.966	10854.38
859.212	10755.38
859.458	10642.38
859.703	10603.38
859.949	10396.38
860.195	10453.38
860.44	10429.38
860.686	10278.38
860.931	10349.38
861.177	10220.38
861.422	10170.38
861.667	10056.38
861.913	10056.38
862.158	10176.38
862.403	10221.38
862.648	10232.38
862.893	10277.38
863.138	10161.38
863.384	10234.38
863.629	10194.38
863.873	10173.38
864.118	10139.38
864.363	10059.38
864.608	10156.38
864.853	10020.38
865.098	9963.38
865.342	9984.38
865.587	9950.38
865.832	9900.38
866.076	9893.38
866.321	9838.38
866.565	9814.38
866.81	9766.38
867.054	9715.38
867.298	9751.38
867.543	9702.38
867.787	9658.38
868.031	9655.38
868.275	9624.38
868.519	9610.38
868.764	9616.38
869.008	9564.38
869.252	9649.38
869.496	9613.38
869.739	9602.38
869.983	9679.38
870.227	9548.38
870.471	9546.38
870.715	9698.38
870.958	9716.38
871.202	9669.38
871.446	9662.38
871.689	9728.38
871.933	9652.38
872.176	9657.38
872.42	9625.38
872.663	9645.38
872.906	9681.38
873.15	9654.38
873.393	9668.38
873.636	9711.38
873.879	9579.38
874.122	9472.38
874.366	9312.38
874.609	9175.38
874.852	9117.38
875.095	9086.38
875.337	9062.38
875.58	8879.38
875.823	8970.38
876.066	8865.38
876.309	8918.38
876.551	8802.38
876.794	8763.38
877.037	8838.38
877.279	8726.38
877.522	8697.38
877.764	8749.38
878.007	8739.38
878.249	8677.38
878.491	8658.38
878.734	8713.38
878.976	8660.38
879.218	8591.38
879.46	8606.38
879.702	8500.38
879.945	8427.38
880.187	8309.38
880.429	8303.38
880.671	8263.38
880.912	8367.38
881.154	8237.38
881.396	8167.38
881.638	8231.38
881.88	8204.38
882.121	8160.38
882.363	8183.38
882.605	8240.38
882.846	8154.38
883.088	8219.38
883.329	8150.38
883.571	8252.38
883.812	8395.38
884.053	8530.38
884.295	8767.38
884.536	8947.38
884.777	8747.38
885.018	8776.38
885.259	8694.38
885.5	8599.38
885.742	8807.38
885.982	8542.38
886.223	8404.38
886.464	8367.38
886.705	8233.38
886.946	8183.38
887.187	7973.38
887.428	7982.38
887.668	7806.38
887.909	7736.38
888.15	7635.38
888.39	7586.38
888.631	7588.38
888.871	7506.38
889.111	7365.38
889.352	7330.38
889.592	7348.38
889.833	7242.38
890.073	7192.38
890.313	7267.38
890.553	7123.38
890.793	7127.38
891.033	7004.38
891.273	6948.38
891.513	7025.38
891.753	7043.38
891.993	6997.38
892.233	6986.38
892.473	7111.38
892.713	7017.38
892.952	7008.38
893.192	7042.38
893.432	6987.38
893.671	7012.38
893.911	6914.38
894.15	6956.38
894.39	6847.38
894.629	6810.38
894.869	6834.38
895.108	6883.38
895.347	6782.38
895.587	6806.38
895.826	6728.38
896.065	6758.38
896.304	6727.38
896.543	6763.38
896.782	6716.38
897.021	6730.38
897.26	6700.38
897.499	6733.38
897.738	6731.38
897.977	6646.38
898.216	6586.38
898.454	6614.38
898.693	6498.38
898.932	6549.38
899.17	6513.38
899.409	6514.38
899.647	6487.38
899.886	6496.38
900.124	6472.38
900.363	6448.38
900.601	6569.38
900.839	6511.38
901.078	6584.38
901.316	6584.38
901.554	6635.38
901.792	6749.38
902.03	6613.38
902.268	6673.38
902.506	6626.38
902.744	6550.38
902.982	6563.38
903.22	6319.38
903.458	6326.38
903.695	6269.38
903.933	6095.38
904.171	6052.38
904.409	5898.38
904.646	5911.38
904.884	5799.38
905.121	5749.38
905.359	5633.38
905.596	5638.38
905.833	5502.38
906.071	5493.38
906.308	5525.38
906.545	5469.38
906.783	5408.38
907.02	5453.38
907.257	5392.38
907.494	5396.38
907.731	5381.38
907.968	5380.38
908.205	5323.38
908.442	5280.38
908.679	5279.38
908.915	5240.38
909.152	5253.38
909.389	5068.38
909.626	5097.38
909.862	4991.38
910.099	5064.38
910.335	5092.38
910.572	4928.38
910.808	4978.38
911.045	5012.38
911.281	4901.38
911.518	4951.38
911.754	4890.38
911.99	4864.38
912.226	4870.38
912.463	4742.38
912.699	4758.38
912.935	4776.38
913.171	4697.38
913.407	4646.38
913.643	4671.38
913.879	4589.38
914.114	4609.38
914.35	4520.38
914.586	4516.38
914.822	4395.38
915.057	4507.38
915.293	4368.38
915.529	4294.38
915.764	4399.38
916	4362.38
916.235	4339.38
916.471	4355.38
916.706	4289.38
916.941	4306.38
917.177	4268.38
917.412	4318.38
917.647	4297.38
917.882	4254.38
918.117	4283.38
918.352	4223.38
918.588	4286.38
918.823	4208.38
919.057	4185.38
919.292	4066.38
919.527	4166.38
919.762	4028.38
919.997	4076.38
920.232	3971.38
920.466	4026.38
920.701	3894.38
920.935	3921.38
921.17	3912.38
921.405	3846.38
921.639	3878.38
921.873	3847.38
922.108	3854.38
922.342	3838.38
922.576	3764.38
922.811	3764.38
923.045	3848.38
923.279	3830.38
923.513	3686.38
923.747	3778.38
923.981	3739.38
924.215	3708.38
924.449	3680.38
924.683	3599.38
924.917	3633.38
925.151	3588.38
925.385	3638.38
925.618	3605.38
925.852	3595.38
926.086	3528.38
926.319	3579.38
926.553	3588.38
926.786	3592.38
927.02	3562.38
927.253	3602.38
927.486	3587.38
927.72	3508.38
927.953	3526.38
928.186	3529.38
928.42	3495.38
928.653	3458.38
928.886	3478.38
929.119	3455.38
929.352	3467.38
929.585	3423.38
929.818	3387.38
930.051	3400.38
930.284	3382.38
930.516	3283.38
930.749	3292.38
930.982	3300.38
931.215	3329.38
931.447	3239.38
931.68	3244.38
931.912	3210.38
932.145	3268.38
932.377	3288.38
932.61	3369.38
932.842	3191.38
933.074	3243.38
933.307	3165.38
933.539	3281.38
933.771	3314.38
934.003	3204.38
934.236	3287.38
934.468	3306.38
934.7	3226.38
934.932	3281.38
935.164	3194.38
935.395	3193.38
935.627	3209.38
935.859	3173.38
936.091	3143.38
936.323	3178.38
936.554	3185.38
936.786	3148.38
937.017	3097.38
937.249	3102.38
937.481	3078.38
937.712	3088.38
937.943	3109.38
938.175	3075.38
938.406	3085.38
938.637	3135.38
938.869	3033.38
939.1	3055.38
939.331	3008.38
939.562	3056.38
939.793	3058.38
940.024	3086.38
940.255	3075.38
940.486	3001.38
940.717	2984.38
940.948	2992.38
941.179	2941.38
941.409	2988.38
941.64	2933.38
941.871	2962.38
942.102	2931.38
942.332	2951.38
942.563	2989.38
942.793	2967.38
943.024	2924.38
943.254	2946.38
943.484	2961.38
943.715	2994.38
943.945	2919.38
944.175	2866.38
944.405	2843.38
944.636	2860.38
944.866	2945.38
945.096	2890.38
945.326	2871.38
945.556	2888.38
945.786	2925.38
946.016	2835.38
946.245	2791.38
946.475	2813.38
946.705	2765.38
946.935	2806.38
947.164	2794.38
947.394	2775.38
947.624	2762.38
947.853	2787.38
948.083	2737.38
948.312	2745.38
948.542	2652.38
948.771	2637.38
949	2657.38
949.23	2679.38
949.459	2638.38
949.688	2704.38
949.917	2685.38
950.146	2647.38
950.375	2711.38
950.604	2609.38
950.833	2714.38
951.062	2667.38
951.291	2658.38
951.52	2575.38
951.749	2639.38
951.978	2562.38
952.206	2603.38
952.435	2574.38
952.664	2608.38
952.892	2599.38
953.121	2582.38
953.349	2597.38
953.578	2606.38
953.806	2524.38
954.035	2508.38
954.263	2603.38
954.491	2453.38
954.719	2563.38
954.948	2475.38
955.176	2490.38
955.404	2408.38
955.632	2462.38
955.86	2443.38
956.088	2431.38
956.316	2471.38
956.544	2464.38
956.772	2420.38
956.999	2431.38
957.227	2449.38
957.455	2373.38
957.683	2366.38
957.91	2331.38
958.138	2338.38
958.365	2315.38
958.593	2297.38
958.82	2263.38
959.048	2339.38
959.275	2281.38
959.502	2277.38
959.73	2247.38
959.957	2290.38
960.184	2297.38
960.411	2268.38
960.638	2332.38
960.865	2265.38
961.092	2297.38
961.319	2183.38
961.546	2306.38
961.773	2298.38
962	2252.38
962.227	2282.38
962.454	2236.38
962.68	2235.38
962.907	2277.38
963.134	2210.38
963.36	2232.38
963.587	2235.38
963.813	2193.38
964.04	2199.38
964.266	2157.38
964.493	2241.38
964.719	2231.38
964.945	2204.38
965.171	2083.38
965.398	2105.38
965.624	2126.38
965.85	2107.38
966.076	2061.38
966.302	2123.38
966.528	2056.38
966.754	2131.38
966.98	2110.38
967.206	2068.38
967.431	2004.38
967.657	2108.38
967.883	2090.38
968.109	2076.38
968.334	2031.38
968.56	1995.38
968.785	2038.38
969.011	1980.38
969.236	2042.38
969.462	1965.38
969.687	2018.38
969.912	2070.38
970.138	2074.38
970.363	1985.38
970.588	2008.38
970.813	1984.38
971.038	1966.38
971.263	1991.38
971.488	1997.38
971.713	2008.38
971.938	1974.38
972.163	1909.38
972.388	1913.38
972.613	1881.38
972.838	1928.38
973.062	1867.38
973.287	1879.38
973.512	1823.38
973.736	1891.38
973.961	1872.38
974.185	1840.38
974.41	1884.38
974.634	1800.38
974.858	1772.38
975.083	1819.38
975.307	1867.38
975.531	1808.38
975.755	1746.38
975.98	1770.38
976.204	1677.38
976.428	1725.38
976.652	1727.38
976.876	1683.38
977.1	1747.38
977.324	1680.38
977.547	1746.38
977.771	1753.38
977.995	1749.38
978.219	1672.38
978.442	1753.38
978.666	1727.38
978.89	1677.38
979.113	1712.38
979.337	1679.38
979.56	1656.38
979.783	1730.38
980.007	1627.38
980.23	1661.38
980.453	1658.38
980.677	1686.38
980.9	1666.38
981.123	1582.38
981.346	1639.38
981.569	1645.38
981.792	1658.38
982.015	1626.38
982.238	1603.38
982.461	1605.38
982.684	1600.38
982.907	1551.38
983.129	1551.38
983.352	1592.38
983.575	1584.38
983.797	1609.38
984.02	1549.38
984.242	1534.38
984.465	1579.38
984.687	1592.38
984.91	1610.38
985.132	1585.38
985.354	1590.38
985.577	1553.38
985.799	1547.38
986.021	1457.38
986.243	1492.38
986.465	1525.38
986.687	1582.38
986.909	1592.38
987.131	1542.38
987.353	1468.38
987.575	1541.38
987.797	1492.38
988.019	1451.38
988.241	1477.38
988.462	1453.38
988.684	1518.38
988.906	1563.38
989.127	1550.38
989.349	1456.38
989.57	1492.38
989.792	1534.38
990.013	1515.38
990.234	1498.38
990.456	1554.38
990.677	1530.38
990.898	1460.38
991.119	1470.38
991.341	1506.38
991.562	1416.38
991.783	1499.38
992.004	1414.38
992.225	1390.38
992.446	1435.38
992.667	1361.38
992.887	1453.38
993.108	1319.38
993.329	1487.38
993.55	1431.38
993.77	1367.38
993.991	1391.38
994.212	1416.38
994.432	1413.38
994.653	1398.38
994.873	1423.38
995.093	1264.38
995.314	1342.38
995.534	1399.38
995.754	1416.38
995.975	1429.38
996.195	1322.38
996.415	1404.38
996.635	1365.38
996.855	1353.38
997.075	1352.38
997.295	1373.38
997.515	1331.38
997.735	1377.38
997.955	1363.38
998.174	1342.38
998.394	1325.38
998.614	1391.38
998.834	1325.38
999.053	1386.38
999.273	1356.38
999.492	1400.38
999.712	1353.38
999.931	1292.38
1000.151	1374.38
1000.37	1351.38
1000.589	1386.38
1000.809	1288.38
1001.028	1438.38
1001.247	1357.38
1001.466	1268.38
1001.685	1425.38
1001.904	1340.38
1002.123	1332.38
1002.342	1336.38
1002.561	1267.38
1002.78	1300.38
1002.999	1378.38
1003.218	1333.38
1003.436	1288.38
1003.655	1363.38
1003.874	1262.38
1004.092	1281.38
1004.311	1360.38
1004.53	1302.38
1004.748	1396.38
1004.966	1303.38
1005.185	1354.38
1005.403	1354.38
1005.622	1337.38
1005.84	1418.38
1006.058	1277.38
1006.276	1338.38
1006.494	1844.38
1006.712	1353.38
1006.931	1394.38
1007.149	1305.38
1007.367	1341.38
1007.584	1374.38
1007.802	1381.38
1008.02	1335.38
1008.238	1430.38
1008.456	1420.38
1008.673	1290.38
1008.891	1402.38
1009.109	1372.38
1009.326	1424.38
1009.544	1507.38
1009.761	1431.38
1009.979	1527.38
1010.196	1542.38
1010.413	1659.38
1010.631	1698.38
1010.848	1766.38
1011.065	1736.38
1011.282	1706.38
1011.5	1629.38
1011.717	1707.38
1011.934	1700.38
1012.151	1725.38
1012.368	1673.38
1012.585	1613.38
1012.801	1687.38
1013.018	1645.38
1013.235	1622.38
1013.452	1653.38
1013.669	1636.38
1013.885	1656.38
1014.102	1662.38
1014.318	1673.38
1014.535	1620.38
1014.751	1619.38
1014.968	1616.38
1015.184	1671.38
1015.401	1532.38
1015.617	1623.38
1015.833	1558.38
1016.049	1547.38
1016.266	1520.38
1016.482	1539.38
1016.698	1480.38
1016.914	1498.38
1017.13	1449.38
1017.346	1441.38
1017.562	1504.38
1017.778	1443.38
1017.993	1410.38
1018.209	1440.38
1018.425	1427.38
1018.641	1411.38
1018.856	1376.38
1019.072	1411.38
1019.288	1469.38
1019.503	1410.38
1019.719	1325.38
1019.934	1324.38
1020.149	1412.38
1020.365	1368.38
1020.58	1307.38
1020.795	1338.38
1021.011	1273.38
1021.226	1255.38
1021.441	1258.38
1021.656	1186.38
1021.871	1141.38
1022.086	1162.38
1022.301	1151.38
1022.516	1129.38
1022.731	1203.38
1022.946	1103.38
1023.16	1096.38
1023.375	1058.38
1023.59	1055.38
1023.804	1001.38
1024.019	1096.38
1024.234	979.38
1024.448	1022.38
1024.663	936.38
1024.877	952.38
1025.092	958.38
1025.306	980.38
1025.52	867.38
1025.734	972.38
1025.949	895.38
1026.163	865.38
1026.377	806.38
1026.591	850.38
1026.805	800.38
1027.019	782.38
1027.233	743.38
1027.447	708.38
1027.661	797.38
1027.875	742.38
1028.088	757.38
1028.302	677.38
1028.516	689.38
1028.73	658.38
1028.943	689.38
1029.157	606.38
1029.37	588.38
1029.584	0.38
1029.797	-3.62
1030.011	-3.62
1030.224	-2.62
