Data from QEP037381__6__11-21-55-593.txt Node

Date: Wed Dec 21 11:21:55 EST 2022
User: dcclab
Spectrometer: QEP03738
Trigger mode: 4
Integration Time (sec): 1.000000E1
Scans to average: 1
Electric dark correction enabled: true
Nonlinearity correction enabled: false
Boxcar width: 0
XAxis mode: Wavelengths
Number of Pixels in Spectrum: 1044
>>>>>Begin Spectral Data<<<<<
784.041	11.5
784.3	0.5
784.558	-1.5
784.817	-6.5
785.075	41455.5
785.334	8337.5
785.592	4413.5
785.851	3104.5
786.109	2402.5
786.368	1907.5
786.626	1579.5
786.884	1326.5
787.143	1146.5
787.401	941.5
787.659	901.5
787.917	771.5
788.175	750.5
788.433	639.5
788.691	610.5
788.949	565.5
789.207	570.5
789.465	495.5
789.723	481.5
789.98	445.5
790.238	476.5
790.496	459.5
790.753	453.5
791.011	525.5
791.268	446.5
791.526	442.5
791.783	467.5
792.041	452.5
792.298	374.5
792.556	440.5
792.813	422.5
793.07	399.5
793.327	394.5
793.584	477.5
793.841	388.5
794.099	410.5
794.356	480.5
794.613	376.5
794.869	426.5
795.126	381.5
795.383	369.5
795.64	399.5
795.897	355.5
796.153	407.5
796.41	395.5
796.667	379.5
796.923	384.5
797.18	390.5
797.436	429.5
797.693	385.5
797.949	443.5
798.206	468.5
798.462	372.5
798.718	437.5
798.974	409.5
799.231	450.5
799.487	444.5
799.743	460.5
799.999	484.5
800.255	472.5
800.511	447.5
800.767	497.5
801.023	491.5
801.279	513.5
801.534	547.5
801.79	589.5
802.046	604.5
802.302	729.5
802.557	842.5
802.813	1005.5
803.068	1228.5
803.324	1673.5
803.579	2270.5
803.835	3076.5
804.09	4305.5
804.345	5600.5
804.601	7052.5
804.856	8538.5
805.111	9823.5
805.366	10812.5
805.621	11513.5
805.876	12142.5
806.131	12469.5
806.386	12671.5
806.641	12848.5
806.896	13127.5
807.151	13537.5
807.406	13595.5
807.661	13771.5
807.915	14105.5
808.17	14342.5
808.425	14420.5
808.679	14565.5
808.934	14787.5
809.188	14893.5
809.443	15088.5
809.697	15286.5
809.951	15342.5
810.206	15540.5
810.46	15659.5
810.714	15853.5
810.968	15998.5
811.223	16018.5
811.477	16227.5
811.731	16223.5
811.985	16307.5
812.239	16405.5
812.493	16547.5
812.747	16686.5
813	16625.5
813.254	16697.5
813.508	16909.5
813.762	16887.5
814.015	16946.5
814.269	17083.5
814.522	17221.5
814.776	17379.5
815.03	17669.5
815.283	17881.5
815.536	18304.5
815.79	18445.5
816.043	18744.5
816.296	19028.5
816.55	19367.5
816.803	19484.5
817.056	19754.5
817.309	19833.5
817.562	20076.5
817.815	20274.5
818.068	20426.5
818.321	20663.5
818.574	20921.5
818.827	21210.5
819.079	21393.5
819.332	21946.5
819.585	22033.5
819.838	22432.5
820.09	22376.5
820.343	22538.5
820.595	22664.5
820.848	22863.5
821.1	22939.5
821.353	22937.5
821.605	22908.5
821.857	22966.5
822.11	22799.5
822.362	22764.5
822.614	22667.5
822.866	22695.5
823.118	22690.5
823.37	22795.5
823.622	22871.5
823.874	22922.5
824.126	22995.5
824.378	23002.5
824.63	23124.5
824.882	23137.5
825.134	23055.5
825.385	23211.5
825.637	23055.5
825.888	23049.5
826.14	22928.5
826.392	22827.5
826.643	22664.5
826.895	22708.5
827.146	22540.5
827.397	22557.5
827.649	22673.5
827.9	22450.5
828.151	22549.5
828.402	22612.5
828.653	22632.5
828.905	22813.5
829.156	22810.5
829.407	22686.5
829.658	22820.5
829.909	22843.5
830.159	22812.5
830.41	22692.5
830.661	22492.5
830.912	22385.5
831.162	22373.5
831.413	22353.5
831.664	22242.5
831.914	22248.5
832.165	22199.5
832.415	22239.5
832.666	22271.5
832.916	22243.5
833.167	22118.5
833.417	22235.5
833.667	22275.5
833.917	22081.5
834.168	22057.5
834.418	21997.5
834.668	21862.5
834.918	21665.5
835.168	21688.5
835.418	21612.5
835.668	21552.5
835.918	21533.5
836.167	21513.5
836.417	21354.5
836.667	21337.5
836.917	21379.5
837.166	21307.5
837.416	21432.5
837.666	21339.5
837.915	21331.5
838.165	21300.5
838.414	21260.5
838.663	21144.5
838.913	21059.5
839.162	21055.5
839.411	21087.5
839.661	20975.5
839.91	20937.5
840.159	20878.5
840.408	20964.5
840.657	20841.5
840.906	20887.5
841.155	20943.5
841.404	20953.5
841.653	20903.5
841.902	20860.5
842.15	21034.5
842.399	20891.5
842.648	20844.5
842.897	20853.5
843.145	20748.5
843.394	20580.5
843.642	20457.5
843.891	20400.5
844.139	20280.5
844.388	20155.5
844.636	20021.5
844.884	20079.5
845.133	19973.5
845.381	19952.5
845.629	20010.5
845.877	19917.5
846.125	19896.5
846.373	19981.5
846.621	19779.5
846.869	19809.5
847.117	19659.5
847.365	19559.5
847.613	19587.5
847.861	19491.5
848.108	19501.5
848.356	19378.5
848.604	19308.5
848.851	19314.5
849.099	19327.5
849.346	19362.5
849.594	19563.5
849.841	19614.5
850.089	19702.5
850.336	19841.5
850.583	19809.5
850.831	19746.5
851.078	19554.5
851.325	19463.5
851.572	19340.5
851.819	19206.5
852.066	18820.5
852.313	18683.5
852.56	18465.5
852.807	18437.5
853.054	18363.5
853.301	18368.5
853.548	18299.5
853.794	18349.5
854.041	18486.5
854.288	18527.5
854.534	18733.5
854.781	18618.5
855.028	18617.5
855.274	18608.5
855.52	18477.5
855.767	18438.5
856.013	18438.5
856.26	18692.5
856.506	18188.5
856.752	18234.5
856.998	18256.5
857.244	18310.5
857.49	18359.5
857.736	18439.5
857.982	18307.5
858.228	18256.5
858.474	18157.5
858.72	18000.5
858.966	17843.5
859.212	17686.5
859.458	17550.5
859.703	17452.5
859.949	17160.5
860.195	17179.5
860.44	17039.5
860.686	16954.5
860.931	17059.5
861.177	16783.5
861.422	16887.5
861.667	16737.5
861.913	16722.5
862.158	16783.5
862.403	16805.5
862.648	16876.5
862.893	16867.5
863.138	16799.5
863.384	16689.5
863.629	16760.5
863.873	16772.5
864.118	16733.5
864.363	16609.5
864.608	16551.5
864.853	16559.5
865.098	16316.5
865.342	16342.5
865.587	16244.5
865.832	16287.5
866.076	16168.5
866.321	16131.5
866.565	16099.5
866.81	15989.5
867.054	16085.5
867.298	15967.5
867.543	15875.5
867.787	15918.5
868.031	15864.5
868.275	15784.5
868.519	15778.5
868.764	15758.5
869.008	15666.5
869.252	15691.5
869.496	15540.5
869.739	15576.5
869.983	15619.5
870.227	15541.5
870.471	15523.5
870.715	15607.5
870.958	15624.5
871.202	15687.5
871.446	15726.5
871.689	15670.5
871.933	15655.5
872.176	15694.5
872.42	15658.5
872.663	15625.5
872.906	15669.5
873.15	15546.5
873.393	15398.5
873.636	15477.5
873.879	15252.5
874.122	15079.5
874.366	14873.5
874.609	14857.5
874.852	14596.5
875.095	14634.5
875.337	14525.5
875.58	14470.5
875.823	14458.5
876.066	14442.5
876.309	14291.5
876.551	14200.5
876.794	14183.5
877.037	14248.5
877.279	14097.5
877.522	14156.5
877.764	14152.5
878.007	14178.5
878.249	14196.5
878.491	14116.5
878.734	14136.5
878.976	14034.5
879.218	13908.5
879.46	13850.5
879.702	13838.5
879.945	13759.5
880.187	13575.5
880.429	13455.5
880.671	13494.5
880.912	13458.5
881.154	13376.5
881.396	13220.5
881.638	13319.5
881.88	13298.5
882.121	13242.5
882.363	13247.5
882.605	13279.5
882.846	13219.5
883.088	13126.5
883.329	13196.5
883.571	13096.5
883.812	13201.5
884.053	13385.5
884.295	13551.5
884.536	13656.5
884.777	13610.5
885.018	13456.5
885.259	13494.5
885.5	13369.5
885.742	13547.5
885.982	13264.5
886.223	13243.5
886.464	13082.5
886.705	12962.5
886.946	12945.5
887.187	12814.5
887.428	12693.5
887.668	12488.5
887.909	12351.5
888.15	12251.5
888.39	12169.5
888.631	12200.5
888.871	11957.5
889.111	11947.5
889.352	11871.5
889.592	11738.5
889.833	11666.5
890.073	11607.5
890.313	11608.5
890.553	11425.5
890.793	11440.5
891.033	11416.5
891.273	11297.5
891.513	11179.5
891.753	11286.5
891.993	11253.5
892.233	11294.5
892.473	11359.5
892.713	11279.5
892.952	11257.5
893.192	11230.5
893.432	11180.5
893.671	11221.5
893.911	11177.5
894.15	11050.5
894.39	11024.5
894.629	10940.5
894.869	10940.5
895.108	10867.5
895.347	10894.5
895.587	10771.5
895.826	10691.5
896.065	10678.5
896.304	10733.5
896.543	10728.5
896.782	10579.5
897.021	10658.5
897.26	10615.5
897.499	10633.5
897.738	10598.5
897.977	10526.5
898.216	10350.5
898.454	10283.5
898.693	10178.5
898.932	10206.5
899.17	10221.5
899.409	10174.5
899.647	10189.5
899.886	10052.5
900.124	10150.5
900.363	10090.5
900.601	10142.5
900.839	10127.5
901.078	10195.5
901.316	10191.5
901.554	10264.5
901.792	10252.5
902.03	10220.5
902.268	10161.5
902.506	10175.5
902.744	10085.5
902.982	10001.5
903.22	9814.5
903.458	9763.5
903.695	9649.5
903.933	9549.5
904.171	9332.5
904.409	9310.5
904.646	9186.5
904.884	9047.5
905.121	9060.5
905.359	8878.5
905.596	8781.5
905.833	8724.5
906.071	8656.5
906.308	8662.5
906.545	8632.5
906.783	8607.5
907.02	8669.5
907.257	8520.5
907.494	8556.5
907.731	8494.5
907.968	8480.5
908.205	8404.5
908.442	8336.5
908.679	8302.5
908.915	8198.5
909.152	8135.5
909.389	8079.5
909.626	8076.5
909.862	8036.5
910.099	7999.5
910.335	7967.5
910.572	7878.5
910.808	7877.5
911.045	7852.5
911.281	7762.5
911.518	7836.5
911.754	7707.5
911.99	7723.5
912.226	7632.5
912.463	7549.5
912.699	7559.5
912.935	7467.5
913.171	7378.5
913.407	7314.5
913.643	7345.5
913.879	7251.5
914.114	7171.5
914.35	7121.5
914.586	6984.5
914.822	6954.5
915.057	7005.5
915.293	6847.5
915.529	6841.5
915.764	6913.5
916	6876.5
916.235	6831.5
916.471	6861.5
916.706	6749.5
916.941	6782.5
917.177	6774.5
917.412	6792.5
917.647	6785.5
917.882	6722.5
918.117	6688.5
918.352	6719.5
918.588	6656.5
918.823	6603.5
919.057	6557.5
919.292	6439.5
919.527	6493.5
919.762	6375.5
919.997	6384.5
920.232	6208.5
920.466	6266.5
920.701	6093.5
920.935	6137.5
921.17	6045.5
921.405	6055.5
921.639	6056.5
921.873	6036.5
922.108	6007.5
922.342	5993.5
922.576	5840.5
922.811	5964.5
923.045	5927.5
923.279	5991.5
923.513	5781.5
923.747	5833.5
923.981	5741.5
924.215	5725.5
924.449	5681.5
924.683	5630.5
924.917	5587.5
925.151	5587.5
925.385	5625.5
925.618	5573.5
925.852	5552.5
926.086	5468.5
926.319	5572.5
926.553	5568.5
926.786	5549.5
927.02	5464.5
927.253	5536.5
927.486	5506.5
927.72	5486.5
927.953	5508.5
928.186	5468.5
928.42	5435.5
928.653	5409.5
928.886	5339.5
929.119	5374.5
929.352	5305.5
929.585	5307.5
929.818	5241.5
930.051	5177.5
930.284	5172.5
930.516	5084.5
930.749	5049.5
930.982	5090.5
931.215	5084.5
931.447	5021.5
931.68	5009.5
931.912	4982.5
932.145	4984.5
932.377	4974.5
932.61	5121.5
932.842	4923.5
933.074	5020.5
933.307	4900.5
933.539	4977.5
933.771	4977.5
934.003	4905.5
934.236	5021.5
934.468	5022.5
934.7	4875.5
934.932	4905.5
935.164	4902.5
935.395	4836.5
935.627	4881.5
935.859	4852.5
936.091	4771.5
936.323	4805.5
936.554	4810.5
936.786	4774.5
937.017	4706.5
937.249	4770.5
937.481	4691.5
937.712	4741.5
937.943	4721.5
938.175	4711.5
938.406	4669.5
938.637	4724.5
938.869	4644.5
939.1	4631.5
939.331	4575.5
939.562	4630.5
939.793	4621.5
940.024	4642.5
940.255	4619.5
940.486	4547.5
940.717	4496.5
940.948	4463.5
941.179	4434.5
941.409	4494.5
941.64	4455.5
941.871	4472.5
942.102	4438.5
942.332	4428.5
942.563	4459.5
942.793	4440.5
943.024	4403.5
943.254	4411.5
943.484	4485.5
943.715	4443.5
943.945	4427.5
944.175	4331.5
944.405	4359.5
944.636	4363.5
944.866	4348.5
945.096	4382.5
945.326	4266.5
945.556	4339.5
945.786	4320.5
946.016	4311.5
946.245	4224.5
946.475	4271.5
946.705	4214.5
946.935	4189.5
947.164	4170.5
947.394	4111.5
947.624	4148.5
947.853	4154.5
948.083	4152.5
948.312	4078.5
948.542	4029.5
948.771	4010.5
949	3981.5
949.23	3987.5
949.459	3988.5
949.688	4090.5
949.917	3983.5
950.146	3992.5
950.375	4062.5
950.604	3956.5
950.833	4049.5
951.062	3983.5
951.291	3965.5
951.52	3935.5
951.749	3931.5
951.978	3889.5
952.206	3876.5
952.435	3872.5
952.664	3897.5
952.892	3860.5
953.121	3826.5
953.349	3844.5
953.578	3836.5
953.806	3811.5
954.035	3710.5
954.263	3775.5
954.491	3738.5
954.719	3751.5
954.948	3702.5
955.176	3680.5
955.404	3617.5
955.632	3662.5
955.86	3641.5
956.088	3606.5
956.316	3641.5
956.544	3612.5
956.772	3596.5
956.999	3548.5
957.227	3617.5
957.455	3498.5
957.683	3540.5
957.91	3458.5
958.138	3456.5
958.365	3450.5
958.593	3400.5
958.82	3355.5
959.048	3450.5
959.275	3388.5
959.502	3378.5
959.73	3381.5
959.957	3383.5
960.184	3390.5
960.411	3303.5
960.638	3421.5
960.865	3297.5
961.092	3396.5
961.319	3246.5
961.546	3364.5
961.773	3373.5
962	3336.5
962.227	3317.5
962.454	3323.5
962.68	3274.5
962.907	3279.5
963.134	3243.5
963.36	3242.5
963.587	3258.5
963.813	3183.5
964.04	3216.5
964.266	3099.5
964.493	3198.5
964.719	3195.5
964.945	3174.5
965.171	3095.5
965.398	3073.5
965.624	3134.5
965.85	3034.5
966.076	3063.5
966.302	3043.5
966.528	3045.5
966.754	3034.5
966.98	3021.5
967.206	2987.5
967.431	2959.5
967.657	3021.5
967.883	2999.5
968.109	3006.5
968.334	2975.5
968.56	2903.5
968.785	2933.5
969.011	2862.5
969.236	2928.5
969.462	2913.5
969.687	2880.5
969.912	2940.5
970.138	2953.5
970.363	2855.5
970.588	2860.5
970.813	2832.5
971.038	2846.5
971.263	2807.5
971.488	2832.5
971.713	2879.5
971.938	2804.5
972.163	2724.5
972.388	2751.5
972.613	2714.5
972.838	2741.5
973.062	2706.5
973.287	2722.5
973.512	2653.5
973.736	2686.5
973.961	2662.5
974.185	2630.5
974.41	2682.5
974.634	2556.5
974.858	2583.5
975.083	2588.5
975.307	2652.5
975.531	2552.5
975.755	2522.5
975.98	2531.5
976.204	2490.5
976.428	2452.5
976.652	2464.5
976.876	2426.5
977.1	2459.5
977.324	2418.5
977.547	2492.5
977.771	2462.5
977.995	2443.5
978.219	2363.5
978.442	2493.5
978.666	2415.5
978.89	2399.5
979.113	2410.5
979.337	2393.5
979.56	2315.5
979.783	2446.5
980.007	2313.5
980.23	2370.5
980.453	2325.5
980.677	2356.5
980.9	2325.5
981.123	2250.5
981.346	2369.5
981.569	2278.5
981.792	2330.5
982.015	2279.5
982.238	2233.5
982.461	2286.5
982.684	2230.5
982.907	2214.5
983.129	2175.5
983.352	2247.5
983.575	2223.5
983.797	2236.5
984.02	2143.5
984.242	2173.5
984.465	2181.5
984.687	2182.5
984.91	2209.5
985.132	2180.5
985.354	2199.5
985.577	2134.5
985.799	2123.5
986.021	2045.5
986.243	2084.5
986.465	2103.5
986.687	2124.5
986.909	2186.5
987.131	2102.5
987.353	2024.5
987.575	2088.5
987.797	2035.5
988.019	1974.5
988.241	2026.5
988.462	1975.5
988.684	2065.5
988.906	2081.5
989.127	2057.5
989.349	2006.5
989.57	1992.5
989.792	2045.5
990.013	2050.5
990.234	2041.5
990.456	2042.5
990.677	2040.5
990.898	1967.5
991.119	1987.5
991.341	2035.5
991.562	1952.5
991.783	1963.5
992.004	1938.5
992.225	1881.5
992.446	1934.5
992.667	1837.5
992.887	1944.5
993.108	1820.5
993.329	1933.5
993.55	1878.5
993.77	1822.5
993.991	1839.5
994.212	1858.5
994.432	1820.5
994.653	1847.5
994.873	1841.5
995.093	1729.5
995.314	1787.5
995.534	1811.5
995.754	1864.5
995.975	1877.5
996.195	1740.5
996.415	1800.5
996.635	1778.5
996.855	1794.5
997.075	1759.5
997.295	1757.5
997.515	1761.5
997.735	1837.5
997.955	1776.5
998.174	1756.5
998.394	1736.5
998.614	1784.5
998.834	1694.5
999.053	1775.5
999.273	1772.5
999.492	1788.5
999.712	1744.5
999.931	1681.5
1000.151	1728.5
1000.37	1729.5
1000.589	1754.5
1000.809	1686.5
1001.028	1792.5
1001.247	1750.5
1001.466	1621.5
1001.685	1777.5
1001.904	1680.5
1002.123	1694.5
1002.342	1683.5
1002.561	1617.5
1002.78	1653.5
1002.999	1718.5
1003.218	1669.5
1003.436	1639.5
1003.655	1704.5
1003.874	1616.5
1004.092	1629.5
1004.311	1660.5
1004.53	1630.5
1004.748	1690.5
1004.966	1601.5
1005.185	1670.5
1005.403	1631.5
1005.622	1663.5
1005.84	1718.5
1006.058	1587.5
1006.276	1633.5
1006.494	2155.5
1006.712	1628.5
1006.931	1682.5
1007.149	1585.5
1007.367	1575.5
1007.584	1623.5
1007.802	1657.5
1008.02	1611.5
1008.238	1710.5
1008.456	1707.5
1008.673	1578.5
1008.891	1667.5
1009.109	1649.5
1009.326	1703.5
1009.544	1786.5
1009.761	1666.5
1009.979	1785.5
1010.196	1786.5
1010.413	1864.5
1010.631	1941.5
1010.848	1972.5
1011.065	1952.5
1011.282	1883.5
1011.5	1856.5
1011.717	1945.5
1011.934	1852.5
1012.151	1901.5
1012.368	1882.5
1012.585	1812.5
1012.801	1840.5
1013.018	1834.5
1013.235	1834.5
1013.452	1864.5
1013.669	1842.5
1013.885	1827.5
1014.102	1874.5
1014.318	1832.5
1014.535	1771.5
1014.751	1831.5
1014.968	1822.5
1015.184	1821.5
1015.401	1733.5
1015.617	1764.5
1015.833	1717.5
1016.049	1728.5
1016.266	1694.5
1016.482	1678.5
1016.698	1611.5
1016.914	1672.5
1017.13	1607.5
1017.346	1589.5
1017.562	1653.5
1017.778	1583.5
1017.993	1549.5
1018.209	1630.5
1018.425	1606.5
1018.641	1567.5
1018.856	1527.5
1019.072	1549.5
1019.288	1602.5
1019.503	1548.5
1019.719	1493.5
1019.934	1466.5
1020.149	1542.5
1020.365	1501.5
1020.58	1435.5
1020.795	1487.5
1021.011	1435.5
1021.226	1382.5
1021.441	1412.5
1021.656	1325.5
1021.871	1305.5
1022.086	1255.5
1022.301	1280.5
1022.516	1280.5
1022.731	1316.5
1022.946	1226.5
1023.16	1192.5
1023.375	1196.5
1023.59	1158.5
1023.804	1141.5
1024.019	1225.5
1024.234	1101.5
1024.448	1121.5
1024.663	1057.5
1024.877	1064.5
1025.092	1070.5
1025.306	1075.5
1025.52	993.5
1025.734	1076.5
1025.949	994.5
1026.163	960.5
1026.377	877.5
1026.591	959.5
1026.805	901.5
1027.019	884.5
1027.233	843.5
1027.447	806.5
1027.661	901.5
1027.875	834.5
1028.088	842.5
1028.302	752.5
1028.516	742.5
1028.73	755.5
1028.943	751.5
1029.157	691.5
1029.37	657.5
1029.584	-0.5
1029.797	0.5
1030.011	-2.5
1030.224	-1.5
