Data from QEP037381__116__11-40-15-598.txt Node

Date: Wed Dec 21 11:40:15 EST 2022
User: dcclab
Spectrometer: QEP03738
Trigger mode: 4
Integration Time (sec): 1.000000E1
Scans to average: 1
Electric dark correction enabled: true
Nonlinearity correction enabled: false
Boxcar width: 0
XAxis mode: Wavelengths
Number of Pixels in Spectrum: 1044
>>>>>Begin Spectral Data<<<<<
784.041	17.62
784.3	3.62
784.558	-2.38
784.817	-4.38
785.075	39576.62
785.334	8217.62
785.592	4323.62
785.851	3109.62
786.109	2369.62
786.368	1881.62
786.626	1554.62
786.884	1334.62
787.143	1112.62
787.401	926.62
787.659	895.62
787.917	757.62
788.175	737.62
788.433	657.62
788.691	592.62
788.949	556.62
789.207	564.62
789.465	482.62
789.723	482.62
789.98	431.62
790.238	488.62
790.496	451.62
790.753	433.62
791.011	496.62
791.268	432.62
791.526	427.62
791.783	442.62
792.041	428.62
792.298	351.62
792.556	415.62
792.813	406.62
793.07	403.62
793.327	352.62
793.584	468.62
793.841	377.62
794.099	399.62
794.356	458.62
794.613	369.62
794.869	398.62
795.126	372.62
795.383	344.62
795.64	379.62
795.897	320.62
796.153	387.62
796.41	371.62
796.667	350.62
796.923	359.62
797.18	369.62
797.436	403.62
797.693	354.62
797.949	405.62
798.206	432.62
798.462	351.62
798.718	396.62
798.974	364.62
799.231	416.62
799.487	391.62
799.743	399.62
799.999	432.62
800.255	423.62
800.511	400.62
800.767	419.62
801.023	410.62
801.279	429.62
801.534	444.62
801.79	484.62
802.046	488.62
802.302	576.62
802.557	593.62
802.813	707.62
803.068	782.62
803.324	1060.62
803.579	1354.62
803.835	1816.62
804.09	2421.62
804.345	3146.62
804.601	3876.62
804.856	4753.62
805.111	5503.62
805.366	5951.62
805.621	6390.62
805.876	6680.62
806.131	6830.62
806.386	6923.62
806.641	6951.62
806.896	7108.62
807.151	7350.62
807.406	7342.62
807.661	7563.62
807.915	7716.62
808.17	7787.62
808.425	7866.62
808.679	7960.62
808.934	8138.62
809.188	8152.62
809.443	8160.62
809.697	8310.62
809.951	8385.62
810.206	8464.62
810.46	8589.62
810.714	8631.62
810.968	8706.62
811.223	8696.62
811.477	8835.62
811.731	8901.62
811.985	8877.62
812.239	8848.62
812.493	8953.62
812.747	8997.62
813	9005.62
813.254	9136.62
813.508	9149.62
813.762	9142.62
814.015	9175.62
814.269	9242.62
814.522	9322.62
814.776	9398.62
815.03	9584.62
815.283	9747.62
815.536	9850.62
815.79	10002.62
816.043	10136.62
816.296	10250.62
816.55	10388.62
816.803	10479.62
817.056	10718.62
817.309	10760.62
817.562	10857.62
817.815	10996.62
818.068	11037.62
818.321	11094.62
818.574	11204.62
818.827	11410.62
819.079	11589.62
819.332	11901.62
819.585	11958.62
819.838	12127.62
820.09	12041.62
820.343	12273.62
820.595	12175.62
820.848	12302.62
821.1	12381.62
821.353	12405.62
821.605	12308.62
821.857	12335.62
822.11	12193.62
822.362	12147.62
822.614	12193.62
822.866	12208.62
823.118	12145.62
823.37	12221.62
823.622	12263.62
823.874	12330.62
824.126	12313.62
824.378	12293.62
824.63	12399.62
824.882	12446.62
825.134	12319.62
825.385	12336.62
825.637	12353.62
825.888	12260.62
826.14	12210.62
826.392	12194.62
826.643	12163.62
826.895	12097.62
827.146	12059.62
827.397	12003.62
827.649	12079.62
827.9	11977.62
828.151	11959.62
828.402	12094.62
828.653	12115.62
828.905	12056.62
829.156	12220.62
829.407	12096.62
829.658	12142.62
829.909	12225.62
830.159	12245.62
830.41	12064.62
830.661	12038.62
830.912	12038.62
831.162	11842.62
831.413	11859.62
831.664	11938.62
831.914	11864.62
832.165	11871.62
832.415	11873.62
832.666	11870.62
832.916	11903.62
833.167	11801.62
833.417	11828.62
833.667	11800.62
833.917	11746.62
834.168	11733.62
834.418	11762.62
834.668	11690.62
834.918	11505.62
835.168	11551.62
835.418	11500.62
835.668	11441.62
835.918	11422.62
836.167	11402.62
836.417	11387.62
836.667	11416.62
836.917	11409.62
837.166	11391.62
837.416	11419.62
837.666	11364.62
837.915	11413.62
838.165	11343.62
838.414	11298.62
838.663	11159.62
838.913	11257.62
839.162	11233.62
839.411	11350.62
839.661	11211.62
839.91	11160.62
840.159	11128.62
840.408	11215.62
840.657	11198.62
840.906	11164.62
841.155	11249.62
841.404	11142.62
841.653	11178.62
841.902	11147.62
842.15	11289.62
842.399	11293.62
842.648	11238.62
842.897	11106.62
843.145	11004.62
843.394	11056.62
843.642	10861.62
843.891	10940.62
844.139	10740.62
844.388	10724.62
844.636	10620.62
844.884	10691.62
845.133	10626.62
845.381	10573.62
845.629	10619.62
845.877	10569.62
846.125	10708.62
846.373	10593.62
846.621	10528.62
846.869	10534.62
847.117	10486.62
847.365	10365.62
847.613	10377.62
847.861	10351.62
848.108	10403.62
848.356	10362.62
848.604	10283.62
848.851	10312.62
849.099	10379.62
849.346	10426.62
849.594	10436.62
849.841	10551.62
850.089	10684.62
850.336	10688.62
850.583	10712.62
850.831	10679.62
851.078	10617.62
851.325	10530.62
851.572	10489.62
851.819	10302.62
852.066	10126.62
852.313	9982.62
852.56	9860.62
852.807	9832.62
853.054	9823.62
853.301	9773.62
853.548	9852.62
853.794	9957.62
854.041	9935.62
854.288	9935.62
854.534	10084.62
854.781	10016.62
855.028	9991.62
855.274	9987.62
855.52	9900.62
855.767	9956.62
856.013	9992.62
856.26	10206.62
856.506	9794.62
856.752	9876.62
856.998	9905.62
857.244	9830.62
857.49	9915.62
857.736	9842.62
857.982	9906.62
858.228	9789.62
858.474	9729.62
858.72	9712.62
858.966	9634.62
859.212	9499.62
859.458	9483.62
859.703	9313.62
859.949	9250.62
860.195	9193.62
860.44	9103.62
860.686	9121.62
860.931	9088.62
861.177	9041.62
861.422	9032.62
861.667	8986.62
861.913	8978.62
862.158	8994.62
862.403	9033.62
862.648	9044.62
862.893	9035.62
863.138	9038.62
863.384	8947.62
863.629	8906.62
863.873	9008.62
864.118	8923.62
864.363	8829.62
864.608	8926.62
864.853	8892.62
865.098	8806.62
865.342	8804.62
865.587	8753.62
865.832	8723.62
866.076	8733.62
866.321	8681.62
866.565	8671.62
866.81	8594.62
867.054	8579.62
867.298	8602.62
867.543	8515.62
867.787	8553.62
868.031	8538.62
868.275	8503.62
868.519	8492.62
868.764	8526.62
869.008	8373.62
869.252	8499.62
869.496	8555.62
869.739	8469.62
869.983	8474.62
870.227	8467.62
870.471	8448.62
870.715	8514.62
870.958	8540.62
871.202	8460.62
871.446	8531.62
871.689	8498.62
871.933	8543.62
872.176	8463.62
872.42	8489.62
872.663	8447.62
872.906	8502.62
873.15	8458.62
873.393	8414.62
873.636	8499.62
873.879	8368.62
874.122	8272.62
874.366	8155.62
874.609	8102.62
874.852	7959.62
875.095	8003.62
875.337	7906.62
875.58	7849.62
875.823	7815.62
876.066	7870.62
876.309	7841.62
876.551	7776.62
876.794	7701.62
877.037	7743.62
877.279	7683.62
877.522	7604.62
877.764	7689.62
878.007	7635.62
878.249	7653.62
878.491	7546.62
878.734	7659.62
878.976	7658.62
879.218	7465.62
879.46	7552.62
879.702	7521.62
879.945	7447.62
880.187	7329.62
880.429	7257.62
880.671	7294.62
880.912	7305.62
881.154	7262.62
881.396	7125.62
881.638	7239.62
881.88	7165.62
882.121	7190.62
882.363	7165.62
882.605	7261.62
882.846	7217.62
883.088	7269.62
883.329	7212.62
883.571	7154.62
883.812	7199.62
884.053	7457.62
884.295	7616.62
884.536	7786.62
884.777	7603.62
885.018	7582.62
885.259	7521.62
885.5	7448.62
885.742	7703.62
885.982	7447.62
886.223	7341.62
886.464	7293.62
886.705	7184.62
886.946	7160.62
887.187	6963.62
887.428	6984.62
887.668	6767.62
887.909	6676.62
888.15	6610.62
888.39	6627.62
888.631	6678.62
888.871	6571.62
889.111	6492.62
889.352	6430.62
889.592	6423.62
889.833	6326.62
890.073	6337.62
890.313	6325.62
890.553	6184.62
890.793	6165.62
891.033	6156.62
891.273	6163.62
891.513	6137.62
891.753	6173.62
891.993	6086.62
892.233	6130.62
892.473	6204.62
892.713	6188.62
892.952	6108.62
893.192	6134.62
893.432	6113.62
893.671	6126.62
893.911	6052.62
894.15	6072.62
894.39	5921.62
894.629	6019.62
894.869	5977.62
895.108	5943.62
895.347	5906.62
895.587	5901.62
895.826	5868.62
896.065	5845.62
896.304	5921.62
896.543	5929.62
896.782	5832.62
897.021	5809.62
897.26	5822.62
897.499	5929.62
897.738	5875.62
897.977	5814.62
898.216	5769.62
898.454	5711.62
898.693	5690.62
898.932	5702.62
899.17	5688.62
899.409	5610.62
899.647	5656.62
899.886	5625.62
900.124	5692.62
900.363	5660.62
900.601	5675.62
900.839	5736.62
901.078	5751.62
901.316	5701.62
901.554	5862.62
901.792	5824.62
902.03	5775.62
902.268	5781.62
902.506	5764.62
902.744	5716.62
902.982	5679.62
903.22	5553.62
903.458	5488.62
903.695	5406.62
903.933	5367.62
904.171	5220.62
904.409	5142.62
904.646	5131.62
904.884	5037.62
905.121	5032.62
905.359	4958.62
905.596	4880.62
905.833	4798.62
906.071	4752.62
906.308	4825.62
906.545	4778.62
906.783	4687.62
907.02	4751.62
907.257	4645.62
907.494	4662.62
907.731	4680.62
907.968	4649.62
908.205	4621.62
908.442	4583.62
908.679	4553.62
908.915	4567.62
909.152	4483.62
909.389	4356.62
909.626	4440.62
909.862	4403.62
910.099	4405.62
910.335	4413.62
910.572	4301.62
910.808	4352.62
911.045	4270.62
911.281	4295.62
911.518	4323.62
911.754	4252.62
911.99	4203.62
912.226	4194.62
912.463	4133.62
912.699	4101.62
912.935	4119.62
913.171	4091.62
913.407	4014.62
913.643	4087.62
913.879	3990.62
914.114	3965.62
914.35	3891.62
914.586	3913.62
914.822	3855.62
915.057	3922.62
915.293	3750.62
915.529	3773.62
915.764	3833.62
916	3788.62
916.235	3804.62
916.471	3780.62
916.706	3697.62
916.941	3749.62
917.177	3735.62
917.412	3782.62
917.647	3762.62
917.882	3717.62
918.117	3723.62
918.352	3675.62
918.588	3767.62
918.823	3632.62
919.057	3613.62
919.292	3539.62
919.527	3615.62
919.762	3537.62
919.997	3536.62
920.232	3489.62
920.466	3465.62
920.701	3325.62
920.935	3397.62
921.17	3320.62
921.405	3329.62
921.639	3365.62
921.873	3323.62
922.108	3381.62
922.342	3361.62
922.576	3236.62
922.811	3297.62
923.045	3302.62
923.279	3322.62
923.513	3161.62
923.747	3295.62
923.981	3241.62
924.215	3192.62
924.449	3169.62
924.683	3141.62
924.917	3107.62
925.151	3157.62
925.385	3196.62
925.618	3149.62
925.852	3153.62
926.086	3081.62
926.319	3126.62
926.553	3078.62
926.786	3109.62
927.02	3068.62
927.253	3104.62
927.486	3098.62
927.72	3053.62
927.953	3057.62
928.186	3064.62
928.42	3090.62
928.653	3007.62
928.886	3038.62
929.119	3027.62
929.352	2993.62
929.585	2955.62
929.818	2932.62
930.051	2973.62
930.284	2977.62
930.516	2847.62
930.749	2847.62
930.982	2887.62
931.215	2879.62
931.447	2827.62
931.68	2811.62
931.912	2818.62
932.145	2795.62
932.377	2852.62
932.61	2954.62
932.842	2762.62
933.074	2870.62
933.307	2773.62
933.539	2895.62
933.771	2865.62
934.003	2782.62
934.236	2852.62
934.468	2909.62
934.7	2801.62
934.932	2824.62
935.164	2768.62
935.395	2770.62
935.627	2796.62
935.859	2753.62
936.091	2752.62
936.323	2743.62
936.554	2817.62
936.786	2676.62
937.017	2711.62
937.249	2694.62
937.481	2633.62
937.712	2717.62
937.943	2694.62
938.175	2666.62
938.406	2672.62
938.637	2730.62
938.869	2640.62
939.1	2672.62
939.331	2650.62
939.562	2694.62
939.793	2627.62
940.024	2675.62
940.255	2683.62
940.486	2631.62
940.717	2595.62
940.948	2598.62
941.179	2558.62
941.409	2570.62
941.64	2572.62
941.871	2553.62
942.102	2550.62
942.332	2542.62
942.563	2618.62
942.793	2591.62
943.024	2497.62
943.254	2551.62
943.484	2615.62
943.715	2602.62
943.945	2579.62
944.175	2495.62
944.405	2470.62
944.636	2496.62
944.866	2525.62
945.096	2541.62
945.326	2442.62
945.556	2499.62
945.786	2530.62
946.016	2489.62
946.245	2421.62
946.475	2440.62
946.705	2464.62
946.935	2411.62
947.164	2395.62
947.394	2355.62
947.624	2364.62
947.853	2422.62
948.083	2403.62
948.312	2372.62
948.542	2304.62
948.771	2306.62
949	2310.62
949.23	2313.62
949.459	2310.62
949.688	2390.62
949.917	2296.62
950.146	2305.62
950.375	2384.62
950.604	2260.62
950.833	2357.62
951.062	2341.62
951.291	2330.62
951.52	2263.62
951.749	2289.62
951.978	2241.62
952.206	2249.62
952.435	2258.62
952.664	2292.62
952.892	2277.62
953.121	2262.62
953.349	2292.62
953.578	2263.62
953.806	2205.62
954.035	2141.62
954.263	2204.62
954.491	2139.62
954.719	2197.62
954.948	2150.62
955.176	2160.62
955.404	2083.62
955.632	2166.62
955.86	2128.62
956.088	2141.62
956.316	2166.62
956.544	2192.62
956.772	2089.62
956.999	2092.62
957.227	2175.62
957.455	2068.62
957.683	2074.62
957.91	2055.62
958.138	2018.62
958.365	2041.62
958.593	2014.62
958.82	1971.62
959.048	2036.62
959.275	2011.62
959.502	1999.62
959.73	1967.62
959.957	2034.62
960.184	1997.62
960.411	1989.62
960.638	2027.62
960.865	1974.62
961.092	2002.62
961.319	1901.62
961.546	1993.62
961.773	2007.62
962	1975.62
962.227	2025.62
962.454	1997.62
962.68	1950.62
962.907	1973.62
963.134	1928.62
963.36	1970.62
963.587	1966.62
963.813	1900.62
964.04	1948.62
964.266	1883.62
964.493	1950.62
964.719	1919.62
964.945	1905.62
965.171	1824.62
965.398	1878.62
965.624	1894.62
965.85	1831.62
966.076	1822.62
966.302	1860.62
966.528	1838.62
966.754	1850.62
966.98	1838.62
967.206	1848.62
967.431	1788.62
967.657	1845.62
967.883	1836.62
968.109	1822.62
968.334	1742.62
968.56	1751.62
968.785	1759.62
969.011	1736.62
969.236	1790.62
969.462	1750.62
969.687	1748.62
969.912	1797.62
970.138	1792.62
970.363	1727.62
970.588	1730.62
970.813	1731.62
971.038	1706.62
971.263	1736.62
971.488	1725.62
971.713	1788.62
971.938	1736.62
972.163	1666.62
972.388	1676.62
972.613	1669.62
972.838	1663.62
973.062	1658.62
973.287	1684.62
973.512	1599.62
973.736	1647.62
973.961	1642.62
974.185	1630.62
974.41	1659.62
974.634	1567.62
974.858	1572.62
975.083	1629.62
975.307	1622.62
975.531	1582.62
975.755	1531.62
975.98	1553.62
976.204	1509.62
976.428	1508.62
976.652	1533.62
976.876	1483.62
977.1	1529.62
977.324	1497.62
977.547	1550.62
977.771	1533.62
977.995	1515.62
978.219	1450.62
978.442	1562.62
978.666	1506.62
978.89	1494.62
979.113	1486.62
979.337	1483.62
979.56	1481.62
979.783	1534.62
980.007	1463.62
980.23	1476.62
980.453	1455.62
980.677	1496.62
980.9	1472.62
981.123	1389.62
981.346	1495.62
981.569	1470.62
981.792	1490.62
982.015	1458.62
982.238	1395.62
982.461	1434.62
982.684	1378.62
982.907	1381.62
983.129	1389.62
983.352	1440.62
983.575	1421.62
983.797	1396.62
984.02	1382.62
984.242	1372.62
984.465	1375.62
984.687	1399.62
984.91	1435.62
985.132	1398.62
985.354	1427.62
985.577	1380.62
985.799	1367.62
986.021	1317.62
986.243	1322.62
986.465	1355.62
986.687	1396.62
986.909	1449.62
987.131	1354.62
987.353	1344.62
987.575	1354.62
987.797	1331.62
988.019	1258.62
988.241	1312.62
988.462	1293.62
988.684	1345.62
988.906	1386.62
989.127	1391.62
989.349	1282.62
989.57	1311.62
989.792	1350.62
990.013	1351.62
990.234	1361.62
990.456	1395.62
990.677	1359.62
990.898	1312.62
991.119	1315.62
991.341	1349.62
991.562	1275.62
991.783	1340.62
992.004	1272.62
992.225	1232.62
992.446	1306.62
992.667	1217.62
992.887	1318.62
993.108	1176.62
993.329	1315.62
993.55	1270.62
993.77	1217.62
993.991	1229.62
994.212	1253.62
994.432	1279.62
994.653	1262.62
994.873	1234.62
995.093	1162.62
995.314	1195.62
995.534	1276.62
995.754	1285.62
995.975	1314.62
996.195	1189.62
996.415	1263.62
996.635	1225.62
996.855	1247.62
997.075	1201.62
997.295	1225.62
997.515	1196.62
997.735	1255.62
997.955	1238.62
998.174	1218.62
998.394	1204.62
998.614	1238.62
998.834	1192.62
999.053	1249.62
999.273	1263.62
999.492	1266.62
999.712	1248.62
999.931	1189.62
1000.151	1241.62
1000.37	1225.62
1000.589	1287.62
1000.809	1180.62
1001.028	1322.62
1001.247	1252.62
1001.466	1146.62
1001.685	1287.62
1001.904	1233.62
1002.123	1197.62
1002.342	1217.62
1002.561	1176.62
1002.78	1204.62
1002.999	1270.62
1003.218	1235.62
1003.436	1170.62
1003.655	1224.62
1003.874	1190.62
1004.092	1219.62
1004.311	1269.62
1004.53	1201.62
1004.748	1251.62
1004.966	1212.62
1005.185	1252.62
1005.403	1245.62
1005.622	1226.62
1005.84	1293.62
1006.058	1195.62
1006.276	1204.62
1006.494	1716.62
1006.712	1215.62
1006.931	1278.62
1007.149	1180.62
1007.367	1209.62
1007.584	1249.62
1007.802	1276.62
1008.02	1208.62
1008.238	1300.62
1008.456	1307.62
1008.673	1200.62
1008.891	1313.62
1009.109	1252.62
1009.326	1308.62
1009.544	1376.62
1009.761	1299.62
1009.979	1385.62
1010.196	1411.62
1010.413	1449.62
1010.631	1525.62
1010.848	1559.62
1011.065	1549.62
1011.282	1495.62
1011.5	1458.62
1011.717	1562.62
1011.934	1483.62
1012.151	1554.62
1012.368	1493.62
1012.585	1455.62
1012.801	1516.62
1013.018	1481.62
1013.235	1426.62
1013.452	1452.62
1013.669	1446.62
1013.885	1478.62
1014.102	1498.62
1014.318	1462.62
1014.535	1454.62
1014.751	1441.62
1014.968	1447.62
1015.184	1489.62
1015.401	1401.62
1015.617	1448.62
1015.833	1358.62
1016.049	1385.62
1016.266	1359.62
1016.482	1381.62
1016.698	1304.62
1016.914	1339.62
1017.13	1291.62
1017.346	1298.62
1017.562	1376.62
1017.778	1278.62
1017.993	1256.62
1018.209	1295.62
1018.425	1298.62
1018.641	1247.62
1018.856	1241.62
1019.072	1281.62
1019.288	1320.62
1019.503	1246.62
1019.719	1166.62
1019.934	1219.62
1020.149	1285.62
1020.365	1226.62
1020.58	1170.62
1020.795	1205.62
1021.011	1171.62
1021.226	1170.62
1021.441	1195.62
1021.656	1101.62
1021.871	1039.62
1022.086	1033.62
1022.301	1031.62
1022.516	1032.62
1022.731	1096.62
1022.946	1012.62
1023.16	978.62
1023.375	981.62
1023.59	963.62
1023.804	893.62
1024.019	1015.62
1024.234	890.62
1024.448	917.62
1024.663	876.62
1024.877	885.62
1025.092	891.62
1025.306	896.62
1025.52	815.62
1025.734	901.62
1025.949	815.62
1026.163	798.62
1026.377	737.62
1026.591	799.62
1026.805	716.62
1027.019	736.62
1027.233	690.62
1027.447	643.62
1027.661	746.62
1027.875	683.62
1028.088	703.62
1028.302	625.62
1028.516	636.62
1028.73	626.62
1028.943	629.62
1029.157	576.62
1029.37	544.62
1029.584	-4.38
1029.797	-4.38
1030.011	-4.38
1030.224	-1.38
