Data from QEP037381__58__11-30-35-594.txt Node

Date: Wed Dec 21 11:30:35 EST 2022
User: dcclab
Spectrometer: QEP03738
Trigger mode: 4
Integration Time (sec): 1.000000E1
Scans to average: 1
Electric dark correction enabled: true
Nonlinearity correction enabled: false
Boxcar width: 0
XAxis mode: Wavelengths
Number of Pixels in Spectrum: 1044
>>>>>Begin Spectral Data<<<<<
784.041	15.38
784.3	1.38
784.558	-4.62
784.817	-6.62
785.075	42955.38
785.334	8718.38
785.592	4595.38
785.851	3243.38
786.109	2482.38
786.368	1960.38
786.626	1586.38
786.884	1369.38
787.143	1166.38
787.401	963.38
787.659	913.38
787.917	781.38
788.175	743.38
788.433	650.38
788.691	599.38
788.949	565.38
789.207	577.38
789.465	494.38
789.723	478.38
789.98	437.38
790.238	493.38
790.496	468.38
790.753	448.38
791.011	494.38
791.268	441.38
791.526	433.38
791.783	449.38
792.041	439.38
792.298	366.38
792.556	430.38
792.813	407.38
793.07	385.38
793.327	380.38
793.584	461.38
793.841	393.38
794.099	410.38
794.356	454.38
794.613	363.38
794.869	399.38
795.126	360.38
795.383	342.38
795.64	381.38
795.897	332.38
796.153	397.38
796.41	379.38
796.667	365.38
796.923	367.38
797.18	367.38
797.436	392.38
797.693	351.38
797.949	392.38
798.206	421.38
798.462	337.38
798.718	386.38
798.974	370.38
799.231	411.38
799.487	404.38
799.743	402.38
799.999	411.38
800.255	414.38
800.511	386.38
800.767	421.38
801.023	419.38
801.279	423.38
801.534	424.38
801.79	481.38
802.046	471.38
802.302	562.38
802.557	594.38
802.813	706.38
803.068	778.38
803.324	1047.38
803.579	1325.38
803.835	1747.38
804.09	2353.38
804.345	2992.38
804.601	3670.38
804.856	4438.38
805.111	5130.38
805.366	5532.38
805.621	5880.38
805.876	6119.38
806.131	6290.38
806.386	6426.38
806.641	6442.38
806.896	6597.38
807.151	6722.38
807.406	6794.38
807.661	6872.38
807.915	7082.38
808.17	7185.38
808.425	7230.38
808.679	7267.38
808.934	7407.38
809.188	7400.38
809.443	7569.38
809.697	7547.38
809.951	7552.38
810.206	7700.38
810.46	7763.38
810.714	7826.38
810.968	7934.38
811.223	7928.38
811.477	8013.38
811.731	8140.38
811.985	7997.38
812.239	8008.38
812.493	8140.38
812.747	8166.38
813	8169.38
813.254	8246.38
813.508	8285.38
813.762	8297.38
814.015	8311.38
814.269	8363.38
814.522	8457.38
814.776	8567.38
815.03	8692.38
815.283	8736.38
815.536	8900.38
815.79	8995.38
816.043	9091.38
816.296	9213.38
816.55	9343.38
816.803	9447.38
817.056	9593.38
817.309	9677.38
817.562	9719.38
817.815	9879.38
818.068	9875.38
818.321	9947.38
818.574	10093.38
818.827	10230.38
819.079	10329.38
819.332	10601.38
819.585	10620.38
819.838	10734.38
820.09	10659.38
820.343	10827.38
820.595	10756.38
820.848	11014.38
821.1	10963.38
821.353	10912.38
821.605	10910.38
821.857	10959.38
822.11	10844.38
822.362	10815.38
822.614	10728.38
822.866	10854.38
823.118	10749.38
823.37	10878.38
823.622	10845.38
823.874	10888.38
824.126	10945.38
824.378	10901.38
824.63	10912.38
824.882	10981.38
825.134	10916.38
825.385	10895.38
825.637	10898.38
825.888	10858.38
826.14	10857.38
826.392	10765.38
826.643	10722.38
826.895	10733.38
827.146	10640.38
827.397	10638.38
827.649	10640.38
827.9	10496.38
828.151	10577.38
828.402	10601.38
828.653	10656.38
828.905	10672.38
829.156	10730.38
829.407	10690.38
829.658	10678.38
829.909	10829.38
830.159	10754.38
830.41	10701.38
830.661	10610.38
830.912	10525.38
831.162	10469.38
831.413	10482.38
831.664	10498.38
831.914	10492.38
832.165	10423.38
832.415	10451.38
832.666	10453.38
832.916	10479.38
833.167	10433.38
833.417	10466.38
833.667	10370.38
833.917	10368.38
834.168	10360.38
834.418	10302.38
834.668	10298.38
834.918	10148.38
835.168	10123.38
835.418	10126.38
835.668	10115.38
835.918	10095.38
836.167	10035.38
836.417	9948.38
836.667	10043.38
836.917	10016.38
837.166	9997.38
837.416	9964.38
837.666	10050.38
837.915	9960.38
838.165	9977.38
838.414	9886.38
838.663	9829.38
838.913	9955.38
839.162	9871.38
839.411	9983.38
839.661	9889.38
839.91	9901.38
840.159	9761.38
840.408	9899.38
840.657	9811.38
840.906	9846.38
841.155	9829.38
841.404	9819.38
841.653	9931.38
841.902	9849.38
842.15	9886.38
842.399	9950.38
842.648	9878.38
842.897	9870.38
843.145	9744.38
843.394	9691.38
843.642	9556.38
843.891	9551.38
844.139	9523.38
844.388	9422.38
844.636	9314.38
844.884	9410.38
845.133	9314.38
845.381	9356.38
845.629	9371.38
845.877	9345.38
846.125	9272.38
846.373	9336.38
846.621	9261.38
846.869	9196.38
847.117	9218.38
847.365	9121.38
847.613	9092.38
847.861	9113.38
848.108	9160.38
848.356	9079.38
848.604	9019.38
848.851	9120.38
849.099	8987.38
849.346	9077.38
849.594	9167.38
849.841	9266.38
850.089	9324.38
850.336	9401.38
850.583	9464.38
850.831	9429.38
851.078	9347.38
851.325	9237.38
851.572	9212.38
851.819	9079.38
852.066	8858.38
852.313	8696.38
852.56	8677.38
852.807	8616.38
853.054	8630.38
853.301	8640.38
853.548	8627.38
853.794	8734.38
854.041	8734.38
854.288	8705.38
854.534	8879.38
854.781	8822.38
855.028	8787.38
855.274	8896.38
855.52	8797.38
855.767	8840.38
856.013	8825.38
856.26	9035.38
856.506	8684.38
856.752	8717.38
856.998	8642.38
857.244	8657.38
857.49	8712.38
857.736	8801.38
857.982	8745.38
858.228	8709.38
858.474	8557.38
858.72	8559.38
858.966	8446.38
859.212	8355.38
859.458	8250.38
859.703	8174.38
859.949	8071.38
860.195	8137.38
860.44	8082.38
860.686	8022.38
860.931	8113.38
861.177	7980.38
861.422	7929.38
861.667	7811.38
861.913	7842.38
862.158	7883.38
862.403	7868.38
862.648	7878.38
862.893	7870.38
863.138	7824.38
863.384	7782.38
863.629	7860.38
863.873	7747.38
864.118	7832.38
864.363	7750.38
864.608	7724.38
864.853	7751.38
865.098	7684.38
865.342	7689.38
865.587	7600.38
865.832	7599.38
866.076	7653.38
866.321	7577.38
866.565	7558.38
866.81	7472.38
867.054	7475.38
867.298	7468.38
867.543	7420.38
867.787	7502.38
868.031	7508.38
868.275	7393.38
868.519	7421.38
868.764	7428.38
869.008	7458.38
869.252	7511.38
869.496	7440.38
869.739	7396.38
869.983	7484.38
870.227	7449.38
870.471	7398.38
870.715	7495.38
870.958	7499.38
871.202	7479.38
871.446	7491.38
871.689	7529.38
871.933	7467.38
872.176	7509.38
872.42	7480.38
872.663	7552.38
872.906	7553.38
873.15	7509.38
873.393	7487.38
873.636	7557.38
873.879	7450.38
874.122	7381.38
874.366	7219.38
874.609	7151.38
874.852	7072.38
875.095	7040.38
875.337	7013.38
875.58	6891.38
875.823	6937.38
876.066	6915.38
876.309	6895.38
876.551	6786.38
876.794	6738.38
877.037	6819.38
877.279	6655.38
877.522	6745.38
877.764	6761.38
878.007	6703.38
878.249	6732.38
878.491	6686.38
878.734	6727.38
878.976	6706.38
879.218	6601.38
879.46	6584.38
879.702	6602.38
879.945	6507.38
880.187	6378.38
880.429	6433.38
880.671	6383.38
880.912	6364.38
881.154	6274.38
881.396	6196.38
881.638	6318.38
881.88	6328.38
882.121	6289.38
882.363	6322.38
882.605	6330.38
882.846	6309.38
883.088	6340.38
883.329	6309.38
883.571	6365.38
883.812	6460.38
884.053	6680.38
884.295	6900.38
884.536	7065.38
884.777	6891.38
885.018	6850.38
885.259	6771.38
885.5	6672.38
885.742	6906.38
885.982	6678.38
886.223	6610.38
886.464	6498.38
886.705	6431.38
886.946	6330.38
887.187	6176.38
887.428	6141.38
887.668	6041.38
887.909	5916.38
888.15	5822.38
888.39	5870.38
888.631	5828.38
888.871	5722.38
889.111	5704.38
889.352	5629.38
889.592	5572.38
889.833	5505.38
890.073	5553.38
890.313	5525.38
890.553	5431.38
890.793	5428.38
891.033	5341.38
891.273	5331.38
891.513	5358.38
891.753	5413.38
891.993	5380.38
892.233	5337.38
892.473	5406.38
892.713	5383.38
892.952	5328.38
893.192	5356.38
893.432	5346.38
893.671	5353.38
893.911	5320.38
894.15	5300.38
894.39	5243.38
894.629	5271.38
894.869	5272.38
895.108	5207.38
895.347	5188.38
895.587	5201.38
895.826	5144.38
896.065	5168.38
896.304	5170.38
896.543	5224.38
896.782	5049.38
897.021	5101.38
897.26	5156.38
897.499	5217.38
897.738	5163.38
897.977	5125.38
898.216	5087.38
898.454	5034.38
898.693	5051.38
898.932	5079.38
899.17	4985.38
899.409	5006.38
899.647	4961.38
899.886	4979.38
900.124	5033.38
900.363	4988.38
900.601	5044.38
900.839	5024.38
901.078	5099.38
901.316	5159.38
901.554	5158.38
901.792	5207.38
902.03	5154.38
902.268	5094.38
902.506	5194.38
902.744	5030.38
902.982	5058.38
903.22	4948.38
903.458	4886.38
903.695	4806.38
903.933	4737.38
904.171	4577.38
904.409	4543.38
904.646	4525.38
904.884	4391.38
905.121	4422.38
905.359	4339.38
905.596	4270.38
905.833	4224.38
906.071	4165.38
906.308	4226.38
906.545	4216.38
906.783	4113.38
907.02	4175.38
907.257	4057.38
907.494	4129.38
907.731	4140.38
907.968	4114.38
908.205	4006.38
908.442	4019.38
908.679	4009.38
908.915	3952.38
909.152	3945.38
909.389	3858.38
909.626	3885.38
909.862	3808.38
910.099	3848.38
910.335	3832.38
910.572	3768.38
910.808	3815.38
911.045	3768.38
911.281	3706.38
911.518	3755.38
911.754	3738.38
911.99	3740.38
912.226	3681.38
912.463	3609.38
912.699	3624.38
912.935	3609.38
913.171	3601.38
913.407	3506.38
913.643	3532.38
913.879	3536.38
914.114	3458.38
914.35	3461.38
914.586	3437.38
914.822	3381.38
915.057	3427.38
915.293	3322.38
915.529	3293.38
915.764	3355.38
916	3327.38
916.235	3270.38
916.471	3375.38
916.706	3267.38
916.941	3264.38
917.177	3278.38
917.412	3308.38
917.647	3303.38
917.882	3204.38
918.117	3315.38
918.352	3269.38
918.588	3327.38
918.823	3209.38
919.057	3163.38
919.292	3072.38
919.527	3187.38
919.762	3105.38
919.997	3114.38
920.232	3047.38
920.466	3076.38
920.701	2965.38
920.935	2998.38
921.17	2983.38
921.405	2928.38
921.639	2988.38
921.873	2891.38
922.108	2949.38
922.342	3003.38
922.576	2873.38
922.811	2874.38
923.045	2910.38
923.279	2962.38
923.513	2748.38
923.747	2904.38
923.981	2826.38
924.215	2797.38
924.449	2805.38
924.683	2750.38
924.917	2761.38
925.151	2741.38
925.385	2827.38
925.618	2757.38
925.852	2761.38
926.086	2702.38
926.319	2707.38
926.553	2765.38
926.786	2740.38
927.02	2733.38
927.253	2776.38
927.486	2734.38
927.72	2663.38
927.953	2734.38
928.186	2708.38
928.42	2740.38
928.653	2647.38
928.886	2638.38
929.119	2661.38
929.352	2664.38
929.585	2652.38
929.818	2572.38
930.051	2625.38
930.284	2612.38
930.516	2514.38
930.749	2525.38
930.982	2606.38
931.215	2553.38
931.447	2480.38
931.68	2519.38
931.912	2472.38
932.145	2487.38
932.377	2512.38
932.61	2626.38
932.842	2444.38
933.074	2506.38
933.307	2440.38
933.539	2566.38
933.771	2549.38
934.003	2472.38
934.236	2547.38
934.468	2543.38
934.7	2471.38
934.932	2526.38
935.164	2392.38
935.395	2415.38
935.627	2432.38
935.859	2419.38
936.091	2424.38
936.323	2488.38
936.554	2511.38
936.786	2390.38
937.017	2391.38
937.249	2454.38
937.481	2336.38
937.712	2433.38
937.943	2390.38
938.175	2355.38
938.406	2382.38
938.637	2481.38
938.869	2339.38
939.1	2389.38
939.331	2354.38
939.562	2346.38
939.793	2342.38
940.024	2391.38
940.255	2372.38
940.486	2302.38
940.717	2329.38
940.948	2312.38
941.179	2256.38
941.409	2280.38
941.64	2292.38
941.871	2291.38
942.102	2270.38
942.332	2283.38
942.563	2315.38
942.793	2321.38
943.024	2223.38
943.254	2262.38
943.484	2284.38
943.715	2295.38
943.945	2272.38
944.175	2198.38
944.405	2234.38
944.636	2187.38
944.866	2251.38
945.096	2236.38
945.326	2198.38
945.556	2241.38
945.786	2255.38
946.016	2221.38
946.245	2162.38
946.475	2168.38
946.705	2134.38
946.935	2197.38
947.164	2157.38
947.394	2132.38
947.624	2128.38
947.853	2130.38
948.083	2117.38
948.312	2096.38
948.542	2052.38
948.771	2065.38
949	2053.38
949.23	2079.38
949.459	2046.38
949.688	2121.38
949.917	2082.38
950.146	2072.38
950.375	2138.38
950.604	2022.38
950.833	2088.38
951.062	2097.38
951.291	2070.38
951.52	2028.38
951.749	2016.38
951.978	1990.38
952.206	2019.38
952.435	1998.38
952.664	2054.38
952.892	2059.38
953.121	2029.38
953.349	2044.38
953.578	2021.38
953.806	1969.38
954.035	1957.38
954.263	1978.38
954.491	1900.38
954.719	1970.38
954.948	1937.38
955.176	1885.38
955.404	1881.38
955.632	1914.38
955.86	1909.38
956.088	1907.38
956.316	1944.38
956.544	1919.38
956.772	1872.38
956.999	1853.38
957.227	1924.38
957.455	1858.38
957.683	1852.38
957.91	1818.38
958.138	1799.38
958.365	1809.38
958.593	1845.38
958.82	1773.38
959.048	1844.38
959.275	1797.38
959.502	1805.38
959.73	1776.38
959.957	1821.38
960.184	1817.38
960.411	1780.38
960.638	1830.38
960.865	1770.38
961.092	1809.38
961.319	1704.38
961.546	1815.38
961.773	1813.38
962	1785.38
962.227	1811.38
962.454	1797.38
962.68	1748.38
962.907	1791.38
963.134	1724.38
963.36	1723.38
963.587	1782.38
963.813	1680.38
964.04	1750.38
964.266	1677.38
964.493	1753.38
964.719	1751.38
964.945	1735.38
965.171	1615.38
965.398	1689.38
965.624	1704.38
965.85	1656.38
966.076	1645.38
966.302	1704.38
966.528	1671.38
966.754	1658.38
966.98	1665.38
967.206	1632.38
967.431	1585.38
967.657	1674.38
967.883	1682.38
968.109	1652.38
968.334	1623.38
968.56	1597.38
968.785	1620.38
969.011	1574.38
969.236	1602.38
969.462	1570.38
969.687	1597.38
969.912	1627.38
970.138	1629.38
970.363	1571.38
970.588	1591.38
970.813	1568.38
971.038	1552.38
971.263	1572.38
971.488	1574.38
971.713	1594.38
971.938	1596.38
972.163	1516.38
972.388	1512.38
972.613	1524.38
972.838	1541.38
973.062	1524.38
973.287	1528.38
973.512	1450.38
973.736	1516.38
973.961	1489.38
974.185	1487.38
974.41	1511.38
974.634	1441.38
974.858	1431.38
975.083	1486.38
975.307	1497.38
975.531	1454.38
975.755	1388.38
975.98	1404.38
976.204	1388.38
976.428	1360.38
976.652	1376.38
976.876	1368.38
977.1	1404.38
977.324	1360.38
977.547	1416.38
977.771	1417.38
977.995	1384.38
978.219	1327.38
978.442	1456.38
978.666	1381.38
978.89	1373.38
979.113	1342.38
979.337	1382.38
979.56	1331.38
979.783	1428.38
980.007	1299.38
980.23	1361.38
980.453	1317.38
980.677	1350.38
980.9	1348.38
981.123	1258.38
981.346	1323.38
981.569	1343.38
981.792	1395.38
982.015	1292.38
982.238	1281.38
982.461	1316.38
982.684	1272.38
982.907	1276.38
983.129	1268.38
983.352	1322.38
983.575	1292.38
983.797	1309.38
984.02	1227.38
984.242	1261.38
984.465	1271.38
984.687	1278.38
984.91	1316.38
985.132	1282.38
985.354	1306.38
985.577	1286.38
985.799	1285.38
986.021	1194.38
986.243	1227.38
986.465	1261.38
986.687	1269.38
986.909	1312.38
987.131	1244.38
987.353	1226.38
987.575	1263.38
987.797	1226.38
988.019	1182.38
988.241	1240.38
988.462	1186.38
988.684	1243.38
988.906	1286.38
989.127	1295.38
989.349	1163.38
989.57	1213.38
989.792	1239.38
990.013	1274.38
990.234	1259.38
990.456	1294.38
990.677	1297.38
990.898	1215.38
991.119	1239.38
991.341	1242.38
991.562	1191.38
991.783	1240.38
992.004	1180.38
992.225	1149.38
992.446	1211.38
992.667	1092.38
992.887	1233.38
993.108	1120.38
993.329	1231.38
993.55	1173.38
993.77	1145.38
993.991	1133.38
994.212	1174.38
994.432	1171.38
994.653	1189.38
994.873	1154.38
995.093	1065.38
995.314	1135.38
995.534	1204.38
995.754	1219.38
995.975	1221.38
996.195	1120.38
996.415	1191.38
996.635	1144.38
996.855	1170.38
997.075	1156.38
997.295	1154.38
997.515	1115.38
997.735	1183.38
997.955	1151.38
998.174	1142.38
998.394	1125.38
998.614	1178.38
998.834	1117.38
999.053	1194.38
999.273	1171.38
999.492	1218.38
999.712	1139.38
999.931	1129.38
1000.151	1151.38
1000.37	1149.38
1000.589	1206.38
1000.809	1146.38
1001.028	1234.38
1001.247	1176.38
1001.466	1059.38
1001.685	1218.38
1001.904	1155.38
1002.123	1172.38
1002.342	1162.38
1002.561	1106.38
1002.78	1144.38
1002.999	1190.38
1003.218	1151.38
1003.436	1129.38
1003.655	1172.38
1003.874	1118.38
1004.092	1173.38
1004.311	1200.38
1004.53	1154.38
1004.748	1249.38
1004.966	1142.38
1005.185	1196.38
1005.403	1203.38
1005.622	1180.38
1005.84	1240.38
1006.058	1168.38
1006.276	1191.38
1006.494	1641.38
1006.712	1190.38
1006.931	1265.38
1007.149	1165.38
1007.367	1166.38
1007.584	1202.38
1007.802	1234.38
1008.02	1175.38
1008.238	1291.38
1008.456	1282.38
1008.673	1122.38
1008.891	1255.38
1009.109	1173.38
1009.326	1276.38
1009.544	1346.38
1009.761	1282.38
1009.979	1362.38
1010.196	1395.38
1010.413	1509.38
1010.631	1545.38
1010.848	1559.38
1011.065	1558.38
1011.282	1518.38
1011.5	1437.38
1011.717	1530.38
1011.934	1505.38
1012.151	1539.38
1012.368	1519.38
1012.585	1449.38
1012.801	1519.38
1013.018	1490.38
1013.235	1462.38
1013.452	1506.38
1013.669	1505.38
1013.885	1494.38
1014.102	1529.38
1014.318	1514.38
1014.535	1437.38
1014.751	1474.38
1014.968	1475.38
1015.184	1483.38
1015.401	1407.38
1015.617	1452.38
1015.833	1379.38
1016.049	1393.38
1016.266	1386.38
1016.482	1384.38
1016.698	1339.38
1016.914	1375.38
1017.13	1302.38
1017.346	1298.38
1017.562	1359.38
1017.778	1303.38
1017.993	1263.38
1018.209	1305.38
1018.425	1298.38
1018.641	1276.38
1018.856	1228.38
1019.072	1263.38
1019.288	1318.38
1019.503	1258.38
1019.719	1192.38
1019.934	1202.38
1020.149	1300.38
1020.365	1228.38
1020.58	1180.38
1020.795	1212.38
1021.011	1158.38
1021.226	1150.38
1021.441	1163.38
1021.656	1099.38
1021.871	1051.38
1022.086	1034.38
1022.301	1039.38
1022.516	1032.38
1022.731	1072.38
1022.946	989.38
1023.16	1005.38
1023.375	954.38
1023.59	931.38
1023.804	914.38
1024.019	1004.38
1024.234	874.38
1024.448	921.38
1024.663	854.38
1024.877	858.38
1025.092	889.38
1025.306	890.38
1025.52	776.38
1025.734	880.38
1025.949	793.38
1026.163	759.38
1026.377	710.38
1026.591	777.38
1026.805	712.38
1027.019	720.38
1027.233	680.38
1027.447	634.38
1027.661	738.38
1027.875	670.38
1028.088	677.38
1028.302	609.38
1028.516	619.38
1028.73	610.38
1028.943	604.38
1029.157	570.38
1029.37	528.38
1029.584	-0.62
1029.797	-0.62
1030.011	-0.62
1030.224	-3.62
