Data from QEP037381__90__11-35-55-597.txt Node

Date: Wed Dec 21 11:35:55 EST 2022
User: dcclab
Spectrometer: QEP03738
Trigger mode: 4
Integration Time (sec): 1.000000E1
Scans to average: 1
Electric dark correction enabled: true
Nonlinearity correction enabled: false
Boxcar width: 0
XAxis mode: Wavelengths
Number of Pixels in Spectrum: 1044
>>>>>Begin Spectral Data<<<<<
784.041	13.5
784.3	0.5
784.558	-2.5
784.817	-5.5
785.075	39644.5
785.334	7907.5
785.592	4155.5
785.851	2940.5
786.109	2290.5
786.368	1817.5
786.626	1500.5
786.884	1312.5
787.143	1099.5
787.401	898.5
787.659	862.5
787.917	750.5
788.175	732.5
788.433	648.5
788.691	581.5
788.949	573.5
789.207	562.5
789.465	483.5
789.723	479.5
789.98	446.5
790.238	493.5
790.496	469.5
790.753	442.5
791.011	502.5
791.268	439.5
791.526	429.5
791.783	458.5
792.041	433.5
792.298	363.5
792.556	422.5
792.813	416.5
793.07	385.5
793.327	383.5
793.584	456.5
793.841	383.5
794.099	405.5
794.356	466.5
794.613	382.5
794.869	420.5
795.126	367.5
795.383	355.5
795.64	391.5
795.897	333.5
796.153	395.5
796.41	372.5
796.667	360.5
796.923	377.5
797.18	371.5
797.436	393.5
797.693	358.5
797.949	423.5
798.206	436.5
798.462	347.5
798.718	411.5
798.974	387.5
799.231	430.5
799.487	399.5
799.743	416.5
799.999	438.5
800.255	443.5
800.511	412.5
800.767	465.5
801.023	436.5
801.279	458.5
801.534	483.5
801.79	524.5
802.046	525.5
802.302	619.5
802.557	687.5
802.813	814.5
803.068	950.5
803.324	1284.5
803.579	1652.5
803.835	2257.5
804.09	3063.5
804.345	3940.5
804.601	4889.5
804.856	5995.5
805.111	6799.5
805.366	7481.5
805.621	7974.5
805.876	8314.5
806.131	8479.5
806.386	8583.5
806.641	8787.5
806.896	8934.5
807.151	9105.5
807.406	9307.5
807.661	9447.5
807.915	9566.5
808.17	9766.5
808.425	9910.5
808.679	9909.5
808.934	10089.5
809.188	10163.5
809.443	10297.5
809.697	10434.5
809.951	10560.5
810.206	10558.5
810.46	10702.5
810.714	10793.5
810.968	10955.5
811.223	10894.5
811.477	10958.5
811.731	11144.5
811.985	11100.5
812.239	11181.5
812.493	11315.5
812.747	11309.5
813	11276.5
813.254	11370.5
813.508	11480.5
813.762	11573.5
814.015	11544.5
814.269	11609.5
814.522	11841.5
814.776	11928.5
815.03	12101.5
815.283	12212.5
815.536	12416.5
815.79	12586.5
816.043	12805.5
816.296	12996.5
816.55	13114.5
816.803	13357.5
817.056	13522.5
817.309	13569.5
817.562	13743.5
817.815	13895.5
818.068	13940.5
818.321	14085.5
818.574	14310.5
818.827	14488.5
819.079	14698.5
819.332	14894.5
819.585	15003.5
819.838	15252.5
820.09	15390.5
820.343	15452.5
820.595	15450.5
820.848	15635.5
821.1	15749.5
821.353	15594.5
821.605	15595.5
821.857	15663.5
822.11	15573.5
822.362	15544.5
822.614	15548.5
822.866	15512.5
823.118	15498.5
823.37	15568.5
823.622	15643.5
823.874	15593.5
824.126	15762.5
824.378	15710.5
824.63	15667.5
824.882	15837.5
825.134	15735.5
825.385	15738.5
825.637	15678.5
825.888	15697.5
826.14	15666.5
826.392	15603.5
826.643	15523.5
826.895	15461.5
827.146	15379.5
827.397	15416.5
827.649	15402.5
827.9	15338.5
828.151	15320.5
828.402	15415.5
828.653	15463.5
828.905	15472.5
829.156	15619.5
829.407	15481.5
829.658	15531.5
829.909	15661.5
830.159	15574.5
830.41	15543.5
830.661	15255.5
830.912	15294.5
831.162	15225.5
831.413	15209.5
831.664	15268.5
831.914	15236.5
832.165	15093.5
832.415	15196.5
832.666	15195.5
832.916	15184.5
833.167	15059.5
833.417	15203.5
833.667	15084.5
833.917	15021.5
834.168	15161.5
834.418	15025.5
834.668	14885.5
834.918	14904.5
835.168	14796.5
835.418	14804.5
835.668	14687.5
835.918	14673.5
836.167	14700.5
836.417	14606.5
836.667	14663.5
836.917	14754.5
837.166	14573.5
837.416	14651.5
837.666	14721.5
837.915	14566.5
838.165	14532.5
838.414	14627.5
838.663	14420.5
838.913	14484.5
839.162	14429.5
839.411	14520.5
839.661	14402.5
839.91	14403.5
840.159	14342.5
840.408	14279.5
840.657	14463.5
840.906	14353.5
841.155	14369.5
841.404	14309.5
841.653	14383.5
841.902	14455.5
842.15	14452.5
842.399	14443.5
842.648	14469.5
842.897	14412.5
843.145	14251.5
843.394	14189.5
843.642	14088.5
843.891	14046.5
844.139	13928.5
844.388	13859.5
844.636	13718.5
844.884	13804.5
845.133	13759.5
845.381	13743.5
845.629	13771.5
845.877	13716.5
846.125	13771.5
846.373	13729.5
846.621	13569.5
846.869	13574.5
847.117	13610.5
847.365	13449.5
847.613	13484.5
847.861	13325.5
848.108	13398.5
848.356	13369.5
848.604	13328.5
848.851	13359.5
849.099	13413.5
849.346	13418.5
849.594	13609.5
849.841	13554.5
850.089	13628.5
850.336	13797.5
850.583	13806.5
850.831	13681.5
851.078	13645.5
851.325	13514.5
851.572	13599.5
851.819	13274.5
852.066	13195.5
852.313	12930.5
852.56	12729.5
852.807	12731.5
853.054	12677.5
853.301	12705.5
853.548	12757.5
853.794	12790.5
854.041	12867.5
854.288	12883.5
854.534	13069.5
854.781	12963.5
855.028	12836.5
855.274	12958.5
855.52	12910.5
855.767	12865.5
856.013	12930.5
856.26	13189.5
856.506	12624.5
856.752	12731.5
856.998	12706.5
857.244	12726.5
857.49	12847.5
857.736	12838.5
857.982	12804.5
858.228	12773.5
858.474	12599.5
858.72	12648.5
858.966	12443.5
859.212	12294.5
859.458	12224.5
859.703	12118.5
859.949	12019.5
860.195	12018.5
860.44	11839.5
860.686	11804.5
860.931	11879.5
861.177	11730.5
861.422	11745.5
861.667	11671.5
861.913	11712.5
862.158	11666.5
862.403	11718.5
862.648	11722.5
862.893	11748.5
863.138	11702.5
863.384	11714.5
863.629	11758.5
863.873	11736.5
864.118	11593.5
864.363	11613.5
864.608	11520.5
864.853	11530.5
865.098	11433.5
865.342	11386.5
865.587	11300.5
865.832	11390.5
866.076	11353.5
866.321	11312.5
866.565	11257.5
866.81	11146.5
867.054	11148.5
867.298	11132.5
867.543	11060.5
867.787	11083.5
868.031	11075.5
868.275	11125.5
868.519	11002.5
868.764	11080.5
869.008	10951.5
869.252	11061.5
869.496	10952.5
869.739	10906.5
869.983	11046.5
870.227	10989.5
870.471	10909.5
870.715	10973.5
870.958	11005.5
871.202	11043.5
871.446	11007.5
871.689	11054.5
871.933	11043.5
872.176	11066.5
872.42	10986.5
872.663	11008.5
872.906	11035.5
873.15	10953.5
873.393	10974.5
873.636	11016.5
873.879	10826.5
874.122	10709.5
874.366	10458.5
874.609	10458.5
874.852	10448.5
875.095	10377.5
875.337	10231.5
875.58	10149.5
875.823	10131.5
876.066	10144.5
876.309	10126.5
876.551	10004.5
876.794	9987.5
877.037	10027.5
877.279	9924.5
877.522	9968.5
877.764	10039.5
878.007	9910.5
878.249	9950.5
878.491	9938.5
878.734	9975.5
878.976	9943.5
879.218	9772.5
879.46	9750.5
879.702	9665.5
879.945	9693.5
880.187	9556.5
880.429	9505.5
880.671	9468.5
880.912	9467.5
881.154	9468.5
881.396	9332.5
881.638	9342.5
881.88	9369.5
882.121	9328.5
882.363	9263.5
882.605	9340.5
882.846	9301.5
883.088	9304.5
883.329	9272.5
883.571	9285.5
883.812	9452.5
884.053	9628.5
884.295	9741.5
884.536	9951.5
884.777	9757.5
885.018	9683.5
885.259	9708.5
885.5	9577.5
885.742	9820.5
885.982	9608.5
886.223	9458.5
886.464	9413.5
886.705	9326.5
886.946	9251.5
887.187	9037.5
887.428	9011.5
887.668	8887.5
887.909	8673.5
888.15	8583.5
888.39	8650.5
888.631	8618.5
888.871	8506.5
889.111	8470.5
889.352	8419.5
889.592	8335.5
889.833	8235.5
890.073	8221.5
890.313	8208.5
890.553	8047.5
890.793	8021.5
891.033	7999.5
891.273	8003.5
891.513	7922.5
891.753	7981.5
891.993	7898.5
892.233	7940.5
892.473	7993.5
892.713	7958.5
892.952	7915.5
893.192	7915.5
893.432	7915.5
893.671	7891.5
893.911	7875.5
894.15	7832.5
894.39	7738.5
894.629	7758.5
894.869	7738.5
895.108	7687.5
895.347	7626.5
895.587	7618.5
895.826	7578.5
896.065	7570.5
896.304	7609.5
896.543	7632.5
896.782	7485.5
897.021	7551.5
897.26	7480.5
897.499	7553.5
897.738	7501.5
897.977	7488.5
898.216	7429.5
898.454	7287.5
898.693	7271.5
898.932	7338.5
899.17	7255.5
899.409	7223.5
899.647	7226.5
899.886	7189.5
900.124	7223.5
900.363	7193.5
900.601	7365.5
900.839	7269.5
901.078	7290.5
901.316	7344.5
901.554	7349.5
901.792	7369.5
902.03	7336.5
902.268	7364.5
902.506	7403.5
902.744	7268.5
902.982	7270.5
903.22	7091.5
903.458	7014.5
903.695	6920.5
903.933	6876.5
904.171	6663.5
904.409	6576.5
904.646	6585.5
904.884	6453.5
905.121	6404.5
905.359	6310.5
905.596	6286.5
905.833	6170.5
906.071	6174.5
906.308	6230.5
906.545	6178.5
906.783	6061.5
907.02	6126.5
907.257	6016.5
907.494	6024.5
907.731	6046.5
907.968	6022.5
908.205	5956.5
908.442	5893.5
908.679	5821.5
908.915	5769.5
909.152	5803.5
909.389	5730.5
909.626	5715.5
909.862	5645.5
910.099	5664.5
910.335	5713.5
910.572	5548.5
910.808	5606.5
911.045	5561.5
911.281	5536.5
911.518	5558.5
911.754	5466.5
911.99	5513.5
912.226	5439.5
912.463	5329.5
912.699	5365.5
912.935	5325.5
913.171	5268.5
913.407	5191.5
913.643	5232.5
913.879	5179.5
914.114	5108.5
914.35	5084.5
914.586	4981.5
914.822	4983.5
915.057	5065.5
915.293	4880.5
915.529	4864.5
915.764	4907.5
916	4925.5
916.235	4877.5
916.471	4866.5
916.706	4770.5
916.941	4814.5
917.177	4761.5
917.412	4814.5
917.647	4779.5
917.882	4800.5
918.117	4783.5
918.352	4780.5
918.588	4775.5
918.823	4643.5
919.057	4640.5
919.292	4522.5
919.527	4590.5
919.762	4462.5
919.997	4583.5
920.232	4429.5
920.466	4438.5
920.701	4293.5
920.935	4408.5
921.17	4322.5
921.405	4295.5
921.639	4353.5
921.873	4273.5
922.108	4313.5
922.342	4295.5
922.576	4237.5
922.811	4129.5
923.045	4254.5
923.279	4279.5
923.513	4101.5
923.747	4166.5
923.981	4079.5
924.215	4046.5
924.449	4059.5
924.683	4002.5
924.917	3985.5
925.151	4010.5
925.385	4069.5
925.618	3950.5
925.852	4004.5
926.086	3882.5
926.319	3974.5
926.553	3986.5
926.786	3960.5
927.02	3927.5
927.253	3959.5
927.486	3949.5
927.72	3882.5
927.953	3914.5
928.186	3864.5
928.42	3909.5
928.653	3848.5
928.886	3845.5
929.119	3849.5
929.352	3842.5
929.585	3760.5
929.818	3782.5
930.051	3756.5
930.284	3720.5
930.516	3634.5
930.749	3665.5
930.982	3689.5
931.215	3639.5
931.447	3579.5
931.68	3585.5
931.912	3574.5
932.145	3609.5
932.377	3602.5
932.61	3718.5
932.842	3487.5
933.074	3625.5
933.307	3515.5
933.539	3604.5
933.771	3618.5
934.003	3560.5
934.236	3599.5
934.468	3592.5
934.7	3532.5
934.932	3589.5
935.164	3469.5
935.395	3510.5
935.627	3532.5
935.859	3528.5
936.091	3431.5
936.323	3510.5
936.554	3523.5
936.786	3430.5
937.017	3360.5
937.249	3423.5
937.481	3370.5
937.712	3417.5
937.943	3389.5
938.175	3426.5
938.406	3341.5
938.637	3455.5
938.869	3293.5
939.1	3398.5
939.331	3326.5
939.562	3343.5
939.793	3350.5
940.024	3380.5
940.255	3324.5
940.486	3294.5
940.717	3252.5
940.948	3247.5
941.179	3197.5
941.409	3252.5
941.64	3239.5
941.871	3277.5
942.102	3229.5
942.332	3214.5
942.563	3240.5
942.793	3248.5
943.024	3191.5
943.254	3202.5
943.484	3238.5
943.715	3227.5
943.945	3199.5
944.175	3156.5
944.405	3116.5
944.636	3156.5
944.866	3199.5
945.096	3152.5
945.326	3111.5
945.556	3169.5
945.786	3177.5
946.016	3146.5
946.245	3044.5
946.475	3086.5
946.705	3041.5
946.935	3048.5
947.164	3066.5
947.394	2966.5
947.624	3003.5
947.853	3040.5
948.083	2968.5
948.312	2933.5
948.542	2865.5
948.771	2936.5
949	2918.5
949.23	2945.5
949.459	2911.5
949.688	3010.5
949.917	2897.5
950.146	2911.5
950.375	2958.5
950.604	2876.5
950.833	2922.5
951.062	2922.5
951.291	2879.5
951.52	2861.5
951.749	2855.5
951.978	2841.5
952.206	2837.5
952.435	2788.5
952.664	2859.5
952.892	2902.5
953.121	2800.5
953.349	2840.5
953.578	2849.5
953.806	2832.5
954.035	2731.5
954.263	2749.5
954.491	2664.5
954.719	2753.5
954.948	2702.5
955.176	2706.5
955.404	2654.5
955.632	2696.5
955.86	2689.5
956.088	2666.5
956.316	2690.5
956.544	2651.5
956.772	2640.5
956.999	2599.5
957.227	2691.5
957.455	2573.5
957.683	2589.5
957.91	2525.5
958.138	2519.5
958.365	2556.5
958.593	2554.5
958.82	2450.5
959.048	2521.5
959.275	2491.5
959.502	2502.5
959.73	2465.5
959.957	2498.5
960.184	2513.5
960.411	2469.5
960.638	2542.5
960.865	2445.5
961.092	2501.5
961.319	2402.5
961.546	2488.5
961.773	2490.5
962	2451.5
962.227	2494.5
962.454	2421.5
962.68	2421.5
962.907	2414.5
963.134	2395.5
963.36	2426.5
963.587	2421.5
963.813	2368.5
964.04	2450.5
964.266	2317.5
964.493	2415.5
964.719	2373.5
964.945	2352.5
965.171	2286.5
965.398	2280.5
965.624	2326.5
965.85	2239.5
966.076	2252.5
966.302	2285.5
966.528	2254.5
966.754	2277.5
966.98	2287.5
967.206	2266.5
967.431	2217.5
967.657	2249.5
967.883	2257.5
968.109	2267.5
968.334	2191.5
968.56	2147.5
968.785	2186.5
969.011	2150.5
969.236	2229.5
969.462	2129.5
969.687	2162.5
969.912	2185.5
970.138	2213.5
970.363	2133.5
970.588	2160.5
970.813	2115.5
971.038	2109.5
971.263	2122.5
971.488	2136.5
971.713	2164.5
971.938	2150.5
972.163	2057.5
972.388	2080.5
972.613	2067.5
972.838	2085.5
973.062	2043.5
973.287	2013.5
973.512	1993.5
973.736	2061.5
973.961	2011.5
974.185	1983.5
974.41	2007.5
974.634	1922.5
974.858	1932.5
975.083	1992.5
975.307	2007.5
975.531	1914.5
975.755	1889.5
975.98	1929.5
976.204	1850.5
976.428	1866.5
976.652	1829.5
976.876	1820.5
977.1	1858.5
977.324	1839.5
977.547	1852.5
977.771	1867.5
977.995	1873.5
978.219	1788.5
978.442	1905.5
978.666	1826.5
978.89	1835.5
979.113	1821.5
979.337	1821.5
979.56	1807.5
979.783	1862.5
980.007	1747.5
980.23	1783.5
980.453	1774.5
980.677	1824.5
980.9	1789.5
981.123	1686.5
981.346	1777.5
981.569	1758.5
981.792	1813.5
982.015	1717.5
982.238	1712.5
982.461	1716.5
982.684	1707.5
982.907	1665.5
983.129	1684.5
983.352	1704.5
983.575	1669.5
983.797	1692.5
984.02	1649.5
984.242	1645.5
984.465	1650.5
984.687	1699.5
984.91	1708.5
985.132	1682.5
985.354	1692.5
985.577	1650.5
985.799	1628.5
986.021	1552.5
986.243	1596.5
986.465	1620.5
986.687	1621.5
986.909	1704.5
987.131	1627.5
987.353	1575.5
987.575	1625.5
987.797	1566.5
988.019	1519.5
988.241	1586.5
988.462	1551.5
988.684	1626.5
988.906	1606.5
989.127	1641.5
989.349	1519.5
989.57	1563.5
989.792	1625.5
990.013	1600.5
990.234	1590.5
990.456	1614.5
990.677	1596.5
990.898	1527.5
991.119	1522.5
991.341	1586.5
991.562	1514.5
991.783	1546.5
992.004	1487.5
992.225	1476.5
992.446	1509.5
992.667	1416.5
992.887	1502.5
993.108	1423.5
993.329	1572.5
993.55	1474.5
993.77	1435.5
993.991	1438.5
994.212	1483.5
994.432	1472.5
994.653	1469.5
994.873	1479.5
995.093	1339.5
995.314	1405.5
995.534	1456.5
995.754	1478.5
995.975	1531.5
996.195	1381.5
996.415	1475.5
996.635	1402.5
996.855	1473.5
997.075	1420.5
997.295	1421.5
997.515	1402.5
997.735	1452.5
997.955	1406.5
998.174	1436.5
998.394	1397.5
998.614	1434.5
998.834	1385.5
999.053	1425.5
999.273	1405.5
999.492	1474.5
999.712	1396.5
999.931	1367.5
1000.151	1411.5
1000.37	1393.5
1000.589	1449.5
1000.809	1350.5
1001.028	1478.5
1001.247	1418.5
1001.466	1283.5
1001.685	1461.5
1001.904	1402.5
1002.123	1385.5
1002.342	1389.5
1002.561	1343.5
1002.78	1372.5
1002.999	1413.5
1003.218	1361.5
1003.436	1365.5
1003.655	1387.5
1003.874	1334.5
1004.092	1348.5
1004.311	1383.5
1004.53	1347.5
1004.748	1443.5
1004.966	1355.5
1005.185	1414.5
1005.403	1402.5
1005.622	1362.5
1005.84	1442.5
1006.058	1355.5
1006.276	1362.5
1006.494	1861.5
1006.712	1353.5
1006.931	1432.5
1007.149	1340.5
1007.367	1313.5
1007.584	1385.5
1007.802	1424.5
1008.02	1360.5
1008.238	1463.5
1008.456	1434.5
1008.673	1316.5
1008.891	1455.5
1009.109	1394.5
1009.326	1440.5
1009.544	1536.5
1009.761	1442.5
1009.979	1517.5
1010.196	1533.5
1010.413	1642.5
1010.631	1659.5
1010.848	1709.5
1011.065	1703.5
1011.282	1652.5
1011.5	1606.5
1011.717	1703.5
1011.934	1624.5
1012.151	1677.5
1012.368	1630.5
1012.585	1594.5
1012.801	1653.5
1013.018	1604.5
1013.235	1575.5
1013.452	1597.5
1013.669	1632.5
1013.885	1604.5
1014.102	1656.5
1014.318	1616.5
1014.535	1555.5
1014.751	1600.5
1014.968	1550.5
1015.184	1598.5
1015.401	1523.5
1015.617	1548.5
1015.833	1495.5
1016.049	1506.5
1016.266	1469.5
1016.482	1453.5
1016.698	1411.5
1016.914	1475.5
1017.13	1388.5
1017.346	1423.5
1017.562	1484.5
1017.778	1405.5
1017.993	1341.5
1018.209	1405.5
1018.425	1411.5
1018.641	1363.5
1018.856	1333.5
1019.072	1343.5
1019.288	1419.5
1019.503	1358.5
1019.719	1290.5
1019.934	1272.5
1020.149	1362.5
1020.365	1301.5
1020.58	1257.5
1020.795	1324.5
1021.011	1245.5
1021.226	1230.5
1021.441	1235.5
1021.656	1167.5
1021.871	1138.5
1022.086	1126.5
1022.301	1107.5
1022.516	1121.5
1022.731	1166.5
1022.946	1079.5
1023.16	1075.5
1023.375	1018.5
1023.59	1013.5
1023.804	994.5
1024.019	1069.5
1024.234	930.5
1024.448	993.5
1024.663	920.5
1024.877	950.5
1025.092	963.5
1025.306	967.5
1025.52	856.5
1025.734	938.5
1025.949	879.5
1026.163	850.5
1026.377	789.5
1026.591	865.5
1026.805	773.5
1027.019	785.5
1027.233	723.5
1027.447	691.5
1027.661	785.5
1027.875	734.5
1028.088	731.5
1028.302	672.5
1028.516	662.5
1028.73	689.5
1028.943	641.5
1029.157	600.5
1029.37	582.5
1029.584	-1.5
1029.797	-3.5
1030.011	-1.5
1030.224	0.5
