Data from QEP037381__55__11-30-05-595.txt Node

Date: Wed Dec 21 11:30:05 EST 2022
User: dcclab
Spectrometer: QEP03738
Trigger mode: 4
Integration Time (sec): 1.000000E1
Scans to average: 1
Electric dark correction enabled: true
Nonlinearity correction enabled: false
Boxcar width: 0
XAxis mode: Wavelengths
Number of Pixels in Spectrum: 1044
>>>>>Begin Spectral Data<<<<<
784.041	12.12
784.3	1.12
784.558	-4.88
784.817	-4.88
785.075	42322.12
785.334	8740.12
785.592	4610.12
785.851	3249.12
786.109	2513.12
786.368	1952.12
786.626	1650.12
786.884	1391.12
787.143	1192.12
787.401	1003.12
787.659	925.12
787.917	802.12
788.175	761.12
788.433	699.12
788.691	632.12
788.949	589.12
789.207	580.12
789.465	514.12
789.723	504.12
789.98	466.12
790.238	509.12
790.496	482.12
790.753	461.12
791.011	525.12
791.268	458.12
791.526	441.12
791.783	463.12
792.041	462.12
792.298	369.12
792.556	442.12
792.813	426.12
793.07	397.12
793.327	392.12
793.584	481.12
793.841	407.12
794.099	415.12
794.356	473.12
794.613	377.12
794.869	423.12
795.126	390.12
795.383	389.12
795.64	395.12
795.897	354.12
796.153	416.12
796.41	389.12
796.667	384.12
796.923	389.12
797.18	390.12
797.436	435.12
797.693	388.12
797.949	426.12
798.206	458.12
798.462	375.12
798.718	438.12
798.974	411.12
799.231	446.12
799.487	440.12
799.743	460.12
799.999	463.12
800.255	467.12
800.511	451.12
800.767	473.12
801.023	473.12
801.279	499.12
801.534	528.12
801.79	581.12
802.046	580.12
802.302	707.12
802.557	786.12
802.813	959.12
803.068	1126.12
803.324	1536.12
803.579	2087.12
803.835	2883.12
804.09	3981.12
804.345	5246.12
804.601	6618.12
804.856	8138.12
805.111	9387.12
805.366	10394.12
805.621	11115.12
805.876	11618.12
806.131	11889.12
806.386	12158.12
806.641	12363.12
806.896	12517.12
807.151	12827.12
807.406	13027.12
807.661	13172.12
807.915	13529.12
808.17	13712.12
808.425	13877.12
808.679	14031.12
808.934	14185.12
809.188	14333.12
809.443	14528.12
809.697	14716.12
809.951	14759.12
810.206	14860.12
810.46	15161.12
810.714	15237.12
810.968	15431.12
811.223	15514.12
811.477	15598.12
811.731	15781.12
811.985	15887.12
812.239	15865.12
812.493	15994.12
812.747	16086.12
813	16174.12
813.254	16237.12
813.508	16397.12
813.762	16420.12
814.015	16501.12
814.269	16648.12
814.522	16852.12
814.776	16991.12
815.03	17313.12
815.283	17484.12
815.536	17848.12
815.79	18044.12
816.043	18317.12
816.296	18682.12
816.55	18808.12
816.803	19065.12
817.056	19330.12
817.309	19495.12
817.562	19819.12
817.815	20040.12
818.068	20188.12
818.321	20275.12
818.574	20614.12
818.827	20879.12
819.079	21143.12
819.332	21570.12
819.585	21822.12
819.838	22026.12
820.09	22185.12
820.343	22327.12
820.595	22484.12
820.848	22657.12
821.1	22845.12
821.353	22798.12
821.605	22747.12
821.857	22812.12
822.11	22532.12
822.362	22649.12
822.614	22461.12
822.866	22551.12
823.118	22596.12
823.37	22698.12
823.622	22706.12
823.874	22803.12
824.126	22924.12
824.378	22910.12
824.63	23020.12
824.882	23056.12
825.134	23119.12
825.385	23108.12
825.637	23018.12
825.888	23043.12
826.14	22910.12
826.392	22796.12
826.643	22778.12
826.895	22696.12
827.146	22570.12
827.397	22618.12
827.649	22724.12
827.9	22621.12
828.151	22577.12
828.402	22601.12
828.653	22790.12
828.905	22700.12
829.156	22902.12
829.407	22916.12
829.658	22927.12
829.909	22956.12
830.159	22832.12
830.41	22707.12
830.661	22629.12
830.912	22453.12
831.162	22426.12
831.413	22360.12
831.664	22296.12
831.914	22279.12
832.165	22381.12
832.415	22348.12
832.666	22362.12
832.916	22333.12
833.167	22432.12
833.417	22350.12
833.667	22266.12
833.917	22183.12
834.168	22209.12
834.418	22160.12
834.668	21955.12
834.918	21919.12
835.168	21886.12
835.418	21776.12
835.668	21688.12
835.918	21747.12
836.167	21632.12
836.417	21617.12
836.667	21690.12
836.917	21674.12
837.166	21533.12
837.416	21581.12
837.666	21620.12
837.915	21623.12
838.165	21561.12
838.414	21448.12
838.663	21394.12
838.913	21446.12
839.162	21332.12
839.411	21310.12
839.661	21250.12
839.91	21223.12
840.159	21211.12
840.408	21243.12
840.657	21135.12
840.906	21105.12
841.155	21323.12
841.404	21208.12
841.653	21248.12
841.902	21209.12
842.15	21288.12
842.399	21279.12
842.648	21287.12
842.897	21203.12
843.145	21084.12
843.394	20843.12
843.642	20890.12
843.891	20734.12
844.139	20682.12
844.388	20415.12
844.636	20482.12
844.884	20328.12
845.133	20474.12
845.381	20486.12
845.629	20374.12
845.877	20298.12
846.125	20348.12
846.373	20269.12
846.621	20234.12
846.869	20293.12
847.117	20084.12
847.365	19967.12
847.613	19921.12
847.861	19899.12
848.108	19871.12
848.356	19774.12
848.604	19738.12
848.851	19847.12
849.099	19801.12
849.346	19869.12
849.594	20017.12
849.841	20115.12
850.089	20128.12
850.336	20276.12
850.583	20438.12
850.831	20191.12
851.078	20091.12
851.325	20034.12
851.572	19858.12
851.819	19667.12
852.066	19314.12
852.313	19064.12
852.56	19030.12
852.807	18894.12
853.054	18884.12
853.301	18811.12
853.548	18891.12
853.794	18967.12
854.041	19044.12
854.288	19127.12
854.534	19304.12
854.781	19214.12
855.028	19065.12
855.274	19127.12
855.52	18996.12
855.767	18908.12
856.013	19006.12
856.26	19210.12
856.506	18737.12
856.752	18671.12
856.998	18702.12
857.244	18687.12
857.49	18870.12
857.736	18919.12
857.982	18891.12
858.228	18855.12
858.474	18696.12
858.72	18678.12
858.966	18514.12
859.212	18418.12
859.458	18116.12
859.703	17991.12
859.949	17783.12
860.195	17689.12
860.44	17685.12
860.686	17517.12
860.931	17508.12
861.177	17402.12
861.422	17373.12
861.667	17349.12
861.913	17313.12
862.158	17317.12
862.403	17472.12
862.648	17515.12
862.893	17490.12
863.138	17486.12
863.384	17429.12
863.629	17494.12
863.873	17513.12
864.118	17424.12
864.363	17224.12
864.608	17196.12
864.853	17247.12
865.098	17139.12
865.342	17138.12
865.587	16913.12
865.832	16992.12
866.076	16958.12
866.321	16852.12
866.565	16812.12
866.81	16642.12
867.054	16674.12
867.298	16661.12
867.543	16524.12
867.787	16571.12
868.031	16558.12
868.275	16524.12
868.519	16426.12
868.764	16472.12
869.008	16406.12
869.252	16410.12
869.496	16305.12
869.739	16315.12
869.983	16274.12
870.227	16258.12
870.471	16191.12
870.715	16244.12
870.958	16245.12
871.202	16348.12
871.446	16353.12
871.689	16357.12
871.933	16354.12
872.176	16316.12
872.42	16266.12
872.663	16227.12
872.906	16294.12
873.15	16204.12
873.393	16028.12
873.636	16047.12
873.879	15850.12
874.122	15777.12
874.366	15628.12
874.609	15503.12
874.852	15411.12
875.095	15360.12
875.337	15292.12
875.58	15086.12
875.823	15159.12
876.066	15168.12
876.309	15060.12
876.551	14865.12
876.794	14803.12
877.037	14923.12
877.279	14763.12
877.522	14848.12
877.764	14940.12
878.007	14879.12
878.249	14819.12
878.491	14801.12
878.734	14839.12
878.976	14850.12
879.218	14748.12
879.46	14656.12
879.702	14463.12
879.945	14420.12
880.187	14349.12
880.429	14284.12
880.671	14186.12
880.912	14138.12
881.154	14029.12
881.396	13936.12
881.638	14042.12
881.88	14052.12
882.121	13946.12
882.363	13957.12
882.605	14028.12
882.846	13939.12
883.088	13929.12
883.329	13850.12
883.571	13791.12
883.812	13974.12
884.053	14049.12
884.295	14218.12
884.536	14298.12
884.777	14130.12
885.018	14051.12
885.259	14079.12
885.5	13965.12
885.742	14234.12
885.982	13898.12
886.223	13818.12
886.464	13802.12
886.705	13666.12
886.946	13581.12
887.187	13471.12
887.428	13428.12
887.668	13223.12
887.909	13140.12
888.15	13038.12
888.39	13029.12
888.631	12883.12
888.871	12876.12
889.111	12737.12
889.352	12656.12
889.592	12555.12
889.833	12462.12
890.073	12379.12
890.313	12322.12
890.553	12239.12
890.793	12202.12
891.033	12171.12
891.273	12036.12
891.513	12004.12
891.753	12003.12
891.993	12002.12
892.233	11993.12
892.473	12077.12
892.713	12078.12
892.952	11973.12
893.192	12120.12
893.432	11978.12
893.671	12058.12
893.911	11947.12
894.15	11885.12
894.39	11769.12
894.629	11766.12
894.869	11732.12
895.108	11684.12
895.347	11623.12
895.587	11609.12
895.826	11529.12
896.065	11451.12
896.304	11548.12
896.543	11509.12
896.782	11411.12
897.021	11447.12
897.26	11477.12
897.499	11374.12
897.738	11301.12
897.977	11201.12
898.216	11154.12
898.454	11042.12
898.693	11014.12
898.932	10978.12
899.17	11011.12
899.409	10950.12
899.647	10849.12
899.886	10882.12
900.124	10917.12
900.363	10822.12
900.601	10869.12
900.839	10947.12
901.078	10900.12
901.316	10899.12
901.554	10957.12
901.792	10885.12
902.03	10897.12
902.268	10903.12
902.506	10827.12
902.744	10783.12
902.982	10718.12
903.22	10554.12
903.458	10546.12
903.695	10380.12
903.933	10232.12
904.171	10094.12
904.409	9998.12
904.646	9956.12
904.884	9815.12
905.121	9699.12
905.359	9612.12
905.596	9550.12
905.833	9427.12
906.071	9368.12
906.308	9354.12
906.545	9358.12
906.783	9250.12
907.02	9321.12
907.257	9245.12
907.494	9263.12
907.731	9211.12
907.968	9202.12
908.205	9087.12
908.442	9047.12
908.679	9024.12
908.915	8883.12
909.152	8888.12
909.389	8775.12
909.626	8756.12
909.862	8656.12
910.099	8662.12
910.335	8618.12
910.572	8562.12
910.808	8479.12
911.045	8538.12
911.281	8483.12
911.518	8534.12
911.754	8358.12
911.99	8443.12
912.226	8344.12
912.463	8224.12
912.699	8201.12
912.935	8084.12
913.171	8071.12
913.407	7990.12
913.643	7977.12
913.879	7918.12
914.114	7821.12
914.35	7757.12
914.586	7663.12
914.822	7589.12
915.057	7629.12
915.293	7486.12
915.529	7479.12
915.764	7520.12
916	7504.12
916.235	7415.12
916.471	7452.12
916.706	7362.12
916.941	7367.12
917.177	7358.12
917.412	7426.12
917.647	7359.12
917.882	7311.12
918.117	7314.12
918.352	7322.12
918.588	7276.12
918.823	7240.12
919.057	7127.12
919.292	7060.12
919.527	7115.12
919.762	6925.12
919.997	6976.12
920.232	6868.12
920.466	6819.12
920.701	6667.12
920.935	6709.12
921.17	6670.12
921.405	6571.12
921.639	6614.12
921.873	6564.12
922.108	6629.12
922.342	6518.12
922.576	6465.12
922.811	6452.12
923.045	6514.12
923.279	6470.12
923.513	6332.12
923.747	6400.12
923.981	6313.12
924.215	6254.12
924.449	6243.12
924.683	6142.12
924.917	6177.12
925.151	6195.12
925.385	6084.12
925.618	6121.12
925.852	6080.12
926.086	5993.12
926.319	6006.12
926.553	6007.12
926.786	6022.12
927.02	6002.12
927.253	6032.12
927.486	6039.12
927.72	6009.12
927.953	6009.12
928.186	5984.12
928.42	5988.12
928.653	5892.12
928.886	5866.12
929.119	5864.12
929.352	5872.12
929.585	5798.12
929.818	5740.12
930.051	5699.12
930.284	5704.12
930.516	5607.12
930.749	5601.12
930.982	5572.12
931.215	5570.12
931.447	5553.12
931.68	5530.12
931.912	5517.12
932.145	5448.12
932.377	5503.12
932.61	5618.12
932.842	5437.12
933.074	5473.12
933.307	5394.12
933.539	5475.12
933.771	5464.12
934.003	5406.12
934.236	5493.12
934.468	5549.12
934.7	5368.12
934.932	5403.12
935.164	5351.12
935.395	5337.12
935.627	5371.12
935.859	5350.12
936.091	5273.12
936.323	5364.12
936.554	5318.12
936.786	5285.12
937.017	5203.12
937.249	5210.12
937.481	5135.12
937.712	5202.12
937.943	5140.12
938.175	5173.12
938.406	5130.12
938.637	5188.12
938.869	5094.12
939.1	5144.12
939.331	5098.12
939.562	5123.12
939.793	5087.12
940.024	5078.12
940.255	5095.12
940.486	5006.12
940.717	4972.12
940.948	4973.12
941.179	4935.12
941.409	4966.12
941.64	4901.12
941.871	4880.12
942.102	4891.12
942.332	4916.12
942.563	4945.12
942.793	4907.12
943.024	4882.12
943.254	4890.12
943.484	4948.12
943.715	4951.12
943.945	4898.12
944.175	4813.12
944.405	4830.12
944.636	4832.12
944.866	4858.12
945.096	4844.12
945.326	4792.12
945.556	4823.12
945.786	4800.12
946.016	4755.12
946.245	4677.12
946.475	4700.12
946.705	4647.12
946.935	4643.12
947.164	4611.12
947.394	4554.12
947.624	4548.12
947.853	4640.12
948.083	4525.12
948.312	4536.12
948.542	4454.12
948.771	4409.12
949	4391.12
949.23	4452.12
949.459	4407.12
949.688	4493.12
949.917	4444.12
950.146	4460.12
950.375	4525.12
950.604	4375.12
950.833	4437.12
951.062	4472.12
951.291	4377.12
951.52	4363.12
951.749	4407.12
951.978	4310.12
952.206	4323.12
952.435	4281.12
952.664	4302.12
952.892	4272.12
953.121	4270.12
953.349	4252.12
953.578	4271.12
953.806	4250.12
954.035	4162.12
954.263	4179.12
954.491	4157.12
954.719	4098.12
954.948	4147.12
955.176	4080.12
955.404	3992.12
955.632	4091.12
955.86	4053.12
956.088	4031.12
956.316	4039.12
956.544	4012.12
956.772	3955.12
956.999	3944.12
957.227	4016.12
957.455	3901.12
957.683	3929.12
957.91	3843.12
958.138	3875.12
958.365	3862.12
958.593	3787.12
958.82	3744.12
959.048	3829.12
959.275	3779.12
959.502	3769.12
959.73	3722.12
959.957	3740.12
960.184	3768.12
960.411	3719.12
960.638	3803.12
960.865	3747.12
961.092	3724.12
961.319	3656.12
961.546	3755.12
961.773	3762.12
962	3733.12
962.227	3758.12
962.454	3718.12
962.68	3672.12
962.907	3648.12
963.134	3600.12
963.36	3586.12
963.587	3604.12
963.813	3536.12
964.04	3542.12
964.266	3537.12
964.493	3562.12
964.719	3544.12
964.945	3546.12
965.171	3408.12
965.398	3467.12
965.624	3461.12
965.85	3369.12
966.076	3385.12
966.302	3399.12
966.528	3376.12
966.754	3384.12
966.98	3384.12
967.206	3381.12
967.431	3275.12
967.657	3354.12
967.883	3319.12
968.109	3328.12
968.334	3276.12
968.56	3251.12
968.785	3263.12
969.011	3232.12
969.236	3281.12
969.462	3226.12
969.687	3183.12
969.912	3237.12
970.138	3264.12
970.363	3167.12
970.588	3172.12
970.813	3168.12
971.038	3136.12
971.263	3179.12
971.488	3136.12
971.713	3148.12
971.938	3128.12
972.163	3059.12
972.388	3072.12
972.613	3042.12
972.838	3061.12
973.062	3010.12
973.287	2981.12
973.512	2975.12
973.736	2978.12
973.961	2999.12
974.185	2942.12
974.41	2952.12
974.634	2878.12
974.858	2904.12
975.083	2917.12
975.307	2907.12
975.531	2841.12
975.755	2807.12
975.98	2816.12
976.204	2772.12
976.428	2750.12
976.652	2757.12
976.876	2753.12
977.1	2769.12
977.324	2674.12
977.547	2759.12
977.771	2755.12
977.995	2746.12
978.219	2628.12
978.442	2768.12
978.666	2717.12
978.89	2709.12
979.113	2710.12
979.337	2676.12
979.56	2652.12
979.783	2713.12
980.007	2615.12
980.23	2638.12
980.453	2555.12
980.677	2607.12
980.9	2633.12
981.123	2519.12
981.346	2629.12
981.569	2553.12
981.792	2577.12
982.015	2545.12
982.238	2507.12
982.461	2494.12
982.684	2491.12
982.907	2472.12
983.129	2421.12
983.352	2472.12
983.575	2457.12
983.797	2455.12
984.02	2374.12
984.242	2433.12
984.465	2390.12
984.687	2437.12
984.91	2456.12
985.132	2396.12
985.354	2432.12
985.577	2383.12
985.799	2365.12
986.021	2281.12
986.243	2295.12
986.465	2293.12
986.687	2354.12
986.909	2407.12
987.131	2320.12
987.353	2307.12
987.575	2321.12
987.797	2263.12
988.019	2221.12
988.241	2293.12
988.462	2249.12
988.684	2281.12
988.906	2323.12
989.127	2309.12
989.349	2215.12
989.57	2245.12
989.792	2245.12
990.013	2268.12
990.234	2283.12
990.456	2288.12
990.677	2251.12
990.898	2208.12
991.119	2181.12
991.341	2239.12
991.562	2133.12
991.783	2177.12
992.004	2099.12
992.225	2099.12
992.446	2117.12
992.667	2046.12
992.887	2110.12
993.108	2039.12
993.329	2122.12
993.55	2099.12
993.77	2007.12
993.991	2020.12
994.212	2025.12
994.432	2006.12
994.653	2062.12
994.873	2009.12
995.093	1879.12
995.314	1950.12
995.534	2030.12
995.754	2034.12
995.975	2046.12
996.195	1927.12
996.415	2005.12
996.635	1955.12
996.855	1977.12
997.075	1965.12
997.295	1909.12
997.515	1943.12
997.735	1959.12
997.955	1928.12
998.174	1914.12
998.394	1890.12
998.614	1956.12
998.834	1885.12
999.053	1955.12
999.273	1920.12
999.492	1957.12
999.712	1897.12
999.931	1866.12
1000.151	1903.12
1000.37	1862.12
1000.589	1933.12
1000.809	1858.12
1001.028	1964.12
1001.247	1909.12
1001.466	1774.12
1001.685	1931.12
1001.904	1849.12
1002.123	1854.12
1002.342	1849.12
1002.561	1794.12
1002.78	1848.12
1002.999	1845.12
1003.218	1789.12
1003.436	1813.12
1003.655	1822.12
1003.874	1752.12
1004.092	1776.12
1004.311	1825.12
1004.53	1775.12
1004.748	1856.12
1004.966	1777.12
1005.185	1827.12
1005.403	1763.12
1005.622	1780.12
1005.84	1854.12
1006.058	1725.12
1006.276	1769.12
1006.494	2262.12
1006.712	1749.12
1006.931	1800.12
1007.149	1697.12
1007.367	1738.12
1007.584	1774.12
1007.802	1802.12
1008.02	1760.12
1008.238	1817.12
1008.456	1837.12
1008.673	1685.12
1008.891	1790.12
1009.109	1764.12
1009.326	1803.12
1009.544	1854.12
1009.761	1780.12
1009.979	1864.12
1010.196	1855.12
1010.413	1981.12
1010.631	1966.12
1010.848	2011.12
1011.065	2015.12
1011.282	1964.12
1011.5	1877.12
1011.717	1997.12
1011.934	1927.12
1012.151	1973.12
1012.368	1939.12
1012.585	1867.12
1012.801	1939.12
1013.018	1876.12
1013.235	1871.12
1013.452	1904.12
1013.669	1900.12
1013.885	1858.12
1014.102	1903.12
1014.318	1850.12
1014.535	1834.12
1014.751	1855.12
1014.968	1863.12
1015.184	1876.12
1015.401	1804.12
1015.617	1816.12
1015.833	1757.12
1016.049	1776.12
1016.266	1739.12
1016.482	1734.12
1016.698	1649.12
1016.914	1723.12
1017.13	1659.12
1017.346	1650.12
1017.562	1714.12
1017.778	1652.12
1017.993	1607.12
1018.209	1665.12
1018.425	1653.12
1018.641	1630.12
1018.856	1604.12
1019.072	1622.12
1019.288	1633.12
1019.503	1599.12
1019.719	1501.12
1019.934	1560.12
1020.149	1616.12
1020.365	1572.12
1020.58	1519.12
1020.795	1540.12
1021.011	1454.12
1021.226	1458.12
1021.441	1500.12
1021.656	1398.12
1021.871	1350.12
1022.086	1335.12
1022.301	1320.12
1022.516	1334.12
1022.731	1379.12
1022.946	1300.12
1023.16	1298.12
1023.375	1247.12
1023.59	1242.12
1023.804	1213.12
1024.019	1305.12
1024.234	1175.12
1024.448	1197.12
1024.663	1144.12
1024.877	1141.12
1025.092	1158.12
1025.306	1169.12
1025.52	1089.12
1025.734	1133.12
1025.949	1070.12
1026.163	1048.12
1026.377	964.12
1026.591	1016.12
1026.805	966.12
1027.019	952.12
1027.233	915.12
1027.447	867.12
1027.661	969.12
1027.875	913.12
1028.088	906.12
1028.302	831.12
1028.516	822.12
1028.73	800.12
1028.943	811.12
1029.157	760.12
1029.37	713.12
1029.584	-0.88
1029.797	0.12
1030.011	-0.88
1030.224	-1.88
