Data from QEP037381__115__11-40-05-598.txt Node

Date: Wed Dec 21 11:40:05 EST 2022
User: dcclab
Spectrometer: QEP03738
Trigger mode: 4
Integration Time (sec): 1.000000E1
Scans to average: 1
Electric dark correction enabled: true
Nonlinearity correction enabled: false
Boxcar width: 0
XAxis mode: Wavelengths
Number of Pixels in Spectrum: 1044
>>>>>Begin Spectral Data<<<<<
784.041	15.5
784.3	3.5
784.558	-1.5
784.817	-6.5
785.075	41516.5
785.334	8317.5
785.592	4341.5
785.851	3059.5
786.109	2368.5
786.368	1855.5
786.626	1570.5
786.884	1328.5
787.143	1093.5
787.401	928.5
787.659	869.5
787.917	775.5
788.175	722.5
788.433	658.5
788.691	601.5
788.949	549.5
789.207	577.5
789.465	488.5
789.723	471.5
789.98	441.5
790.238	490.5
790.496	447.5
790.753	432.5
791.011	499.5
791.268	440.5
791.526	421.5
791.783	444.5
792.041	441.5
792.298	345.5
792.556	419.5
792.813	410.5
793.07	394.5
793.327	380.5
793.584	448.5
793.841	378.5
794.099	389.5
794.356	470.5
794.613	370.5
794.869	403.5
795.126	356.5
795.383	361.5
795.64	378.5
795.897	328.5
796.153	387.5
796.41	362.5
796.667	347.5
796.923	361.5
797.18	371.5
797.436	382.5
797.693	355.5
797.949	399.5
798.206	418.5
798.462	333.5
798.718	387.5
798.974	366.5
799.231	404.5
799.487	391.5
799.743	418.5
799.999	406.5
800.255	391.5
800.511	391.5
800.767	416.5
801.023	406.5
801.279	423.5
801.534	445.5
801.79	466.5
802.046	449.5
802.302	548.5
802.557	564.5
802.813	662.5
803.068	726.5
803.324	932.5
803.579	1166.5
803.835	1544.5
804.09	2083.5
804.345	2615.5
804.601	3262.5
804.856	3949.5
805.111	4581.5
805.366	5053.5
805.621	5322.5
805.876	5587.5
806.131	5816.5
806.386	5853.5
806.641	5912.5
806.896	6062.5
807.151	6235.5
807.406	6279.5
807.661	6377.5
807.915	6548.5
808.17	6602.5
808.425	6690.5
808.679	6681.5
808.934	6845.5
809.188	6839.5
809.443	6940.5
809.697	7056.5
809.951	7026.5
810.206	7098.5
810.46	7209.5
810.714	7249.5
810.968	7348.5
811.223	7313.5
811.477	7397.5
811.731	7541.5
811.985	7476.5
812.239	7424.5
812.493	7501.5
812.747	7542.5
813	7519.5
813.254	7591.5
813.508	7636.5
813.762	7663.5
814.015	7663.5
814.269	7754.5
814.522	7783.5
814.776	7924.5
815.03	8038.5
815.283	8095.5
815.536	8288.5
815.79	8298.5
816.043	8481.5
816.296	8598.5
816.55	8660.5
816.803	8813.5
817.056	8893.5
817.309	8910.5
817.562	9020.5
817.815	9181.5
818.068	9183.5
818.321	9327.5
818.574	9407.5
818.827	9530.5
819.079	9576.5
819.332	9840.5
819.585	9829.5
819.838	10009.5
820.09	10053.5
820.343	10083.5
820.595	10066.5
820.848	10154.5
821.1	10245.5
821.353	10164.5
821.605	10094.5
821.857	10206.5
822.11	10054.5
822.362	10048.5
822.614	10005.5
822.866	9980.5
823.118	9996.5
823.37	10114.5
823.622	10158.5
823.874	10163.5
824.126	10187.5
824.378	10106.5
824.63	10131.5
824.882	10256.5
825.134	10196.5
825.385	10246.5
825.637	10104.5
825.888	10101.5
826.14	10063.5
826.392	10027.5
826.643	9922.5
826.895	10028.5
827.146	9895.5
827.397	9850.5
827.649	9845.5
827.9	9836.5
828.151	9900.5
828.402	9887.5
828.653	9881.5
828.905	9896.5
829.156	9930.5
829.407	9862.5
829.658	9913.5
829.909	10028.5
830.159	10032.5
830.41	9998.5
830.661	9832.5
830.912	9755.5
831.162	9753.5
831.413	9705.5
831.664	9753.5
831.914	9684.5
832.165	9677.5
832.415	9598.5
832.666	9668.5
832.916	9725.5
833.167	9621.5
833.417	9752.5
833.667	9698.5
833.917	9649.5
834.168	9648.5
834.418	9571.5
834.668	9557.5
834.918	9429.5
835.168	9447.5
835.418	9298.5
835.668	9370.5
835.918	9431.5
836.167	9334.5
836.417	9266.5
836.667	9301.5
836.917	9302.5
837.166	9240.5
837.416	9336.5
837.666	9304.5
837.915	9275.5
838.165	9354.5
838.414	9234.5
838.663	9178.5
838.913	9200.5
839.162	9121.5
839.411	9204.5
839.661	9075.5
839.91	9137.5
840.159	9114.5
840.408	9139.5
840.657	9182.5
840.906	9170.5
841.155	9188.5
841.404	9158.5
841.653	9185.5
841.902	9118.5
842.15	9233.5
842.399	9211.5
842.648	9184.5
842.897	9158.5
843.145	8991.5
843.394	8995.5
843.642	8916.5
843.891	8871.5
844.139	8822.5
844.388	8728.5
844.636	8605.5
844.884	8758.5
845.133	8701.5
845.381	8677.5
845.629	8674.5
845.877	8652.5
846.125	8614.5
846.373	8676.5
846.621	8607.5
846.869	8633.5
847.117	8520.5
847.365	8476.5
847.613	8455.5
847.861	8435.5
848.108	8531.5
848.356	8423.5
848.604	8363.5
848.851	8443.5
849.099	8499.5
849.346	8477.5
849.594	8588.5
849.841	8648.5
850.089	8639.5
850.336	8759.5
850.583	8794.5
850.831	8794.5
851.078	8695.5
851.325	8611.5
851.572	8623.5
851.819	8507.5
852.066	8285.5
852.313	8104.5
852.56	7996.5
852.807	8021.5
853.054	7984.5
853.301	8012.5
853.548	8031.5
853.794	8161.5
854.041	8070.5
854.288	8084.5
854.534	8243.5
854.781	8195.5
855.028	8169.5
855.274	8245.5
855.52	8096.5
855.767	8175.5
856.013	8134.5
856.26	8455.5
856.506	8036.5
856.752	8013.5
856.998	8054.5
857.244	8074.5
857.49	8165.5
857.736	8179.5
857.982	8136.5
858.228	8067.5
858.474	7977.5
858.72	7920.5
858.966	7809.5
859.212	7800.5
859.458	7709.5
859.703	7600.5
859.949	7456.5
860.195	7483.5
860.44	7481.5
860.686	7485.5
860.931	7451.5
861.177	7357.5
861.422	7374.5
861.667	7263.5
861.913	7236.5
862.158	7248.5
862.403	7310.5
862.648	7352.5
862.893	7376.5
863.138	7241.5
863.384	7237.5
863.629	7295.5
863.873	7263.5
864.118	7247.5
864.363	7179.5
864.608	7210.5
864.853	7198.5
865.098	7136.5
865.342	7107.5
865.587	7015.5
865.832	7067.5
866.076	7084.5
866.321	7044.5
866.565	7092.5
866.81	6950.5
867.054	6981.5
867.298	6983.5
867.543	6962.5
867.787	6958.5
868.031	6994.5
868.275	6880.5
868.519	6869.5
868.764	6931.5
869.008	6834.5
869.252	6986.5
869.496	6872.5
869.739	6954.5
869.983	6931.5
870.227	6960.5
870.471	6880.5
870.715	6913.5
870.958	6971.5
871.202	6986.5
871.446	6992.5
871.689	6964.5
871.933	7008.5
872.176	6903.5
872.42	6954.5
872.663	7006.5
872.906	7002.5
873.15	6957.5
873.393	6950.5
873.636	6987.5
873.879	6910.5
874.122	6853.5
874.366	6704.5
874.609	6647.5
874.852	6548.5
875.095	6519.5
875.337	6500.5
875.58	6359.5
875.823	6417.5
876.066	6403.5
876.309	6423.5
876.551	6299.5
876.794	6280.5
877.037	6284.5
877.279	6234.5
877.522	6228.5
877.764	6275.5
878.007	6201.5
878.249	6245.5
878.491	6216.5
878.734	6194.5
878.976	6156.5
879.218	6126.5
879.46	6178.5
879.702	6077.5
879.945	6026.5
880.187	5975.5
880.429	5871.5
880.671	5947.5
880.912	5915.5
881.154	5882.5
881.396	5791.5
881.638	5886.5
881.88	5909.5
882.121	5841.5
882.363	5868.5
882.605	5906.5
882.846	5875.5
883.088	5895.5
883.329	5877.5
883.571	5861.5
883.812	5977.5
884.053	6236.5
884.295	6296.5
884.536	6452.5
884.777	6311.5
885.018	6307.5
885.259	6276.5
885.5	6174.5
885.742	6379.5
885.982	6173.5
886.223	6072.5
886.464	6021.5
886.705	5940.5
886.946	5850.5
887.187	5705.5
887.428	5749.5
887.668	5515.5
887.909	5492.5
888.15	5407.5
888.39	5406.5
888.631	5394.5
888.871	5345.5
889.111	5297.5
889.352	5209.5
889.592	5187.5
889.833	5081.5
890.073	5083.5
890.313	5152.5
890.553	4975.5
890.793	5038.5
891.033	5012.5
891.273	4977.5
891.513	4911.5
891.753	5022.5
891.993	4954.5
892.233	4979.5
892.473	5057.5
892.713	5007.5
892.952	4951.5
893.192	5029.5
893.432	4917.5
893.671	4995.5
893.911	4922.5
894.15	4987.5
894.39	4872.5
894.629	4908.5
894.869	4854.5
895.108	4857.5
895.347	4813.5
895.587	4893.5
895.826	4753.5
896.065	4752.5
896.304	4840.5
896.543	4867.5
896.782	4724.5
897.021	4804.5
897.26	4783.5
897.499	4867.5
897.738	4795.5
897.977	4749.5
898.216	4737.5
898.454	4681.5
898.693	4677.5
898.932	4698.5
899.17	4640.5
899.409	4687.5
899.647	4653.5
899.886	4641.5
900.124	4720.5
900.363	4656.5
900.601	4684.5
900.839	4691.5
901.078	4725.5
901.316	4772.5
901.554	4758.5
901.792	4791.5
902.03	4790.5
902.268	4808.5
902.506	4791.5
902.744	4703.5
902.982	4719.5
903.22	4588.5
903.458	4538.5
903.695	4437.5
903.933	4430.5
904.171	4296.5
904.409	4180.5
904.646	4210.5
904.884	4097.5
905.121	4105.5
905.359	4053.5
905.596	4015.5
905.833	3971.5
906.071	3917.5
906.308	3942.5
906.545	3917.5
906.783	3852.5
907.02	3855.5
907.257	3797.5
907.494	3813.5
907.731	3823.5
907.968	3830.5
908.205	3717.5
908.442	3712.5
908.679	3694.5
908.915	3695.5
909.152	3670.5
909.389	3569.5
909.626	3594.5
909.862	3524.5
910.099	3554.5
910.335	3604.5
910.572	3470.5
910.808	3540.5
911.045	3489.5
911.281	3444.5
911.518	3506.5
911.754	3428.5
911.99	3426.5
912.226	3415.5
912.463	3331.5
912.699	3374.5
912.935	3325.5
913.171	3304.5
913.407	3253.5
913.643	3291.5
913.879	3287.5
914.114	3240.5
914.35	3170.5
914.586	3172.5
914.822	3106.5
915.057	3238.5
915.293	3003.5
915.529	3048.5
915.764	3145.5
916	3122.5
916.235	3082.5
916.471	3088.5
916.706	3024.5
916.941	3028.5
917.177	3025.5
917.412	3032.5
917.647	3025.5
917.882	2993.5
918.117	3069.5
918.352	3011.5
918.588	3080.5
918.823	2938.5
919.057	2995.5
919.292	2848.5
919.527	2954.5
919.762	2896.5
919.997	2907.5
920.232	2861.5
920.466	2894.5
920.701	2751.5
920.935	2747.5
921.17	2770.5
921.405	2694.5
921.639	2779.5
921.873	2713.5
922.108	2732.5
922.342	2699.5
922.576	2666.5
922.811	2644.5
923.045	2703.5
923.279	2760.5
923.513	2622.5
923.747	2664.5
923.981	2624.5
924.215	2624.5
924.449	2597.5
924.683	2529.5
924.917	2591.5
925.151	2560.5
925.385	2604.5
925.618	2573.5
925.852	2570.5
926.086	2513.5
926.319	2552.5
926.553	2508.5
926.786	2584.5
927.02	2533.5
927.253	2565.5
927.486	2553.5
927.72	2466.5
927.953	2513.5
928.186	2507.5
928.42	2507.5
928.653	2424.5
928.886	2453.5
929.119	2471.5
929.352	2456.5
929.585	2471.5
929.818	2416.5
930.051	2434.5
930.284	2435.5
930.516	2355.5
930.749	2362.5
930.982	2345.5
931.215	2370.5
931.447	2337.5
931.68	2348.5
931.912	2331.5
932.145	2299.5
932.377	2330.5
932.61	2449.5
932.842	2246.5
933.074	2319.5
933.307	2274.5
933.539	2393.5
933.771	2368.5
934.003	2277.5
934.236	2367.5
934.468	2407.5
934.7	2286.5
934.932	2329.5
935.164	2280.5
935.395	2254.5
935.627	2265.5
935.859	2283.5
936.091	2230.5
936.323	2293.5
936.554	2308.5
936.786	2257.5
937.017	2211.5
937.249	2286.5
937.481	2184.5
937.712	2222.5
937.943	2199.5
938.175	2155.5
938.406	2223.5
938.637	2260.5
938.869	2151.5
939.1	2243.5
939.331	2203.5
939.562	2207.5
939.793	2204.5
940.024	2230.5
940.255	2223.5
940.486	2149.5
940.717	2172.5
940.948	2149.5
941.179	2093.5
941.409	2116.5
941.64	2118.5
941.871	2134.5
942.102	2121.5
942.332	2107.5
942.563	2165.5
942.793	2145.5
943.024	2042.5
943.254	2113.5
943.484	2156.5
943.715	2166.5
943.945	2109.5
944.175	2078.5
944.405	2035.5
944.636	2047.5
944.866	2103.5
945.096	2086.5
945.326	2045.5
945.556	2108.5
945.786	2114.5
946.016	2060.5
946.245	2023.5
946.475	2016.5
946.705	1986.5
946.935	2008.5
947.164	2017.5
947.394	1972.5
947.624	1997.5
947.853	2059.5
948.083	2008.5
948.312	1952.5
948.542	1891.5
948.771	1914.5
949	1914.5
949.23	1923.5
949.459	1940.5
949.688	1970.5
949.917	1962.5
950.146	1975.5
950.375	2020.5
950.604	1896.5
950.833	1982.5
951.062	1937.5
951.291	1907.5
951.52	1890.5
951.749	1939.5
951.978	1869.5
952.206	1870.5
952.435	1844.5
952.664	1906.5
952.892	1937.5
953.121	1868.5
953.349	1930.5
953.578	1907.5
953.806	1845.5
954.035	1786.5
954.263	1845.5
954.491	1810.5
954.719	1856.5
954.948	1770.5
955.176	1777.5
955.404	1705.5
955.632	1807.5
955.86	1794.5
956.088	1780.5
956.316	1800.5
956.544	1839.5
956.772	1747.5
956.999	1743.5
957.227	1794.5
957.455	1721.5
957.683	1758.5
957.91	1712.5
958.138	1697.5
958.365	1731.5
958.593	1690.5
958.82	1652.5
959.048	1705.5
959.275	1725.5
959.502	1670.5
959.73	1638.5
959.957	1705.5
960.184	1718.5
960.411	1661.5
960.638	1759.5
960.865	1671.5
961.092	1699.5
961.319	1627.5
961.546	1693.5
961.773	1698.5
962	1615.5
962.227	1696.5
962.454	1648.5
962.68	1659.5
962.907	1667.5
963.134	1615.5
963.36	1631.5
963.587	1645.5
963.813	1598.5
964.04	1620.5
964.266	1578.5
964.493	1662.5
964.719	1627.5
964.945	1589.5
965.171	1541.5
965.398	1595.5
965.624	1631.5
965.85	1542.5
966.076	1555.5
966.302	1609.5
966.528	1539.5
966.754	1595.5
966.98	1567.5
967.206	1566.5
967.431	1518.5
967.657	1590.5
967.883	1569.5
968.109	1553.5
968.334	1485.5
968.56	1491.5
968.785	1540.5
969.011	1463.5
969.236	1523.5
969.462	1463.5
969.687	1494.5
969.912	1529.5
970.138	1548.5
970.363	1471.5
970.588	1508.5
970.813	1462.5
971.038	1468.5
971.263	1478.5
971.488	1493.5
971.713	1487.5
971.938	1495.5
972.163	1412.5
972.388	1439.5
972.613	1420.5
972.838	1439.5
973.062	1439.5
973.287	1420.5
973.512	1368.5
973.736	1415.5
973.961	1402.5
974.185	1371.5
974.41	1416.5
974.634	1322.5
974.858	1358.5
975.083	1406.5
975.307	1436.5
975.531	1339.5
975.755	1306.5
975.98	1351.5
976.204	1262.5
976.428	1286.5
976.652	1289.5
976.876	1248.5
977.1	1321.5
977.324	1284.5
977.547	1329.5
977.771	1342.5
977.995	1313.5
978.219	1248.5
978.442	1362.5
978.666	1297.5
978.89	1284.5
979.113	1309.5
979.337	1298.5
979.56	1242.5
979.783	1330.5
980.007	1248.5
980.23	1267.5
980.453	1260.5
980.677	1274.5
980.9	1277.5
981.123	1185.5
981.346	1264.5
981.569	1247.5
981.792	1295.5
982.015	1240.5
982.238	1209.5
982.461	1232.5
982.684	1205.5
982.907	1207.5
983.129	1203.5
983.352	1232.5
983.575	1213.5
983.797	1242.5
984.02	1181.5
984.242	1194.5
984.465	1202.5
984.687	1232.5
984.91	1235.5
985.132	1214.5
985.354	1217.5
985.577	1212.5
985.799	1214.5
986.021	1122.5
986.243	1160.5
986.465	1171.5
986.687	1208.5
986.909	1282.5
987.131	1210.5
987.353	1156.5
987.575	1197.5
987.797	1189.5
988.019	1100.5
988.241	1170.5
988.462	1133.5
988.684	1198.5
988.906	1211.5
989.127	1250.5
989.349	1118.5
989.57	1146.5
989.792	1208.5
990.013	1211.5
990.234	1191.5
990.456	1256.5
990.677	1218.5
990.898	1138.5
991.119	1168.5
991.341	1198.5
991.562	1107.5
991.783	1180.5
992.004	1124.5
992.225	1107.5
992.446	1157.5
992.667	1066.5
992.887	1155.5
993.108	1052.5
993.329	1177.5
993.55	1127.5
993.77	1076.5
993.991	1094.5
994.212	1129.5
994.432	1112.5
994.653	1131.5
994.873	1130.5
995.093	1017.5
995.314	1072.5
995.534	1148.5
995.754	1161.5
995.975	1165.5
996.195	1070.5
996.415	1114.5
996.635	1099.5
996.855	1092.5
997.075	1079.5
997.295	1086.5
997.515	1070.5
997.735	1115.5
997.955	1103.5
998.174	1093.5
998.394	1035.5
998.614	1126.5
998.834	1076.5
999.053	1114.5
999.273	1098.5
999.492	1177.5
999.712	1101.5
999.931	1078.5
1000.151	1114.5
1000.37	1087.5
1000.589	1137.5
1000.809	1082.5
1001.028	1195.5
1001.247	1141.5
1001.466	1036.5
1001.685	1168.5
1001.904	1156.5
1002.123	1084.5
1002.342	1131.5
1002.561	1090.5
1002.78	1111.5
1002.999	1162.5
1003.218	1133.5
1003.436	1077.5
1003.655	1169.5
1003.874	1091.5
1004.092	1107.5
1004.311	1162.5
1004.53	1092.5
1004.748	1179.5
1004.966	1117.5
1005.185	1167.5
1005.403	1144.5
1005.622	1143.5
1005.84	1204.5
1006.058	1111.5
1006.276	1129.5
1006.494	1619.5
1006.712	1121.5
1006.931	1216.5
1007.149	1120.5
1007.367	1109.5
1007.584	1142.5
1007.802	1201.5
1008.02	1133.5
1008.238	1243.5
1008.456	1223.5
1008.673	1096.5
1008.891	1212.5
1009.109	1149.5
1009.326	1222.5
1009.544	1293.5
1009.761	1216.5
1009.979	1319.5
1010.196	1309.5
1010.413	1428.5
1010.631	1439.5
1010.848	1454.5
1011.065	1470.5
1011.282	1435.5
1011.5	1371.5
1011.717	1473.5
1011.934	1413.5
1012.151	1457.5
1012.368	1432.5
1012.585	1365.5
1012.801	1409.5
1013.018	1401.5
1013.235	1365.5
1013.452	1403.5
1013.669	1443.5
1013.885	1388.5
1014.102	1434.5
1014.318	1392.5
1014.535	1345.5
1014.751	1366.5
1014.968	1382.5
1015.184	1414.5
1015.401	1317.5
1015.617	1350.5
1015.833	1308.5
1016.049	1306.5
1016.266	1267.5
1016.482	1323.5
1016.698	1227.5
1016.914	1297.5
1017.13	1241.5
1017.346	1225.5
1017.562	1286.5
1017.778	1251.5
1017.993	1208.5
1018.209	1250.5
1018.425	1270.5
1018.641	1217.5
1018.856	1173.5
1019.072	1227.5
1019.288	1267.5
1019.503	1234.5
1019.719	1136.5
1019.934	1136.5
1020.149	1232.5
1020.365	1174.5
1020.58	1124.5
1020.795	1165.5
1021.011	1078.5
1021.226	1104.5
1021.441	1101.5
1021.656	1039.5
1021.871	974.5
1022.086	989.5
1022.301	1002.5
1022.516	987.5
1022.731	1038.5
1022.946	950.5
1023.16	922.5
1023.375	925.5
1023.59	889.5
1023.804	849.5
1024.019	961.5
1024.234	828.5
1024.448	879.5
1024.663	813.5
1024.877	818.5
1025.092	860.5
1025.306	856.5
1025.52	776.5
1025.734	874.5
1025.949	797.5
1026.163	764.5
1026.377	695.5
1026.591	768.5
1026.805	683.5
1027.019	680.5
1027.233	654.5
1027.447	615.5
1027.661	729.5
1027.875	660.5
1028.088	661.5
1028.302	593.5
1028.516	605.5
1028.73	587.5
1028.943	588.5
1029.157	551.5
1029.37	519.5
1029.584	-5.5
1029.797	-2.5
1030.011	-2.5
1030.224	-0.5
