Data from QEP037381__74__11-33-15-596.txt Node

Date: Wed Dec 21 11:33:15 EST 2022
User: dcclab
Spectrometer: QEP03738
Trigger mode: 4
Integration Time (sec): 1.000000E1
Scans to average: 1
Electric dark correction enabled: true
Nonlinearity correction enabled: false
Boxcar width: 0
XAxis mode: Wavelengths
Number of Pixels in Spectrum: 1044
>>>>>Begin Spectral Data<<<<<
784.041	11.25
784.3	-1.75
784.558	-2.75
784.817	-1.75
785.075	44727.25
785.334	8962.25
785.592	4740.25
785.851	3338.25
786.109	2558.25
786.368	2022.25
786.626	1656.25
786.884	1406.25
787.143	1197.25
787.401	1010.25
787.659	937.25
787.917	827.25
788.175	754.25
788.433	687.25
788.691	646.25
788.949	588.25
789.207	590.25
789.465	524.25
789.723	499.25
789.98	456.25
790.238	495.25
790.496	480.25
790.753	462.25
791.011	528.25
791.268	443.25
791.526	446.25
791.783	477.25
792.041	455.25
792.298	378.25
792.556	433.25
792.813	421.25
793.07	399.25
793.327	407.25
793.584	481.25
793.841	391.25
794.099	424.25
794.356	459.25
794.613	384.25
794.869	416.25
795.126	374.25
795.383	372.25
795.64	386.25
795.897	348.25
796.153	408.25
796.41	388.25
796.667	382.25
796.923	386.25
797.18	389.25
797.436	414.25
797.693	368.25
797.949	423.25
798.206	460.25
798.462	373.25
798.718	436.25
798.974	419.25
799.231	441.25
799.487	442.25
799.743	427.25
799.999	468.25
800.255	472.25
800.511	448.25
800.767	479.25
801.023	471.25
801.279	511.25
801.534	552.25
801.79	571.25
802.046	580.25
802.302	704.25
802.557	791.25
802.813	965.25
803.068	1179.25
803.324	1604.25
803.579	2154.25
803.835	2936.25
804.09	4012.25
804.345	5224.25
804.601	6526.25
804.856	7876.25
805.111	8990.25
805.366	9962.25
805.621	10614.25
805.876	11083.25
806.131	11407.25
806.386	11651.25
806.641	11804.25
806.896	11992.25
807.151	12403.25
807.406	12488.25
807.661	12712.25
807.915	12987.25
808.17	13107.25
808.425	13359.25
808.679	13414.25
808.934	13676.25
809.188	13720.25
809.443	13918.25
809.697	14127.25
809.951	14193.25
810.206	14403.25
810.46	14473.25
810.714	14577.25
810.968	14747.25
811.223	14827.25
811.477	14971.25
811.731	15169.25
811.985	15161.25
812.239	15243.25
812.493	15339.25
812.747	15363.25
813	15410.25
813.254	15537.25
813.508	15722.25
813.762	15698.25
814.015	15767.25
814.269	15938.25
814.522	15986.25
814.776	16265.25
815.03	16590.25
815.283	16743.25
815.536	16977.25
815.79	17189.25
816.043	17485.25
816.296	17771.25
816.55	17970.25
816.803	18211.25
817.056	18459.25
817.309	18692.25
817.562	18897.25
817.815	18990.25
818.068	19218.25
818.321	19497.25
818.574	19595.25
818.827	19875.25
819.079	20064.25
819.332	20544.25
819.585	20720.25
819.838	20950.25
820.09	21094.25
820.343	21208.25
820.595	21295.25
820.848	21444.25
821.1	21573.25
821.353	21448.25
821.605	21655.25
821.857	21652.25
822.11	21467.25
822.362	21584.25
822.614	21446.25
822.866	21395.25
823.118	21362.25
823.37	21562.25
823.622	21568.25
823.874	21620.25
824.126	21800.25
824.378	21723.25
824.63	21891.25
824.882	21866.25
825.134	21888.25
825.385	21932.25
825.637	21739.25
825.888	21743.25
826.14	21711.25
826.392	21628.25
826.643	21497.25
826.895	21411.25
827.146	21339.25
827.397	21377.25
827.649	21431.25
827.9	21339.25
828.151	21396.25
828.402	21350.25
828.653	21464.25
828.905	21476.25
829.156	21539.25
829.407	21470.25
829.658	21436.25
829.909	21581.25
830.159	21571.25
830.41	21351.25
830.661	21358.25
830.912	21190.25
831.162	21137.25
831.413	21113.25
831.664	21111.25
831.914	21142.25
832.165	21031.25
832.415	21040.25
832.666	21040.25
832.916	21103.25
833.167	20985.25
833.417	21068.25
833.667	20875.25
833.917	20807.25
834.168	20891.25
834.418	20715.25
834.668	20655.25
834.918	20458.25
835.168	20572.25
835.418	20377.25
835.668	20478.25
835.918	20378.25
836.167	20308.25
836.417	20252.25
836.667	20320.25
836.917	20232.25
837.166	20270.25
837.416	20256.25
837.666	20309.25
837.915	20211.25
838.165	20129.25
838.414	20091.25
838.663	19990.25
838.913	20055.25
839.162	19897.25
839.411	19941.25
839.661	19802.25
839.91	19828.25
840.159	19852.25
840.408	19872.25
840.657	19968.25
840.906	19839.25
841.155	19885.25
841.404	19833.25
841.653	19921.25
841.902	19868.25
842.15	19995.25
842.399	20027.25
842.648	19926.25
842.897	19834.25
843.145	19664.25
843.394	19554.25
843.642	19446.25
843.891	19461.25
844.139	19332.25
844.388	19076.25
844.636	19024.25
844.884	19146.25
845.133	19062.25
845.381	19019.25
845.629	19075.25
845.877	18949.25
846.125	18905.25
846.373	19040.25
846.621	18811.25
846.869	18835.25
847.117	18781.25
847.365	18671.25
847.613	18533.25
847.861	18461.25
848.108	18498.25
848.356	18483.25
848.604	18383.25
848.851	18479.25
849.099	18421.25
849.346	18513.25
849.594	18563.25
849.841	18736.25
850.089	18870.25
850.336	18891.25
850.583	18938.25
850.831	18906.25
851.078	18814.25
851.325	18654.25
851.572	18511.25
851.819	18340.25
852.066	18001.25
852.313	17818.25
852.56	17677.25
852.807	17582.25
853.054	17608.25
853.301	17482.25
853.548	17651.25
853.794	17499.25
854.041	17666.25
854.288	17622.25
854.534	18018.25
854.781	17826.25
855.028	17817.25
855.274	17858.25
855.52	17801.25
855.767	17622.25
856.013	17638.25
856.26	17763.25
856.506	17388.25
856.752	17416.25
856.998	17484.25
857.244	17477.25
857.49	17556.25
857.736	17562.25
857.982	17555.25
858.228	17558.25
858.474	17403.25
858.72	17323.25
858.966	17094.25
859.212	17008.25
859.458	16734.25
859.703	16696.25
859.949	16434.25
860.195	16449.25
860.44	16340.25
860.686	16235.25
860.931	16238.25
861.177	16078.25
861.422	16155.25
861.667	16037.25
861.913	16001.25
862.158	16068.25
862.403	16172.25
862.648	16159.25
862.893	16238.25
863.138	16189.25
863.384	16086.25
863.629	16130.25
863.873	16097.25
864.118	16118.25
864.363	15898.25
864.608	15914.25
864.853	15901.25
865.098	15770.25
865.342	15813.25
865.587	15699.25
865.832	15584.25
866.076	15621.25
866.321	15549.25
866.565	15488.25
866.81	15463.25
867.054	15369.25
867.298	15400.25
867.543	15275.25
867.787	15313.25
868.031	15299.25
868.275	15211.25
868.519	15161.25
868.764	15252.25
869.008	15123.25
869.252	15107.25
869.496	15032.25
869.739	15037.25
869.983	14995.25
870.227	14964.25
870.471	14975.25
870.715	15006.25
870.958	15091.25
871.202	14984.25
871.446	15047.25
871.689	15046.25
871.933	15052.25
872.176	15081.25
872.42	14998.25
872.663	14970.25
872.906	14977.25
873.15	14972.25
873.393	14855.25
873.636	14768.25
873.879	14622.25
874.122	14495.25
874.366	14364.25
874.609	14310.25
874.852	14159.25
875.095	14114.25
875.337	14064.25
875.58	13997.25
875.823	13997.25
876.066	13945.25
876.309	13924.25
876.551	13741.25
876.794	13739.25
877.037	13721.25
877.279	13621.25
877.522	13647.25
877.764	13648.25
878.007	13661.25
878.249	13685.25
878.491	13660.25
878.734	13675.25
878.976	13541.25
879.218	13490.25
879.46	13471.25
879.702	13299.25
879.945	13257.25
880.187	13170.25
880.429	13050.25
880.671	13023.25
880.912	12881.25
881.154	12894.25
881.396	12845.25
881.638	12963.25
881.88	12843.25
882.121	12816.25
882.363	12831.25
882.605	12751.25
882.846	12643.25
883.088	12701.25
883.329	12677.25
883.571	12660.25
883.812	12746.25
884.053	12893.25
884.295	13070.25
884.536	13055.25
884.777	13004.25
885.018	12962.25
885.259	12936.25
885.5	12776.25
885.742	13021.25
885.982	12786.25
886.223	12719.25
886.464	12675.25
886.705	12503.25
886.946	12449.25
887.187	12323.25
887.428	12245.25
887.668	12157.25
887.909	11936.25
888.15	11791.25
888.39	11784.25
888.631	11763.25
888.871	11693.25
889.111	11513.25
889.352	11451.25
889.592	11375.25
889.833	11283.25
890.073	11175.25
890.313	11266.25
890.553	11068.25
890.793	11042.25
891.033	11022.25
891.273	10972.25
891.513	10982.25
891.753	10940.25
891.993	10899.25
892.233	10968.25
892.473	11007.25
892.713	10956.25
892.952	10935.25
893.192	10937.25
893.432	10957.25
893.671	10917.25
893.911	10799.25
894.15	10796.25
894.39	10628.25
894.629	10670.25
894.869	10590.25
895.108	10559.25
895.347	10467.25
895.587	10500.25
895.826	10406.25
896.065	10368.25
896.304	10359.25
896.543	10469.25
896.782	10362.25
897.021	10346.25
897.26	10297.25
897.499	10259.25
897.738	10306.25
897.977	10236.25
898.216	10166.25
898.454	10081.25
898.693	10024.25
898.932	9997.25
899.17	9939.25
899.409	9933.25
899.647	9856.25
899.886	9822.25
900.124	9854.25
900.363	9891.25
900.601	9901.25
900.839	9874.25
901.078	9929.25
901.316	9956.25
901.554	9932.25
901.792	10047.25
902.03	9860.25
902.268	9933.25
902.506	9928.25
902.744	9805.25
902.982	9802.25
903.22	9637.25
903.458	9525.25
903.695	9460.25
903.933	9310.25
904.171	9212.25
904.409	9048.25
904.646	8939.25
904.884	8885.25
905.121	8770.25
905.359	8608.25
905.596	8630.25
905.833	8474.25
906.071	8469.25
906.308	8539.25
906.545	8411.25
906.783	8321.25
907.02	8330.25
907.257	8263.25
907.494	8269.25
907.731	8326.25
907.968	8259.25
908.205	8158.25
908.442	8148.25
908.679	8126.25
908.915	8074.25
909.152	7949.25
909.389	7851.25
909.626	7798.25
909.862	7792.25
910.099	7825.25
910.335	7812.25
910.572	7695.25
910.808	7741.25
911.045	7643.25
911.281	7580.25
911.518	7590.25
911.754	7515.25
911.99	7522.25
912.226	7446.25
912.463	7400.25
912.699	7323.25
912.935	7279.25
913.171	7251.25
913.407	7205.25
913.643	7156.25
913.879	7057.25
914.114	6989.25
914.35	6942.25
914.586	6863.25
914.822	6779.25
915.057	6796.25
915.293	6695.25
915.529	6693.25
915.764	6787.25
916	6729.25
916.235	6646.25
916.471	6746.25
916.706	6612.25
916.941	6618.25
917.177	6592.25
917.412	6657.25
917.647	6502.25
917.882	6548.25
918.117	6557.25
918.352	6525.25
918.588	6545.25
918.823	6408.25
919.057	6391.25
919.292	6263.25
919.527	6304.25
919.762	6158.25
919.997	6222.25
920.232	6081.25
920.466	6138.25
920.701	5960.25
920.935	6015.25
921.17	5953.25
921.405	5906.25
921.639	5956.25
921.873	5890.25
922.108	5894.25
922.342	5865.25
922.576	5790.25
922.811	5745.25
923.045	5748.25
923.279	5770.25
923.513	5609.25
923.747	5690.25
923.981	5638.25
924.215	5593.25
924.449	5598.25
924.683	5487.25
924.917	5484.25
925.151	5487.25
925.385	5490.25
925.618	5490.25
925.852	5469.25
926.086	5421.25
926.319	5433.25
926.553	5427.25
926.786	5384.25
927.02	5377.25
927.253	5421.25
927.486	5404.25
927.72	5347.25
927.953	5408.25
928.186	5292.25
928.42	5330.25
928.653	5266.25
928.886	5232.25
929.119	5248.25
929.352	5190.25
929.585	5240.25
929.818	5132.25
930.051	5168.25
930.284	5137.25
930.516	5011.25
930.749	4980.25
930.982	4992.25
931.215	4974.25
931.447	4914.25
931.68	5005.25
931.912	4927.25
932.145	4913.25
932.377	4885.25
932.61	5029.25
932.842	4850.25
933.074	4897.25
933.307	4828.25
933.539	4944.25
933.771	4900.25
934.003	4767.25
934.236	4892.25
934.468	4906.25
934.7	4841.25
934.932	4820.25
935.164	4782.25
935.395	4798.25
935.627	4801.25
935.859	4822.25
936.091	4729.25
936.323	4740.25
936.554	4771.25
936.786	4740.25
937.017	4676.25
937.249	4714.25
937.481	4614.25
937.712	4667.25
937.943	4641.25
938.175	4599.25
938.406	4571.25
938.637	4661.25
938.869	4561.25
939.1	4566.25
939.331	4487.25
939.562	4578.25
939.793	4532.25
940.024	4542.25
940.255	4529.25
940.486	4465.25
940.717	4448.25
940.948	4444.25
941.179	4347.25
941.409	4422.25
941.64	4417.25
941.871	4421.25
942.102	4360.25
942.332	4383.25
942.563	4443.25
942.793	4381.25
943.024	4366.25
943.254	4340.25
943.484	4382.25
943.715	4419.25
943.945	4399.25
944.175	4305.25
944.405	4372.25
944.636	4316.25
944.866	4327.25
945.096	4328.25
945.326	4277.25
945.556	4293.25
945.786	4383.25
946.016	4233.25
946.245	4237.25
946.475	4175.25
946.705	4181.25
946.935	4148.25
947.164	4093.25
947.394	4120.25
947.624	4115.25
947.853	4131.25
948.083	4093.25
948.312	4051.25
948.542	3976.25
948.771	3977.25
949	3949.25
949.23	3994.25
949.459	3966.25
949.688	4046.25
949.917	4006.25
950.146	3939.25
950.375	4062.25
950.604	3864.25
950.833	3994.25
951.062	3967.25
951.291	3896.25
951.52	3906.25
951.749	3899.25
951.978	3861.25
952.206	3827.25
952.435	3873.25
952.664	3874.25
952.892	3885.25
953.121	3841.25
953.349	3852.25
953.578	3826.25
953.806	3771.25
954.035	3715.25
954.263	3760.25
954.491	3698.25
954.719	3726.25
954.948	3658.25
955.176	3662.25
955.404	3590.25
955.632	3663.25
955.86	3682.25
956.088	3593.25
956.316	3654.25
956.544	3580.25
956.772	3544.25
956.999	3513.25
957.227	3583.25
957.455	3477.25
957.683	3483.25
957.91	3471.25
958.138	3429.25
958.365	3415.25
958.593	3442.25
958.82	3359.25
959.048	3444.25
959.275	3385.25
959.502	3378.25
959.73	3379.25
959.957	3378.25
960.184	3399.25
960.411	3335.25
960.638	3370.25
960.865	3269.25
961.092	3373.25
961.319	3281.25
961.546	3368.25
961.773	3353.25
962	3311.25
962.227	3358.25
962.454	3280.25
962.68	3274.25
962.907	3305.25
963.134	3190.25
963.36	3255.25
963.587	3235.25
963.813	3160.25
964.04	3212.25
964.266	3164.25
964.493	3237.25
964.719	3173.25
964.945	3159.25
965.171	3054.25
965.398	3128.25
965.624	3116.25
965.85	3014.25
966.076	3039.25
966.302	3066.25
966.528	3029.25
966.754	3063.25
966.98	3025.25
967.206	3024.25
967.431	2968.25
967.657	3001.25
967.883	3000.25
968.109	3002.25
968.334	2941.25
968.56	2921.25
968.785	2915.25
969.011	2863.25
969.236	2939.25
969.462	2883.25
969.687	2891.25
969.912	2932.25
970.138	2995.25
970.363	2850.25
970.588	2906.25
970.813	2864.25
971.038	2801.25
971.263	2863.25
971.488	2818.25
971.713	2847.25
971.938	2857.25
972.163	2733.25
972.388	2773.25
972.613	2741.25
972.838	2764.25
973.062	2736.25
973.287	2697.25
973.512	2660.25
973.736	2665.25
973.961	2664.25
974.185	2649.25
974.41	2673.25
974.634	2585.25
974.858	2562.25
975.083	2635.25
975.307	2617.25
975.531	2600.25
975.755	2493.25
975.98	2548.25
976.204	2475.25
976.428	2472.25
976.652	2482.25
976.876	2424.25
977.1	2496.25
977.324	2397.25
977.547	2498.25
977.771	2492.25
977.995	2450.25
978.219	2430.25
978.442	2492.25
978.666	2463.25
978.89	2420.25
979.113	2419.25
979.337	2394.25
979.56	2384.25
979.783	2436.25
980.007	2337.25
980.23	2348.25
980.453	2329.25
980.677	2350.25
980.9	2341.25
981.123	2272.25
981.346	2334.25
981.569	2312.25
981.792	2349.25
982.015	2294.25
982.238	2263.25
982.461	2246.25
982.684	2206.25
982.907	2178.25
983.129	2194.25
983.352	2232.25
983.575	2208.25
983.797	2236.25
984.02	2155.25
984.242	2167.25
984.465	2187.25
984.687	2192.25
984.91	2210.25
985.132	2147.25
985.354	2189.25
985.577	2175.25
985.799	2129.25
986.021	2047.25
986.243	2117.25
986.465	2103.25
986.687	2127.25
986.909	2168.25
987.131	2096.25
987.353	2024.25
987.575	2107.25
987.797	2050.25
988.019	1975.25
988.241	2061.25
988.462	2024.25
988.684	2062.25
988.906	2095.25
989.127	2109.25
989.349	1982.25
989.57	2011.25
989.792	2050.25
990.013	2081.25
990.234	2035.25
990.456	2072.25
990.677	2047.25
990.898	1990.25
991.119	1987.25
991.341	1984.25
991.562	1912.25
991.783	1976.25
992.004	1912.25
992.225	1878.25
992.446	1954.25
992.667	1860.25
992.887	1922.25
993.108	1835.25
993.329	1956.25
993.55	1888.25
993.77	1830.25
993.991	1845.25
994.212	1860.25
994.432	1842.25
994.653	1900.25
994.873	1853.25
995.093	1706.25
995.314	1787.25
995.534	1828.25
995.754	1889.25
995.975	1878.25
996.195	1745.25
996.415	1790.25
996.635	1756.25
996.855	1784.25
997.075	1777.25
997.295	1784.25
997.515	1746.25
997.735	1787.25
997.955	1768.25
998.174	1751.25
998.394	1750.25
998.614	1797.25
998.834	1720.25
999.053	1791.25
999.273	1765.25
999.492	1773.25
999.712	1718.25
999.931	1694.25
1000.151	1729.25
1000.37	1711.25
1000.589	1768.25
1000.809	1669.25
1001.028	1807.25
1001.247	1734.25
1001.466	1634.25
1001.685	1749.25
1001.904	1691.25
1002.123	1675.25
1002.342	1695.25
1002.561	1653.25
1002.78	1687.25
1002.999	1722.25
1003.218	1659.25
1003.436	1633.25
1003.655	1683.25
1003.874	1634.25
1004.092	1639.25
1004.311	1683.25
1004.53	1643.25
1004.748	1716.25
1004.966	1637.25
1005.185	1682.25
1005.403	1686.25
1005.622	1637.25
1005.84	1709.25
1006.058	1608.25
1006.276	1640.25
1006.494	2100.25
1006.712	1647.25
1006.931	1688.25
1007.149	1589.25
1007.367	1593.25
1007.584	1621.25
1007.802	1667.25
1008.02	1628.25
1008.238	1710.25
1008.456	1688.25
1008.673	1584.25
1008.891	1678.25
1009.109	1622.25
1009.326	1665.25
1009.544	1750.25
1009.761	1662.25
1009.979	1738.25
1010.196	1745.25
1010.413	1812.25
1010.631	1868.25
1010.848	1890.25
1011.065	1890.25
1011.282	1844.25
1011.5	1765.25
1011.717	1874.25
1011.934	1813.25
1012.151	1847.25
1012.368	1804.25
1012.585	1783.25
1012.801	1835.25
1013.018	1778.25
1013.235	1771.25
1013.452	1762.25
1013.669	1797.25
1013.885	1784.25
1014.102	1800.25
1014.318	1769.25
1014.535	1730.25
1014.751	1749.25
1014.968	1777.25
1015.184	1796.25
1015.401	1688.25
1015.617	1729.25
1015.833	1639.25
1016.049	1657.25
1016.266	1649.25
1016.482	1673.25
1016.698	1592.25
1016.914	1647.25
1017.13	1562.25
1017.346	1577.25
1017.562	1632.25
1017.778	1596.25
1017.993	1519.25
1018.209	1588.25
1018.425	1592.25
1018.641	1507.25
1018.856	1488.25
1019.072	1525.25
1019.288	1607.25
1019.503	1496.25
1019.719	1453.25
1019.934	1457.25
1020.149	1546.25
1020.365	1473.25
1020.58	1415.25
1020.795	1463.25
1021.011	1390.25
1021.226	1370.25
1021.441	1430.25
1021.656	1349.25
1021.871	1268.25
1022.086	1278.25
1022.301	1246.25
1022.516	1248.25
1022.731	1326.25
1022.946	1215.25
1023.16	1204.25
1023.375	1168.25
1023.59	1163.25
1023.804	1116.25
1024.019	1207.25
1024.234	1086.25
1024.448	1157.25
1024.663	1059.25
1024.877	1081.25
1025.092	1086.25
1025.306	1088.25
1025.52	1004.25
1025.734	1082.25
1025.949	1019.25
1026.163	978.25
1026.377	928.25
1026.591	955.25
1026.805	872.25
1027.019	896.25
1027.233	864.25
1027.447	798.25
1027.661	893.25
1027.875	826.25
1028.088	867.25
1028.302	779.25
1028.516	757.25
1028.73	765.25
1028.943	762.25
1029.157	701.25
1029.37	649.25
1029.584	0.25
1029.797	-0.75
1030.011	-1.75
1030.224	-2.75
