Data from QEP037381__53__11-29-45-595.txt Node

Date: Wed Dec 21 11:29:45 EST 2022
User: dcclab
Spectrometer: QEP03738
Trigger mode: 4
Integration Time (sec): 1.000000E1
Scans to average: 1
Electric dark correction enabled: true
Nonlinearity correction enabled: false
Boxcar width: 0
XAxis mode: Wavelengths
Number of Pixels in Spectrum: 1044
>>>>>Begin Spectral Data<<<<<
784.041	13.88
784.3	0.88
784.558	-4.12
784.817	-4.12
785.075	42025.88
785.334	8535.88
785.592	4534.88
785.851	3243.88
786.109	2439.88
786.368	1963.88
786.626	1616.88
786.884	1389.88
787.143	1194.88
787.401	961.88
787.659	929.88
787.917	780.88
788.175	753.88
788.433	663.88
788.691	614.88
788.949	586.88
789.207	577.88
789.465	501.88
789.723	500.88
789.98	436.88
790.238	496.88
790.496	483.88
790.753	465.88
791.011	512.88
791.268	445.88
791.526	435.88
791.783	468.88
792.041	451.88
792.298	362.88
792.556	448.88
792.813	420.88
793.07	395.88
793.327	395.88
793.584	470.88
793.841	383.88
794.099	410.88
794.356	483.88
794.613	387.88
794.869	415.88
795.126	377.88
795.383	357.88
795.64	388.88
795.897	353.88
796.153	404.88
796.41	382.88
796.667	366.88
796.923	379.88
797.18	380.88
797.436	418.88
797.693	371.88
797.949	418.88
798.206	437.88
798.462	372.88
798.718	430.88
798.974	404.88
799.231	439.88
799.487	427.88
799.743	429.88
799.999	462.88
800.255	462.88
800.511	428.88
800.767	472.88
801.023	451.88
801.279	498.88
801.534	506.88
801.79	549.88
802.046	556.88
802.302	680.88
802.557	734.88
802.813	893.88
803.068	1050.88
803.324	1464.88
803.579	1884.88
803.835	2609.88
804.09	3624.88
804.345	4693.88
804.601	5880.88
804.856	7188.88
805.111	8306.88
805.366	9129.88
805.621	9752.88
805.876	10214.88
806.131	10456.88
806.386	10700.88
806.641	10860.88
806.896	11041.88
807.151	11382.88
807.406	11462.88
807.661	11692.88
807.915	11883.88
808.17	12109.88
808.425	12218.88
808.679	12347.88
808.934	12596.88
809.188	12620.88
809.443	12761.88
809.697	12966.88
809.951	13043.88
810.206	13131.88
810.46	13325.88
810.714	13362.88
810.968	13579.88
811.223	13599.88
811.477	13719.88
811.731	13963.88
811.985	13860.88
812.239	14022.88
812.493	14063.88
812.747	14138.88
813	14179.88
813.254	14351.88
813.508	14408.88
813.762	14430.88
814.015	14592.88
814.269	14557.88
814.522	14789.88
814.776	14913.88
815.03	15152.88
815.283	15438.88
815.536	15699.88
815.79	15831.88
816.043	15984.88
816.296	16248.88
816.55	16555.88
816.803	16733.88
817.056	16955.88
817.309	17115.88
817.562	17373.88
817.815	17552.88
818.068	17667.88
818.321	17826.88
818.574	18045.88
818.827	18306.88
819.079	18423.88
819.332	18823.88
819.585	19059.88
819.838	19287.88
820.09	19461.88
820.343	19628.88
820.595	19647.88
820.848	19740.88
821.1	19900.88
821.353	19903.88
821.605	19879.88
821.857	19824.88
822.11	19766.88
822.362	19746.88
822.614	19730.88
822.866	19790.88
823.118	19598.88
823.37	19837.88
823.622	19855.88
823.874	19873.88
824.126	20012.88
824.378	20085.88
824.63	20043.88
824.882	20182.88
825.134	20099.88
825.385	20074.88
825.637	20058.88
825.888	19996.88
826.14	19937.88
826.392	19888.88
826.643	19763.88
826.895	19754.88
827.146	19626.88
827.397	19637.88
827.649	19661.88
827.9	19606.88
828.151	19700.88
828.402	19783.88
828.653	19767.88
828.905	19867.88
829.156	19801.88
829.407	19816.88
829.658	19914.88
829.909	19971.88
830.159	19933.88
830.41	19821.88
830.661	19665.88
830.912	19652.88
831.162	19465.88
831.413	19386.88
831.664	19498.88
831.914	19443.88
832.165	19392.88
832.415	19493.88
832.666	19520.88
832.916	19465.88
833.167	19492.88
833.417	19489.88
833.667	19311.88
833.917	19373.88
834.168	19247.88
834.418	19318.88
834.668	19134.88
834.918	18928.88
835.168	18965.88
835.418	18839.88
835.668	18985.88
835.918	18986.88
836.167	18767.88
836.417	18736.88
836.667	18787.88
836.917	18725.88
837.166	18736.88
837.416	18786.88
837.666	18684.88
837.915	18719.88
838.165	18668.88
838.414	18570.88
838.663	18594.88
838.913	18508.88
839.162	18519.88
839.411	18539.88
839.661	18317.88
839.91	18324.88
840.159	18389.88
840.408	18413.88
840.657	18364.88
840.906	18499.88
841.155	18338.88
841.404	18439.88
841.653	18424.88
841.902	18408.88
842.15	18479.88
842.399	18519.88
842.648	18497.88
842.897	18472.88
843.145	18285.88
843.394	18094.88
843.642	18020.88
843.891	17947.88
844.139	17870.88
844.388	17713.88
844.636	17658.88
844.884	17672.88
845.133	17683.88
845.381	17589.88
845.629	17657.88
845.877	17660.88
846.125	17537.88
846.373	17606.88
846.621	17438.88
846.869	17353.88
847.117	17371.88
847.365	17256.88
847.613	17277.88
847.861	17150.88
848.108	17151.88
848.356	17118.88
848.604	17066.88
848.851	17098.88
849.099	17072.88
849.346	17221.88
849.594	17276.88
849.841	17372.88
850.089	17546.88
850.336	17680.88
850.583	17668.88
850.831	17556.88
851.078	17349.88
851.325	17252.88
851.572	17214.88
851.819	17001.88
852.066	16690.88
852.313	16465.88
852.56	16405.88
852.807	16344.88
853.054	16228.88
853.301	16294.88
853.548	16249.88
853.794	16399.88
854.041	16415.88
854.288	16431.88
854.534	16664.88
854.781	16586.88
855.028	16608.88
855.274	16587.88
855.52	16407.88
855.767	16382.88
856.013	16419.88
856.26	16678.88
856.506	16242.88
856.752	16189.88
856.998	16283.88
857.244	16349.88
857.49	16406.88
857.736	16349.88
857.982	16410.88
858.228	16345.88
858.474	16235.88
858.72	16077.88
858.966	15958.88
859.212	15805.88
859.458	15666.88
859.703	15512.88
859.949	15307.88
860.195	15335.88
860.44	15170.88
860.686	15118.88
860.931	15075.88
861.177	14982.88
861.422	15056.88
861.667	14879.88
861.913	14946.88
862.158	14917.88
862.403	15032.88
862.648	15082.88
862.893	15091.88
863.138	15117.88
863.384	14992.88
863.629	15015.88
863.873	14998.88
864.118	14951.88
864.363	14892.88
864.608	14913.88
864.853	14763.88
865.098	14763.88
865.342	14748.88
865.587	14631.88
865.832	14640.88
866.076	14570.88
866.321	14565.88
866.565	14367.88
866.81	14389.88
867.054	14395.88
867.298	14342.88
867.543	14202.88
867.787	14272.88
868.031	14218.88
868.275	14233.88
868.519	14201.88
868.764	14221.88
869.008	14119.88
869.252	14198.88
869.496	14116.88
869.739	14011.88
869.983	14072.88
870.227	13979.88
870.471	14006.88
870.715	14028.88
870.958	14060.88
871.202	14158.88
871.446	14135.88
871.689	14038.88
871.933	14115.88
872.176	14116.88
872.42	14040.88
872.663	14025.88
872.906	14147.88
873.15	13984.88
873.393	13927.88
873.636	13857.88
873.879	13750.88
874.122	13547.88
874.366	13384.88
874.609	13381.88
874.852	13310.88
875.095	13115.88
875.337	13158.88
875.58	12988.88
875.823	13013.88
876.066	13013.88
876.309	12989.88
876.551	12833.88
876.794	12757.88
877.037	12822.88
877.279	12708.88
877.522	12817.88
877.764	12817.88
878.007	12806.88
878.249	12840.88
878.491	12729.88
878.734	12806.88
878.976	12736.88
879.218	12656.88
879.46	12533.88
879.702	12600.88
879.945	12419.88
880.187	12287.88
880.429	12207.88
880.671	12105.88
880.912	12199.88
881.154	12176.88
881.396	12020.88
881.638	12061.88
881.88	12134.88
882.121	11992.88
882.363	12086.88
882.605	12116.88
882.846	12020.88
883.088	12021.88
883.329	11904.88
883.571	11969.88
883.812	12048.88
884.053	12208.88
884.295	12384.88
884.536	12466.88
884.777	12270.88
885.018	12221.88
885.259	12242.88
885.5	12109.88
885.742	12276.88
885.982	12150.88
886.223	11994.88
886.464	11918.88
886.705	11851.88
886.946	11756.88
887.187	11526.88
887.428	11532.88
887.668	11349.88
887.909	11179.88
888.15	11175.88
888.39	11111.88
888.631	11053.88
888.871	11016.88
889.111	10924.88
889.352	10839.88
889.592	10721.88
889.833	10658.88
890.073	10627.88
890.313	10566.88
890.553	10476.88
890.793	10407.88
891.033	10271.88
891.273	10344.88
891.513	10298.88
891.753	10267.88
891.993	10246.88
892.233	10239.88
892.473	10337.88
892.713	10300.88
892.952	10254.88
893.192	10282.88
893.432	10254.88
893.671	10251.88
893.911	10201.88
894.15	10165.88
894.39	10024.88
894.629	10012.88
894.869	9997.88
895.108	9949.88
895.347	9851.88
895.587	9938.88
895.826	9864.88
896.065	9745.88
896.304	9829.88
896.543	9828.88
896.782	9726.88
897.021	9711.88
897.26	9639.88
897.499	9739.88
897.738	9652.88
897.977	9641.88
898.216	9560.88
898.454	9473.88
898.693	9385.88
898.932	9332.88
899.17	9294.88
899.409	9395.88
899.647	9356.88
899.886	9274.88
900.124	9355.88
900.363	9358.88
900.601	9354.88
900.839	9376.88
901.078	9404.88
901.316	9376.88
901.554	9422.88
901.792	9397.88
902.03	9432.88
902.268	9367.88
902.506	9410.88
902.744	9271.88
902.982	9301.88
903.22	9184.88
903.458	9012.88
903.695	8889.88
903.933	8780.88
904.171	8597.88
904.409	8553.88
904.646	8420.88
904.884	8304.88
905.121	8326.88
905.359	8211.88
905.596	8067.88
905.833	8087.88
906.071	7950.88
906.308	8005.88
906.545	7966.88
906.783	7858.88
907.02	7893.88
907.257	7823.88
907.494	7846.88
907.731	7840.88
907.968	7773.88
908.205	7696.88
908.442	7672.88
908.679	7607.88
908.915	7582.88
909.152	7521.88
909.389	7370.88
909.626	7410.88
909.862	7359.88
910.099	7387.88
910.335	7312.88
910.572	7248.88
910.808	7269.88
911.045	7183.88
911.281	7155.88
911.518	7165.88
911.754	7085.88
911.99	7071.88
912.226	7012.88
912.463	6961.88
912.699	6895.88
912.935	6911.88
913.171	6842.88
913.407	6750.88
913.643	6733.88
913.879	6666.88
914.114	6671.88
914.35	6544.88
914.586	6484.88
914.822	6410.88
915.057	6496.88
915.293	6292.88
915.529	6299.88
915.764	6380.88
916	6310.88
916.235	6258.88
916.471	6274.88
916.706	6253.88
916.941	6246.88
917.177	6225.88
917.412	6257.88
917.647	6179.88
917.882	6140.88
918.117	6261.88
918.352	6161.88
918.588	6179.88
918.823	6013.88
919.057	6073.88
919.292	5918.88
919.527	5927.88
919.762	5876.88
919.997	5856.88
920.232	5747.88
920.466	5770.88
920.701	5615.88
920.935	5661.88
921.17	5590.88
921.405	5552.88
921.639	5600.88
921.873	5538.88
922.108	5515.88
922.342	5542.88
922.576	5414.88
922.811	5443.88
923.045	5444.88
923.279	5455.88
923.513	5316.88
923.747	5393.88
923.981	5286.88
924.215	5251.88
924.449	5269.88
924.683	5198.88
924.917	5181.88
925.151	5153.88
925.385	5254.88
925.618	5166.88
925.852	5149.88
926.086	5050.88
926.319	5162.88
926.553	5040.88
926.786	5089.88
927.02	5057.88
927.253	5112.88
927.486	5068.88
927.72	5027.88
927.953	5047.88
928.186	5049.88
928.42	5060.88
928.653	4934.88
928.886	4921.88
929.119	5003.88
929.352	4943.88
929.585	4928.88
929.818	4853.88
930.051	4815.88
930.284	4783.88
930.516	4689.88
930.749	4711.88
930.982	4688.88
931.215	4727.88
931.447	4659.88
931.68	4560.88
931.912	4618.88
932.145	4612.88
932.377	4626.88
932.61	4714.88
932.842	4541.88
933.074	4610.88
933.307	4528.88
933.539	4654.88
933.771	4605.88
934.003	4563.88
934.236	4658.88
934.468	4601.88
934.7	4569.88
934.932	4611.88
935.164	4513.88
935.395	4487.88
935.627	4529.88
935.859	4525.88
936.091	4427.88
936.323	4485.88
936.554	4475.88
936.786	4417.88
937.017	4371.88
937.249	4447.88
937.481	4343.88
937.712	4337.88
937.943	4415.88
938.175	4301.88
938.406	4340.88
938.637	4344.88
938.869	4263.88
939.1	4305.88
939.331	4279.88
939.562	4310.88
939.793	4276.88
940.024	4272.88
940.255	4292.88
940.486	4214.88
940.717	4202.88
940.948	4187.88
941.179	4128.88
941.409	4152.88
941.64	4129.88
941.871	4167.88
942.102	4128.88
942.332	4151.88
942.563	4153.88
942.793	4159.88
943.024	4058.88
943.254	4137.88
943.484	4113.88
943.715	4194.88
943.945	4147.88
944.175	4067.88
944.405	4078.88
944.636	4065.88
944.866	4113.88
945.096	4110.88
945.326	4024.88
945.556	4065.88
945.786	4068.88
946.016	3980.88
946.245	3949.88
946.475	3974.88
946.705	3934.88
946.935	3871.88
947.164	3890.88
947.394	3836.88
947.624	3853.88
947.853	3871.88
948.083	3832.88
948.312	3788.88
948.542	3751.88
948.771	3721.88
949	3732.88
949.23	3735.88
949.459	3722.88
949.688	3809.88
949.917	3746.88
950.146	3750.88
950.375	3767.88
950.604	3700.88
950.833	3788.88
951.062	3736.88
951.291	3720.88
951.52	3659.88
951.749	3674.88
951.978	3620.88
952.206	3628.88
952.435	3603.88
952.664	3627.88
952.892	3669.88
953.121	3596.88
953.349	3587.88
953.578	3601.88
953.806	3495.88
954.035	3476.88
954.263	3507.88
954.491	3506.88
954.719	3483.88
954.948	3478.88
955.176	3451.88
955.404	3369.88
955.632	3430.88
955.86	3434.88
956.088	3348.88
956.316	3417.88
956.544	3432.88
956.772	3339.88
956.999	3332.88
957.227	3403.88
957.455	3289.88
957.683	3308.88
957.91	3224.88
958.138	3225.88
958.365	3229.88
958.593	3216.88
958.82	3112.88
959.048	3236.88
959.275	3204.88
959.502	3150.88
959.73	3163.88
959.957	3157.88
960.184	3189.88
960.411	3138.88
960.638	3172.88
960.865	3119.88
961.092	3162.88
961.319	3086.88
961.546	3158.88
961.773	3130.88
962	3134.88
962.227	3142.88
962.454	3090.88
962.68	3060.88
962.907	3082.88
963.134	3047.88
963.36	3064.88
963.587	3058.88
963.813	3020.88
964.04	2988.88
964.266	2959.88
964.493	3042.88
964.719	2981.88
964.945	2954.88
965.171	2858.88
965.398	2972.88
965.624	2956.88
965.85	2873.88
966.076	2802.88
966.302	2883.88
966.528	2830.88
966.754	2884.88
966.98	2865.88
967.206	2855.88
967.431	2792.88
967.657	2842.88
967.883	2846.88
968.109	2823.88
968.334	2793.88
968.56	2697.88
968.785	2759.88
969.011	2733.88
969.236	2766.88
969.462	2690.88
969.687	2742.88
969.912	2769.88
970.138	2730.88
970.363	2678.88
970.588	2702.88
970.813	2632.88
971.038	2637.88
971.263	2701.88
971.488	2644.88
971.713	2664.88
971.938	2662.88
972.163	2561.88
972.388	2569.88
972.613	2571.88
972.838	2562.88
973.062	2547.88
973.287	2563.88
973.512	2492.88
973.736	2525.88
973.961	2501.88
974.185	2471.88
974.41	2530.88
974.634	2446.88
974.858	2443.88
975.083	2467.88
975.307	2487.88
975.531	2436.88
975.755	2355.88
975.98	2384.88
976.204	2353.88
976.428	2308.88
976.652	2327.88
976.876	2307.88
977.1	2337.88
977.324	2295.88
977.547	2347.88
977.771	2360.88
977.995	2314.88
978.219	2233.88
978.442	2345.88
978.666	2298.88
978.89	2298.88
979.113	2268.88
979.337	2259.88
979.56	2205.88
979.783	2333.88
980.007	2230.88
980.23	2254.88
980.453	2197.88
980.677	2225.88
980.9	2208.88
981.123	2151.88
981.346	2189.88
981.569	2166.88
981.792	2217.88
982.015	2121.88
982.238	2132.88
982.461	2144.88
982.684	2088.88
982.907	2060.88
983.129	2058.88
983.352	2111.88
983.575	2065.88
983.797	2086.88
984.02	2064.88
984.242	2064.88
984.465	2045.88
984.687	2063.88
984.91	2069.88
985.132	2053.88
985.354	2058.88
985.577	2054.88
985.799	2036.88
986.021	1937.88
986.243	1978.88
986.465	1975.88
986.687	1987.88
986.909	2036.88
987.131	2009.88
987.353	1959.88
987.575	2017.88
987.797	1974.88
988.019	1922.88
988.241	1944.88
988.462	1910.88
988.684	1953.88
988.906	1998.88
989.127	2011.88
989.349	1885.88
989.57	1921.88
989.792	1944.88
990.013	1967.88
990.234	1954.88
990.456	1958.88
990.677	1938.88
990.898	1899.88
991.119	1906.88
991.341	1894.88
991.562	1842.88
991.783	1866.88
992.004	1816.88
992.225	1788.88
992.446	1844.88
992.667	1753.88
992.887	1834.88
993.108	1760.88
993.329	1859.88
993.55	1825.88
993.77	1757.88
993.991	1753.88
994.212	1788.88
994.432	1768.88
994.653	1797.88
994.873	1778.88
995.093	1647.88
995.314	1702.88
995.534	1768.88
995.754	1773.88
995.975	1810.88
996.195	1684.88
996.415	1710.88
996.635	1703.88
996.855	1713.88
997.075	1711.88
997.295	1682.88
997.515	1673.88
997.735	1759.88
997.955	1714.88
998.174	1681.88
998.394	1666.88
998.614	1673.88
998.834	1673.88
999.053	1703.88
999.273	1678.88
999.492	1747.88
999.712	1691.88
999.931	1624.88
1000.151	1656.88
1000.37	1654.88
1000.589	1722.88
1000.809	1633.88
1001.028	1712.88
1001.247	1658.88
1001.466	1553.88
1001.685	1710.88
1001.904	1669.88
1002.123	1618.88
1002.342	1610.88
1002.561	1581.88
1002.78	1599.88
1002.999	1654.88
1003.218	1590.88
1003.436	1547.88
1003.655	1624.88
1003.874	1574.88
1004.092	1586.88
1004.311	1638.88
1004.53	1555.88
1004.748	1660.88
1004.966	1567.88
1005.185	1592.88
1005.403	1608.88
1005.622	1613.88
1005.84	1658.88
1006.058	1551.88
1006.276	1591.88
1006.494	2067.88
1006.712	1585.88
1006.931	1641.88
1007.149	1550.88
1007.367	1561.88
1007.584	1592.88
1007.802	1632.88
1008.02	1565.88
1008.238	1676.88
1008.456	1662.88
1008.673	1543.88
1008.891	1646.88
1009.109	1604.88
1009.326	1641.88
1009.544	1724.88
1009.761	1633.88
1009.979	1747.88
1010.196	1758.88
1010.413	1830.88
1010.631	1909.88
1010.848	1922.88
1011.065	1920.88
1011.282	1849.88
1011.5	1773.88
1011.717	1893.88
1011.934	1836.88
1012.151	1866.88
1012.368	1831.88
1012.585	1801.88
1012.801	1870.88
1013.018	1840.88
1013.235	1770.88
1013.452	1802.88
1013.669	1811.88
1013.885	1800.88
1014.102	1822.88
1014.318	1787.88
1014.535	1763.88
1014.751	1796.88
1014.968	1800.88
1015.184	1787.88
1015.401	1702.88
1015.617	1735.88
1015.833	1699.88
1016.049	1683.88
1016.266	1697.88
1016.482	1675.88
1016.698	1615.88
1016.914	1651.88
1017.13	1625.88
1017.346	1600.88
1017.562	1661.88
1017.778	1616.88
1017.993	1540.88
1018.209	1631.88
1018.425	1576.88
1018.641	1533.88
1018.856	1531.88
1019.072	1536.88
1019.288	1584.88
1019.503	1552.88
1019.719	1429.88
1019.934	1476.88
1020.149	1536.88
1020.365	1474.88
1020.58	1421.88
1020.795	1465.88
1021.011	1410.88
1021.226	1371.88
1021.441	1422.88
1021.656	1300.88
1021.871	1278.88
1022.086	1282.88
1022.301	1262.88
1022.516	1246.88
1022.731	1310.88
1022.946	1235.88
1023.16	1196.88
1023.375	1178.88
1023.59	1165.88
1023.804	1106.88
1024.019	1229.88
1024.234	1085.88
1024.448	1132.88
1024.663	1038.88
1024.877	1057.88
1025.092	1078.88
1025.306	1088.88
1025.52	982.88
1025.734	1061.88
1025.949	1013.88
1026.163	977.88
1026.377	892.88
1026.591	951.88
1026.805	869.88
1027.019	872.88
1027.233	839.88
1027.447	797.88
1027.661	881.88
1027.875	828.88
1028.088	849.88
1028.302	752.88
1028.516	760.88
1028.73	749.88
1028.943	739.88
1029.157	701.88
1029.37	671.88
1029.584	-1.12
1029.797	-2.12
1030.011	1.88
1030.224	-5.12
