Data from QEP037381__65__11-31-45-595.txt Node

Date: Wed Dec 21 11:31:45 EST 2022
User: dcclab
Spectrometer: QEP03738
Trigger mode: 4
Integration Time (sec): 1.000000E1
Scans to average: 1
Electric dark correction enabled: true
Nonlinearity correction enabled: false
Boxcar width: 0
XAxis mode: Wavelengths
Number of Pixels in Spectrum: 1044
>>>>>Begin Spectral Data<<<<<
784.041	12.5
784.3	-0.5
784.558	-2.5
784.817	-4.5
785.075	39164.5
785.334	8000.5
785.592	4185.5
785.851	3040.5
786.109	2268.5
786.368	1832.5
786.626	1524.5
786.884	1277.5
787.143	1105.5
787.401	899.5
787.659	859.5
787.917	734.5
788.175	704.5
788.433	640.5
788.691	595.5
788.949	567.5
789.207	552.5
789.465	487.5
789.723	471.5
789.98	437.5
790.238	484.5
790.496	472.5
790.753	450.5
791.011	489.5
791.268	457.5
791.526	432.5
791.783	449.5
792.041	438.5
792.298	367.5
792.556	428.5
792.813	408.5
793.07	399.5
793.327	390.5
793.584	479.5
793.841	382.5
794.099	411.5
794.356	476.5
794.613	376.5
794.869	424.5
795.126	373.5
795.383	375.5
795.64	390.5
795.897	353.5
796.153	400.5
796.41	399.5
796.667	368.5
796.923	369.5
797.18	379.5
797.436	411.5
797.693	366.5
797.949	422.5
798.206	452.5
798.462	368.5
798.718	425.5
798.974	403.5
799.231	430.5
799.487	431.5
799.743	428.5
799.999	450.5
800.255	450.5
800.511	443.5
800.767	478.5
801.023	465.5
801.279	488.5
801.534	527.5
801.79	537.5
802.046	577.5
802.302	686.5
802.557	746.5
802.813	948.5
803.068	1117.5
803.324	1524.5
803.579	2056.5
803.835	2737.5
804.09	3750.5
804.345	4882.5
804.601	6113.5
804.856	7431.5
805.111	8573.5
805.366	9388.5
805.621	10022.5
805.876	10496.5
806.131	10795.5
806.386	11005.5
806.641	11180.5
806.896	11385.5
807.151	11625.5
807.406	11767.5
807.661	12068.5
807.915	12145.5
808.17	12378.5
808.425	12554.5
808.679	12632.5
808.934	12897.5
809.188	13014.5
809.443	13060.5
809.697	13287.5
809.951	13411.5
810.206	13451.5
810.46	13580.5
810.714	13780.5
810.968	13925.5
811.223	13956.5
811.477	14058.5
811.731	14214.5
811.985	14304.5
812.239	14297.5
812.493	14509.5
812.747	14523.5
813	14602.5
813.254	14592.5
813.508	14715.5
813.762	14779.5
814.015	14845.5
814.269	15002.5
814.522	15084.5
814.776	15412.5
815.03	15559.5
815.283	15719.5
815.536	16077.5
815.79	16250.5
816.043	16504.5
816.296	16674.5
816.55	16977.5
816.803	17177.5
817.056	17378.5
817.309	17545.5
817.562	17829.5
817.815	17915.5
818.068	18131.5
818.321	18371.5
818.574	18464.5
818.827	18794.5
819.079	18998.5
819.332	19359.5
819.585	19547.5
819.838	19850.5
820.09	19922.5
820.343	20184.5
820.595	20119.5
820.848	20439.5
821.1	20443.5
821.353	20413.5
821.605	20380.5
821.857	20340.5
822.11	20423.5
822.362	20350.5
822.614	20194.5
822.866	20366.5
823.118	20258.5
823.37	20375.5
823.622	20403.5
823.874	20558.5
824.126	20576.5
824.378	20550.5
824.63	20745.5
824.882	20683.5
825.134	20764.5
825.385	20617.5
825.637	20618.5
825.888	20595.5
826.14	20617.5
826.392	20522.5
826.643	20413.5
826.895	20485.5
827.146	20370.5
827.397	20302.5
827.649	20341.5
827.9	20257.5
828.151	20240.5
828.402	20318.5
828.653	20360.5
828.905	20459.5
829.156	20537.5
829.407	20422.5
829.658	20607.5
829.909	20612.5
830.159	20559.5
830.41	20518.5
830.661	20327.5
830.912	20216.5
831.162	20183.5
831.413	20081.5
831.664	20121.5
831.914	19986.5
832.165	20206.5
832.415	20006.5
832.666	20056.5
832.916	20031.5
833.167	20002.5
833.417	20089.5
833.667	20081.5
833.917	19856.5
834.168	19945.5
834.418	19951.5
834.668	19765.5
834.918	19762.5
835.168	19624.5
835.418	19496.5
835.668	19530.5
835.918	19506.5
836.167	19618.5
836.417	19398.5
836.667	19414.5
836.917	19453.5
837.166	19348.5
837.416	19448.5
837.666	19394.5
837.915	19401.5
838.165	19375.5
838.414	19333.5
838.663	19231.5
838.913	19321.5
839.162	19163.5
839.411	19211.5
839.661	19162.5
839.91	19152.5
840.159	19166.5
840.408	19187.5
840.657	19181.5
840.906	19076.5
841.155	19128.5
841.404	19112.5
841.653	19227.5
841.902	19167.5
842.15	19239.5
842.399	19232.5
842.648	19282.5
842.897	19175.5
843.145	19024.5
843.394	18845.5
843.642	18709.5
843.891	18701.5
844.139	18613.5
844.388	18497.5
844.636	18379.5
844.884	18511.5
845.133	18447.5
845.381	18371.5
845.629	18393.5
845.877	18302.5
846.125	18370.5
846.373	18334.5
846.621	18252.5
846.869	18207.5
847.117	18122.5
847.365	18075.5
847.613	18014.5
847.861	17923.5
848.108	17992.5
848.356	17926.5
848.604	17867.5
848.851	17949.5
849.099	17904.5
849.346	17924.5
849.594	18091.5
849.841	18258.5
850.089	18174.5
850.336	18405.5
850.583	18404.5
850.831	18290.5
851.078	18147.5
851.325	17975.5
851.572	17963.5
851.819	17772.5
852.066	17455.5
852.313	17287.5
852.56	17180.5
852.807	17022.5
853.054	16948.5
853.301	17120.5
853.548	17070.5
853.794	17118.5
854.041	17189.5
854.288	17267.5
854.534	17488.5
854.781	17333.5
855.028	17358.5
855.274	17332.5
855.52	17232.5
855.767	17131.5
856.013	17185.5
856.26	17349.5
856.506	16997.5
856.752	16982.5
856.998	17018.5
857.244	17045.5
857.49	17110.5
857.736	17174.5
857.982	17119.5
858.228	17092.5
858.474	17053.5
858.72	16869.5
858.966	16812.5
859.212	16551.5
859.458	16439.5
859.703	16242.5
859.949	16158.5
860.195	16027.5
860.44	15951.5
860.686	15957.5
860.931	15896.5
861.177	15746.5
861.422	15747.5
861.667	15678.5
861.913	15718.5
862.158	15668.5
862.403	15845.5
862.648	15862.5
862.893	15905.5
863.138	15792.5
863.384	15756.5
863.629	15883.5
863.873	15775.5
864.118	15711.5
864.363	15663.5
864.608	15588.5
864.853	15568.5
865.098	15479.5
865.342	15490.5
865.587	15362.5
865.832	15337.5
866.076	15291.5
866.321	15340.5
866.565	15268.5
866.81	15064.5
867.054	15184.5
867.298	15070.5
867.543	15089.5
867.787	15049.5
868.031	14941.5
868.275	14914.5
868.519	14901.5
868.764	14966.5
869.008	14882.5
869.252	14918.5
869.496	14764.5
869.739	14820.5
869.983	14760.5
870.227	14806.5
870.471	14686.5
870.715	14905.5
870.958	14889.5
871.202	14799.5
871.446	14859.5
871.689	14948.5
871.933	14975.5
872.176	14919.5
872.42	14834.5
872.663	14763.5
872.906	14827.5
873.15	14768.5
873.393	14699.5
873.636	14678.5
873.879	14501.5
874.122	14344.5
874.366	14223.5
874.609	14125.5
874.852	13997.5
875.095	13981.5
875.337	13901.5
875.58	13740.5
875.823	13783.5
876.066	13756.5
876.309	13771.5
876.551	13554.5
876.794	13555.5
877.037	13585.5
877.279	13531.5
877.522	13501.5
877.764	13575.5
878.007	13490.5
878.249	13604.5
878.491	13413.5
878.734	13480.5
878.976	13482.5
879.218	13340.5
879.46	13388.5
879.702	13231.5
879.945	13112.5
880.187	12974.5
880.429	12992.5
880.671	12939.5
880.912	12866.5
881.154	12875.5
881.396	12737.5
881.638	12776.5
881.88	12857.5
882.121	12716.5
882.363	12747.5
882.605	12772.5
882.846	12665.5
883.088	12670.5
883.329	12544.5
883.571	12710.5
883.812	12714.5
884.053	12795.5
884.295	13041.5
884.536	13140.5
884.777	12987.5
885.018	12874.5
885.259	12893.5
885.5	12812.5
885.742	13063.5
885.982	12811.5
886.223	12719.5
886.464	12673.5
886.705	12529.5
886.946	12400.5
887.187	12244.5
887.428	12176.5
887.668	11979.5
887.909	11941.5
888.15	11853.5
888.39	11809.5
888.631	11804.5
888.871	11704.5
889.111	11528.5
889.352	11542.5
889.592	11329.5
889.833	11335.5
890.073	11256.5
890.313	11263.5
890.553	11093.5
890.793	11071.5
891.033	10991.5
891.273	10894.5
891.513	10935.5
891.753	10949.5
891.993	10908.5
892.233	10928.5
892.473	10975.5
892.713	10995.5
892.952	10889.5
893.192	11000.5
893.432	10915.5
893.671	10903.5
893.911	10832.5
894.15	10776.5
894.39	10739.5
894.629	10606.5
894.869	10634.5
895.108	10606.5
895.347	10550.5
895.587	10530.5
895.826	10485.5
896.065	10369.5
896.304	10456.5
896.543	10462.5
896.782	10317.5
897.021	10265.5
897.26	10288.5
897.499	10356.5
897.738	10343.5
897.977	10211.5
898.216	10204.5
898.454	10057.5
898.693	9961.5
898.932	9974.5
899.17	9948.5
899.409	9960.5
899.647	9970.5
899.886	9876.5
900.124	9925.5
900.363	9930.5
900.601	9905.5
900.839	9964.5
901.078	9957.5
901.316	9962.5
901.554	9983.5
901.792	10007.5
902.03	9972.5
902.268	9998.5
902.506	9990.5
902.744	9860.5
902.982	9779.5
903.22	9663.5
903.458	9495.5
903.695	9454.5
903.933	9335.5
904.171	9217.5
904.409	9083.5
904.646	9022.5
904.884	8858.5
905.121	8875.5
905.359	8718.5
905.596	8713.5
905.833	8566.5
906.071	8452.5
906.308	8544.5
906.545	8464.5
906.783	8389.5
907.02	8346.5
907.257	8366.5
907.494	8356.5
907.731	8316.5
907.968	8364.5
908.205	8243.5
908.442	8228.5
908.679	8195.5
908.915	8120.5
909.152	8065.5
909.389	8004.5
909.626	7936.5
909.862	7882.5
910.099	7808.5
910.335	7879.5
910.572	7754.5
910.808	7765.5
911.045	7753.5
911.281	7670.5
911.518	7782.5
911.754	7632.5
911.99	7565.5
912.226	7590.5
912.463	7445.5
912.699	7414.5
912.935	7404.5
913.171	7299.5
913.407	7253.5
913.643	7254.5
913.879	7197.5
914.114	7151.5
914.35	6999.5
914.586	6988.5
914.822	6872.5
915.057	6946.5
915.293	6800.5
915.529	6778.5
915.764	6807.5
916	6787.5
916.235	6755.5
916.471	6763.5
916.706	6740.5
916.941	6686.5
917.177	6674.5
917.412	6719.5
917.647	6705.5
917.882	6615.5
918.117	6672.5
918.352	6646.5
918.588	6612.5
918.823	6550.5
919.057	6505.5
919.292	6400.5
919.527	6457.5
919.762	6251.5
919.997	6332.5
920.232	6214.5
920.466	6210.5
920.701	6082.5
920.935	6097.5
921.17	6076.5
921.405	5960.5
921.639	6046.5
921.873	5912.5
922.108	5999.5
922.342	5964.5
922.576	5850.5
922.811	5875.5
923.045	5910.5
923.279	5885.5
923.513	5693.5
923.747	5803.5
923.981	5718.5
924.215	5615.5
924.449	5648.5
924.683	5601.5
924.917	5571.5
925.151	5613.5
925.385	5580.5
925.618	5547.5
925.852	5528.5
926.086	5509.5
926.319	5531.5
926.553	5516.5
926.786	5501.5
927.02	5455.5
927.253	5439.5
927.486	5478.5
927.72	5371.5
927.953	5487.5
928.186	5403.5
928.42	5476.5
928.653	5327.5
928.886	5295.5
929.119	5391.5
929.352	5312.5
929.585	5270.5
929.818	5245.5
930.051	5191.5
930.284	5189.5
930.516	5120.5
930.749	5094.5
930.982	5090.5
931.215	5075.5
931.447	4971.5
931.68	4931.5
931.912	4926.5
932.145	4952.5
932.377	5005.5
932.61	5102.5
932.842	4902.5
933.074	4980.5
933.307	4944.5
933.539	5002.5
933.771	4979.5
934.003	4932.5
934.236	4994.5
934.468	4943.5
934.7	4918.5
934.932	4968.5
935.164	4864.5
935.395	4897.5
935.627	4869.5
935.859	4869.5
936.091	4804.5
936.323	4810.5
936.554	4838.5
936.786	4756.5
937.017	4707.5
937.249	4774.5
937.481	4680.5
937.712	4709.5
937.943	4731.5
938.175	4717.5
938.406	4700.5
938.637	4782.5
938.869	4638.5
939.1	4649.5
939.331	4591.5
939.562	4674.5
939.793	4657.5
940.024	4626.5
940.255	4590.5
940.486	4557.5
940.717	4538.5
940.948	4493.5
941.179	4498.5
941.409	4507.5
941.64	4494.5
941.871	4507.5
942.102	4470.5
942.332	4477.5
942.563	4511.5
942.793	4484.5
943.024	4430.5
943.254	4409.5
943.484	4489.5
943.715	4488.5
943.945	4475.5
944.175	4384.5
944.405	4385.5
944.636	4406.5
944.866	4403.5
945.096	4432.5
945.326	4365.5
945.556	4400.5
945.786	4385.5
946.016	4348.5
946.245	4269.5
946.475	4265.5
946.705	4253.5
946.935	4207.5
947.164	4244.5
947.394	4139.5
947.624	4179.5
947.853	4218.5
948.083	4139.5
948.312	4134.5
948.542	3990.5
948.771	4019.5
949	4046.5
949.23	4045.5
949.459	4021.5
949.688	4077.5
949.917	4040.5
950.146	4029.5
950.375	4113.5
950.604	3973.5
950.833	4074.5
951.062	4058.5
951.291	3996.5
951.52	3935.5
951.749	3970.5
951.978	3921.5
952.206	3904.5
952.435	3906.5
952.664	3951.5
952.892	3956.5
953.121	3912.5
953.349	3902.5
953.578	3901.5
953.806	3837.5
954.035	3832.5
954.263	3831.5
954.491	3743.5
954.719	3783.5
954.948	3775.5
955.176	3756.5
955.404	3649.5
955.632	3752.5
955.86	3681.5
956.088	3715.5
956.316	3683.5
956.544	3724.5
956.772	3679.5
956.999	3596.5
957.227	3683.5
957.455	3549.5
957.683	3582.5
957.91	3542.5
958.138	3527.5
958.365	3496.5
958.593	3496.5
958.82	3402.5
959.048	3491.5
959.275	3491.5
959.502	3436.5
959.73	3420.5
959.957	3486.5
960.184	3450.5
960.411	3405.5
960.638	3492.5
960.865	3431.5
961.092	3440.5
961.319	3356.5
961.546	3407.5
961.773	3428.5
962	3384.5
962.227	3402.5
962.454	3389.5
962.68	3329.5
962.907	3362.5
963.134	3280.5
963.36	3345.5
963.587	3338.5
963.813	3278.5
964.04	3302.5
964.266	3203.5
964.493	3288.5
964.719	3211.5
964.945	3245.5
965.171	3142.5
965.398	3188.5
965.624	3183.5
965.85	3110.5
966.076	3077.5
966.302	3156.5
966.528	3113.5
966.754	3114.5
966.98	3090.5
967.206	3083.5
967.431	2971.5
967.657	3078.5
967.883	3075.5
968.109	3005.5
968.334	2987.5
968.56	2990.5
968.785	2989.5
969.011	2959.5
969.236	3031.5
969.462	2942.5
969.687	2932.5
969.912	2978.5
970.138	2990.5
970.363	2887.5
970.588	2966.5
970.813	2910.5
971.038	2884.5
971.263	2899.5
971.488	2905.5
971.713	2890.5
971.938	2885.5
972.163	2810.5
972.388	2816.5
972.613	2852.5
972.838	2829.5
973.062	2802.5
973.287	2782.5
973.512	2727.5
973.736	2741.5
973.961	2746.5
974.185	2705.5
974.41	2757.5
974.634	2630.5
974.858	2663.5
975.083	2646.5
975.307	2692.5
975.531	2593.5
975.755	2554.5
975.98	2580.5
976.204	2499.5
976.428	2486.5
976.652	2512.5
976.876	2497.5
977.1	2518.5
977.324	2495.5
977.547	2526.5
977.771	2570.5
977.995	2495.5
978.219	2417.5
978.442	2551.5
978.666	2495.5
978.89	2460.5
979.113	2491.5
979.337	2436.5
979.56	2408.5
979.783	2502.5
980.007	2406.5
980.23	2428.5
980.453	2352.5
980.677	2419.5
980.9	2409.5
981.123	2281.5
981.346	2364.5
981.569	2339.5
981.792	2389.5
982.015	2315.5
982.238	2300.5
982.461	2336.5
982.684	2304.5
982.907	2252.5
983.129	2260.5
983.352	2310.5
983.575	2288.5
983.797	2253.5
984.02	2207.5
984.242	2219.5
984.465	2198.5
984.687	2242.5
984.91	2229.5
985.132	2238.5
985.354	2211.5
985.577	2209.5
985.799	2170.5
986.021	2102.5
986.243	2133.5
986.465	2111.5
986.687	2177.5
986.909	2193.5
987.131	2127.5
987.353	2108.5
987.575	2137.5
987.797	2093.5
988.019	2019.5
988.241	2117.5
988.462	2047.5
988.684	2111.5
988.906	2125.5
989.127	2141.5
989.349	2015.5
989.57	2069.5
989.792	2084.5
990.013	2101.5
990.234	2086.5
990.456	2101.5
990.677	2056.5
990.898	2018.5
991.119	2011.5
991.341	2067.5
991.562	1957.5
991.783	1988.5
992.004	1987.5
992.225	1913.5
992.446	1983.5
992.667	1866.5
992.887	1971.5
993.108	1885.5
993.329	1963.5
993.55	1937.5
993.77	1860.5
993.991	1862.5
994.212	1913.5
994.432	1845.5
994.653	1903.5
994.873	1880.5
995.093	1755.5
995.314	1822.5
995.534	1887.5
995.754	1874.5
995.975	1902.5
996.195	1791.5
996.415	1837.5
996.635	1821.5
996.855	1849.5
997.075	1811.5
997.295	1803.5
997.515	1748.5
997.735	1798.5
997.955	1775.5
998.174	1806.5
998.394	1766.5
998.614	1815.5
998.834	1779.5
999.053	1816.5
999.273	1797.5
999.492	1841.5
999.712	1772.5
999.931	1744.5
1000.151	1763.5
1000.37	1746.5
1000.589	1771.5
1000.809	1724.5
1001.028	1831.5
1001.247	1762.5
1001.466	1646.5
1001.685	1768.5
1001.904	1717.5
1002.123	1739.5
1002.342	1708.5
1002.561	1652.5
1002.78	1687.5
1002.999	1725.5
1003.218	1684.5
1003.436	1633.5
1003.655	1716.5
1003.874	1648.5
1004.092	1674.5
1004.311	1692.5
1004.53	1679.5
1004.748	1757.5
1004.966	1632.5
1005.185	1688.5
1005.403	1688.5
1005.622	1677.5
1005.84	1746.5
1006.058	1652.5
1006.276	1679.5
1006.494	2138.5
1006.712	1645.5
1006.931	1714.5
1007.149	1645.5
1007.367	1634.5
1007.584	1652.5
1007.802	1688.5
1008.02	1616.5
1008.238	1726.5
1008.456	1702.5
1008.673	1607.5
1008.891	1673.5
1009.109	1625.5
1009.326	1711.5
1009.544	1775.5
1009.761	1657.5
1009.979	1796.5
1010.196	1770.5
1010.413	1850.5
1010.631	1871.5
1010.848	1917.5
1011.065	1906.5
1011.282	1858.5
1011.5	1789.5
1011.717	1862.5
1011.934	1833.5
1012.151	1872.5
1012.368	1840.5
1012.585	1784.5
1012.801	1838.5
1013.018	1823.5
1013.235	1770.5
1013.452	1796.5
1013.669	1800.5
1013.885	1790.5
1014.102	1818.5
1014.318	1791.5
1014.535	1716.5
1014.751	1756.5
1014.968	1755.5
1015.184	1782.5
1015.401	1678.5
1015.617	1709.5
1015.833	1632.5
1016.049	1644.5
1016.266	1650.5
1016.482	1633.5
1016.698	1584.5
1016.914	1625.5
1017.13	1579.5
1017.346	1545.5
1017.562	1603.5
1017.778	1573.5
1017.993	1540.5
1018.209	1594.5
1018.425	1557.5
1018.641	1524.5
1018.856	1502.5
1019.072	1528.5
1019.288	1585.5
1019.503	1534.5
1019.719	1428.5
1019.934	1463.5
1020.149	1524.5
1020.365	1466.5
1020.58	1408.5
1020.795	1433.5
1021.011	1379.5
1021.226	1376.5
1021.441	1409.5
1021.656	1335.5
1021.871	1273.5
1022.086	1285.5
1022.301	1252.5
1022.516	1270.5
1022.731	1291.5
1022.946	1221.5
1023.16	1228.5
1023.375	1178.5
1023.59	1151.5
1023.804	1128.5
1024.019	1223.5
1024.234	1091.5
1024.448	1126.5
1024.663	1057.5
1024.877	1084.5
1025.092	1097.5
1025.306	1095.5
1025.52	1006.5
1025.734	1083.5
1025.949	998.5
1026.163	980.5
1026.377	918.5
1026.591	955.5
1026.805	885.5
1027.019	877.5
1027.233	855.5
1027.447	809.5
1027.661	919.5
1027.875	836.5
1028.088	852.5
1028.302	776.5
1028.516	776.5
1028.73	752.5
1028.943	749.5
1029.157	686.5
1029.37	672.5
1029.584	-2.5
1029.797	-2.5
1030.011	-1.5
1030.224	1.5
