Data from QEP037381__96__11-36-55-597.txt Node

Date: Wed Dec 21 11:36:55 EST 2022
User: dcclab
Spectrometer: QEP03738
Trigger mode: 4
Integration Time (sec): 1.000000E1
Scans to average: 1
Electric dark correction enabled: true
Nonlinearity correction enabled: false
Boxcar width: 0
XAxis mode: Wavelengths
Number of Pixels in Spectrum: 1044
>>>>>Begin Spectral Data<<<<<
784.041	16.25
784.3	-0.75
784.558	-3.75
784.817	-4.75
785.075	40806.25
785.334	8396.25
785.592	4481.25
785.851	3192.25
786.109	2436.25
786.368	1951.25
786.626	1601.25
786.884	1352.25
787.143	1158.25
787.401	966.25
787.659	912.25
787.917	797.25
788.175	751.25
788.433	659.25
788.691	616.25
788.949	587.25
789.207	552.25
789.465	484.25
789.723	481.25
789.98	431.25
790.238	498.25
790.496	456.25
790.753	444.25
791.011	491.25
791.268	440.25
791.526	424.25
791.783	466.25
792.041	429.25
792.298	359.25
792.556	417.25
792.813	402.25
793.07	388.25
793.327	374.25
793.584	457.25
793.841	377.25
794.099	402.25
794.356	456.25
794.613	373.25
794.869	395.25
795.126	369.25
795.383	343.25
795.64	376.25
795.897	336.25
796.153	382.25
796.41	378.25
796.667	362.25
796.923	371.25
797.18	371.25
797.436	393.25
797.693	350.25
797.949	406.25
798.206	427.25
798.462	326.25
798.718	399.25
798.974	379.25
799.231	407.25
799.487	396.25
799.743	403.25
799.999	425.25
800.255	426.25
800.511	399.25
800.767	438.25
801.023	421.25
801.279	438.25
801.534	458.25
801.79	501.25
802.046	470.25
802.302	555.25
802.557	601.25
802.813	693.25
803.068	778.25
803.324	1047.25
803.579	1342.25
803.835	1788.25
804.09	2452.25
804.345	3126.25
804.601	3914.25
804.856	4769.25
805.111	5507.25
805.366	6049.25
805.621	6495.25
805.876	6814.25
806.131	6957.25
806.386	7076.25
806.641	7154.25
806.896	7340.25
807.151	7486.25
807.406	7648.25
807.661	7787.25
807.915	7944.25
808.17	8042.25
808.425	8102.25
808.679	8107.25
808.934	8318.25
809.188	8330.25
809.443	8429.25
809.697	8593.25
809.951	8595.25
810.206	8646.25
810.46	8746.25
810.714	8828.25
810.968	8952.25
811.223	9003.25
811.477	9050.25
811.731	9171.25
811.985	9195.25
812.239	9162.25
812.493	9204.25
812.747	9232.25
813	9172.25
813.254	9323.25
813.508	9378.25
813.762	9364.25
814.015	9423.25
814.269	9485.25
814.522	9668.25
814.776	9780.25
815.03	9867.25
815.283	9988.25
815.536	10205.25
815.79	10365.25
816.043	10492.25
816.296	10613.25
816.55	10780.25
816.803	10863.25
817.056	11071.25
817.309	11106.25
817.562	11270.25
817.815	11381.25
818.068	11427.25
818.321	11538.25
818.574	11660.25
818.827	11900.25
819.079	11998.25
819.332	12229.25
819.585	12358.25
819.838	12486.25
820.09	12516.25
820.343	12584.25
820.595	12660.25
820.848	12726.25
821.1	12731.25
821.353	12860.25
821.605	12800.25
821.857	12765.25
822.11	12663.25
822.362	12601.25
822.614	12658.25
822.866	12592.25
823.118	12625.25
823.37	12673.25
823.622	12650.25
823.874	12734.25
824.126	12858.25
824.378	12756.25
824.63	12793.25
824.882	12857.25
825.134	12792.25
825.385	12846.25
825.637	12822.25
825.888	12776.25
826.14	12711.25
826.392	12672.25
826.643	12562.25
826.895	12576.25
827.146	12601.25
827.397	12484.25
827.649	12589.25
827.9	12430.25
828.151	12459.25
828.402	12567.25
828.653	12513.25
828.905	12641.25
829.156	12684.25
829.407	12542.25
829.658	12550.25
829.909	12699.25
830.159	12646.25
830.41	12578.25
830.661	12497.25
830.912	12402.25
831.162	12437.25
831.413	12278.25
831.664	12406.25
831.914	12293.25
832.165	12329.25
832.415	12319.25
832.666	12403.25
832.916	12425.25
833.167	12356.25
833.417	12361.25
833.667	12301.25
833.917	12198.25
834.168	12176.25
834.418	12190.25
834.668	12142.25
834.918	11987.25
835.168	12013.25
835.418	11973.25
835.668	12011.25
835.918	11956.25
836.167	11891.25
836.417	11834.25
836.667	11870.25
836.917	11922.25
837.166	11821.25
837.416	12041.25
837.666	11912.25
837.915	11787.25
838.165	11849.25
838.414	11753.25
838.663	11662.25
838.913	11794.25
839.162	11679.25
839.411	11722.25
839.661	11685.25
839.91	11692.25
840.159	11666.25
840.408	11615.25
840.657	11660.25
840.906	11602.25
841.155	11738.25
841.404	11676.25
841.653	11688.25
841.902	11667.25
842.15	11721.25
842.399	11774.25
842.648	11748.25
842.897	11664.25
843.145	11484.25
843.394	11396.25
843.642	11330.25
843.891	11368.25
844.139	11366.25
844.388	11213.25
844.636	11089.25
844.884	11143.25
845.133	11077.25
845.381	11106.25
845.629	11102.25
845.877	11086.25
846.125	11065.25
846.373	11054.25
846.621	11094.25
846.869	10954.25
847.117	10961.25
847.365	10927.25
847.613	10897.25
847.861	10848.25
848.108	10876.25
848.356	10807.25
848.604	10743.25
848.851	10822.25
849.099	10909.25
849.346	10916.25
849.594	10925.25
849.841	10998.25
850.089	11165.25
850.336	11092.25
850.583	11259.25
850.831	11164.25
851.078	11025.25
851.325	11016.25
851.572	11002.25
851.819	10831.25
852.066	10609.25
852.313	10431.25
852.56	10351.25
852.807	10267.25
853.054	10246.25
853.301	10249.25
853.548	10268.25
853.794	10476.25
854.041	10437.25
854.288	10374.25
854.534	10594.25
854.781	10488.25
855.028	10396.25
855.274	10527.25
855.52	10420.25
855.767	10373.25
856.013	10382.25
856.26	10671.25
856.506	10288.25
856.752	10272.25
856.998	10239.25
857.244	10296.25
857.49	10356.25
857.736	10386.25
857.982	10349.25
858.228	10334.25
858.474	10258.25
858.72	10129.25
858.966	10100.25
859.212	9993.25
859.458	9863.25
859.703	9814.25
859.949	9697.25
860.195	9634.25
860.44	9585.25
860.686	9543.25
860.931	9627.25
861.177	9445.25
861.422	9470.25
861.667	9401.25
861.913	9418.25
862.158	9364.25
862.403	9512.25
862.648	9465.25
862.893	9507.25
863.138	9467.25
863.384	9428.25
863.629	9427.25
863.873	9444.25
864.118	9379.25
864.363	9283.25
864.608	9245.25
864.853	9303.25
865.098	9152.25
865.342	9235.25
865.587	9173.25
865.832	9226.25
866.076	9160.25
866.321	9076.25
866.565	9070.25
866.81	9024.25
867.054	9004.25
867.298	9059.25
867.543	8978.25
867.787	9067.25
868.031	8942.25
868.275	8970.25
868.519	8931.25
868.764	8942.25
869.008	8896.25
869.252	8934.25
869.496	8899.25
869.739	8923.25
869.983	8929.25
870.227	8932.25
870.471	8802.25
870.715	8978.25
870.958	8981.25
871.202	8905.25
871.446	8973.25
871.689	8958.25
871.933	9004.25
872.176	8976.25
872.42	8867.25
872.663	8828.25
872.906	8945.25
873.15	8921.25
873.393	8855.25
873.636	8907.25
873.879	8769.25
874.122	8740.25
874.366	8551.25
874.609	8521.25
874.852	8377.25
875.095	8431.25
875.337	8343.25
875.58	8202.25
875.823	8287.25
876.066	8310.25
876.309	8307.25
876.551	8161.25
876.794	8116.25
877.037	8115.25
877.279	8062.25
877.522	8050.25
877.764	8133.25
878.007	8108.25
878.249	8092.25
878.491	8030.25
878.734	8105.25
878.976	8047.25
879.218	7953.25
879.46	7987.25
879.702	7859.25
879.945	7851.25
880.187	7771.25
880.429	7731.25
880.671	7725.25
880.912	7714.25
881.154	7701.25
881.396	7572.25
881.638	7610.25
881.88	7646.25
882.121	7575.25
882.363	7590.25
882.605	7636.25
882.846	7523.25
883.088	7615.25
883.329	7585.25
883.571	7609.25
883.812	7698.25
884.053	7849.25
884.295	8015.25
884.536	8180.25
884.777	8034.25
885.018	7928.25
885.259	7890.25
885.5	7866.25
885.742	8071.25
885.982	7800.25
886.223	7752.25
886.464	7632.25
886.705	7552.25
886.946	7520.25
887.187	7372.25
887.428	7410.25
887.668	7220.25
887.909	7199.25
888.15	7071.25
888.39	7010.25
888.631	7041.25
888.871	6917.25
889.111	6934.25
889.352	6860.25
889.592	6705.25
889.833	6687.25
890.073	6717.25
890.313	6761.25
890.553	6571.25
890.793	6594.25
891.033	6508.25
891.273	6535.25
891.513	6464.25
891.753	6543.25
891.993	6461.25
892.233	6483.25
892.473	6563.25
892.713	6486.25
892.952	6501.25
893.192	6543.25
893.432	6516.25
893.671	6585.25
893.911	6509.25
894.15	6428.25
894.39	6411.25
894.629	6355.25
894.869	6362.25
895.108	6343.25
895.347	6306.25
895.587	6319.25
895.826	6259.25
896.065	6238.25
896.304	6261.25
896.543	6301.25
896.782	6199.25
897.021	6233.25
897.26	6223.25
897.499	6250.25
897.738	6224.25
897.977	6192.25
898.216	6137.25
898.454	6039.25
898.693	6040.25
898.932	6130.25
899.17	6014.25
899.409	6056.25
899.647	6048.25
899.886	6037.25
900.124	6021.25
900.363	6023.25
900.601	5995.25
900.839	6009.25
901.078	6090.25
901.316	6118.25
901.554	6127.25
901.792	6148.25
902.03	6107.25
902.268	6136.25
902.506	6147.25
902.744	6050.25
902.982	6051.25
903.22	5930.25
903.458	5826.25
903.695	5751.25
903.933	5731.25
904.171	5556.25
904.409	5515.25
904.646	5466.25
904.884	5347.25
905.121	5338.25
905.359	5303.25
905.596	5213.25
905.833	5123.25
906.071	5131.25
906.308	5130.25
906.545	5131.25
906.783	5054.25
907.02	5020.25
907.257	5003.25
907.494	4975.25
907.731	5048.25
907.968	4995.25
908.205	4893.25
908.442	4874.25
908.679	4858.25
908.915	4839.25
909.152	4837.25
909.389	4723.25
909.626	4727.25
909.862	4672.25
910.099	4689.25
910.335	4701.25
910.572	4569.25
910.808	4617.25
911.045	4543.25
911.281	4600.25
911.518	4652.25
911.754	4558.25
911.99	4521.25
912.226	4480.25
912.463	4475.25
912.699	4469.25
912.935	4408.25
913.171	4380.25
913.407	4293.25
913.643	4366.25
913.879	4273.25
914.114	4253.25
914.35	4191.25
914.586	4176.25
914.822	4088.25
915.057	4172.25
915.293	3995.25
915.529	4064.25
915.764	4101.25
916	4076.25
916.235	4056.25
916.471	4050.25
916.706	3987.25
916.941	3988.25
917.177	3973.25
917.412	4051.25
917.647	4025.25
917.882	3960.25
918.117	3988.25
918.352	3976.25
918.588	4001.25
918.823	3864.25
919.057	3879.25
919.292	3791.25
919.527	3889.25
919.762	3794.25
919.997	3799.25
920.232	3679.25
920.466	3751.25
920.701	3599.25
920.935	3624.25
921.17	3604.25
921.405	3602.25
921.639	3616.25
921.873	3541.25
922.108	3630.25
922.342	3538.25
922.576	3500.25
922.811	3536.25
923.045	3575.25
923.279	3601.25
923.513	3436.25
923.747	3524.25
923.981	3485.25
924.215	3416.25
924.449	3394.25
924.683	3308.25
924.917	3319.25
925.151	3323.25
925.385	3411.25
925.618	3374.25
925.852	3378.25
926.086	3315.25
926.319	3356.25
926.553	3303.25
926.786	3342.25
927.02	3333.25
927.253	3369.25
927.486	3350.25
927.72	3256.25
927.953	3362.25
928.186	3289.25
928.42	3287.25
928.653	3230.25
928.886	3243.25
929.119	3265.25
929.352	3234.25
929.585	3219.25
929.818	3154.25
930.051	3189.25
930.284	3182.25
930.516	3078.25
930.749	3082.25
930.982	3119.25
931.215	3104.25
931.447	3016.25
931.68	3051.25
931.912	2981.25
932.145	3000.25
932.377	3026.25
932.61	3177.25
932.842	2983.25
933.074	3068.25
933.307	2968.25
933.539	3094.25
933.771	3090.25
934.003	3010.25
934.236	3077.25
934.468	3100.25
934.7	3004.25
934.932	3057.25
935.164	2968.25
935.395	2965.25
935.627	2987.25
935.859	3003.25
936.091	2958.25
936.323	2951.25
936.554	2971.25
936.786	2914.25
937.017	2876.25
937.249	2954.25
937.481	2857.25
937.712	2943.25
937.943	2926.25
938.175	2877.25
938.406	2905.25
938.637	2948.25
938.869	2810.25
939.1	2876.25
939.331	2843.25
939.562	2886.25
939.793	2849.25
940.024	2885.25
940.255	2920.25
940.486	2840.25
940.717	2805.25
940.948	2786.25
941.179	2747.25
941.409	2763.25
941.64	2752.25
941.871	2775.25
942.102	2752.25
942.332	2741.25
942.563	2773.25
942.793	2765.25
943.024	2729.25
943.254	2762.25
943.484	2768.25
943.715	2831.25
943.945	2751.25
944.175	2663.25
944.405	2697.25
944.636	2706.25
944.866	2740.25
945.096	2768.25
945.326	2665.25
945.556	2717.25
945.786	2702.25
946.016	2678.25
946.245	2632.25
946.475	2639.25
946.705	2622.25
946.935	2603.25
947.164	2599.25
947.394	2592.25
947.624	2582.25
947.853	2590.25
948.083	2570.25
948.312	2565.25
948.542	2480.25
948.771	2505.25
949	2497.25
949.23	2504.25
949.459	2495.25
949.688	2578.25
949.917	2522.25
950.146	2533.25
950.375	2561.25
950.604	2451.25
950.833	2533.25
951.062	2520.25
951.291	2491.25
951.52	2451.25
951.749	2463.25
951.978	2425.25
952.206	2416.25
952.435	2429.25
952.664	2429.25
952.892	2477.25
953.121	2421.25
953.349	2462.25
953.578	2431.25
953.806	2394.25
954.035	2335.25
954.263	2377.25
954.491	2322.25
954.719	2394.25
954.948	2304.25
955.176	2305.25
955.404	2245.25
955.632	2332.25
955.86	2323.25
956.088	2304.25
956.316	2325.25
956.544	2318.25
956.772	2260.25
956.999	2275.25
957.227	2337.25
957.455	2216.25
957.683	2238.25
957.91	2209.25
958.138	2188.25
958.365	2201.25
958.593	2177.25
958.82	2133.25
959.048	2252.25
959.275	2174.25
959.502	2151.25
959.73	2137.25
959.957	2178.25
960.184	2206.25
960.411	2102.25
960.638	2208.25
960.865	2135.25
961.092	2162.25
961.319	2087.25
961.546	2184.25
961.773	2160.25
962	2120.25
962.227	2148.25
962.454	2130.25
962.68	2125.25
962.907	2139.25
963.134	2061.25
963.36	2116.25
963.587	2111.25
963.813	2079.25
964.04	2086.25
964.266	2002.25
964.493	2100.25
964.719	2088.25
964.945	2069.25
965.171	1942.25
965.398	2041.25
965.624	2053.25
965.85	1961.25
966.076	1976.25
966.302	2015.25
966.528	1960.25
966.754	2007.25
966.98	1948.25
967.206	1958.25
967.431	1886.25
967.657	2008.25
967.883	1968.25
968.109	1961.25
968.334	1925.25
968.56	1900.25
968.785	1898.25
969.011	1884.25
969.236	1934.25
969.462	1909.25
969.687	1870.25
969.912	1934.25
970.138	1944.25
970.363	1864.25
970.588	1888.25
970.813	1874.25
971.038	1814.25
971.263	1892.25
971.488	1854.25
971.713	1874.25
971.938	1866.25
972.163	1798.25
972.388	1800.25
972.613	1809.25
972.838	1841.25
973.062	1791.25
973.287	1815.25
973.512	1724.25
973.736	1771.25
973.961	1765.25
974.185	1758.25
974.41	1786.25
974.634	1682.25
974.858	1713.25
975.083	1734.25
975.307	1765.25
975.531	1704.25
975.755	1650.25
975.98	1686.25
976.204	1622.25
976.428	1631.25
976.652	1631.25
976.876	1622.25
977.1	1670.25
977.324	1584.25
977.547	1664.25
977.771	1676.25
977.995	1640.25
978.219	1558.25
978.442	1687.25
978.666	1610.25
978.89	1616.25
979.113	1627.25
979.337	1624.25
979.56	1550.25
979.783	1714.25
980.007	1545.25
980.23	1613.25
980.453	1562.25
980.677	1600.25
980.9	1565.25
981.123	1485.25
981.346	1570.25
981.569	1580.25
981.792	1591.25
982.015	1573.25
982.238	1517.25
982.461	1543.25
982.684	1490.25
982.907	1471.25
983.129	1485.25
983.352	1546.25
983.575	1495.25
983.797	1512.25
984.02	1468.25
984.242	1477.25
984.465	1485.25
984.687	1486.25
984.91	1561.25
985.132	1509.25
985.354	1538.25
985.577	1486.25
985.799	1471.25
986.021	1390.25
986.243	1434.25
986.465	1436.25
986.687	1504.25
986.909	1511.25
987.131	1439.25
987.353	1414.25
987.575	1461.25
987.797	1431.25
988.019	1363.25
988.241	1434.25
988.462	1400.25
988.684	1448.25
988.906	1489.25
989.127	1482.25
989.349	1379.25
989.57	1395.25
989.792	1450.25
990.013	1482.25
990.234	1447.25
990.456	1501.25
990.677	1458.25
990.898	1404.25
991.119	1399.25
991.341	1435.25
991.562	1339.25
991.783	1419.25
992.004	1334.25
992.225	1325.25
992.446	1395.25
992.667	1284.25
992.887	1373.25
993.108	1272.25
993.329	1412.25
993.55	1356.25
993.77	1302.25
993.991	1334.25
994.212	1336.25
994.432	1332.25
994.653	1323.25
994.873	1316.25
995.093	1250.25
995.314	1250.25
995.534	1349.25
995.754	1351.25
995.975	1385.25
996.195	1273.25
996.415	1337.25
996.635	1282.25
996.855	1317.25
997.075	1294.25
997.295	1288.25
997.515	1261.25
997.735	1310.25
997.955	1286.25
998.174	1283.25
998.394	1264.25
998.614	1300.25
998.834	1275.25
999.053	1368.25
999.273	1282.25
999.492	1344.25
999.712	1304.25
999.931	1258.25
1000.151	1293.25
1000.37	1282.25
1000.589	1321.25
1000.809	1272.25
1001.028	1365.25
1001.247	1291.25
1001.466	1202.25
1001.685	1351.25
1001.904	1290.25
1002.123	1263.25
1002.342	1282.25
1002.561	1244.25
1002.78	1262.25
1002.999	1323.25
1003.218	1273.25
1003.436	1237.25
1003.655	1305.25
1003.874	1237.25
1004.092	1264.25
1004.311	1320.25
1004.53	1255.25
1004.748	1342.25
1004.966	1235.25
1005.185	1324.25
1005.403	1314.25
1005.622	1270.25
1005.84	1331.25
1006.058	1271.25
1006.276	1290.25
1006.494	1767.25
1006.712	1302.25
1006.931	1346.25
1007.149	1248.25
1007.367	1268.25
1007.584	1289.25
1007.802	1306.25
1008.02	1253.25
1008.238	1356.25
1008.456	1361.25
1008.673	1246.25
1008.891	1360.25
1009.109	1285.25
1009.326	1362.25
1009.544	1423.25
1009.761	1338.25
1009.979	1429.25
1010.196	1403.25
1010.413	1541.25
1010.631	1546.25
1010.848	1572.25
1011.065	1584.25
1011.282	1505.25
1011.5	1472.25
1011.717	1568.25
1011.934	1511.25
1012.151	1557.25
1012.368	1510.25
1012.585	1449.25
1012.801	1530.25
1013.018	1493.25
1013.235	1471.25
1013.452	1506.25
1013.669	1503.25
1013.885	1495.25
1014.102	1505.25
1014.318	1478.25
1014.535	1415.25
1014.751	1463.25
1014.968	1474.25
1015.184	1502.25
1015.401	1406.25
1015.617	1443.25
1015.833	1401.25
1016.049	1406.25
1016.266	1398.25
1016.482	1418.25
1016.698	1311.25
1016.914	1364.25
1017.13	1315.25
1017.346	1330.25
1017.562	1374.25
1017.778	1312.25
1017.993	1278.25
1018.209	1333.25
1018.425	1309.25
1018.641	1289.25
1018.856	1267.25
1019.072	1281.25
1019.288	1342.25
1019.503	1254.25
1019.719	1191.25
1019.934	1202.25
1020.149	1299.25
1020.365	1232.25
1020.58	1191.25
1020.795	1251.25
1021.011	1177.25
1021.226	1165.25
1021.441	1184.25
1021.656	1111.25
1021.871	1059.25
1022.086	1053.25
1022.301	1080.25
1022.516	1053.25
1022.731	1115.25
1022.946	1029.25
1023.16	1006.25
1023.375	1000.25
1023.59	974.25
1023.804	941.25
1024.019	1059.25
1024.234	906.25
1024.448	940.25
1024.663	887.25
1024.877	917.25
1025.092	916.25
1025.306	924.25
1025.52	827.25
1025.734	910.25
1025.949	870.25
1026.163	827.25
1026.377	755.25
1026.591	830.25
1026.805	751.25
1027.019	755.25
1027.233	706.25
1027.447	668.25
1027.661	787.25
1027.875	706.25
1028.088	723.25
1028.302	649.25
1028.516	641.25
1028.73	666.25
1028.943	639.25
1029.157	584.25
1029.37	566.25
1029.584	-0.75
1029.797	-2.75
1030.011	-2.75
1030.224	-0.75
