Data from QEP037381__24__11-24-55-593.txt Node

Date: Wed Dec 21 11:24:55 EST 2022
User: dcclab
Spectrometer: QEP03738
Trigger mode: 4
Integration Time (sec): 1.000000E1
Scans to average: 1
Electric dark correction enabled: true
Nonlinearity correction enabled: false
Boxcar width: 0
XAxis mode: Wavelengths
Number of Pixels in Spectrum: 1044
>>>>>Begin Spectral Data<<<<<
784.041	12.12
784.3	3.12
784.558	-3.88
784.817	-2.88
785.075	42125.12
785.334	8363.12
785.592	4379.12
785.851	3078.12
786.109	2352.12
786.368	1880.12
786.626	1576.12
786.884	1317.12
787.143	1104.12
787.401	945.12
787.659	883.12
787.917	766.12
788.175	735.12
788.433	652.12
788.691	601.12
788.949	561.12
789.207	550.12
789.465	474.12
789.723	484.12
789.98	437.12
790.238	505.12
790.496	481.12
790.753	439.12
791.011	506.12
791.268	437.12
791.526	425.12
791.783	442.12
792.041	445.12
792.298	361.12
792.556	436.12
792.813	419.12
793.07	410.12
793.327	386.12
793.584	464.12
793.841	394.12
794.099	408.12
794.356	471.12
794.613	376.12
794.869	419.12
795.126	370.12
795.383	362.12
795.64	379.12
795.897	356.12
796.153	388.12
796.41	380.12
796.667	359.12
796.923	377.12
797.18	377.12
797.436	397.12
797.693	352.12
797.949	414.12
798.206	459.12
798.462	349.12
798.718	431.12
798.974	403.12
799.231	425.12
799.487	433.12
799.743	428.12
799.999	439.12
800.255	442.12
800.511	409.12
800.767	453.12
801.023	446.12
801.279	480.12
801.534	474.12
801.79	532.12
802.046	543.12
802.302	641.12
802.557	693.12
802.813	844.12
803.068	984.12
803.324	1327.12
803.579	1765.12
803.835	2383.12
804.09	3275.12
804.345	4155.12
804.601	5229.12
804.856	6317.12
805.111	7187.12
805.366	7932.12
805.621	8444.12
805.876	8852.12
806.131	9007.12
806.386	9178.12
806.641	9293.12
806.896	9512.12
807.151	9701.12
807.406	9747.12
807.661	10001.12
807.915	10094.12
808.17	10304.12
808.425	10468.12
808.679	10510.12
808.934	10645.12
809.188	10728.12
809.443	10815.12
809.697	10955.12
809.951	11060.12
810.206	11132.12
810.46	11314.12
810.714	11350.12
810.968	11498.12
811.223	11480.12
811.477	11653.12
811.731	11678.12
811.985	11739.12
812.239	11730.12
812.493	11827.12
812.747	11941.12
813	11884.12
813.254	11965.12
813.508	12031.12
813.762	12086.12
814.015	12110.12
814.269	12328.12
814.522	12386.12
814.776	12489.12
815.03	12720.12
815.283	12852.12
815.536	13024.12
815.79	13239.12
816.043	13402.12
816.296	13643.12
816.55	13774.12
816.803	13936.12
817.056	14172.12
817.309	14221.12
817.562	14382.12
817.815	14466.12
818.068	14669.12
818.321	14781.12
818.574	14981.12
818.827	15146.12
819.079	15233.12
819.332	15746.12
819.585	15753.12
819.838	15919.12
820.09	15957.12
820.343	16113.12
820.595	16164.12
820.848	16307.12
821.1	16331.12
821.353	16263.12
821.605	16325.12
821.857	16353.12
822.11	16148.12
822.362	16230.12
822.614	16107.12
822.866	16134.12
823.118	16135.12
823.37	16311.12
823.622	16262.12
823.874	16285.12
824.126	16432.12
824.378	16374.12
824.63	16376.12
824.882	16396.12
825.134	16411.12
825.385	16440.12
825.637	16351.12
825.888	16346.12
826.14	16235.12
826.392	16227.12
826.643	16118.12
826.895	16167.12
827.146	15962.12
827.397	16071.12
827.649	16015.12
827.9	15919.12
828.151	15915.12
828.402	16026.12
828.653	15939.12
828.905	16127.12
829.156	16215.12
829.407	16093.12
829.658	16173.12
829.909	16212.12
830.159	16153.12
830.41	16084.12
830.661	15983.12
830.912	15853.12
831.162	15770.12
831.413	15827.12
831.664	15869.12
831.914	15802.12
832.165	15720.12
832.415	15789.12
832.666	15796.12
832.916	15823.12
833.167	15768.12
833.417	15833.12
833.667	15770.12
833.917	15685.12
834.168	15726.12
834.418	15548.12
834.668	15484.12
834.918	15480.12
835.168	15351.12
835.418	15312.12
835.668	15277.12
835.918	15290.12
836.167	15219.12
836.417	15187.12
836.667	15225.12
836.917	15138.12
837.166	15181.12
837.416	15200.12
837.666	15292.12
837.915	15196.12
838.165	15066.12
838.414	15052.12
838.663	15085.12
838.913	15066.12
839.162	15049.12
839.411	15098.12
839.661	14976.12
839.91	14925.12
840.159	14912.12
840.408	14992.12
840.657	14958.12
840.906	14897.12
841.155	14868.12
841.404	14825.12
841.653	14932.12
841.902	14928.12
842.15	15154.12
842.399	15035.12
842.648	15041.12
842.897	14984.12
843.145	14822.12
843.394	14593.12
843.642	14651.12
843.891	14535.12
844.139	14386.12
844.388	14377.12
844.636	14332.12
844.884	14272.12
845.133	14308.12
845.381	14250.12
845.629	14299.12
845.877	14235.12
846.125	14322.12
846.373	14233.12
846.621	14083.12
846.869	14178.12
847.117	14078.12
847.365	13990.12
847.613	13953.12
847.861	13872.12
848.108	13959.12
848.356	13894.12
848.604	13867.12
848.851	13848.12
849.099	13922.12
849.346	13946.12
849.594	14031.12
849.841	14184.12
850.089	14251.12
850.336	14222.12
850.583	14338.12
850.831	14203.12
851.078	14176.12
851.325	14110.12
851.572	13969.12
851.819	13752.12
852.066	13576.12
852.313	13252.12
852.56	13222.12
852.807	13231.12
853.054	13152.12
853.301	13200.12
853.548	13271.12
853.794	13342.12
854.041	13286.12
854.288	13303.12
854.534	13475.12
854.781	13451.12
855.028	13385.12
855.274	13415.12
855.52	13311.12
855.767	13279.12
856.013	13405.12
856.26	13547.12
856.506	13102.12
856.752	13179.12
856.998	13244.12
857.244	13205.12
857.49	13279.12
857.736	13305.12
857.982	13412.12
858.228	13132.12
858.474	13110.12
858.72	12999.12
858.966	12943.12
859.212	12775.12
859.458	12589.12
859.703	12602.12
859.949	12396.12
860.195	12355.12
860.44	12324.12
860.686	12295.12
860.931	12311.12
861.177	12128.12
861.422	12133.12
861.667	12082.12
861.913	12068.12
862.158	12092.12
862.403	12181.12
862.648	12150.12
862.893	12187.12
863.138	12116.12
863.384	12154.12
863.629	12119.12
863.873	12029.12
864.118	12024.12
864.363	11976.12
864.608	12001.12
864.853	11919.12
865.098	11843.12
865.342	11753.12
865.587	11733.12
865.832	11771.12
866.076	11768.12
866.321	11676.12
866.565	11657.12
866.81	11615.12
867.054	11493.12
867.298	11522.12
867.543	11459.12
867.787	11518.12
868.031	11470.12
868.275	11463.12
868.519	11409.12
868.764	11462.12
869.008	11388.12
869.252	11410.12
869.496	11409.12
869.739	11364.12
869.983	11379.12
870.227	11424.12
870.471	11330.12
870.715	11401.12
870.958	11449.12
871.202	11481.12
871.446	11498.12
871.689	11373.12
871.933	11496.12
872.176	11456.12
872.42	11457.12
872.663	11416.12
872.906	11326.12
873.15	11448.12
873.393	11324.12
873.636	11427.12
873.879	11274.12
874.122	11146.12
874.366	10958.12
874.609	10852.12
874.852	10728.12
875.095	10689.12
875.337	10713.12
875.58	10537.12
875.823	10628.12
876.066	10611.12
876.309	10460.12
876.551	10401.12
876.794	10313.12
877.037	10434.12
877.279	10319.12
877.522	10400.12
877.764	10328.12
878.007	10312.12
878.249	10259.12
878.491	10319.12
878.734	10331.12
878.976	10275.12
879.218	10193.12
879.46	10178.12
879.702	10093.12
879.945	9971.12
880.187	9879.12
880.429	9879.12
880.671	9848.12
880.912	9865.12
881.154	9786.12
881.396	9618.12
881.638	9747.12
881.88	9742.12
882.121	9722.12
882.363	9684.12
882.605	9779.12
882.846	9667.12
883.088	9703.12
883.329	9657.12
883.571	9705.12
883.812	9874.12
884.053	9986.12
884.295	10247.12
884.536	10375.12
884.777	10224.12
885.018	10152.12
885.259	10113.12
885.5	9983.12
885.742	10197.12
885.982	9945.12
886.223	9844.12
886.464	9814.12
886.705	9647.12
886.946	9593.12
887.187	9456.12
887.428	9343.12
887.668	9187.12
887.909	9031.12
888.15	8970.12
888.39	8973.12
888.631	8958.12
888.871	8893.12
889.111	8743.12
889.352	8783.12
889.592	8667.12
889.833	8517.12
890.073	8489.12
890.313	8565.12
890.553	8380.12
890.793	8401.12
891.033	8302.12
891.273	8300.12
891.513	8319.12
891.753	8301.12
891.993	8217.12
892.233	8283.12
892.473	8313.12
892.713	8331.12
892.952	8261.12
893.192	8291.12
893.432	8285.12
893.671	8261.12
893.911	8204.12
894.15	8235.12
894.39	8094.12
894.629	8102.12
894.869	8081.12
895.108	7981.12
895.347	7961.12
895.587	8044.12
895.826	7936.12
896.065	7916.12
896.304	7940.12
896.543	7934.12
896.782	7835.12
897.021	7912.12
897.26	7843.12
897.499	7934.12
897.738	7910.12
897.977	7806.12
898.216	7718.12
898.454	7677.12
898.693	7555.12
898.932	7656.12
899.17	7585.12
899.409	7626.12
899.647	7580.12
899.886	7616.12
900.124	7560.12
900.363	7615.12
900.601	7618.12
900.839	7632.12
901.078	7671.12
901.316	7659.12
901.554	7683.12
901.792	7736.12
902.03	7716.12
902.268	7748.12
902.506	7708.12
902.744	7626.12
902.982	7635.12
903.22	7389.12
903.458	7365.12
903.695	7259.12
903.933	7163.12
904.171	6996.12
904.409	6945.12
904.646	6891.12
904.884	6761.12
905.121	6729.12
905.359	6640.12
905.596	6598.12
905.833	6479.12
906.071	6449.12
906.308	6527.12
906.545	6398.12
906.783	6314.12
907.02	6386.12
907.257	6354.12
907.494	6301.12
907.731	6320.12
907.968	6252.12
908.205	6226.12
908.442	6213.12
908.679	6188.12
908.915	6117.12
909.152	6111.12
909.389	5940.12
909.626	5983.12
909.862	5948.12
910.099	5952.12
910.335	5915.12
910.572	5864.12
910.808	5893.12
911.045	5784.12
911.281	5739.12
911.518	5893.12
911.754	5713.12
911.99	5713.12
912.226	5636.12
912.463	5579.12
912.699	5561.12
912.935	5530.12
913.171	5536.12
913.407	5439.12
913.643	5478.12
913.879	5327.12
914.114	5362.12
914.35	5279.12
914.586	5249.12
914.822	5238.12
915.057	5278.12
915.293	5108.12
915.529	5065.12
915.764	5219.12
916	5142.12
916.235	5053.12
916.471	5072.12
916.706	5023.12
916.941	5050.12
917.177	5063.12
917.412	5099.12
917.647	5057.12
917.882	5029.12
918.117	5042.12
918.352	4962.12
918.588	5036.12
918.823	4928.12
919.057	4890.12
919.292	4762.12
919.527	4857.12
919.762	4753.12
919.997	4788.12
920.232	4673.12
920.466	4693.12
920.701	4589.12
920.935	4670.12
921.17	4519.12
921.405	4508.12
921.639	4541.12
921.873	4490.12
922.108	4546.12
922.342	4485.12
922.576	4445.12
922.811	4434.12
923.045	4425.12
923.279	4425.12
923.513	4302.12
923.747	4408.12
923.981	4374.12
924.215	4303.12
924.449	4303.12
924.683	4231.12
924.917	4210.12
925.151	4231.12
925.385	4238.12
925.618	4227.12
925.852	4179.12
926.086	4120.12
926.319	4177.12
926.553	4161.12
926.786	4157.12
927.02	4199.12
927.253	4177.12
927.486	4158.12
927.72	4103.12
927.953	4175.12
928.186	4111.12
928.42	4119.12
928.653	4043.12
928.886	4044.12
929.119	4073.12
929.352	4042.12
929.585	4032.12
929.818	3967.12
930.051	3947.12
930.284	3957.12
930.516	3860.12
930.749	3863.12
930.982	3861.12
931.215	3853.12
931.447	3716.12
931.68	3746.12
931.912	3790.12
932.145	3757.12
932.377	3755.12
932.61	3909.12
932.842	3697.12
933.074	3770.12
933.307	3733.12
933.539	3789.12
933.771	3771.12
934.003	3793.12
934.236	3839.12
934.468	3823.12
934.7	3734.12
934.932	3781.12
935.164	3711.12
935.395	3689.12
935.627	3757.12
935.859	3699.12
936.091	3627.12
936.323	3684.12
936.554	3701.12
936.786	3659.12
937.017	3587.12
937.249	3619.12
937.481	3528.12
937.712	3630.12
937.943	3577.12
938.175	3558.12
938.406	3562.12
938.637	3667.12
938.869	3524.12
939.1	3581.12
939.331	3523.12
939.562	3592.12
939.793	3528.12
940.024	3592.12
940.255	3571.12
940.486	3474.12
940.717	3481.12
940.948	3442.12
941.179	3410.12
941.409	3407.12
941.64	3400.12
941.871	3409.12
942.102	3402.12
942.332	3388.12
942.563	3428.12
942.793	3406.12
943.024	3371.12
943.254	3358.12
943.484	3430.12
943.715	3460.12
943.945	3422.12
944.175	3355.12
944.405	3304.12
944.636	3301.12
944.866	3393.12
945.096	3343.12
945.326	3290.12
945.556	3340.12
945.786	3342.12
946.016	3258.12
946.245	3264.12
946.475	3248.12
946.705	3252.12
946.935	3250.12
947.164	3237.12
947.394	3177.12
947.624	3179.12
947.853	3163.12
948.083	3164.12
948.312	3116.12
948.542	3096.12
948.771	3028.12
949	3084.12
949.23	3077.12
949.459	3093.12
949.688	3169.12
949.917	3099.12
950.146	3096.12
950.375	3106.12
950.604	3039.12
950.833	3100.12
951.062	3112.12
951.291	3033.12
951.52	3004.12
951.749	3077.12
951.978	3006.12
952.206	2974.12
952.435	2995.12
952.664	3064.12
952.892	3013.12
953.121	2984.12
953.349	2987.12
953.578	2981.12
953.806	2945.12
954.035	2911.12
954.263	2913.12
954.491	2872.12
954.719	2941.12
954.948	2893.12
955.176	2819.12
955.404	2789.12
955.632	2832.12
955.86	2851.12
956.088	2837.12
956.316	2835.12
956.544	2836.12
956.772	2755.12
956.999	2766.12
957.227	2858.12
957.455	2737.12
957.683	2755.12
957.91	2691.12
958.138	2692.12
958.365	2707.12
958.593	2663.12
958.82	2614.12
959.048	2707.12
959.275	2673.12
959.502	2632.12
959.73	2612.12
959.957	2652.12
960.184	2660.12
960.411	2610.12
960.638	2689.12
960.865	2605.12
961.092	2639.12
961.319	2543.12
961.546	2663.12
961.773	2633.12
962	2564.12
962.227	2680.12
962.454	2587.12
962.68	2546.12
962.907	2573.12
963.134	2579.12
963.36	2554.12
963.587	2601.12
963.813	2480.12
964.04	2574.12
964.266	2480.12
964.493	2548.12
964.719	2540.12
964.945	2487.12
965.171	2400.12
965.398	2469.12
965.624	2445.12
965.85	2398.12
966.076	2390.12
966.302	2435.12
966.528	2424.12
966.754	2435.12
966.98	2420.12
967.206	2403.12
967.431	2341.12
967.657	2417.12
967.883	2360.12
968.109	2367.12
968.334	2322.12
968.56	2297.12
968.785	2318.12
969.011	2256.12
969.236	2362.12
969.462	2269.12
969.687	2287.12
969.912	2312.12
970.138	2354.12
970.363	2235.12
970.588	2263.12
970.813	2265.12
971.038	2217.12
971.263	2288.12
971.488	2233.12
971.713	2267.12
971.938	2255.12
972.163	2182.12
972.388	2182.12
972.613	2207.12
972.838	2173.12
973.062	2160.12
973.287	2169.12
973.512	2096.12
973.736	2146.12
973.961	2151.12
974.185	2100.12
974.41	2141.12
974.634	2042.12
974.858	2043.12
975.083	2072.12
975.307	2111.12
975.531	2044.12
975.755	1992.12
975.98	2020.12
976.204	1946.12
976.428	1996.12
976.652	1951.12
976.876	1959.12
977.1	1946.12
977.324	1932.12
977.547	1983.12
977.771	2010.12
977.995	1953.12
978.219	1878.12
978.442	1999.12
978.666	1945.12
978.89	1931.12
979.113	1946.12
979.337	1922.12
979.56	1885.12
979.783	1985.12
980.007	1850.12
980.23	1917.12
980.453	1870.12
980.677	1914.12
980.9	1903.12
981.123	1828.12
981.346	1893.12
981.569	1841.12
981.792	1913.12
982.015	1822.12
982.238	1831.12
982.461	1836.12
982.684	1792.12
982.907	1766.12
983.129	1761.12
983.352	1777.12
983.575	1784.12
983.797	1809.12
984.02	1743.12
984.242	1749.12
984.465	1738.12
984.687	1784.12
984.91	1793.12
985.132	1749.12
985.354	1759.12
985.577	1751.12
985.799	1739.12
986.021	1651.12
986.243	1673.12
986.465	1711.12
986.687	1741.12
986.909	1764.12
987.131	1705.12
987.353	1669.12
987.575	1745.12
987.797	1664.12
988.019	1631.12
988.241	1670.12
988.462	1658.12
988.684	1705.12
988.906	1716.12
989.127	1724.12
989.349	1572.12
989.57	1659.12
989.792	1692.12
990.013	1682.12
990.234	1721.12
990.456	1719.12
990.677	1708.12
990.898	1631.12
991.119	1642.12
991.341	1670.12
991.562	1590.12
991.783	1627.12
992.004	1585.12
992.225	1545.12
992.446	1596.12
992.667	1506.12
992.887	1605.12
993.108	1518.12
993.329	1628.12
993.55	1578.12
993.77	1521.12
993.991	1525.12
994.212	1563.12
994.432	1544.12
994.653	1572.12
994.873	1529.12
995.093	1423.12
995.314	1483.12
995.534	1552.12
995.754	1575.12
995.975	1581.12
996.195	1454.12
996.415	1525.12
996.635	1515.12
996.855	1508.12
997.075	1491.12
997.295	1482.12
997.515	1473.12
997.735	1524.12
997.955	1498.12
998.174	1482.12
998.394	1479.12
998.614	1522.12
998.834	1475.12
999.053	1523.12
999.273	1504.12
999.492	1532.12
999.712	1488.12
999.931	1437.12
1000.151	1498.12
1000.37	1446.12
1000.589	1520.12
1000.809	1459.12
1001.028	1570.12
1001.247	1469.12
1001.466	1373.12
1001.685	1528.12
1001.904	1469.12
1002.123	1443.12
1002.342	1439.12
1002.561	1414.12
1002.78	1429.12
1002.999	1503.12
1003.218	1413.12
1003.436	1381.12
1003.655	1459.12
1003.874	1419.12
1004.092	1431.12
1004.311	1474.12
1004.53	1396.12
1004.748	1502.12
1004.966	1412.12
1005.185	1454.12
1005.403	1464.12
1005.622	1451.12
1005.84	1484.12
1006.058	1407.12
1006.276	1428.12
1006.494	1953.12
1006.712	1405.12
1006.931	1493.12
1007.149	1395.12
1007.367	1390.12
1007.584	1435.12
1007.802	1482.12
1008.02	1426.12
1008.238	1519.12
1008.456	1523.12
1008.673	1401.12
1008.891	1504.12
1009.109	1471.12
1009.326	1525.12
1009.544	1590.12
1009.761	1503.12
1009.979	1626.12
1010.196	1633.12
1010.413	1731.12
1010.631	1769.12
1010.848	1791.12
1011.065	1796.12
1011.282	1739.12
1011.5	1710.12
1011.717	1794.12
1011.934	1752.12
1012.151	1787.12
1012.368	1711.12
1012.585	1703.12
1012.801	1728.12
1013.018	1735.12
1013.235	1707.12
1013.452	1698.12
1013.669	1717.12
1013.885	1712.12
1014.102	1740.12
1014.318	1725.12
1014.535	1679.12
1014.751	1689.12
1014.968	1695.12
1015.184	1717.12
1015.401	1627.12
1015.617	1654.12
1015.833	1589.12
1016.049	1615.12
1016.266	1566.12
1016.482	1580.12
1016.698	1520.12
1016.914	1545.12
1017.13	1512.12
1017.346	1514.12
1017.562	1546.12
1017.778	1491.12
1017.993	1468.12
1018.209	1504.12
1018.425	1492.12
1018.641	1454.12
1018.856	1430.12
1019.072	1457.12
1019.288	1505.12
1019.503	1460.12
1019.719	1384.12
1019.934	1396.12
1020.149	1462.12
1020.365	1412.12
1020.58	1318.12
1020.795	1392.12
1021.011	1357.12
1021.226	1299.12
1021.441	1343.12
1021.656	1278.12
1021.871	1163.12
1022.086	1210.12
1022.301	1178.12
1022.516	1172.12
1022.731	1228.12
1022.946	1122.12
1023.16	1129.12
1023.375	1095.12
1023.59	1092.12
1023.804	1040.12
1024.019	1148.12
1024.234	1015.12
1024.448	1050.12
1024.663	986.12
1024.877	990.12
1025.092	1009.12
1025.306	1008.12
1025.52	914.12
1025.734	1008.12
1025.949	931.12
1026.163	892.12
1026.377	840.12
1026.591	901.12
1026.805	809.12
1027.019	813.12
1027.233	781.12
1027.447	737.12
1027.661	836.12
1027.875	767.12
1028.088	773.12
1028.302	732.12
1028.516	693.12
1028.73	700.12
1028.943	689.12
1029.157	644.12
1029.37	591.12
1029.584	1.12
1029.797	-2.88
1030.011	-4.88
1030.224	-1.88
