Data from QEP037381__28__11-25-35-594.txt Node

Date: Wed Dec 21 11:25:35 EST 2022
User: dcclab
Spectrometer: QEP03738
Trigger mode: 4
Integration Time (sec): 1.000000E1
Scans to average: 1
Electric dark correction enabled: true
Nonlinearity correction enabled: false
Boxcar width: 0
XAxis mode: Wavelengths
Number of Pixels in Spectrum: 1044
>>>>>Begin Spectral Data<<<<<
784.041	12.25
784.3	1.25
784.558	-2.75
784.817	-5.75
785.075	43924.25
785.334	8788.25
785.592	4602.25
785.851	3235.25
786.109	2502.25
786.368	1964.25
786.626	1629.25
786.884	1361.25
787.143	1179.25
787.401	951.25
787.659	931.25
787.917	812.25
788.175	756.25
788.433	663.25
788.691	627.25
788.949	591.25
789.207	558.25
789.465	490.25
789.723	481.25
789.98	444.25
790.238	493.25
790.496	457.25
790.753	440.25
791.011	482.25
791.268	433.25
791.526	419.25
791.783	437.25
792.041	433.25
792.298	341.25
792.556	428.25
792.813	417.25
793.07	386.25
793.327	363.25
793.584	458.25
793.841	385.25
794.099	401.25
794.356	456.25
794.613	367.25
794.869	400.25
795.126	365.25
795.383	350.25
795.64	381.25
795.897	339.25
796.153	394.25
796.41	372.25
796.667	358.25
796.923	377.25
797.18	367.25
797.436	383.25
797.693	351.25
797.949	407.25
798.206	433.25
798.462	344.25
798.718	401.25
798.974	382.25
799.231	419.25
799.487	394.25
799.743	405.25
799.999	430.25
800.255	417.25
800.511	402.25
800.767	437.25
801.023	425.25
801.279	435.25
801.534	463.25
801.79	499.25
802.046	488.25
802.302	573.25
802.557	611.25
802.813	732.25
803.068	813.25
803.324	1085.25
803.579	1399.25
803.835	1892.25
804.09	2564.25
804.345	3245.25
804.601	4060.25
804.856	4947.25
805.111	5685.25
805.366	6186.25
805.621	6622.25
805.876	6888.25
806.131	7038.25
806.386	7185.25
806.641	7309.25
806.896	7501.25
807.151	7623.25
807.406	7687.25
807.661	7810.25
807.915	7938.25
808.17	8058.25
808.425	8185.25
808.679	8191.25
808.934	8322.25
809.188	8366.25
809.443	8530.25
809.697	8616.25
809.951	8579.25
810.206	8682.25
810.46	8777.25
810.714	8814.25
810.968	8940.25
811.223	8892.25
811.477	8977.25
811.731	9072.25
811.985	9072.25
812.239	9085.25
812.493	9206.25
812.747	9202.25
813	9126.25
813.254	9214.25
813.508	9374.25
813.762	9360.25
814.015	9404.25
814.269	9422.25
814.522	9551.25
814.776	9624.25
815.03	9800.25
815.283	9901.25
815.536	10017.25
815.79	10161.25
816.043	10335.25
816.296	10457.25
816.55	10594.25
816.803	10584.25
817.056	10846.25
817.309	10880.25
817.562	10956.25
817.815	11134.25
818.068	11095.25
818.321	11174.25
818.574	11384.25
818.827	11502.25
819.079	11629.25
819.332	11892.25
819.585	11969.25
819.838	12139.25
820.09	12125.25
820.343	12382.25
820.595	12250.25
820.848	12262.25
821.1	12311.25
821.353	12367.25
821.605	12281.25
821.857	12314.25
822.11	12143.25
822.362	12177.25
822.614	12139.25
822.866	12160.25
823.118	12181.25
823.37	12305.25
823.622	12264.25
823.874	12315.25
824.126	12358.25
824.378	12267.25
824.63	12341.25
824.882	12351.25
825.134	12407.25
825.385	12402.25
825.637	12336.25
825.888	12265.25
826.14	12192.25
826.392	12196.25
826.643	12143.25
826.895	12079.25
827.146	11992.25
827.397	11972.25
827.649	12036.25
827.9	11927.25
828.151	11967.25
828.402	11994.25
828.653	12004.25
828.905	12052.25
829.156	12175.25
829.407	12044.25
829.658	12138.25
829.909	12216.25
830.159	12215.25
830.41	12053.25
830.661	11976.25
830.912	11973.25
831.162	11855.25
831.413	11879.25
831.664	11874.25
831.914	11924.25
832.165	11810.25
832.415	11917.25
832.666	11878.25
832.916	11877.25
833.167	11828.25
833.417	11899.25
833.667	11791.25
833.917	11736.25
834.168	11750.25
834.418	11686.25
834.668	11527.25
834.918	11507.25
835.168	11566.25
835.418	11399.25
835.668	11503.25
835.918	11415.25
836.167	11358.25
836.417	11385.25
836.667	11393.25
836.917	11419.25
837.166	11338.25
837.416	11391.25
837.666	11409.25
837.915	11322.25
838.165	11323.25
838.414	11309.25
838.663	11216.25
838.913	11263.25
839.162	11235.25
839.411	11229.25
839.661	11248.25
839.91	11199.25
840.159	11177.25
840.408	11194.25
840.657	11197.25
840.906	11131.25
841.155	11195.25
841.404	11218.25
841.653	11217.25
841.902	11176.25
842.15	11285.25
842.399	11216.25
842.648	11201.25
842.897	11158.25
843.145	11120.25
843.394	11039.25
843.642	10926.25
843.891	10866.25
844.139	10801.25
844.388	10653.25
844.636	10606.25
844.884	10772.25
845.133	10616.25
845.381	10642.25
845.629	10645.25
845.877	10599.25
846.125	10599.25
846.373	10621.25
846.621	10533.25
846.869	10487.25
847.117	10465.25
847.365	10395.25
847.613	10417.25
847.861	10371.25
848.108	10424.25
848.356	10386.25
848.604	10328.25
848.851	10344.25
849.099	10393.25
849.346	10465.25
849.594	10532.25
849.841	10484.25
850.089	10636.25
850.336	10740.25
850.583	10799.25
850.831	10794.25
851.078	10640.25
851.325	10522.25
851.572	10569.25
851.819	10394.25
852.066	10144.25
852.313	9886.25
852.56	9815.25
852.807	9827.25
853.054	9817.25
853.301	9813.25
853.548	9911.25
853.794	9972.25
854.041	10023.25
854.288	9954.25
854.534	10119.25
854.781	10056.25
855.028	10015.25
855.274	10093.25
855.52	10018.25
855.767	10007.25
856.013	10071.25
856.26	10356.25
856.506	9970.25
856.752	9816.25
856.998	9870.25
857.244	9910.25
857.49	10025.25
857.736	10010.25
857.982	10020.25
858.228	9985.25
858.474	9772.25
858.72	9707.25
858.966	9666.25
859.212	9574.25
859.458	9455.25
859.703	9352.25
859.949	9340.25
860.195	9171.25
860.44	9261.25
860.686	9144.25
860.931	9246.25
861.177	9104.25
861.422	9099.25
861.667	8932.25
861.913	8965.25
862.158	9030.25
862.403	9041.25
862.648	9015.25
862.893	9101.25
863.138	9026.25
863.384	8982.25
863.629	8973.25
863.873	8967.25
864.118	8979.25
864.363	8852.25
864.608	8895.25
864.853	8859.25
865.098	8798.25
865.342	8759.25
865.587	8697.25
865.832	8754.25
866.076	8761.25
866.321	8653.25
866.565	8669.25
866.81	8645.25
867.054	8559.25
867.298	8620.25
867.543	8535.25
867.787	8585.25
868.031	8608.25
868.275	8513.25
868.519	8503.25
868.764	8535.25
869.008	8565.25
869.252	8557.25
869.496	8513.25
869.739	8541.25
869.983	8588.25
870.227	8516.25
870.471	8484.25
870.715	8524.25
870.958	8578.25
871.202	8608.25
871.446	8635.25
871.689	8633.25
871.933	8585.25
872.176	8568.25
872.42	8542.25
872.663	8586.25
872.906	8720.25
873.15	8611.25
873.393	8579.25
873.636	8630.25
873.879	8551.25
874.122	8505.25
874.366	8233.25
874.609	8214.25
874.852	8077.25
875.095	8058.25
875.337	8007.25
875.58	7983.25
875.823	7885.25
876.066	7964.25
876.309	7964.25
876.551	7783.25
876.794	7768.25
877.037	7821.25
877.279	7768.25
877.522	7731.25
877.764	7762.25
878.007	7712.25
878.249	7723.25
878.491	7690.25
878.734	7692.25
878.976	7647.25
879.218	7602.25
879.46	7611.25
879.702	7576.25
879.945	7485.25
880.187	7388.25
880.429	7395.25
880.671	7372.25
880.912	7322.25
881.154	7304.25
881.396	7227.25
881.638	7281.25
881.88	7264.25
882.121	7235.25
882.363	7268.25
882.605	7339.25
882.846	7221.25
883.088	7269.25
883.329	7294.25
883.571	7304.25
883.812	7456.25
884.053	7739.25
884.295	7965.25
884.536	8065.25
884.777	7910.25
885.018	7835.25
885.259	7794.25
885.5	7727.25
885.742	7924.25
885.982	7619.25
886.223	7602.25
886.464	7544.25
886.705	7337.25
886.946	7328.25
887.187	7108.25
887.428	7120.25
887.668	7001.25
887.909	6845.25
888.15	6722.25
888.39	6742.25
888.631	6685.25
888.871	6669.25
889.111	6573.25
889.352	6559.25
889.592	6393.25
889.833	6399.25
890.073	6372.25
890.313	6362.25
890.553	6271.25
890.793	6264.25
891.033	6174.25
891.273	6226.25
891.513	6182.25
891.753	6231.25
891.993	6198.25
892.233	6184.25
892.473	6260.25
892.713	6201.25
892.952	6208.25
893.192	6228.25
893.432	6156.25
893.671	6233.25
893.911	6137.25
894.15	6124.25
894.39	6062.25
894.629	6070.25
894.869	6137.25
895.108	6033.25
895.347	5971.25
895.587	6015.25
895.826	5981.25
896.065	5977.25
896.304	6002.25
896.543	6059.25
896.782	5932.25
897.021	5975.25
897.26	5933.25
897.499	5991.25
897.738	6027.25
897.977	5893.25
898.216	5831.25
898.454	5870.25
898.693	5797.25
898.932	5824.25
899.17	5763.25
899.409	5741.25
899.647	5798.25
899.886	5759.25
900.124	5836.25
900.363	5763.25
900.601	5840.25
900.839	5866.25
901.078	5882.25
901.316	5860.25
901.554	5996.25
901.792	6013.25
902.03	6002.25
902.268	5932.25
902.506	5986.25
902.744	5893.25
902.982	5881.25
903.22	5760.25
903.458	5707.25
903.695	5510.25
903.933	5507.25
904.171	5309.25
904.409	5251.25
904.646	5244.25
904.884	5120.25
905.121	5120.25
905.359	5025.25
905.596	4982.25
905.833	4913.25
906.071	4870.25
906.308	4920.25
906.545	4869.25
906.783	4786.25
907.02	4861.25
907.257	4764.25
907.494	4794.25
907.731	4775.25
907.968	4786.25
908.205	4705.25
908.442	4661.25
908.679	4675.25
908.915	4642.25
909.152	4616.25
909.389	4525.25
909.626	4479.25
909.862	4449.25
910.099	4460.25
910.335	4466.25
910.572	4341.25
910.808	4374.25
911.045	4377.25
911.281	4349.25
911.518	4403.25
911.754	4327.25
911.99	4276.25
912.226	4257.25
912.463	4164.25
912.699	4175.25
912.935	4204.25
913.171	4142.25
913.407	4049.25
913.643	4080.25
913.879	4091.25
914.114	4069.25
914.35	3985.25
914.586	3965.25
914.822	3882.25
915.057	3946.25
915.293	3849.25
915.529	3804.25
915.764	3838.25
916	3850.25
916.235	3867.25
916.471	3886.25
916.706	3774.25
916.941	3797.25
917.177	3787.25
917.412	3828.25
917.647	3818.25
917.882	3776.25
918.117	3832.25
918.352	3759.25
918.588	3809.25
918.823	3681.25
919.057	3702.25
919.292	3633.25
919.527	3636.25
919.762	3618.25
919.997	3624.25
920.232	3527.25
920.466	3579.25
920.701	3392.25
920.935	3544.25
921.17	3445.25
921.405	3370.25
921.639	3451.25
921.873	3385.25
922.108	3446.25
922.342	3409.25
922.576	3375.25
922.811	3328.25
923.045	3399.25
923.279	3403.25
923.513	3232.25
923.747	3351.25
923.981	3288.25
924.215	3235.25
924.449	3268.25
924.683	3211.25
924.917	3227.25
925.151	3174.25
925.385	3253.25
925.618	3178.25
925.852	3188.25
926.086	3149.25
926.319	3155.25
926.553	3124.25
926.786	3184.25
927.02	3138.25
927.253	3184.25
927.486	3184.25
927.72	3091.25
927.953	3121.25
928.186	3108.25
928.42	3141.25
928.653	3108.25
928.886	3088.25
929.119	3092.25
929.352	3097.25
929.585	3042.25
929.818	3027.25
930.051	3065.25
930.284	3019.25
930.516	2895.25
930.749	2920.25
930.982	2974.25
931.215	2935.25
931.447	2867.25
931.68	2898.25
931.912	2872.25
932.145	2845.25
932.377	2907.25
932.61	3041.25
932.842	2803.25
933.074	2880.25
933.307	2829.25
933.539	2958.25
933.771	2913.25
934.003	2866.25
934.236	2944.25
934.468	2964.25
934.7	2850.25
934.932	2914.25
935.164	2831.25
935.395	2846.25
935.627	2842.25
935.859	2874.25
936.091	2776.25
936.323	2799.25
936.554	2832.25
936.786	2810.25
937.017	2764.25
937.249	2773.25
937.481	2685.25
937.712	2793.25
937.943	2772.25
938.175	2704.25
938.406	2751.25
938.637	2810.25
938.869	2689.25
939.1	2768.25
939.331	2690.25
939.562	2697.25
939.793	2722.25
940.024	2752.25
940.255	2712.25
940.486	2670.25
940.717	2695.25
940.948	2649.25
941.179	2605.25
941.409	2643.25
941.64	2638.25
941.871	2629.25
942.102	2623.25
942.332	2595.25
942.563	2648.25
942.793	2616.25
943.024	2585.25
943.254	2605.25
943.484	2636.25
943.715	2676.25
943.945	2629.25
944.175	2539.25
944.405	2552.25
944.636	2555.25
944.866	2608.25
945.096	2593.25
945.326	2534.25
945.556	2585.25
945.786	2613.25
946.016	2573.25
946.245	2498.25
946.475	2487.25
946.705	2489.25
946.935	2512.25
947.164	2491.25
947.394	2415.25
947.624	2445.25
947.853	2495.25
948.083	2455.25
948.312	2404.25
948.542	2378.25
948.771	2356.25
949	2376.25
949.23	2362.25
949.459	2355.25
949.688	2451.25
949.917	2371.25
950.146	2381.25
950.375	2433.25
950.604	2326.25
950.833	2442.25
951.062	2407.25
951.291	2406.25
951.52	2327.25
951.749	2324.25
951.978	2299.25
952.206	2318.25
952.435	2329.25
952.664	2365.25
952.892	2331.25
953.121	2314.25
953.349	2327.25
953.578	2324.25
953.806	2293.25
954.035	2248.25
954.263	2283.25
954.491	2214.25
954.719	2311.25
954.948	2241.25
955.176	2237.25
955.404	2108.25
955.632	2208.25
955.86	2217.25
956.088	2195.25
956.316	2233.25
956.544	2246.25
956.772	2209.25
956.999	2140.25
957.227	2226.25
957.455	2116.25
957.683	2153.25
957.91	2110.25
958.138	2096.25
958.365	2087.25
958.593	2119.25
958.82	2033.25
959.048	2120.25
959.275	2093.25
959.502	2057.25
959.73	2017.25
959.957	2070.25
960.184	2109.25
960.411	2021.25
960.638	2095.25
960.865	2022.25
961.092	2100.25
961.319	1993.25
961.546	2089.25
961.773	2084.25
962	2023.25
962.227	2085.25
962.454	2037.25
962.68	2023.25
962.907	2057.25
963.134	1958.25
963.36	1970.25
963.587	2027.25
963.813	1960.25
964.04	2001.25
964.266	1901.25
964.493	2026.25
964.719	1946.25
964.945	1984.25
965.171	1882.25
965.398	1945.25
965.624	1949.25
965.85	1883.25
966.076	1885.25
966.302	1910.25
966.528	1883.25
966.754	1922.25
966.98	1914.25
967.206	1904.25
967.431	1838.25
967.657	1919.25
967.883	1894.25
968.109	1876.25
968.334	1840.25
968.56	1844.25
968.785	1807.25
969.011	1781.25
969.236	1873.25
969.462	1779.25
969.687	1807.25
969.912	1838.25
970.138	1842.25
970.363	1784.25
970.588	1821.25
970.813	1770.25
971.038	1765.25
971.263	1782.25
971.488	1812.25
971.713	1855.25
971.938	1837.25
972.163	1726.25
972.388	1705.25
972.613	1714.25
972.838	1755.25
973.062	1742.25
973.287	1728.25
973.512	1653.25
973.736	1687.25
973.961	1687.25
974.185	1679.25
974.41	1702.25
974.634	1583.25
974.858	1635.25
975.083	1660.25
975.307	1704.25
975.531	1643.25
975.755	1589.25
975.98	1590.25
976.204	1557.25
976.428	1551.25
976.652	1559.25
976.876	1526.25
977.1	1572.25
977.324	1530.25
977.547	1588.25
977.771	1580.25
977.995	1570.25
978.219	1502.25
978.442	1599.25
978.666	1566.25
978.89	1533.25
979.113	1560.25
979.337	1541.25
979.56	1501.25
979.783	1594.25
980.007	1515.25
980.23	1538.25
980.453	1485.25
980.677	1532.25
980.9	1518.25
981.123	1438.25
981.346	1516.25
981.569	1495.25
981.792	1527.25
982.015	1471.25
982.238	1440.25
982.461	1470.25
982.684	1436.25
982.907	1430.25
983.129	1429.25
983.352	1433.25
983.575	1447.25
983.797	1449.25
984.02	1394.25
984.242	1420.25
984.465	1427.25
984.687	1451.25
984.91	1462.25
985.132	1454.25
985.354	1471.25
985.577	1427.25
985.799	1414.25
986.021	1361.25
986.243	1387.25
986.465	1403.25
986.687	1427.25
986.909	1455.25
987.131	1411.25
987.353	1386.25
987.575	1417.25
987.797	1352.25
988.019	1308.25
988.241	1360.25
988.462	1337.25
988.684	1389.25
988.906	1426.25
989.127	1471.25
989.349	1340.25
989.57	1353.25
989.792	1416.25
990.013	1402.25
990.234	1407.25
990.456	1444.25
990.677	1396.25
990.898	1370.25
991.119	1344.25
991.341	1394.25
991.562	1314.25
991.783	1390.25
992.004	1304.25
992.225	1287.25
992.446	1353.25
992.667	1254.25
992.887	1334.25
993.108	1230.25
993.329	1360.25
993.55	1321.25
993.77	1255.25
993.991	1268.25
994.212	1291.25
994.432	1292.25
994.653	1301.25
994.873	1297.25
995.093	1196.25
995.314	1218.25
995.534	1306.25
995.754	1320.25
995.975	1352.25
996.195	1245.25
996.415	1319.25
996.635	1271.25
996.855	1313.25
997.075	1265.25
997.295	1269.25
997.515	1250.25
997.735	1310.25
997.955	1267.25
998.174	1274.25
998.394	1228.25
998.614	1292.25
998.834	1244.25
999.053	1311.25
999.273	1265.25
999.492	1342.25
999.712	1259.25
999.931	1237.25
1000.151	1261.25
1000.37	1248.25
1000.589	1320.25
1000.809	1239.25
1001.028	1345.25
1001.247	1280.25
1001.466	1180.25
1001.685	1325.25
1001.904	1261.25
1002.123	1242.25
1002.342	1247.25
1002.561	1218.25
1002.78	1232.25
1002.999	1325.25
1003.218	1233.25
1003.436	1222.25
1003.655	1237.25
1003.874	1219.25
1004.092	1234.25
1004.311	1268.25
1004.53	1258.25
1004.748	1316.25
1004.966	1234.25
1005.185	1290.25
1005.403	1285.25
1005.622	1271.25
1005.84	1321.25
1006.058	1241.25
1006.276	1268.25
1006.494	1746.25
1006.712	1258.25
1006.931	1345.25
1007.149	1249.25
1007.367	1261.25
1007.584	1273.25
1007.802	1325.25
1008.02	1260.25
1008.238	1371.25
1008.456	1380.25
1008.673	1251.25
1008.891	1353.25
1009.109	1326.25
1009.326	1372.25
1009.544	1473.25
1009.761	1403.25
1009.979	1480.25
1010.196	1506.25
1010.413	1628.25
1010.631	1672.25
1010.848	1711.25
1011.065	1709.25
1011.282	1646.25
1011.5	1596.25
1011.717	1700.25
1011.934	1633.25
1012.151	1682.25
1012.368	1615.25
1012.585	1617.25
1012.801	1650.25
1013.018	1645.25
1013.235	1596.25
1013.452	1645.25
1013.669	1659.25
1013.885	1637.25
1014.102	1669.25
1014.318	1653.25
1014.535	1615.25
1014.751	1668.25
1014.968	1609.25
1015.184	1633.25
1015.401	1578.25
1015.617	1560.25
1015.833	1533.25
1016.049	1530.25
1016.266	1506.25
1016.482	1505.25
1016.698	1447.25
1016.914	1477.25
1017.13	1431.25
1017.346	1426.25
1017.562	1472.25
1017.778	1425.25
1017.993	1383.25
1018.209	1455.25
1018.425	1464.25
1018.641	1369.25
1018.856	1378.25
1019.072	1402.25
1019.288	1440.25
1019.503	1387.25
1019.719	1328.25
1019.934	1332.25
1020.149	1390.25
1020.365	1319.25
1020.58	1261.25
1020.795	1319.25
1021.011	1236.25
1021.226	1247.25
1021.441	1259.25
1021.656	1178.25
1021.871	1108.25
1022.086	1112.25
1022.301	1101.25
1022.516	1123.25
1022.731	1158.25
1022.946	1084.25
1023.16	1067.25
1023.375	1039.25
1023.59	1018.25
1023.804	986.25
1024.019	1066.25
1024.234	964.25
1024.448	971.25
1024.663	936.25
1024.877	928.25
1025.092	950.25
1025.306	935.25
1025.52	855.25
1025.734	947.25
1025.949	867.25
1026.163	843.25
1026.377	797.25
1026.591	841.25
1026.805	754.25
1027.019	754.25
1027.233	731.25
1027.447	668.25
1027.661	771.25
1027.875	719.25
1028.088	732.25
1028.302	653.25
1028.516	652.25
1028.73	660.25
1028.943	636.25
1029.157	605.25
1029.37	575.25
1029.584	-0.75
1029.797	2.25
1030.011	-3.75
1030.224	-2.75
