Data from QEP037381__89__11-35-45-597.txt Node

Date: Wed Dec 21 11:35:45 EST 2022
User: dcclab
Spectrometer: QEP03738
Trigger mode: 4
Integration Time (sec): 1.000000E1
Scans to average: 1
Electric dark correction enabled: true
Nonlinearity correction enabled: false
Boxcar width: 0
XAxis mode: Wavelengths
Number of Pixels in Spectrum: 1044
>>>>>Begin Spectral Data<<<<<
784.041	11.88
784.3	0.88
784.558	-3.12
784.817	-3.12
785.075	38714.88
785.334	7830.88
785.592	4181.88
785.851	2933.88
786.109	2228.88
786.368	1805.88
786.626	1474.88
786.884	1277.88
787.143	1073.88
787.401	885.88
787.659	833.88
787.917	736.88
788.175	708.88
788.433	629.88
788.691	584.88
788.949	566.88
789.207	556.88
789.465	471.88
789.723	472.88
789.98	438.88
790.238	478.88
790.496	456.88
790.753	454.88
791.011	488.88
791.268	434.88
791.526	423.88
791.783	446.88
792.041	409.88
792.298	345.88
792.556	425.88
792.813	407.88
793.07	389.88
793.327	377.88
793.584	457.88
793.841	382.88
794.099	406.88
794.356	470.88
794.613	363.88
794.869	411.88
795.126	363.88
795.383	359.88
795.64	389.88
795.897	337.88
796.153	387.88
796.41	381.88
796.667	353.88
796.923	373.88
797.18	360.88
797.436	410.88
797.693	357.88
797.949	412.88
798.206	436.88
798.462	353.88
798.718	412.88
798.974	394.88
799.231	428.88
799.487	404.88
799.743	421.88
799.999	454.88
800.255	432.88
800.511	403.88
800.767	450.88
801.023	434.88
801.279	461.88
801.534	475.88
801.79	519.88
802.046	529.88
802.302	628.88
802.557	657.88
802.813	814.88
803.068	944.88
803.324	1289.88
803.579	1659.88
803.835	2284.88
804.09	3064.88
804.345	3952.88
804.601	4907.88
804.856	5946.88
805.111	6800.88
805.366	7445.88
805.621	7958.88
805.876	8348.88
806.131	8534.88
806.386	8711.88
806.641	8959.88
806.896	9077.88
807.151	9338.88
807.406	9420.88
807.661	9619.88
807.915	9781.88
808.17	9978.88
808.425	10105.88
808.679	10114.88
808.934	10370.88
809.188	10343.88
809.443	10615.88
809.697	10648.88
809.951	10721.88
810.206	10827.88
810.46	10924.88
810.714	11035.88
810.968	11041.88
811.223	11135.88
811.477	11304.88
811.731	11403.88
811.985	11376.88
812.239	11458.88
812.493	11517.88
812.747	11575.88
813	11686.88
813.254	11691.88
813.508	11761.88
813.762	11807.88
814.015	11786.88
814.269	12011.88
814.522	12063.88
814.776	12225.88
815.03	12369.88
815.283	12510.88
815.536	12716.88
815.79	13026.88
816.043	13128.88
816.296	13359.88
816.55	13507.88
816.803	13692.88
817.056	14015.88
817.309	13979.88
817.562	14179.88
817.815	14323.88
818.068	14497.88
818.321	14583.88
818.574	14792.88
818.827	14898.88
819.079	15140.88
819.332	15533.88
819.585	15607.88
819.838	15865.88
820.09	15814.88
820.343	15996.88
820.595	16013.88
820.848	16198.88
821.1	16292.88
821.353	16134.88
821.605	16219.88
821.857	16180.88
822.11	16076.88
822.362	16096.88
822.614	16055.88
822.866	16075.88
823.118	16057.88
823.37	16261.88
823.622	16187.88
823.874	16188.88
824.126	16335.88
824.378	16277.88
824.63	16377.88
824.882	16457.88
825.134	16302.88
825.385	16442.88
825.637	16304.88
825.888	16295.88
826.14	16281.88
826.392	16216.88
826.643	16130.88
826.895	16154.88
827.146	16079.88
827.397	15976.88
827.649	16078.88
827.9	15974.88
828.151	15957.88
828.402	16058.88
828.653	16175.88
828.905	16103.88
829.156	16245.88
829.407	16146.88
829.658	16168.88
829.909	16216.88
830.159	16284.88
830.41	16118.88
830.661	16068.88
830.912	15953.88
831.162	15822.88
831.413	15839.88
831.664	15871.88
831.914	15879.88
832.165	15858.88
832.415	15813.88
832.666	15792.88
832.916	15888.88
833.167	15838.88
833.417	15823.88
833.667	15775.88
833.917	15701.88
834.168	15810.88
834.418	15711.88
834.668	15597.88
834.918	15496.88
835.168	15428.88
835.418	15440.88
835.668	15436.88
835.918	15417.88
836.167	15461.88
836.417	15228.88
836.667	15298.88
836.917	15288.88
837.166	15238.88
837.416	15299.88
837.666	15225.88
837.915	15303.88
838.165	15225.88
838.414	15148.88
838.663	15108.88
838.913	15191.88
839.162	15116.88
839.411	15074.88
839.661	15041.88
839.91	15032.88
840.159	14998.88
840.408	14989.88
840.657	15048.88
840.906	14923.88
841.155	15015.88
841.404	15028.88
841.653	14991.88
841.902	15093.88
842.15	15122.88
842.399	15148.88
842.648	15008.88
842.897	15082.88
843.145	14894.88
843.394	14734.88
843.642	14728.88
843.891	14668.88
844.139	14605.88
844.388	14489.88
844.636	14378.88
844.884	14420.88
845.133	14376.88
845.381	14356.88
845.629	14347.88
845.877	14371.88
846.125	14357.88
846.373	14370.88
846.621	14241.88
846.869	14302.88
847.117	14162.88
847.365	14129.88
847.613	14086.88
847.861	14124.88
848.108	14087.88
848.356	13960.88
848.604	13974.88
848.851	14078.88
849.099	13988.88
849.346	14157.88
849.594	14200.88
849.841	14254.88
850.089	14321.88
850.336	14484.88
850.583	14408.88
850.831	14391.88
851.078	14267.88
851.325	14181.88
851.572	14105.88
851.819	13865.88
852.066	13677.88
852.313	13458.88
852.56	13379.88
852.807	13343.88
853.054	13343.88
853.301	13208.88
853.548	13321.88
853.794	13502.88
854.041	13538.88
854.288	13506.88
854.534	13630.88
854.781	13536.88
855.028	13557.88
855.274	13579.88
855.52	13456.88
855.767	13447.88
856.013	13439.88
856.26	13699.88
856.506	13326.88
856.752	13305.88
856.998	13323.88
857.244	13366.88
857.49	13403.88
857.736	13346.88
857.982	13447.88
858.228	13420.88
858.474	13196.88
858.72	13148.88
858.966	13116.88
859.212	12939.88
859.458	12822.88
859.703	12725.88
859.949	12549.88
860.195	12472.88
860.44	12485.88
860.686	12411.88
860.931	12374.88
861.177	12291.88
861.422	12370.88
861.667	12260.88
861.913	12265.88
862.158	12202.88
862.403	12355.88
862.648	12333.88
862.893	12378.88
863.138	12387.88
863.384	12265.88
863.629	12313.88
863.873	12317.88
864.118	12306.88
864.363	12136.88
864.608	12147.88
864.853	12141.88
865.098	12176.88
865.342	12096.88
865.587	11978.88
865.832	12026.88
866.076	11965.88
866.321	11916.88
866.565	11958.88
866.81	11843.88
867.054	11815.88
867.298	11824.88
867.543	11712.88
867.787	11775.88
868.031	11737.88
868.275	11622.88
868.519	11662.88
868.764	11582.88
869.008	11577.88
869.252	11618.88
869.496	11534.88
869.739	11548.88
869.983	11582.88
870.227	11520.88
870.471	11496.88
870.715	11603.88
870.958	11592.88
871.202	11573.88
871.446	11629.88
871.689	11666.88
871.933	11654.88
872.176	11603.88
872.42	11647.88
872.663	11636.88
872.906	11540.88
873.15	11512.88
873.393	11462.88
873.636	11476.88
873.879	11251.88
874.122	11188.88
874.366	11040.88
874.609	11025.88
874.852	10920.88
875.095	10893.88
875.337	10813.88
875.58	10792.88
875.823	10653.88
876.066	10755.88
876.309	10773.88
876.551	10565.88
876.794	10524.88
877.037	10614.88
877.279	10512.88
877.522	10550.88
877.764	10591.88
878.007	10519.88
878.249	10545.88
878.491	10541.88
878.734	10463.88
878.976	10501.88
879.218	10345.88
879.46	10383.88
879.702	10336.88
879.945	10241.88
880.187	10207.88
880.429	10131.88
880.671	10037.88
880.912	9992.88
881.154	10002.88
881.396	9859.88
881.638	9901.88
881.88	9940.88
882.121	9886.88
882.363	9944.88
882.605	9919.88
882.846	9934.88
883.088	9849.88
883.329	9847.88
883.571	9831.88
883.812	9948.88
884.053	10115.88
884.295	10217.88
884.536	10287.88
884.777	10256.88
885.018	10136.88
885.259	10192.88
885.5	10023.88
885.742	10242.88
885.982	10075.88
886.223	9964.88
886.464	9921.88
886.705	9841.88
886.946	9691.88
887.187	9595.88
887.428	9485.88
887.668	9395.88
887.909	9271.88
888.15	9171.88
888.39	9142.88
888.631	9149.88
888.871	9120.88
889.111	9006.88
889.352	8916.88
889.592	8756.88
889.833	8755.88
890.073	8754.88
890.313	8738.88
890.553	8558.88
890.793	8544.88
891.033	8520.88
891.273	8445.88
891.513	8454.88
891.753	8514.88
891.993	8462.88
892.233	8484.88
892.473	8615.88
892.713	8478.88
892.952	8516.88
893.192	8488.88
893.432	8419.88
893.671	8468.88
893.911	8505.88
894.15	8407.88
894.39	8258.88
894.629	8297.88
894.869	8280.88
895.108	8169.88
895.347	8171.88
895.587	8175.88
895.826	8123.88
896.065	8113.88
896.304	8188.88
896.543	8208.88
896.782	8037.88
897.021	8080.88
897.26	8013.88
897.499	8094.88
897.738	8055.88
897.977	7996.88
898.216	7923.88
898.454	7849.88
898.693	7793.88
898.932	7838.88
899.17	7773.88
899.409	7742.88
899.647	7732.88
899.886	7768.88
900.124	7810.88
900.363	7733.88
900.601	7747.88
900.839	7815.88
901.078	7788.88
901.316	7808.88
901.554	7840.88
901.792	7772.88
902.03	7826.88
902.268	7801.88
902.506	7896.88
902.744	7756.88
902.982	7737.88
903.22	7547.88
903.458	7504.88
903.695	7419.88
903.933	7310.88
904.171	7172.88
904.409	7052.88
904.646	7061.88
904.884	6921.88
905.121	6829.88
905.359	6856.88
905.596	6755.88
905.833	6628.88
906.071	6608.88
906.308	6636.88
906.545	6606.88
906.783	6554.88
907.02	6525.88
907.257	6579.88
907.494	6508.88
907.731	6518.88
907.968	6530.88
908.205	6375.88
908.442	6392.88
908.679	6393.88
908.915	6299.88
909.152	6234.88
909.389	6182.88
909.626	6136.88
909.862	6070.88
910.099	6117.88
910.335	6140.88
910.572	5951.88
910.808	6043.88
911.045	5997.88
911.281	6011.88
911.518	5996.88
911.754	5903.88
911.99	5840.88
912.226	5809.88
912.463	5746.88
912.699	5780.88
912.935	5680.88
913.171	5658.88
913.407	5596.88
913.643	5610.88
913.879	5542.88
914.114	5457.88
914.35	5473.88
914.586	5377.88
914.822	5334.88
915.057	5479.88
915.293	5228.88
915.529	5270.88
915.764	5308.88
916	5259.88
916.235	5257.88
916.471	5273.88
916.706	5176.88
916.941	5170.88
917.177	5122.88
917.412	5243.88
917.647	5241.88
917.882	5153.88
918.117	5145.88
918.352	5129.88
918.588	5146.88
918.823	5080.88
919.057	5063.88
919.292	4873.88
919.527	4996.88
919.762	4826.88
919.997	4882.88
920.232	4826.88
920.466	4786.88
920.701	4686.88
920.935	4770.88
921.17	4689.88
921.405	4619.88
921.639	4719.88
921.873	4642.88
922.108	4634.88
922.342	4660.88
922.576	4534.88
922.811	4560.88
923.045	4523.88
923.279	4606.88
923.513	4423.88
923.747	4535.88
923.981	4497.88
924.215	4371.88
924.449	4418.88
924.683	4310.88
924.917	4322.88
925.151	4343.88
925.385	4372.88
925.618	4329.88
925.852	4320.88
926.086	4224.88
926.319	4273.88
926.553	4253.88
926.786	4300.88
927.02	4250.88
927.253	4301.88
927.486	4277.88
927.72	4174.88
927.953	4290.88
928.186	4209.88
928.42	4265.88
928.653	4140.88
928.886	4159.88
929.119	4154.88
929.352	4128.88
929.585	4118.88
929.818	4043.88
930.051	4027.88
930.284	4082.88
930.516	3968.88
930.749	3945.88
930.982	3999.88
931.215	3930.88
931.447	3915.88
931.68	3920.88
931.912	3892.88
932.145	3855.88
932.377	3873.88
932.61	4004.88
932.842	3851.88
933.074	3880.88
933.307	3799.88
933.539	3952.88
933.771	3901.88
934.003	3831.88
934.236	3941.88
934.468	3875.88
934.7	3796.88
934.932	3853.88
935.164	3788.88
935.395	3770.88
935.627	3819.88
935.859	3797.88
936.091	3732.88
936.323	3821.88
936.554	3808.88
936.786	3755.88
937.017	3685.88
937.249	3751.88
937.481	3653.88
937.712	3733.88
937.943	3683.88
938.175	3692.88
938.406	3652.88
938.637	3668.88
938.869	3611.88
939.1	3696.88
939.331	3584.88
939.562	3657.88
939.793	3626.88
940.024	3617.88
940.255	3641.88
940.486	3578.88
940.717	3542.88
940.948	3510.88
941.179	3475.88
941.409	3500.88
941.64	3483.88
941.871	3489.88
942.102	3476.88
942.332	3475.88
942.563	3528.88
942.793	3520.88
943.024	3395.88
943.254	3491.88
943.484	3501.88
943.715	3476.88
943.945	3524.88
944.175	3423.88
944.405	3399.88
944.636	3429.88
944.866	3471.88
945.096	3438.88
945.326	3346.88
945.556	3387.88
945.786	3437.88
946.016	3360.88
946.245	3302.88
946.475	3332.88
946.705	3306.88
946.935	3268.88
947.164	3306.88
947.394	3248.88
947.624	3228.88
947.853	3277.88
948.083	3216.88
948.312	3229.88
948.542	3159.88
948.771	3123.88
949	3134.88
949.23	3139.88
949.459	3183.88
949.688	3211.88
949.917	3152.88
950.146	3154.88
950.375	3213.88
950.604	3111.88
950.833	3203.88
951.062	3133.88
951.291	3125.88
951.52	3096.88
951.749	3136.88
951.978	3055.88
952.206	3070.88
952.435	3089.88
952.664	3081.88
952.892	3063.88
953.121	3072.88
953.349	3069.88
953.578	3049.88
953.806	3037.88
954.035	2959.88
954.263	2976.88
954.491	2953.88
954.719	2963.88
954.948	2934.88
955.176	2893.88
955.404	2826.88
955.632	2951.88
955.86	2929.88
956.088	2866.88
956.316	2902.88
956.544	2922.88
956.772	2801.88
956.999	2790.88
957.227	2900.88
957.455	2804.88
957.683	2829.88
957.91	2738.88
958.138	2715.88
958.365	2766.88
958.593	2699.88
958.82	2670.88
959.048	2788.88
959.275	2736.88
959.502	2669.88
959.73	2653.88
959.957	2717.88
960.184	2689.88
960.411	2652.88
960.638	2730.88
960.865	2685.88
961.092	2729.88
961.319	2609.88
961.546	2682.88
961.773	2756.88
962	2633.88
962.227	2721.88
962.454	2655.88
962.68	2656.88
962.907	2613.88
963.134	2595.88
963.36	2641.88
963.587	2590.88
963.813	2557.88
964.04	2607.88
964.266	2497.88
964.493	2605.88
964.719	2558.88
964.945	2558.88
965.171	2456.88
965.398	2518.88
965.624	2546.88
965.85	2432.88
966.076	2464.88
966.302	2491.88
966.528	2436.88
966.754	2462.88
966.98	2437.88
967.206	2454.88
967.431	2359.88
967.657	2449.88
967.883	2453.88
968.109	2416.88
968.334	2385.88
968.56	2377.88
968.785	2364.88
969.011	2330.88
969.236	2356.88
969.462	2293.88
969.687	2344.88
969.912	2386.88
970.138	2413.88
970.363	2277.88
970.588	2324.88
970.813	2280.88
971.038	2258.88
971.263	2325.88
971.488	2307.88
971.713	2330.88
971.938	2325.88
972.163	2228.88
972.388	2242.88
972.613	2242.88
972.838	2222.88
973.062	2226.88
973.287	2206.88
973.512	2141.88
973.736	2173.88
973.961	2161.88
974.185	2157.88
974.41	2196.88
974.634	2083.88
974.858	2086.88
975.083	2148.88
975.307	2140.88
975.531	2080.88
975.755	2050.88
975.98	2072.88
976.204	1971.88
976.428	1993.88
976.652	1972.88
976.876	1965.88
977.1	2023.88
977.324	1968.88
977.547	2031.88
977.771	2043.88
977.995	2002.88
978.219	1927.88
978.442	2043.88
978.666	1989.88
978.89	1964.88
979.113	1947.88
979.337	1982.88
979.56	1922.88
979.783	2007.88
980.007	1901.88
980.23	1932.88
980.453	1871.88
980.677	1942.88
980.9	1912.88
981.123	1836.88
981.346	1935.88
981.569	1908.88
981.792	1916.88
982.015	1902.88
982.238	1861.88
982.461	1877.88
982.684	1825.88
982.907	1777.88
983.129	1770.88
983.352	1839.88
983.575	1806.88
983.797	1813.88
984.02	1799.88
984.242	1777.88
984.465	1786.88
984.687	1794.88
984.91	1820.88
985.132	1788.88
985.354	1801.88
985.577	1765.88
985.799	1741.88
986.021	1689.88
986.243	1690.88
986.465	1686.88
986.687	1770.88
986.909	1812.88
987.131	1747.88
987.353	1700.88
987.575	1732.88
987.797	1691.88
988.019	1653.88
988.241	1692.88
988.462	1659.88
988.684	1712.88
988.906	1758.88
989.127	1734.88
989.349	1625.88
989.57	1650.88
989.792	1722.88
990.013	1718.88
990.234	1679.88
990.456	1740.88
990.677	1717.88
990.898	1665.88
991.119	1673.88
991.341	1675.88
991.562	1605.88
991.783	1672.88
992.004	1589.88
992.225	1564.88
992.446	1639.88
992.667	1558.88
992.887	1615.88
993.108	1517.88
993.329	1644.88
993.55	1596.88
993.77	1531.88
993.991	1533.88
994.212	1562.88
994.432	1561.88
994.653	1547.88
994.873	1561.88
995.093	1434.88
995.314	1509.88
995.534	1567.88
995.754	1596.88
995.975	1580.88
996.195	1473.88
996.415	1518.88
996.635	1514.88
996.855	1549.88
997.075	1503.88
997.295	1469.88
997.515	1477.88
997.735	1521.88
997.955	1491.88
998.174	1457.88
998.394	1474.88
998.614	1514.88
998.834	1464.88
999.053	1551.88
999.273	1495.88
999.492	1550.88
999.712	1484.88
999.931	1440.88
1000.151	1473.88
1000.37	1479.88
1000.589	1525.88
1000.809	1469.88
1001.028	1557.88
1001.247	1480.88
1001.466	1385.88
1001.685	1528.88
1001.904	1468.88
1002.123	1464.88
1002.342	1445.88
1002.561	1424.88
1002.78	1442.88
1002.999	1497.88
1003.218	1440.88
1003.436	1424.88
1003.655	1444.88
1003.874	1390.88
1004.092	1422.88
1004.311	1469.88
1004.53	1442.88
1004.748	1511.88
1004.966	1402.88
1005.185	1455.88
1005.403	1466.88
1005.622	1452.88
1005.84	1510.88
1006.058	1418.88
1006.276	1437.88
1006.494	1927.88
1006.712	1444.88
1006.931	1478.88
1007.149	1409.88
1007.367	1398.88
1007.584	1406.88
1007.802	1467.88
1008.02	1417.88
1008.238	1506.88
1008.456	1475.88
1008.673	1364.88
1008.891	1470.88
1009.109	1427.88
1009.326	1461.88
1009.544	1539.88
1009.761	1462.88
1009.979	1537.88
1010.196	1546.88
1010.413	1631.88
1010.631	1663.88
1010.848	1689.88
1011.065	1685.88
1011.282	1621.88
1011.5	1555.88
1011.717	1689.88
1011.934	1609.88
1012.151	1636.88
1012.368	1623.88
1012.585	1589.88
1012.801	1606.88
1013.018	1607.88
1013.235	1561.88
1013.452	1574.88
1013.669	1585.88
1013.885	1574.88
1014.102	1615.88
1014.318	1566.88
1014.535	1524.88
1014.751	1589.88
1014.968	1558.88
1015.184	1571.88
1015.401	1495.88
1015.617	1508.88
1015.833	1488.88
1016.049	1473.88
1016.266	1465.88
1016.482	1465.88
1016.698	1392.88
1016.914	1459.88
1017.13	1398.88
1017.346	1383.88
1017.562	1452.88
1017.778	1392.88
1017.993	1364.88
1018.209	1428.88
1018.425	1397.88
1018.641	1354.88
1018.856	1328.88
1019.072	1383.88
1019.288	1401.88
1019.503	1341.88
1019.719	1292.88
1019.934	1304.88
1020.149	1387.88
1020.365	1328.88
1020.58	1252.88
1020.795	1307.88
1021.011	1260.88
1021.226	1252.88
1021.441	1265.88
1021.656	1183.88
1021.871	1156.88
1022.086	1145.88
1022.301	1148.88
1022.516	1115.88
1022.731	1174.88
1022.946	1092.88
1023.16	1081.88
1023.375	1044.88
1023.59	1050.88
1023.804	1000.88
1024.019	1116.88
1024.234	996.88
1024.448	1022.88
1024.663	947.88
1024.877	955.88
1025.092	969.88
1025.306	994.88
1025.52	891.88
1025.734	971.88
1025.949	904.88
1026.163	885.88
1026.377	824.88
1026.591	893.88
1026.805	808.88
1027.019	805.88
1027.233	769.88
1027.447	715.88
1027.661	823.88
1027.875	755.88
1028.088	753.88
1028.302	703.88
1028.516	693.88
1028.73	680.88
1028.943	668.88
1029.157	633.88
1029.37	607.88
1029.584	-2.12
1029.797	-6.12
1030.011	1.88
1030.224	-0.12
