Data from QEP037381__26__11-25-15-594.txt Node

Date: Wed Dec 21 11:25:15 EST 2022
User: dcclab
Spectrometer: QEP03738
Trigger mode: 4
Integration Time (sec): 1.000000E1
Scans to average: 1
Electric dark correction enabled: true
Nonlinearity correction enabled: false
Boxcar width: 0
XAxis mode: Wavelengths
Number of Pixels in Spectrum: 1044
>>>>>Begin Spectral Data<<<<<
784.041	12.62
784.3	1.62
784.558	-0.38
784.817	-3.38
785.075	42017.62
785.334	8710.62
785.592	4595.62
785.851	3323.62
786.109	2502.62
786.368	1986.62
786.626	1621.62
786.884	1373.62
787.143	1187.62
787.401	963.62
787.659	912.62
787.917	810.62
788.175	761.62
788.433	665.62
788.691	610.62
788.949	570.62
789.207	577.62
789.465	488.62
789.723	474.62
789.98	443.62
790.238	491.62
790.496	473.62
790.753	452.62
791.011	505.62
791.268	449.62
791.526	429.62
791.783	446.62
792.041	430.62
792.298	364.62
792.556	418.62
792.813	415.62
793.07	390.62
793.327	375.62
793.584	462.62
793.841	374.62
794.099	393.62
794.356	469.62
794.613	372.62
794.869	404.62
795.126	360.62
795.383	352.62
795.64	368.62
795.897	331.62
796.153	382.62
796.41	366.62
796.667	362.62
796.923	355.62
797.18	357.62
797.436	381.62
797.693	348.62
797.949	406.62
798.206	422.62
798.462	339.62
798.718	411.62
798.974	367.62
799.231	407.62
799.487	392.62
799.743	387.62
799.999	428.62
800.255	415.62
800.511	388.62
800.767	442.62
801.023	397.62
801.279	431.62
801.534	451.62
801.79	477.62
802.046	470.62
802.302	552.62
802.557	593.62
802.813	707.62
803.068	779.62
803.324	1041.62
803.579	1324.62
803.835	1713.62
804.09	2320.62
804.345	2936.62
804.601	3631.62
804.856	4405.62
805.111	5092.62
805.366	5556.62
805.621	5919.62
805.876	6180.62
806.131	6351.62
806.386	6464.62
806.641	6528.62
806.896	6688.62
807.151	6831.62
807.406	6871.62
807.661	6998.62
807.915	7041.62
808.17	7189.62
808.425	7237.62
808.679	7329.62
808.934	7419.62
809.188	7442.62
809.443	7510.62
809.697	7689.62
809.951	7651.62
810.206	7712.62
810.46	7833.62
810.714	7823.62
810.968	7919.62
811.223	7909.62
811.477	8023.62
811.731	8144.62
811.985	8128.62
812.239	8047.62
812.493	8164.62
812.747	8197.62
813	8119.62
813.254	8223.62
813.508	8217.62
813.762	8260.62
814.015	8272.62
814.269	8399.62
814.522	8438.62
814.776	8497.62
815.03	8723.62
815.283	8707.62
815.536	8909.62
815.79	8954.62
816.043	9093.62
816.296	9202.62
816.55	9278.62
816.803	9332.62
817.056	9529.62
817.309	9687.62
817.562	9680.62
817.815	9836.62
818.068	9857.62
818.321	9838.62
818.574	9984.62
818.827	10145.62
819.079	10147.62
819.332	10408.62
819.585	10550.62
819.838	10724.62
820.09	10715.62
820.343	10727.62
820.595	10712.62
820.848	10742.62
821.1	10871.62
821.353	10864.62
821.605	10758.62
821.857	10738.62
822.11	10595.62
822.362	10650.62
822.614	10669.62
822.866	10702.62
823.118	10629.62
823.37	10770.62
823.622	10739.62
823.874	10746.62
824.126	10829.62
824.378	10708.62
824.63	10779.62
824.882	10832.62
825.134	10765.62
825.385	10778.62
825.637	10713.62
825.888	10689.62
826.14	10668.62
826.392	10602.62
826.643	10505.62
826.895	10543.62
827.146	10541.62
827.397	10445.62
827.649	10548.62
827.9	10417.62
828.151	10382.62
828.402	10346.62
828.653	10578.62
828.905	10513.62
829.156	10538.62
829.407	10543.62
829.658	10546.62
829.909	10652.62
830.159	10613.62
830.41	10541.62
830.661	10419.62
830.912	10343.62
831.162	10314.62
831.413	10330.62
831.664	10290.62
831.914	10347.62
832.165	10263.62
832.415	10344.62
832.666	10209.62
832.916	10295.62
833.167	10234.62
833.417	10249.62
833.667	10253.62
833.917	10172.62
834.168	10203.62
834.418	10173.62
834.668	10092.62
834.918	10002.62
835.168	10007.62
835.418	9926.62
835.668	9924.62
835.918	9948.62
836.167	9903.62
836.417	9818.62
836.667	9905.62
836.917	9848.62
837.166	9915.62
837.416	9835.62
837.666	9882.62
837.915	9843.62
838.165	9799.62
838.414	9776.62
838.663	9710.62
838.913	9792.62
839.162	9684.62
839.411	9750.62
839.661	9704.62
839.91	9690.62
840.159	9768.62
840.408	9743.62
840.657	9777.62
840.906	9674.62
841.155	9690.62
841.404	9672.62
841.653	9714.62
841.902	9657.62
842.15	9822.62
842.399	9771.62
842.648	9746.62
842.897	9717.62
843.145	9571.62
843.394	9538.62
843.642	9446.62
843.891	9453.62
844.139	9353.62
844.388	9265.62
844.636	9221.62
844.884	9262.62
845.133	9179.62
845.381	9170.62
845.629	9169.62
845.877	9152.62
846.125	9225.62
846.373	9172.62
846.621	9091.62
846.869	9122.62
847.117	8955.62
847.365	8972.62
847.613	8984.62
847.861	8976.62
848.108	9023.62
848.356	8992.62
848.604	8948.62
848.851	8952.62
849.099	8968.62
849.346	9052.62
849.594	9065.62
849.841	9166.62
850.089	9185.62
850.336	9346.62
850.583	9337.62
850.831	9343.62
851.078	9183.62
851.325	9093.62
851.572	9097.62
851.819	8962.62
852.066	8742.62
852.313	8672.62
852.56	8520.62
852.807	8521.62
853.054	8442.62
853.301	8526.62
853.548	8510.62
853.794	8521.62
854.041	8626.62
854.288	8550.62
854.534	8750.62
854.781	8699.62
855.028	8695.62
855.274	8722.62
855.52	8689.62
855.767	8632.62
856.013	8745.62
856.26	9036.62
856.506	8548.62
856.752	8606.62
856.998	8598.62
857.244	8565.62
857.49	8662.62
857.736	8663.62
857.982	8709.62
858.228	8591.62
858.474	8458.62
858.72	8457.62
858.966	8342.62
859.212	8228.62
859.458	8233.62
859.703	8107.62
859.949	8025.62
860.195	7979.62
860.44	8025.62
860.686	7928.62
860.931	7962.62
861.177	7860.62
861.422	7787.62
861.667	7720.62
861.913	7705.62
862.158	7732.62
862.403	7745.62
862.648	7764.62
862.893	7755.62
863.138	7740.62
863.384	7708.62
863.629	7733.62
863.873	7685.62
864.118	7685.62
864.363	7597.62
864.608	7634.62
864.853	7583.62
865.098	7570.62
865.342	7544.62
865.587	7489.62
865.832	7512.62
866.076	7489.62
866.321	7455.62
866.565	7475.62
866.81	7349.62
867.054	7359.62
867.298	7352.62
867.543	7335.62
867.787	7381.62
868.031	7285.62
868.275	7314.62
868.519	7284.62
868.764	7300.62
869.008	7278.62
869.252	7402.62
869.496	7276.62
869.739	7341.62
869.983	7349.62
870.227	7383.62
870.471	7311.62
870.715	7391.62
870.958	7393.62
871.202	7451.62
871.446	7466.62
871.689	7428.62
871.933	7427.62
872.176	7411.62
872.42	7386.62
872.663	7416.62
872.906	7450.62
873.15	7498.62
873.393	7494.62
873.636	7539.62
873.879	7417.62
874.122	7306.62
874.366	7136.62
874.609	7052.62
874.852	6975.62
875.095	6971.62
875.337	6873.62
875.58	6807.62
875.823	6772.62
876.066	6878.62
876.309	6837.62
876.551	6683.62
876.794	6697.62
877.037	6729.62
877.279	6569.62
877.522	6648.62
877.764	6643.62
878.007	6639.62
878.249	6597.62
878.491	6558.62
878.734	6584.62
878.976	6577.62
879.218	6500.62
879.46	6483.62
879.702	6454.62
879.945	6360.62
880.187	6284.62
880.429	6261.62
880.671	6215.62
880.912	6270.62
881.154	6247.62
881.396	6128.62
881.638	6200.62
881.88	6217.62
882.121	6157.62
882.363	6105.62
882.605	6269.62
882.846	6250.62
883.088	6219.62
883.329	6240.62
883.571	6300.62
883.812	6482.62
884.053	6713.62
884.295	6937.62
884.536	7052.62
884.777	6962.62
885.018	6882.62
885.259	6771.62
885.5	6661.62
885.742	6883.62
885.982	6705.62
886.223	6567.62
886.464	6486.62
886.705	6386.62
886.946	6251.62
887.187	6092.62
887.428	6067.62
887.668	5870.62
887.909	5754.62
888.15	5714.62
888.39	5701.62
888.631	5729.62
888.871	5678.62
889.111	5590.62
889.352	5594.62
889.592	5422.62
889.833	5445.62
890.073	5432.62
890.313	5430.62
890.553	5340.62
890.793	5324.62
891.033	5280.62
891.273	5217.62
891.513	5228.62
891.753	5275.62
891.993	5232.62
892.233	5229.62
892.473	5288.62
892.713	5261.62
892.952	5243.62
893.192	5233.62
893.432	5205.62
893.671	5242.62
893.911	5197.62
894.15	5208.62
894.39	5141.62
894.629	5181.62
894.869	5120.62
895.108	5078.62
895.347	5065.62
895.587	5104.62
895.826	5056.62
896.065	5029.62
896.304	5062.62
896.543	5090.62
896.782	4930.62
897.021	5043.62
897.26	5013.62
897.499	5089.62
897.738	5077.62
897.977	5013.62
898.216	4957.62
898.454	4953.62
898.693	4911.62
898.932	4959.62
899.17	4966.62
899.409	4926.62
899.647	4940.62
899.886	4921.62
900.124	4989.62
900.363	4924.62
900.601	4945.62
900.839	4988.62
901.078	5019.62
901.316	5060.62
901.554	5129.62
901.792	5156.62
902.03	5113.62
902.268	5110.62
902.506	5134.62
902.744	5086.62
902.982	5042.62
903.22	4906.62
903.458	4740.62
903.695	4770.62
903.933	4667.62
904.171	4546.62
904.409	4437.62
904.646	4477.62
904.884	4335.62
905.121	4356.62
905.359	4271.62
905.596	4222.62
905.833	4127.62
906.071	4112.62
906.308	4184.62
906.545	4062.62
906.783	4011.62
907.02	4059.62
907.257	4004.62
907.494	4017.62
907.731	3997.62
907.968	4018.62
908.205	3927.62
908.442	3926.62
908.679	3883.62
908.915	3908.62
909.152	3836.62
909.389	3792.62
909.626	3720.62
909.862	3759.62
910.099	3758.62
910.335	3740.62
910.572	3637.62
910.808	3686.62
911.045	3664.62
911.281	3653.62
911.518	3713.62
911.754	3597.62
911.99	3604.62
912.226	3605.62
912.463	3573.62
912.699	3507.62
912.935	3495.62
913.171	3477.62
913.407	3404.62
913.643	3466.62
913.879	3399.62
914.114	3354.62
914.35	3330.62
914.586	3337.62
914.822	3271.62
915.057	3344.62
915.293	3186.62
915.529	3194.62
915.764	3272.62
916	3243.62
916.235	3224.62
916.471	3214.62
916.706	3154.62
916.941	3225.62
917.177	3175.62
917.412	3237.62
917.647	3194.62
917.882	3149.62
918.117	3166.62
918.352	3175.62
918.588	3194.62
918.823	3102.62
919.057	3123.62
919.292	2994.62
919.527	3122.62
919.762	3008.62
919.997	3022.62
920.232	2969.62
920.466	2998.62
920.701	2883.62
920.935	2943.62
921.17	2875.62
921.405	2849.62
921.639	2917.62
921.873	2864.62
922.108	2874.62
922.342	2873.62
922.576	2825.62
922.811	2757.62
923.045	2862.62
923.279	2860.62
923.513	2740.62
923.747	2832.62
923.981	2741.62
924.215	2733.62
924.449	2752.62
924.683	2673.62
924.917	2675.62
925.151	2684.62
925.385	2769.62
925.618	2684.62
925.852	2692.62
926.086	2617.62
926.319	2670.62
926.553	2677.62
926.786	2631.62
927.02	2660.62
927.253	2666.62
927.486	2660.62
927.72	2617.62
927.953	2687.62
928.186	2648.62
928.42	2654.62
928.653	2591.62
928.886	2568.62
929.119	2635.62
929.352	2598.62
929.585	2578.62
929.818	2500.62
930.051	2543.62
930.284	2496.62
930.516	2439.62
930.749	2464.62
930.982	2508.62
931.215	2526.62
931.447	2396.62
931.68	2437.62
931.912	2404.62
932.145	2435.62
932.377	2439.62
932.61	2547.62
932.842	2406.62
933.074	2412.62
933.307	2379.62
933.539	2508.62
933.771	2418.62
934.003	2403.62
934.236	2478.62
934.468	2476.62
934.7	2392.62
934.932	2461.62
935.164	2387.62
935.395	2349.62
935.627	2380.62
935.859	2422.62
936.091	2320.62
936.323	2403.62
936.554	2442.62
936.786	2376.62
937.017	2326.62
937.249	2371.62
937.481	2262.62
937.712	2363.62
937.943	2331.62
938.175	2342.62
938.406	2307.62
938.637	2362.62
938.869	2245.62
939.1	2331.62
939.331	2297.62
939.562	2277.62
939.793	2339.62
940.024	2321.62
940.255	2340.62
940.486	2243.62
940.717	2263.62
940.948	2264.62
941.179	2212.62
941.409	2220.62
941.64	2231.62
941.871	2213.62
942.102	2199.62
942.332	2200.62
942.563	2267.62
942.793	2221.62
943.024	2144.62
943.254	2175.62
943.484	2243.62
943.715	2273.62
943.945	2212.62
944.175	2167.62
944.405	2140.62
944.636	2165.62
944.866	2210.62
945.096	2201.62
945.326	2127.62
945.556	2177.62
945.786	2203.62
946.016	2186.62
946.245	2102.62
946.475	2118.62
946.705	2114.62
946.935	2122.62
947.164	2117.62
947.394	2072.62
947.624	2081.62
947.853	2110.62
948.083	2091.62
948.312	2016.62
948.542	2022.62
948.771	2008.62
949	1982.62
949.23	1994.62
949.459	2016.62
949.688	2051.62
949.917	2040.62
950.146	2008.62
950.375	2085.62
950.604	1959.62
950.833	2070.62
951.062	2050.62
951.291	2010.62
951.52	1972.62
951.749	1967.62
951.978	1938.62
952.206	1957.62
952.435	1919.62
952.664	1963.62
952.892	2017.62
953.121	1977.62
953.349	1977.62
953.578	1969.62
953.806	1967.62
954.035	1890.62
954.263	1921.62
954.491	1888.62
954.719	1939.62
954.948	1870.62
955.176	1842.62
955.404	1831.62
955.632	1881.62
955.86	1871.62
956.088	1858.62
956.316	1884.62
956.544	1921.62
956.772	1820.62
956.999	1810.62
957.227	1913.62
957.455	1801.62
957.683	1805.62
957.91	1789.62
958.138	1790.62
958.365	1742.62
958.593	1765.62
958.82	1705.62
959.048	1782.62
959.275	1766.62
959.502	1747.62
959.73	1720.62
959.957	1775.62
960.184	1761.62
960.411	1710.62
960.638	1790.62
960.865	1719.62
961.092	1747.62
961.319	1667.62
961.546	1748.62
961.773	1736.62
962	1711.62
962.227	1778.62
962.454	1716.62
962.68	1730.62
962.907	1689.62
963.134	1670.62
963.36	1713.62
963.587	1732.62
963.813	1647.62
964.04	1708.62
964.266	1618.62
964.493	1728.62
964.719	1693.62
964.945	1673.62
965.171	1612.62
965.398	1666.62
965.624	1664.62
965.85	1570.62
966.076	1610.62
966.302	1647.62
966.528	1616.62
966.754	1642.62
966.98	1632.62
967.206	1587.62
967.431	1558.62
967.657	1613.62
967.883	1608.62
968.109	1598.62
968.334	1563.62
968.56	1533.62
968.785	1558.62
969.011	1512.62
969.236	1580.62
969.462	1522.62
969.687	1571.62
969.912	1615.62
970.138	1587.62
970.363	1513.62
970.588	1561.62
970.813	1506.62
971.038	1507.62
971.263	1550.62
971.488	1542.62
971.713	1576.62
971.938	1545.62
972.163	1453.62
972.388	1491.62
972.613	1486.62
972.838	1496.62
973.062	1458.62
973.287	1476.62
973.512	1402.62
973.736	1481.62
973.961	1439.62
974.185	1441.62
974.41	1471.62
974.634	1382.62
974.858	1396.62
975.083	1430.62
975.307	1493.62
975.531	1414.62
975.755	1351.62
975.98	1371.62
976.204	1304.62
976.428	1309.62
976.652	1338.62
976.876	1309.62
977.1	1357.62
977.324	1319.62
977.547	1351.62
977.771	1368.62
977.995	1361.62
978.219	1292.62
978.442	1391.62
978.666	1329.62
978.89	1349.62
979.113	1335.62
979.337	1326.62
979.56	1311.62
979.783	1390.62
980.007	1281.62
980.23	1320.62
980.453	1297.62
980.677	1318.62
980.9	1285.62
981.123	1202.62
981.346	1306.62
981.569	1299.62
981.792	1331.62
982.015	1282.62
982.238	1248.62
982.461	1290.62
982.684	1235.62
982.907	1217.62
983.129	1250.62
983.352	1263.62
983.575	1281.62
983.797	1265.62
984.02	1238.62
984.242	1215.62
984.465	1237.62
984.687	1270.62
984.91	1297.62
985.132	1253.62
985.354	1277.62
985.577	1249.62
985.799	1209.62
986.021	1171.62
986.243	1202.62
986.465	1224.62
986.687	1252.62
986.909	1297.62
987.131	1228.62
987.353	1170.62
987.575	1231.62
987.797	1204.62
988.019	1172.62
988.241	1216.62
988.462	1148.62
988.684	1227.62
988.906	1253.62
989.127	1292.62
989.349	1164.62
989.57	1211.62
989.792	1228.62
990.013	1249.62
990.234	1249.62
990.456	1252.62
990.677	1255.62
990.898	1202.62
991.119	1188.62
991.341	1219.62
991.562	1159.62
991.783	1212.62
992.004	1146.62
992.225	1146.62
992.446	1200.62
992.667	1086.62
992.887	1197.62
993.108	1086.62
993.329	1218.62
993.55	1171.62
993.77	1116.62
993.991	1121.62
994.212	1160.62
994.432	1147.62
994.653	1180.62
994.873	1168.62
995.093	1073.62
995.314	1092.62
995.534	1148.62
995.754	1178.62
995.975	1230.62
996.195	1087.62
996.415	1159.62
996.635	1138.62
996.855	1160.62
997.075	1161.62
997.295	1138.62
997.515	1104.62
997.735	1173.62
997.955	1156.62
998.174	1116.62
998.394	1107.62
998.614	1136.62
998.834	1135.62
999.053	1184.62
999.273	1171.62
999.492	1190.62
999.712	1152.62
999.931	1107.62
1000.151	1147.62
1000.37	1123.62
1000.589	1197.62
1000.809	1128.62
1001.028	1248.62
1001.247	1188.62
1001.466	1068.62
1001.685	1205.62
1001.904	1162.62
1002.123	1148.62
1002.342	1161.62
1002.561	1109.62
1002.78	1141.62
1002.999	1204.62
1003.218	1139.62
1003.436	1137.62
1003.655	1154.62
1003.874	1125.62
1004.092	1125.62
1004.311	1176.62
1004.53	1143.62
1004.748	1201.62
1004.966	1150.62
1005.185	1191.62
1005.403	1168.62
1005.622	1174.62
1005.84	1258.62
1006.058	1153.62
1006.276	1185.62
1006.494	1660.62
1006.712	1156.62
1006.931	1240.62
1007.149	1137.62
1007.367	1146.62
1007.584	1183.62
1007.802	1227.62
1008.02	1178.62
1008.238	1259.62
1008.456	1273.62
1008.673	1196.62
1008.891	1269.62
1009.109	1234.62
1009.326	1272.62
1009.544	1392.62
1009.761	1314.62
1009.979	1412.62
1010.196	1417.62
1010.413	1547.62
1010.631	1587.62
1010.848	1641.62
1011.065	1654.62
1011.282	1606.62
1011.5	1564.62
1011.717	1638.62
1011.934	1578.62
1012.151	1605.62
1012.368	1598.62
1012.585	1554.62
1012.801	1577.62
1013.018	1569.62
1013.235	1532.62
1013.452	1584.62
1013.669	1563.62
1013.885	1581.62
1014.102	1622.62
1014.318	1580.62
1014.535	1535.62
1014.751	1559.62
1014.968	1592.62
1015.184	1576.62
1015.401	1499.62
1015.617	1530.62
1015.833	1463.62
1016.049	1484.62
1016.266	1455.62
1016.482	1488.62
1016.698	1387.62
1016.914	1438.62
1017.13	1373.62
1017.346	1387.62
1017.562	1425.62
1017.778	1379.62
1017.993	1332.62
1018.209	1415.62
1018.425	1398.62
1018.641	1343.62
1018.856	1304.62
1019.072	1343.62
1019.288	1395.62
1019.503	1352.62
1019.719	1234.62
1019.934	1256.62
1020.149	1352.62
1020.365	1286.62
1020.58	1225.62
1020.795	1254.62
1021.011	1218.62
1021.226	1189.62
1021.441	1208.62
1021.656	1117.62
1021.871	1073.62
1022.086	1072.62
1022.301	1080.62
1022.516	1057.62
1022.731	1119.62
1022.946	1035.62
1023.16	1016.62
1023.375	979.62
1023.59	963.62
1023.804	937.62
1024.019	1017.62
1024.234	903.62
1024.448	920.62
1024.663	870.62
1024.877	893.62
1025.092	883.62
1025.306	912.62
1025.52	802.62
1025.734	909.62
1025.949	798.62
1026.163	781.62
1026.377	744.62
1026.591	793.62
1026.805	719.62
1027.019	724.62
1027.233	674.62
1027.447	639.62
1027.661	730.62
1027.875	689.62
1028.088	698.62
1028.302	632.62
1028.516	621.62
1028.73	622.62
1028.943	605.62
1029.157	584.62
1029.37	552.62
1029.584	-2.38
1029.797	-1.38
1030.011	-4.38
1030.224	-2.38
