Data from QEP037381__51__11-29-25-595.txt Node

Date: Wed Dec 21 11:29:25 EST 2022
User: dcclab
Spectrometer: QEP03738
Trigger mode: 4
Integration Time (sec): 1.000000E1
Scans to average: 1
Electric dark correction enabled: true
Nonlinearity correction enabled: false
Boxcar width: 0
XAxis mode: Wavelengths
Number of Pixels in Spectrum: 1044
>>>>>Begin Spectral Data<<<<<
784.041	15.5
784.3	-0.5
784.558	-2.5
784.817	-3.5
785.075	40960.5
785.334	8452.5
785.592	4488.5
785.851	3156.5
786.109	2441.5
786.368	1938.5
786.626	1574.5
786.884	1352.5
787.143	1185.5
787.401	966.5
787.659	920.5
787.917	802.5
788.175	764.5
788.433	693.5
788.691	626.5
788.949	579.5
789.207	589.5
789.465	521.5
789.723	491.5
789.98	471.5
790.238	501.5
790.496	506.5
790.753	465.5
791.011	521.5
791.268	460.5
791.526	456.5
791.783	469.5
792.041	452.5
792.298	376.5
792.556	457.5
792.813	433.5
793.07	410.5
793.327	400.5
793.584	488.5
793.841	422.5
794.099	429.5
794.356	480.5
794.613	402.5
794.869	441.5
795.126	407.5
795.383	379.5
795.64	405.5
795.897	365.5
796.153	420.5
796.41	419.5
796.667	395.5
796.923	404.5
797.18	409.5
797.436	432.5
797.693	401.5
797.949	443.5
798.206	478.5
798.462	379.5
798.718	450.5
798.974	435.5
799.231	468.5
799.487	464.5
799.743	467.5
799.999	490.5
800.255	492.5
800.511	476.5
800.767	534.5
801.023	512.5
801.279	553.5
801.534	584.5
801.79	658.5
802.046	672.5
802.302	803.5
802.557	929.5
802.813	1142.5
803.068	1411.5
803.324	1953.5
803.579	2651.5
803.835	3685.5
804.09	5116.5
804.345	6669.5
804.601	8495.5
804.856	10317.5
805.111	12041.5
805.366	13328.5
805.621	14349.5
805.876	15007.5
806.131	15474.5
806.386	15761.5
806.641	16124.5
806.896	16362.5
807.151	16715.5
807.406	16937.5
807.661	17302.5
807.915	17543.5
808.17	17917.5
808.425	18156.5
808.679	18322.5
808.934	18480.5
809.188	18572.5
809.443	18881.5
809.697	19103.5
809.951	19227.5
810.206	19437.5
810.46	19686.5
810.714	19862.5
810.968	20066.5
811.223	20114.5
811.477	20294.5
811.731	20608.5
811.985	20574.5
812.239	20696.5
812.493	20869.5
812.747	21026.5
813	21047.5
813.254	21146.5
813.508	21176.5
813.762	21266.5
814.015	21531.5
814.269	21540.5
814.522	21853.5
814.776	22156.5
815.03	22528.5
815.283	22650.5
815.536	23047.5
815.79	23448.5
816.043	23877.5
816.296	24109.5
816.55	24395.5
816.803	24768.5
817.056	25194.5
817.309	25288.5
817.562	25530.5
817.815	25822.5
818.068	26138.5
818.321	26349.5
818.574	26905.5
818.827	27186.5
819.079	27369.5
819.332	27928.5
819.585	28178.5
819.838	28536.5
820.09	28754.5
820.343	29052.5
820.595	29197.5
820.848	29489.5
821.1	29453.5
821.353	29385.5
821.605	29403.5
821.857	29539.5
822.11	29469.5
822.362	29369.5
822.614	29223.5
822.866	29369.5
823.118	29518.5
823.37	29311.5
823.622	29465.5
823.874	29545.5
824.126	29650.5
824.378	29581.5
824.63	29740.5
824.882	29857.5
825.134	29962.5
825.385	29878.5
825.637	29813.5
825.888	29817.5
826.14	29748.5
826.392	29619.5
826.643	29459.5
826.895	29556.5
827.146	29469.5
827.397	29307.5
827.649	29383.5
827.9	29450.5
828.151	29506.5
828.402	29653.5
828.653	29635.5
828.905	29631.5
829.156	29927.5
829.407	29881.5
829.658	29889.5
829.909	29887.5
830.159	29654.5
830.41	29495.5
830.661	29426.5
830.912	29332.5
831.162	29018.5
831.413	29108.5
831.664	29154.5
831.914	29049.5
832.165	29153.5
832.415	29188.5
832.666	29231.5
832.916	29333.5
833.167	29219.5
833.417	28953.5
833.667	29062.5
833.917	29145.5
834.168	29042.5
834.418	28870.5
834.668	28746.5
834.918	28543.5
835.168	28387.5
835.418	28485.5
835.668	28492.5
835.918	28410.5
836.167	28360.5
836.417	28196.5
836.667	28252.5
836.917	28286.5
837.166	28260.5
837.416	28345.5
837.666	28379.5
837.915	28212.5
838.165	28123.5
838.414	28113.5
838.663	28045.5
838.913	28018.5
839.162	27830.5
839.411	27893.5
839.661	27790.5
839.91	27834.5
840.159	27710.5
840.408	27877.5
840.657	27736.5
840.906	27791.5
841.155	27985.5
841.404	27850.5
841.653	27845.5
841.902	27799.5
842.15	28073.5
842.399	28094.5
842.648	27915.5
842.897	27886.5
843.145	27664.5
843.394	27448.5
843.642	27331.5
843.891	27210.5
844.139	27091.5
844.388	26986.5
844.636	26969.5
844.884	26928.5
845.133	26830.5
845.381	26826.5
845.629	26897.5
845.877	26885.5
846.125	26673.5
846.373	26736.5
846.621	26609.5
846.869	26581.5
847.117	26454.5
847.365	26282.5
847.613	26175.5
847.861	26102.5
848.108	26128.5
848.356	26139.5
848.604	26090.5
848.851	26222.5
849.099	26082.5
849.346	26209.5
849.594	26366.5
849.841	26503.5
850.089	26643.5
850.336	26663.5
850.583	26745.5
850.831	26696.5
851.078	26567.5
851.325	26379.5
851.572	26210.5
851.819	25924.5
852.066	25559.5
852.313	25341.5
852.56	25258.5
852.807	25122.5
853.054	25145.5
853.301	24997.5
853.548	25134.5
853.794	25173.5
854.041	25288.5
854.288	25318.5
854.534	25623.5
854.781	25377.5
855.028	25387.5
855.274	25429.5
855.52	25172.5
855.767	25054.5
856.013	25033.5
856.26	25150.5
856.506	24783.5
856.752	24878.5
856.998	24885.5
857.244	25076.5
857.49	25154.5
857.736	24969.5
857.982	25041.5
858.228	25020.5
858.474	24872.5
858.72	24834.5
858.966	24523.5
859.212	24156.5
859.458	23956.5
859.703	23739.5
859.949	23600.5
860.195	23515.5
860.44	23400.5
860.686	23308.5
860.931	23262.5
861.177	23309.5
861.422	23085.5
861.667	23007.5
861.913	23162.5
862.158	23181.5
862.403	23336.5
862.648	23199.5
862.893	23362.5
863.138	23365.5
863.384	23276.5
863.629	23274.5
863.873	23335.5
864.118	23218.5
864.363	23190.5
864.608	22959.5
864.853	22926.5
865.098	22895.5
865.342	22694.5
865.587	22567.5
865.832	22481.5
866.076	22488.5
866.321	22381.5
866.565	22431.5
866.81	22271.5
867.054	22385.5
867.298	22221.5
867.543	22288.5
867.787	22255.5
868.031	22090.5
868.275	22046.5
868.519	21966.5
868.764	21975.5
869.008	21970.5
869.252	21819.5
869.496	21781.5
869.739	21709.5
869.983	21645.5
870.227	21597.5
870.471	21671.5
870.715	21689.5
870.958	21820.5
871.202	21833.5
871.446	21774.5
871.689	21800.5
871.933	21835.5
872.176	21864.5
872.42	21843.5
872.663	21712.5
872.906	21803.5
873.15	21737.5
873.393	21530.5
873.636	21377.5
873.879	21203.5
874.122	20878.5
874.366	20769.5
874.609	20680.5
874.852	20509.5
875.095	20556.5
875.337	20383.5
875.58	20283.5
875.823	20328.5
876.066	20219.5
876.309	20211.5
876.551	19999.5
876.794	19998.5
877.037	19953.5
877.279	19845.5
877.522	19942.5
877.764	20033.5
878.007	19946.5
878.249	19997.5
878.491	19996.5
878.734	19935.5
878.976	19916.5
879.218	19654.5
879.46	19664.5
879.702	19548.5
879.945	19429.5
880.187	19174.5
880.429	19154.5
880.671	19095.5
880.912	18953.5
881.154	18961.5
881.396	18772.5
881.638	18877.5
881.88	18857.5
882.121	18673.5
882.363	18700.5
882.605	18729.5
882.846	18618.5
883.088	18556.5
883.329	18487.5
883.571	18540.5
883.812	18679.5
884.053	18840.5
884.295	18965.5
884.536	19043.5
884.777	18883.5
885.018	18832.5
885.259	18784.5
885.5	18720.5
885.742	18924.5
885.982	18667.5
886.223	18590.5
886.464	18532.5
886.705	18317.5
886.946	18240.5
887.187	18017.5
887.428	17998.5
887.668	17864.5
887.909	17611.5
888.15	17469.5
888.39	17528.5
888.631	17524.5
888.871	17285.5
889.111	17163.5
889.352	16994.5
889.592	17006.5
889.833	16789.5
890.073	16728.5
890.313	16649.5
890.553	16433.5
890.793	16432.5
891.033	16391.5
891.273	16182.5
891.513	16191.5
891.753	16169.5
891.993	16054.5
892.233	16134.5
892.473	16206.5
892.713	16144.5
892.952	16150.5
893.192	16257.5
893.432	16122.5
893.671	16124.5
893.911	16049.5
894.15	16067.5
894.39	15890.5
894.629	15829.5
894.869	15786.5
895.108	15764.5
895.347	15576.5
895.587	15507.5
895.826	15448.5
896.065	15446.5
896.304	15496.5
896.543	15499.5
896.782	15388.5
897.021	15320.5
897.26	15280.5
897.499	15218.5
897.738	15210.5
897.977	15074.5
898.216	15059.5
898.454	14938.5
898.693	14821.5
898.932	14770.5
899.17	14738.5
899.409	14594.5
899.647	14625.5
899.886	14719.5
900.124	14615.5
900.363	14570.5
900.601	14651.5
900.839	14604.5
901.078	14606.5
901.316	14685.5
901.554	14694.5
901.792	14644.5
902.03	14611.5
902.268	14565.5
902.506	14642.5
902.744	14521.5
902.982	14508.5
903.22	14264.5
903.458	14160.5
903.695	13979.5
903.933	13858.5
904.171	13622.5
904.409	13492.5
904.646	13304.5
904.884	13165.5
905.121	13098.5
905.359	12982.5
905.596	12890.5
905.833	12655.5
906.071	12690.5
906.308	12633.5
906.545	12626.5
906.783	12524.5
907.02	12491.5
907.257	12488.5
907.494	12505.5
907.731	12438.5
907.968	12386.5
908.205	12293.5
908.442	12207.5
908.679	12127.5
908.915	12099.5
909.152	11943.5
909.389	11829.5
909.626	11793.5
909.862	11852.5
910.099	11678.5
910.335	11690.5
910.572	11519.5
910.808	11476.5
911.045	11446.5
911.281	11455.5
911.518	11493.5
911.754	11324.5
911.99	11277.5
912.226	11247.5
912.463	11116.5
912.699	11029.5
912.935	11058.5
913.171	10945.5
913.407	10821.5
913.643	10781.5
913.879	10703.5
914.114	10544.5
914.35	10448.5
914.586	10330.5
914.822	10296.5
915.057	10328.5
915.293	10118.5
915.529	10077.5
915.764	10102.5
916	10095.5
916.235	10092.5
916.471	10068.5
916.706	10018.5
916.941	9944.5
917.177	9958.5
917.412	9994.5
917.647	9971.5
917.882	9916.5
918.117	9975.5
918.352	9861.5
918.588	9857.5
918.823	9714.5
919.057	9711.5
919.292	9529.5
919.527	9541.5
919.762	9397.5
919.997	9381.5
920.232	9232.5
920.466	9221.5
920.701	8997.5
920.935	9083.5
921.17	9010.5
921.405	8885.5
921.639	8989.5
921.873	8848.5
922.108	8839.5
922.342	8850.5
922.576	8732.5
922.811	8699.5
923.045	8696.5
923.279	8648.5
923.513	8548.5
923.747	8563.5
923.981	8568.5
924.215	8432.5
924.449	8392.5
924.683	8297.5
924.917	8339.5
925.151	8273.5
925.385	8279.5
925.618	8236.5
925.852	8248.5
926.086	8101.5
926.319	8117.5
926.553	8103.5
926.786	8113.5
927.02	8141.5
927.253	8130.5
927.486	8082.5
927.72	8003.5
927.953	8078.5
928.186	8016.5
928.42	8016.5
928.653	7915.5
928.886	7962.5
929.119	7923.5
929.352	7868.5
929.585	7857.5
929.818	7763.5
930.051	7661.5
930.284	7656.5
930.516	7515.5
930.749	7567.5
930.982	7596.5
931.215	7457.5
931.447	7384.5
931.68	7397.5
931.912	7355.5
932.145	7327.5
932.377	7381.5
932.61	7494.5
932.842	7240.5
933.074	7357.5
933.307	7236.5
933.539	7372.5
933.771	7377.5
934.003	7234.5
934.236	7340.5
934.468	7344.5
934.7	7278.5
934.932	7311.5
935.164	7217.5
935.395	7189.5
935.627	7216.5
935.859	7165.5
936.091	7093.5
936.323	7122.5
936.554	7110.5
936.786	7035.5
937.017	6961.5
937.249	6987.5
937.481	6952.5
937.712	6966.5
937.943	6930.5
938.175	6935.5
938.406	6910.5
938.637	6973.5
938.869	6838.5
939.1	6881.5
939.331	6867.5
939.562	6860.5
939.793	6847.5
940.024	6843.5
940.255	6858.5
940.486	6709.5
940.717	6694.5
940.948	6732.5
941.179	6615.5
941.409	6632.5
941.64	6671.5
941.871	6603.5
942.102	6613.5
942.332	6602.5
942.563	6590.5
942.793	6617.5
943.024	6582.5
943.254	6559.5
943.484	6536.5
943.715	6630.5
943.945	6583.5
944.175	6531.5
944.405	6542.5
944.636	6532.5
944.866	6545.5
945.096	6512.5
945.326	6410.5
945.556	6482.5
945.786	6522.5
946.016	6392.5
946.245	6298.5
946.475	6340.5
946.705	6258.5
946.935	6214.5
947.164	6163.5
947.394	6133.5
947.624	6081.5
947.853	6132.5
948.083	6107.5
948.312	6082.5
948.542	6015.5
948.771	5956.5
949	5926.5
949.23	5975.5
949.459	5969.5
949.688	6014.5
949.917	5909.5
950.146	5938.5
950.375	6007.5
950.604	5920.5
950.833	5986.5
951.062	5944.5
951.291	5888.5
951.52	5856.5
951.749	5852.5
951.978	5799.5
952.206	5796.5
952.435	5779.5
952.664	5798.5
952.892	5775.5
953.121	5755.5
953.349	5763.5
953.578	5749.5
953.806	5691.5
954.035	5581.5
954.263	5632.5
954.491	5542.5
954.719	5612.5
954.948	5516.5
955.176	5521.5
955.404	5419.5
955.632	5458.5
955.86	5426.5
956.088	5429.5
956.316	5393.5
956.544	5363.5
956.772	5336.5
956.999	5301.5
957.227	5372.5
957.455	5253.5
957.683	5239.5
957.91	5201.5
958.138	5166.5
958.365	5147.5
958.593	5106.5
958.82	5033.5
959.048	5119.5
959.275	5134.5
959.502	5064.5
959.73	5020.5
959.957	5116.5
960.184	5093.5
960.411	5024.5
960.638	5040.5
960.865	4983.5
961.092	5019.5
961.319	4942.5
961.546	5040.5
961.773	5010.5
962	5011.5
962.227	4962.5
962.454	4932.5
962.68	4912.5
962.907	4952.5
963.134	4857.5
963.36	4847.5
963.587	4875.5
963.813	4772.5
964.04	4756.5
964.266	4691.5
964.493	4742.5
964.719	4752.5
964.945	4649.5
965.171	4569.5
965.398	4628.5
965.624	4606.5
965.85	4540.5
966.076	4530.5
966.302	4576.5
966.528	4523.5
966.754	4504.5
966.98	4462.5
967.206	4453.5
967.431	4405.5
967.657	4434.5
967.883	4447.5
968.109	4442.5
968.334	4396.5
968.56	4365.5
968.785	4335.5
969.011	4344.5
969.236	4363.5
969.462	4302.5
969.687	4289.5
969.912	4356.5
970.138	4323.5
970.363	4268.5
970.588	4266.5
970.813	4261.5
971.038	4217.5
971.263	4247.5
971.488	4202.5
971.713	4221.5
971.938	4192.5
972.163	4109.5
972.388	4136.5
972.613	4106.5
972.838	4055.5
973.062	4047.5
973.287	4045.5
973.512	3945.5
973.736	4002.5
973.961	3975.5
974.185	3944.5
974.41	3984.5
974.634	3824.5
974.858	3879.5
975.083	3901.5
975.307	3872.5
975.531	3829.5
975.755	3728.5
975.98	3793.5
976.204	3734.5
976.428	3690.5
976.652	3669.5
976.876	3661.5
977.1	3698.5
977.324	3625.5
977.547	3669.5
977.771	3648.5
977.995	3650.5
978.219	3556.5
978.442	3640.5
978.666	3608.5
978.89	3622.5
979.113	3591.5
979.337	3549.5
979.56	3523.5
979.783	3602.5
980.007	3491.5
980.23	3491.5
980.453	3487.5
980.677	3492.5
980.9	3436.5
981.123	3352.5
981.346	3467.5
981.569	3417.5
981.792	3404.5
982.015	3380.5
982.238	3304.5
982.461	3331.5
982.684	3303.5
982.907	3275.5
983.129	3246.5
983.352	3293.5
983.575	3261.5
983.797	3257.5
984.02	3175.5
984.242	3174.5
984.465	3187.5
984.687	3201.5
984.91	3200.5
985.132	3200.5
985.354	3178.5
985.577	3130.5
985.799	3086.5
986.021	3059.5
986.243	3066.5
986.465	3087.5
986.687	3048.5
986.909	3132.5
987.131	3085.5
987.353	3027.5
987.575	3055.5
987.797	2990.5
988.019	2972.5
988.241	2990.5
988.462	2919.5
988.684	2979.5
988.906	2980.5
989.127	3002.5
989.349	2863.5
989.57	2927.5
989.792	2941.5
990.013	2931.5
990.234	2933.5
990.456	2975.5
990.677	2901.5
990.898	2900.5
991.119	2860.5
991.341	2883.5
991.562	2774.5
991.783	2820.5
992.004	2739.5
992.225	2711.5
992.446	2814.5
992.667	2689.5
992.887	2796.5
993.108	2655.5
993.329	2755.5
993.55	2705.5
993.77	2613.5
993.991	2593.5
994.212	2670.5
994.432	2626.5
994.653	2645.5
994.873	2610.5
995.093	2517.5
995.314	2532.5
995.534	2597.5
995.754	2598.5
995.975	2593.5
996.195	2525.5
996.415	2515.5
996.635	2484.5
996.855	2549.5
997.075	2531.5
997.295	2499.5
997.515	2476.5
997.735	2525.5
997.955	2492.5
998.174	2480.5
998.394	2456.5
998.614	2495.5
998.834	2414.5
999.053	2484.5
999.273	2454.5
999.492	2497.5
999.712	2424.5
999.931	2389.5
1000.151	2455.5
1000.37	2402.5
1000.589	2419.5
1000.809	2334.5
1001.028	2442.5
1001.247	2378.5
1001.466	2263.5
1001.685	2406.5
1001.904	2337.5
1002.123	2311.5
1002.342	2325.5
1002.561	2251.5
1002.78	2293.5
1002.999	2331.5
1003.218	2286.5
1003.436	2245.5
1003.655	2312.5
1003.874	2201.5
1004.092	2225.5
1004.311	2282.5
1004.53	2205.5
1004.748	2293.5
1004.966	2178.5
1005.185	2217.5
1005.403	2223.5
1005.622	2201.5
1005.84	2291.5
1006.058	2151.5
1006.276	2196.5
1006.494	2660.5
1006.712	2184.5
1006.931	2229.5
1007.149	2122.5
1007.367	2136.5
1007.584	2187.5
1007.802	2212.5
1008.02	2141.5
1008.238	2263.5
1008.456	2258.5
1008.673	2076.5
1008.891	2182.5
1009.109	2103.5
1009.326	2230.5
1009.544	2278.5
1009.761	2186.5
1009.979	2296.5
1010.196	2267.5
1010.413	2386.5
1010.631	2433.5
1010.848	2481.5
1011.065	2420.5
1011.282	2382.5
1011.5	2325.5
1011.717	2423.5
1011.934	2340.5
1012.151	2389.5
1012.368	2368.5
1012.585	2327.5
1012.801	2367.5
1013.018	2334.5
1013.235	2269.5
1013.452	2323.5
1013.669	2321.5
1013.885	2314.5
1014.102	2350.5
1014.318	2308.5
1014.535	2242.5
1014.751	2274.5
1014.968	2262.5
1015.184	2281.5
1015.401	2171.5
1015.617	2225.5
1015.833	2115.5
1016.049	2176.5
1016.266	2121.5
1016.482	2077.5
1016.698	2015.5
1016.914	2087.5
1017.13	1988.5
1017.346	2026.5
1017.562	2022.5
1017.778	2010.5
1017.993	1957.5
1018.209	2013.5
1018.425	1980.5
1018.641	1950.5
1018.856	1905.5
1019.072	1972.5
1019.288	2007.5
1019.503	1918.5
1019.719	1858.5
1019.934	1901.5
1020.149	1915.5
1020.365	1851.5
1020.58	1806.5
1020.795	1857.5
1021.011	1797.5
1021.226	1765.5
1021.441	1787.5
1021.656	1706.5
1021.871	1641.5
1022.086	1630.5
1022.301	1593.5
1022.516	1582.5
1022.731	1660.5
1022.946	1557.5
1023.16	1514.5
1023.375	1484.5
1023.59	1467.5
1023.804	1437.5
1024.019	1528.5
1024.234	1386.5
1024.448	1430.5
1024.663	1362.5
1024.877	1355.5
1025.092	1379.5
1025.306	1390.5
1025.52	1269.5
1025.734	1356.5
1025.949	1266.5
1026.163	1230.5
1026.377	1173.5
1026.591	1222.5
1026.805	1118.5
1027.019	1117.5
1027.233	1063.5
1027.447	1045.5
1027.661	1140.5
1027.875	1092.5
1028.088	1065.5
1028.302	960.5
1028.516	962.5
1028.73	951.5
1028.943	906.5
1029.157	869.5
1029.37	820.5
1029.584	-5.5
1029.797	-1.5
1030.011	1.5
1030.224	-3.5
