Data from QEP037381__106__11-38-35-597.txt Node

Date: Wed Dec 21 11:38:35 EST 2022
User: dcclab
Spectrometer: QEP03738
Trigger mode: 4
Integration Time (sec): 1.000000E1
Scans to average: 1
Electric dark correction enabled: true
Nonlinearity correction enabled: false
Boxcar width: 0
XAxis mode: Wavelengths
Number of Pixels in Spectrum: 1044
>>>>>Begin Spectral Data<<<<<
784.041	14.5
784.3	-3.5
784.558	-3.5
784.817	-1.5
785.075	41266.5
785.334	8291.5
785.592	4350.5
785.851	3039.5
786.109	2362.5
786.368	1911.5
786.626	1548.5
786.884	1307.5
787.143	1145.5
787.401	927.5
787.659	901.5
787.917	763.5
788.175	736.5
788.433	664.5
788.691	611.5
788.949	570.5
789.207	544.5
789.465	465.5
789.723	492.5
789.98	438.5
790.238	486.5
790.496	461.5
790.753	448.5
791.011	488.5
791.268	437.5
791.526	435.5
791.783	457.5
792.041	430.5
792.298	343.5
792.556	421.5
792.813	408.5
793.07	403.5
793.327	383.5
793.584	466.5
793.841	371.5
794.099	399.5
794.356	459.5
794.613	355.5
794.869	400.5
795.126	365.5
795.383	360.5
795.64	377.5
795.897	334.5
796.153	377.5
796.41	378.5
796.667	357.5
796.923	382.5
797.18	361.5
797.436	389.5
797.693	359.5
797.949	394.5
798.206	421.5
798.462	332.5
798.718	404.5
798.974	361.5
799.231	415.5
799.487	402.5
799.743	418.5
799.999	431.5
800.255	415.5
800.511	387.5
800.767	433.5
801.023	416.5
801.279	425.5
801.534	463.5
801.79	468.5
802.046	478.5
802.302	583.5
802.557	615.5
802.813	705.5
803.068	796.5
803.324	1080.5
803.579	1378.5
803.835	1846.5
804.09	2451.5
804.345	3164.5
804.601	3932.5
804.856	4722.5
805.111	5412.5
805.366	5984.5
805.621	6306.5
805.876	6630.5
806.131	6780.5
806.386	6882.5
806.641	6961.5
806.896	7088.5
807.151	7261.5
807.406	7355.5
807.661	7439.5
807.915	7621.5
808.17	7707.5
808.425	7881.5
808.679	7835.5
808.934	8025.5
809.188	8081.5
809.443	8160.5
809.697	8277.5
809.951	8230.5
810.206	8358.5
810.46	8442.5
810.714	8535.5
810.968	8648.5
811.223	8643.5
811.477	8729.5
811.731	8842.5
811.985	8820.5
812.239	8850.5
812.493	8853.5
812.747	8897.5
813	8913.5
813.254	8958.5
813.508	9056.5
813.762	9049.5
814.015	9124.5
814.269	9169.5
814.522	9272.5
814.776	9360.5
815.03	9475.5
815.283	9569.5
815.536	9731.5
815.79	9862.5
816.043	10016.5
816.296	10166.5
816.55	10289.5
816.803	10419.5
817.056	10619.5
817.309	10615.5
817.562	10813.5
817.815	10903.5
818.068	10854.5
818.321	11019.5
818.574	11200.5
818.827	11375.5
819.079	11449.5
819.332	11762.5
819.585	11785.5
819.838	11980.5
820.09	11901.5
820.343	12049.5
820.595	12074.5
820.848	12165.5
821.1	12170.5
821.353	12190.5
821.605	12184.5
821.857	12164.5
822.11	11978.5
822.362	12033.5
822.614	12015.5
822.866	12093.5
823.118	12035.5
823.37	12124.5
823.622	12220.5
823.874	12132.5
824.126	12302.5
824.378	12135.5
824.63	12220.5
824.882	12254.5
825.134	12145.5
825.385	12250.5
825.637	12246.5
825.888	12183.5
826.14	12060.5
826.392	12105.5
826.643	12008.5
826.895	12010.5
827.146	11939.5
827.397	11870.5
827.649	11975.5
827.9	11785.5
828.151	11853.5
828.402	11867.5
828.653	11995.5
828.905	11933.5
829.156	12083.5
829.407	12015.5
829.658	12008.5
829.909	12205.5
830.159	12049.5
830.41	12027.5
830.661	11870.5
830.912	11809.5
831.162	11784.5
831.413	11759.5
831.664	11772.5
831.914	11737.5
832.165	11780.5
832.415	11774.5
832.666	11724.5
832.916	11769.5
833.167	11765.5
833.417	11715.5
833.667	11691.5
833.917	11632.5
834.168	11620.5
834.418	11585.5
834.668	11555.5
834.918	11503.5
835.168	11501.5
835.418	11404.5
835.668	11358.5
835.918	11440.5
836.167	11358.5
836.417	11173.5
836.667	11340.5
836.917	11269.5
837.166	11323.5
837.416	11345.5
837.666	11365.5
837.915	11316.5
838.165	11243.5
838.414	11232.5
838.663	11162.5
838.913	11227.5
839.162	11083.5
839.411	11277.5
839.661	11102.5
839.91	11079.5
840.159	11120.5
840.408	11088.5
840.657	11168.5
840.906	11166.5
841.155	11212.5
841.404	11110.5
841.653	11122.5
841.902	11102.5
842.15	11210.5
842.399	11166.5
842.648	11197.5
842.897	11127.5
843.145	11007.5
843.394	10904.5
843.642	10830.5
843.891	10857.5
844.139	10711.5
844.388	10648.5
844.636	10600.5
844.884	10612.5
845.133	10621.5
845.381	10639.5
845.629	10587.5
845.877	10634.5
846.125	10602.5
846.373	10568.5
846.621	10500.5
846.869	10444.5
847.117	10403.5
847.365	10400.5
847.613	10363.5
847.861	10398.5
848.108	10325.5
848.356	10346.5
848.604	10280.5
848.851	10205.5
849.099	10339.5
849.346	10396.5
849.594	10443.5
849.841	10594.5
850.089	10572.5
850.336	10655.5
850.583	10773.5
850.831	10689.5
851.078	10559.5
851.325	10500.5
851.572	10513.5
851.819	10351.5
852.066	10092.5
852.313	9926.5
852.56	9810.5
852.807	9761.5
853.054	9792.5
853.301	9802.5
853.548	9800.5
853.794	9909.5
854.041	9902.5
854.288	9937.5
854.534	10138.5
854.781	9977.5
855.028	9967.5
855.274	10081.5
855.52	10006.5
855.767	9976.5
856.013	10017.5
856.26	10243.5
856.506	9835.5
856.752	9880.5
856.998	9956.5
857.244	9921.5
857.49	9861.5
857.736	9949.5
857.982	9898.5
858.228	9885.5
858.474	9832.5
858.72	9775.5
858.966	9627.5
859.212	9574.5
859.458	9417.5
859.703	9294.5
859.949	9253.5
860.195	9315.5
860.44	9218.5
860.686	9148.5
860.931	9126.5
861.177	9076.5
861.422	9059.5
861.667	9023.5
861.913	8953.5
862.158	8936.5
862.403	9072.5
862.648	9037.5
862.893	9008.5
863.138	8971.5
863.384	8966.5
863.629	9038.5
863.873	8969.5
864.118	9010.5
864.363	8862.5
864.608	8884.5
864.853	8909.5
865.098	8879.5
865.342	8743.5
865.587	8698.5
865.832	8753.5
866.076	8745.5
866.321	8666.5
866.565	8650.5
866.81	8589.5
867.054	8641.5
867.298	8600.5
867.543	8568.5
867.787	8625.5
868.031	8578.5
868.275	8548.5
868.519	8498.5
868.764	8511.5
869.008	8490.5
869.252	8521.5
869.496	8463.5
869.739	8453.5
869.983	8500.5
870.227	8503.5
870.471	8446.5
870.715	8548.5
870.958	8557.5
871.202	8563.5
871.446	8565.5
871.689	8541.5
871.933	8552.5
872.176	8549.5
872.42	8496.5
872.663	8520.5
872.906	8549.5
873.15	8633.5
873.393	8502.5
873.636	8575.5
873.879	8436.5
874.122	8376.5
874.366	8167.5
874.609	8134.5
874.852	8048.5
875.095	8028.5
875.337	7944.5
875.58	7849.5
875.823	7891.5
876.066	7975.5
876.309	7948.5
876.551	7743.5
876.794	7806.5
877.037	7791.5
877.279	7653.5
877.522	7708.5
877.764	7742.5
878.007	7678.5
878.249	7703.5
878.491	7663.5
878.734	7699.5
878.976	7670.5
879.218	7617.5
879.46	7592.5
879.702	7551.5
879.945	7507.5
880.187	7322.5
880.429	7306.5
880.671	7336.5
880.912	7346.5
881.154	7274.5
881.396	7184.5
881.638	7263.5
881.88	7235.5
882.121	7275.5
882.363	7238.5
882.605	7246.5
882.846	7256.5
883.088	7216.5
883.329	7246.5
883.571	7310.5
883.812	7390.5
884.053	7528.5
884.295	7758.5
884.536	7956.5
884.777	7763.5
885.018	7684.5
885.259	7702.5
885.5	7538.5
885.742	7815.5
885.982	7582.5
886.223	7472.5
886.464	7427.5
886.705	7315.5
886.946	7239.5
887.187	7084.5
887.428	7038.5
887.668	6827.5
887.909	6767.5
888.15	6664.5
888.39	6697.5
888.631	6684.5
888.871	6669.5
889.111	6538.5
889.352	6537.5
889.592	6399.5
889.833	6424.5
890.073	6325.5
890.313	6438.5
890.553	6256.5
890.793	6238.5
891.033	6208.5
891.273	6192.5
891.513	6210.5
891.753	6182.5
891.993	6168.5
892.233	6205.5
892.473	6235.5
892.713	6209.5
892.952	6143.5
893.192	6228.5
893.432	6180.5
893.671	6256.5
893.911	6158.5
894.15	6135.5
894.39	6060.5
894.629	6044.5
894.869	6108.5
895.108	5985.5
895.347	5954.5
895.587	6013.5
895.826	5929.5
896.065	5949.5
896.304	5988.5
896.543	5977.5
896.782	5904.5
897.021	5908.5
897.26	5948.5
897.499	5932.5
897.738	5946.5
897.977	5896.5
898.216	5845.5
898.454	5807.5
898.693	5757.5
898.932	5804.5
899.17	5744.5
899.409	5799.5
899.647	5776.5
899.886	5703.5
900.124	5776.5
900.363	5721.5
900.601	5731.5
900.839	5781.5
901.078	5830.5
901.316	5865.5
901.554	5832.5
901.792	5913.5
902.03	5799.5
902.268	5916.5
902.506	5910.5
902.744	5779.5
902.982	5766.5
903.22	5640.5
903.458	5534.5
903.695	5524.5
903.933	5409.5
904.171	5359.5
904.409	5250.5
904.646	5250.5
904.884	5112.5
905.121	5071.5
905.359	5008.5
905.596	4931.5
905.833	4902.5
906.071	4841.5
906.308	4849.5
906.545	4854.5
906.783	4776.5
907.02	4806.5
907.257	4773.5
907.494	4740.5
907.731	4766.5
907.968	4725.5
908.205	4680.5
908.442	4602.5
908.679	4628.5
908.915	4630.5
909.152	4582.5
909.389	4490.5
909.626	4500.5
909.862	4466.5
910.099	4469.5
910.335	4479.5
910.572	4359.5
910.808	4399.5
911.045	4299.5
911.281	4294.5
911.518	4397.5
911.754	4318.5
911.99	4343.5
912.226	4259.5
912.463	4177.5
912.699	4177.5
912.935	4142.5
913.171	4125.5
913.407	4081.5
913.643	4152.5
913.879	4057.5
914.114	4038.5
914.35	3962.5
914.586	3935.5
914.822	3907.5
915.057	3979.5
915.293	3799.5
915.529	3846.5
915.764	3878.5
916	3854.5
916.235	3847.5
916.471	3857.5
916.706	3774.5
916.941	3778.5
917.177	3746.5
917.412	3811.5
917.647	3783.5
917.882	3749.5
918.117	3782.5
918.352	3778.5
918.588	3809.5
918.823	3719.5
919.057	3674.5
919.292	3611.5
919.527	3675.5
919.762	3580.5
919.997	3658.5
920.232	3517.5
920.466	3541.5
920.701	3467.5
920.935	3482.5
921.17	3401.5
921.405	3370.5
921.639	3476.5
921.873	3392.5
922.108	3416.5
922.342	3400.5
922.576	3286.5
922.811	3316.5
923.045	3357.5
923.279	3409.5
923.513	3289.5
923.747	3318.5
923.981	3283.5
924.215	3260.5
924.449	3289.5
924.683	3186.5
924.917	3198.5
925.151	3182.5
925.385	3235.5
925.618	3154.5
925.852	3202.5
926.086	3102.5
926.319	3160.5
926.553	3203.5
926.786	3201.5
927.02	3177.5
927.253	3189.5
927.486	3172.5
927.72	3123.5
927.953	3183.5
928.186	3139.5
928.42	3107.5
928.653	3091.5
928.886	3089.5
929.119	3081.5
929.352	3074.5
929.585	3064.5
929.818	2967.5
930.051	3024.5
930.284	3019.5
930.516	2865.5
930.749	2956.5
930.982	2976.5
931.215	2954.5
931.447	2892.5
931.68	2868.5
931.912	2840.5
932.145	2868.5
932.377	2935.5
932.61	3044.5
932.842	2851.5
933.074	2877.5
933.307	2857.5
933.539	2943.5
933.771	2933.5
934.003	2840.5
934.236	2941.5
934.468	2974.5
934.7	2859.5
934.932	2916.5
935.164	2844.5
935.395	2847.5
935.627	2831.5
935.859	2868.5
936.091	2753.5
936.323	2868.5
936.554	2853.5
936.786	2805.5
937.017	2747.5
937.249	2774.5
937.481	2724.5
937.712	2785.5
937.943	2764.5
938.175	2750.5
938.406	2757.5
938.637	2827.5
938.869	2719.5
939.1	2782.5
939.331	2697.5
939.562	2728.5
939.793	2709.5
940.024	2735.5
940.255	2740.5
940.486	2687.5
940.717	2657.5
940.948	2686.5
941.179	2600.5
941.409	2629.5
941.64	2606.5
941.871	2626.5
942.102	2616.5
942.332	2616.5
942.563	2640.5
942.793	2662.5
943.024	2543.5
943.254	2614.5
943.484	2631.5
943.715	2654.5
943.945	2640.5
944.175	2613.5
944.405	2534.5
944.636	2554.5
944.866	2545.5
945.096	2584.5
945.326	2534.5
945.556	2536.5
945.786	2593.5
946.016	2548.5
946.245	2504.5
946.475	2504.5
946.705	2516.5
946.935	2526.5
947.164	2482.5
947.394	2438.5
947.624	2459.5
947.853	2484.5
948.083	2457.5
948.312	2420.5
948.542	2387.5
948.771	2334.5
949	2391.5
949.23	2367.5
949.459	2383.5
949.688	2440.5
949.917	2433.5
950.146	2359.5
950.375	2445.5
950.604	2364.5
950.833	2410.5
951.062	2424.5
951.291	2356.5
951.52	2333.5
951.749	2368.5
951.978	2304.5
952.206	2338.5
952.435	2299.5
952.664	2355.5
952.892	2329.5
953.121	2324.5
953.349	2337.5
953.578	2311.5
953.806	2272.5
954.035	2242.5
954.263	2281.5
954.491	2208.5
954.719	2253.5
954.948	2218.5
955.176	2176.5
955.404	2119.5
955.632	2214.5
955.86	2203.5
956.088	2195.5
956.316	2216.5
956.544	2230.5
956.772	2149.5
956.999	2136.5
957.227	2246.5
957.455	2128.5
957.683	2138.5
957.91	2129.5
958.138	2121.5
958.365	2085.5
958.593	2061.5
958.82	2046.5
959.048	2117.5
959.275	2073.5
959.502	2056.5
959.73	2045.5
959.957	2077.5
960.184	2082.5
960.411	2025.5
960.638	2060.5
960.865	2029.5
961.092	2085.5
961.319	1953.5
961.546	2078.5
961.773	2072.5
962	2043.5
962.227	2102.5
962.454	2035.5
962.68	2018.5
962.907	2041.5
963.134	1991.5
963.36	2009.5
963.587	2053.5
963.813	1993.5
964.04	2003.5
964.266	1936.5
964.493	2015.5
964.719	1967.5
964.945	2004.5
965.171	1881.5
965.398	1947.5
965.624	1958.5
965.85	1878.5
966.076	1884.5
966.302	1915.5
966.528	1916.5
966.754	1927.5
966.98	1900.5
967.206	1930.5
967.431	1809.5
967.657	1926.5
967.883	1908.5
968.109	1863.5
968.334	1822.5
968.56	1847.5
968.785	1853.5
969.011	1792.5
969.236	1828.5
969.462	1771.5
969.687	1813.5
969.912	1878.5
970.138	1875.5
970.363	1782.5
970.588	1804.5
970.813	1817.5
971.038	1738.5
971.263	1803.5
971.488	1826.5
971.713	1830.5
971.938	1825.5
972.163	1693.5
972.388	1747.5
972.613	1723.5
972.838	1760.5
973.062	1749.5
973.287	1705.5
973.512	1663.5
973.736	1705.5
973.961	1702.5
974.185	1685.5
974.41	1683.5
974.634	1637.5
974.858	1597.5
975.083	1700.5
975.307	1702.5
975.531	1614.5
975.755	1614.5
975.98	1599.5
976.204	1560.5
976.428	1565.5
976.652	1567.5
976.876	1556.5
977.1	1557.5
977.324	1535.5
977.547	1596.5
977.771	1562.5
977.995	1580.5
978.219	1515.5
978.442	1654.5
978.666	1570.5
978.89	1560.5
979.113	1574.5
979.337	1543.5
979.56	1531.5
979.783	1612.5
980.007	1486.5
980.23	1534.5
980.453	1485.5
980.677	1535.5
980.9	1492.5
981.123	1404.5
981.346	1540.5
981.569	1521.5
981.792	1544.5
982.015	1468.5
982.238	1423.5
982.461	1482.5
982.684	1438.5
982.907	1439.5
983.129	1403.5
983.352	1487.5
983.575	1436.5
983.797	1451.5
984.02	1403.5
984.242	1406.5
984.465	1441.5
984.687	1455.5
984.91	1504.5
985.132	1446.5
985.354	1450.5
985.577	1424.5
985.799	1411.5
986.021	1356.5
986.243	1366.5
986.465	1389.5
986.687	1444.5
986.909	1451.5
987.131	1398.5
987.353	1388.5
987.575	1413.5
987.797	1371.5
988.019	1299.5
988.241	1395.5
988.462	1338.5
988.684	1402.5
988.906	1415.5
989.127	1459.5
989.349	1347.5
989.57	1354.5
989.792	1383.5
990.013	1429.5
990.234	1404.5
990.456	1451.5
990.677	1412.5
990.898	1379.5
991.119	1345.5
991.341	1382.5
991.562	1310.5
991.783	1372.5
992.004	1299.5
992.225	1278.5
992.446	1349.5
992.667	1255.5
992.887	1340.5
993.108	1233.5
993.329	1376.5
993.55	1310.5
993.77	1240.5
993.991	1254.5
994.212	1329.5
994.432	1299.5
994.653	1313.5
994.873	1292.5
995.093	1167.5
995.314	1238.5
995.534	1297.5
995.754	1322.5
995.975	1340.5
996.195	1245.5
996.415	1296.5
996.635	1264.5
996.855	1285.5
997.075	1269.5
997.295	1254.5
997.515	1226.5
997.735	1302.5
997.955	1241.5
998.174	1236.5
998.394	1221.5
998.614	1260.5
998.834	1224.5
999.053	1316.5
999.273	1276.5
999.492	1327.5
999.712	1272.5
999.931	1223.5
1000.151	1256.5
1000.37	1251.5
1000.589	1296.5
1000.809	1220.5
1001.028	1346.5
1001.247	1287.5
1001.466	1172.5
1001.685	1300.5
1001.904	1265.5
1002.123	1260.5
1002.342	1241.5
1002.561	1218.5
1002.78	1220.5
1002.999	1318.5
1003.218	1221.5
1003.436	1223.5
1003.655	1288.5
1003.874	1213.5
1004.092	1222.5
1004.311	1300.5
1004.53	1236.5
1004.748	1312.5
1004.966	1227.5
1005.185	1280.5
1005.403	1271.5
1005.622	1232.5
1005.84	1336.5
1006.058	1232.5
1006.276	1254.5
1006.494	1739.5
1006.712	1253.5
1006.931	1319.5
1007.149	1225.5
1007.367	1235.5
1007.584	1282.5
1007.802	1292.5
1008.02	1236.5
1008.238	1358.5
1008.456	1331.5
1008.673	1220.5
1008.891	1332.5
1009.109	1298.5
1009.326	1333.5
1009.544	1426.5
1009.761	1328.5
1009.979	1446.5
1010.196	1431.5
1010.413	1541.5
1010.631	1591.5
1010.848	1606.5
1011.065	1608.5
1011.282	1582.5
1011.5	1493.5
1011.717	1613.5
1011.934	1549.5
1012.151	1575.5
1012.368	1562.5
1012.585	1499.5
1012.801	1536.5
1013.018	1546.5
1013.235	1521.5
1013.452	1512.5
1013.669	1535.5
1013.885	1536.5
1014.102	1543.5
1014.318	1508.5
1014.535	1496.5
1014.751	1488.5
1014.968	1522.5
1015.184	1568.5
1015.401	1427.5
1015.617	1493.5
1015.833	1445.5
1016.049	1424.5
1016.266	1426.5
1016.482	1416.5
1016.698	1355.5
1016.914	1389.5
1017.13	1344.5
1017.346	1317.5
1017.562	1402.5
1017.778	1334.5
1017.993	1312.5
1018.209	1358.5
1018.425	1352.5
1018.641	1319.5
1018.856	1290.5
1019.072	1310.5
1019.288	1363.5
1019.503	1294.5
1019.719	1213.5
1019.934	1238.5
1020.149	1337.5
1020.365	1243.5
1020.58	1215.5
1020.795	1264.5
1021.011	1183.5
1021.226	1160.5
1021.441	1205.5
1021.656	1139.5
1021.871	1073.5
1022.086	1096.5
1022.301	1069.5
1022.516	1063.5
1022.731	1119.5
1022.946	1024.5
1023.16	1016.5
1023.375	1009.5
1023.59	967.5
1023.804	936.5
1024.019	1031.5
1024.234	925.5
1024.448	960.5
1024.663	890.5
1024.877	905.5
1025.092	906.5
1025.306	924.5
1025.52	822.5
1025.734	916.5
1025.949	842.5
1026.163	797.5
1026.377	751.5
1026.591	812.5
1026.805	745.5
1027.019	740.5
1027.233	699.5
1027.447	661.5
1027.661	754.5
1027.875	696.5
1028.088	707.5
1028.302	641.5
1028.516	623.5
1028.73	638.5
1028.943	643.5
1029.157	590.5
1029.37	558.5
1029.584	0.5
1029.797	-4.5
1030.011	-0.5
1030.224	-1.5
