Data from QEP037381__118__11-40-35-598.txt Node

Date: Wed Dec 21 11:40:35 EST 2022
User: dcclab
Spectrometer: QEP03738
Trigger mode: 4
Integration Time (sec): 1.000000E1
Scans to average: 1
Electric dark correction enabled: true
Nonlinearity correction enabled: false
Boxcar width: 0
XAxis mode: Wavelengths
Number of Pixels in Spectrum: 1044
>>>>>Begin Spectral Data<<<<<
784.041	14.75
784.3	-3.25
784.558	-5.25
784.817	-3.25
785.075	40098.75
785.334	8132.75
785.592	4273.75
785.851	3022.75
786.109	2332.75
786.368	1864.75
786.626	1558.75
786.884	1331.75
787.143	1127.75
787.401	918.75
787.659	871.75
787.917	763.75
788.175	728.75
788.433	622.75
788.691	602.75
788.949	561.75
789.207	552.75
789.465	466.75
789.723	467.75
789.98	425.75
790.238	468.75
790.496	459.75
790.753	438.75
791.011	479.75
791.268	436.75
791.526	420.75
791.783	446.75
792.041	419.75
792.298	345.75
792.556	418.75
792.813	390.75
793.07	374.75
793.327	368.75
793.584	455.75
793.841	382.75
794.099	403.75
794.356	451.75
794.613	361.75
794.869	388.75
795.126	364.75
795.383	359.75
795.64	362.75
795.897	315.75
796.153	386.75
796.41	373.75
796.667	342.75
796.923	345.75
797.18	365.75
797.436	389.75
797.693	342.75
797.949	393.75
798.206	425.75
798.462	333.75
798.718	393.75
798.974	375.75
799.231	399.75
799.487	384.75
799.743	388.75
799.999	401.75
800.255	404.75
800.511	372.75
800.767	414.75
801.023	391.75
801.279	410.75
801.534	431.75
801.79	442.75
802.046	451.75
802.302	515.75
802.557	523.75
802.813	620.75
803.068	653.75
803.324	875.75
803.579	1085.75
803.835	1365.75
804.09	1850.75
804.345	2307.75
804.601	2861.75
804.856	3434.75
805.111	4002.75
805.366	4448.75
805.621	4682.75
805.876	4888.75
806.131	5006.75
806.386	5111.75
806.641	5141.75
806.896	5284.75
807.151	5375.75
807.406	5397.75
807.661	5532.75
807.915	5632.75
808.17	5723.75
808.425	5818.75
808.679	5805.75
808.934	5941.75
809.188	5977.75
809.443	6005.75
809.697	6112.75
809.951	6058.75
810.206	6123.75
810.46	6202.75
810.714	6266.75
810.968	6291.75
811.223	6326.75
811.477	6448.75
811.731	6516.75
811.985	6392.75
812.239	6406.75
812.493	6430.75
812.747	6589.75
813	6433.75
813.254	6570.75
813.508	6622.75
813.762	6603.75
814.015	6577.75
814.269	6701.75
814.522	6700.75
814.776	6870.75
815.03	6920.75
815.283	6961.75
815.536	7132.75
815.79	7281.75
816.043	7269.75
816.296	7300.75
816.55	7436.75
816.803	7529.75
817.056	7657.75
817.309	7655.75
817.562	7777.75
817.815	7850.75
818.068	7853.75
818.321	7888.75
818.574	7924.75
818.827	8119.75
819.079	8191.75
819.332	8436.75
819.585	8440.75
819.838	8615.75
820.09	8495.75
820.343	8636.75
820.595	8600.75
820.848	8690.75
821.1	8714.75
821.353	8739.75
821.605	8679.75
821.857	8703.75
822.11	8580.75
822.362	8567.75
822.614	8515.75
822.866	8551.75
823.118	8541.75
823.37	8577.75
823.622	8623.75
823.874	8642.75
824.126	8673.75
824.378	8687.75
824.63	8581.75
824.882	8746.75
825.134	8649.75
825.385	8767.75
825.637	8600.75
825.888	8593.75
826.14	8614.75
826.392	8535.75
826.643	8476.75
826.895	8518.75
827.146	8441.75
827.397	8409.75
827.649	8409.75
827.9	8387.75
828.151	8335.75
828.402	8346.75
828.653	8426.75
828.905	8398.75
829.156	8508.75
829.407	8386.75
829.658	8541.75
829.909	8521.75
830.159	8446.75
830.41	8450.75
830.661	8314.75
830.912	8348.75
831.162	8258.75
831.413	8269.75
831.664	8339.75
831.914	8269.75
832.165	8192.75
832.415	8210.75
832.666	8244.75
832.916	8235.75
833.167	8180.75
833.417	8248.75
833.667	8182.75
833.917	8165.75
834.168	8184.75
834.418	8150.75
834.668	8130.75
834.918	7990.75
835.168	8027.75
835.418	7923.75
835.668	7973.75
835.918	8021.75
836.167	7918.75
836.417	7849.75
836.667	7942.75
836.917	7952.75
837.166	7850.75
837.416	7941.75
837.666	7945.75
837.915	7893.75
838.165	7870.75
838.414	7815.75
838.663	7839.75
838.913	7884.75
839.162	7726.75
839.411	7908.75
839.661	7807.75
839.91	7738.75
840.159	7754.75
840.408	7760.75
840.657	7831.75
840.906	7801.75
841.155	7788.75
841.404	7728.75
841.653	7775.75
841.902	7732.75
842.15	7779.75
842.399	7823.75
842.648	7813.75
842.897	7767.75
843.145	7650.75
843.394	7631.75
843.642	7575.75
843.891	7569.75
844.139	7511.75
844.388	7402.75
844.636	7287.75
844.884	7348.75
845.133	7275.75
845.381	7364.75
845.629	7402.75
845.877	7281.75
846.125	7274.75
846.373	7343.75
846.621	7251.75
846.869	7299.75
847.117	7238.75
847.365	7166.75
847.613	7189.75
847.861	7157.75
848.108	7237.75
848.356	7186.75
848.604	7079.75
848.851	7126.75
849.099	7148.75
849.346	7180.75
849.594	7319.75
849.841	7285.75
850.089	7300.75
850.336	7443.75
850.583	7487.75
850.831	7494.75
851.078	7399.75
851.325	7331.75
851.572	7332.75
851.819	7195.75
852.066	7021.75
852.313	6885.75
852.56	6816.75
852.807	6806.75
853.054	6750.75
853.301	6759.75
853.548	6762.75
853.794	6869.75
854.041	6900.75
854.288	6857.75
854.534	7003.75
854.781	6920.75
855.028	6894.75
855.274	6940.75
855.52	6904.75
855.767	6890.75
856.013	6912.75
856.26	7130.75
856.506	6815.75
856.752	6837.75
856.998	6815.75
857.244	6793.75
857.49	6876.75
857.736	6872.75
857.982	6882.75
858.228	6808.75
858.474	6732.75
858.72	6703.75
858.966	6643.75
859.212	6531.75
859.458	6548.75
859.703	6472.75
859.949	6368.75
860.195	6383.75
860.44	6310.75
860.686	6259.75
860.931	6341.75
861.177	6200.75
861.422	6223.75
861.667	6152.75
861.913	6166.75
862.158	6156.75
862.403	6168.75
862.648	6222.75
862.893	6259.75
863.138	6170.75
863.384	6144.75
863.629	6162.75
863.873	6180.75
864.118	6139.75
864.363	6045.75
864.608	6044.75
864.853	6142.75
865.098	6059.75
865.342	6056.75
865.587	5954.75
865.832	5952.75
866.076	6007.75
866.321	5930.75
866.565	5983.75
866.81	5854.75
867.054	5942.75
867.298	5898.75
867.543	5876.75
867.787	5884.75
868.031	5866.75
868.275	5870.75
868.519	5829.75
868.764	5875.75
869.008	5829.75
869.252	5865.75
869.496	5844.75
869.739	5869.75
869.983	5856.75
870.227	5892.75
870.471	5834.75
870.715	5877.75
870.958	5862.75
871.202	5927.75
871.446	5913.75
871.689	5884.75
871.933	5934.75
872.176	5921.75
872.42	5860.75
872.663	5868.75
872.906	5922.75
873.15	5955.75
873.393	5896.75
873.636	5961.75
873.879	5862.75
874.122	5794.75
874.366	5639.75
874.609	5631.75
874.852	5579.75
875.095	5488.75
875.337	5511.75
875.58	5407.75
875.823	5429.75
876.066	5379.75
876.309	5461.75
876.551	5329.75
876.794	5270.75
877.037	5353.75
877.279	5306.75
877.522	5285.75
877.764	5331.75
878.007	5208.75
878.249	5315.75
878.491	5223.75
878.734	5310.75
878.976	5247.75
879.218	5116.75
879.46	5210.75
879.702	5156.75
879.945	5130.75
880.187	5053.75
880.429	5022.75
880.671	4981.75
880.912	5035.75
881.154	4969.75
881.396	4860.75
881.638	4984.75
881.88	4956.75
882.121	4931.75
882.363	4918.75
882.605	5016.75
882.846	4976.75
883.088	4972.75
883.329	4946.75
883.571	5014.75
883.812	5128.75
884.053	5318.75
884.295	5397.75
884.536	5551.75
884.777	5431.75
885.018	5386.75
885.259	5315.75
885.5	5290.75
885.742	5477.75
885.982	5312.75
886.223	5174.75
886.464	5112.75
886.705	5040.75
886.946	5011.75
887.187	4842.75
887.428	4842.75
887.668	4692.75
887.909	4646.75
888.15	4488.75
888.39	4571.75
888.631	4593.75
888.871	4547.75
889.111	4446.75
889.352	4374.75
889.592	4320.75
889.833	4347.75
890.073	4334.75
890.313	4377.75
890.553	4237.75
890.793	4218.75
891.033	4238.75
891.273	4229.75
891.513	4200.75
891.753	4265.75
891.993	4194.75
892.233	4232.75
892.473	4244.75
892.713	4217.75
892.952	4200.75
893.192	4245.75
893.432	4174.75
893.671	4202.75
893.911	4204.75
894.15	4174.75
894.39	4088.75
894.629	4115.75
894.869	4125.75
895.108	4093.75
895.347	4042.75
895.587	4106.75
895.826	4035.75
896.065	4033.75
896.304	4074.75
896.543	4087.75
896.782	4016.75
897.021	4099.75
897.26	4038.75
897.499	4058.75
897.738	4129.75
897.977	4044.75
898.216	4035.75
898.454	4011.75
898.693	3954.75
898.932	4002.75
899.17	3982.75
899.409	3997.75
899.647	3994.75
899.886	3932.75
900.124	3986.75
900.363	3959.75
900.601	4018.75
900.839	3975.75
901.078	4060.75
901.316	4090.75
901.554	4081.75
901.792	4119.75
902.03	4085.75
902.268	4079.75
902.506	4157.75
902.744	4035.75
902.982	4104.75
903.22	3920.75
903.458	3891.75
903.695	3767.75
903.933	3763.75
904.171	3637.75
904.409	3599.75
904.646	3570.75
904.884	3491.75
905.121	3545.75
905.359	3449.75
905.596	3388.75
905.833	3339.75
906.071	3354.75
906.308	3359.75
906.545	3320.75
906.783	3269.75
907.02	3274.75
907.257	3224.75
907.494	3248.75
907.731	3227.75
907.968	3280.75
908.205	3219.75
908.442	3157.75
908.679	3170.75
908.915	3143.75
909.152	3115.75
909.389	3025.75
909.626	3037.75
909.862	3006.75
910.099	3055.75
910.335	3051.75
910.572	2923.75
910.808	2982.75
911.045	2964.75
911.281	2904.75
911.518	3022.75
911.754	2922.75
911.99	2938.75
912.226	2902.75
912.463	2844.75
912.699	2850.75
912.935	2818.75
913.171	2785.75
913.407	2768.75
913.643	2843.75
913.879	2785.75
914.114	2726.75
914.35	2712.75
914.586	2709.75
914.822	2642.75
915.057	2736.75
915.293	2596.75
915.529	2630.75
915.764	2678.75
916	2632.75
916.235	2668.75
916.471	2656.75
916.706	2557.75
916.941	2592.75
917.177	2573.75
917.412	2616.75
917.647	2590.75
917.882	2547.75
918.117	2633.75
918.352	2579.75
918.588	2604.75
918.823	2540.75
919.057	2506.75
919.292	2398.75
919.527	2537.75
919.762	2464.75
919.997	2506.75
920.232	2411.75
920.466	2438.75
920.701	2346.75
920.935	2410.75
921.17	2342.75
921.405	2303.75
921.639	2362.75
921.873	2349.75
922.108	2353.75
922.342	2340.75
922.576	2259.75
922.811	2310.75
923.045	2313.75
923.279	2350.75
923.513	2234.75
923.747	2309.75
923.981	2285.75
924.215	2210.75
924.449	2269.75
924.683	2193.75
924.917	2218.75
925.151	2216.75
925.385	2247.75
925.618	2196.75
925.852	2209.75
926.086	2169.75
926.319	2179.75
926.553	2147.75
926.786	2189.75
927.02	2153.75
927.253	2201.75
927.486	2183.75
927.72	2144.75
927.953	2189.75
928.186	2141.75
928.42	2188.75
928.653	2099.75
928.886	2098.75
929.119	2146.75
929.352	2144.75
929.585	2138.75
929.818	2068.75
930.051	2120.75
930.284	2104.75
930.516	2026.75
930.749	2010.75
930.982	2064.75
931.215	2049.75
931.447	1997.75
931.68	1994.75
931.912	1989.75
932.145	1992.75
932.377	1999.75
932.61	2123.75
932.842	1946.75
933.074	2015.75
933.307	1960.75
933.539	2056.75
933.771	2069.75
934.003	2005.75
934.236	2063.75
934.468	2077.75
934.7	2010.75
934.932	2029.75
935.164	1968.75
935.395	1957.75
935.627	1978.75
935.859	1993.75
936.091	1908.75
936.323	1974.75
936.554	1996.75
936.786	1936.75
937.017	1901.75
937.249	1949.75
937.481	1869.75
937.712	1941.75
937.943	1911.75
938.175	1901.75
938.406	1906.75
938.637	1937.75
938.869	1892.75
939.1	1947.75
939.331	1881.75
939.562	1901.75
939.793	1923.75
940.024	1932.75
940.255	1946.75
940.486	1878.75
940.717	1880.75
940.948	1864.75
941.179	1830.75
941.409	1868.75
941.64	1857.75
941.871	1860.75
942.102	1851.75
942.332	1848.75
942.563	1871.75
942.793	1861.75
943.024	1779.75
943.254	1830.75
943.484	1871.75
943.715	1899.75
943.945	1857.75
944.175	1769.75
944.405	1771.75
944.636	1757.75
944.866	1846.75
945.096	1845.75
945.326	1757.75
945.556	1811.75
945.786	1847.75
946.016	1775.75
946.245	1758.75
946.475	1751.75
946.705	1749.75
946.935	1746.75
947.164	1733.75
947.394	1733.75
947.624	1719.75
947.853	1776.75
948.083	1758.75
948.312	1704.75
948.542	1681.75
948.771	1627.75
949	1685.75
949.23	1672.75
949.459	1702.75
949.688	1749.75
949.917	1684.75
950.146	1707.75
950.375	1754.75
950.604	1630.75
950.833	1718.75
951.062	1715.75
951.291	1661.75
951.52	1649.75
951.749	1652.75
951.978	1624.75
952.206	1629.75
952.435	1629.75
952.664	1656.75
952.892	1667.75
953.121	1654.75
953.349	1654.75
953.578	1652.75
953.806	1619.75
954.035	1604.75
954.263	1623.75
954.491	1543.75
954.719	1608.75
954.948	1567.75
955.176	1567.75
955.404	1523.75
955.632	1578.75
955.86	1581.75
956.088	1539.75
956.316	1583.75
956.544	1582.75
956.772	1536.75
956.999	1527.75
957.227	1603.75
957.455	1510.75
957.683	1503.75
957.91	1490.75
958.138	1506.75
958.365	1532.75
958.593	1497.75
958.82	1455.75
959.048	1516.75
959.275	1482.75
959.502	1468.75
959.73	1429.75
959.957	1488.75
960.184	1503.75
960.411	1440.75
960.638	1530.75
960.865	1466.75
961.092	1483.75
961.319	1382.75
961.546	1504.75
961.773	1476.75
962	1473.75
962.227	1498.75
962.454	1460.75
962.68	1436.75
962.907	1476.75
963.134	1419.75
963.36	1451.75
963.587	1473.75
963.813	1398.75
964.04	1482.75
964.266	1394.75
964.493	1469.75
964.719	1469.75
964.945	1468.75
965.171	1361.75
965.398	1409.75
965.624	1444.75
965.85	1375.75
966.076	1342.75
966.302	1413.75
966.528	1383.75
966.754	1400.75
966.98	1397.75
967.206	1395.75
967.431	1344.75
967.657	1422.75
967.883	1410.75
968.109	1359.75
968.334	1329.75
968.56	1320.75
968.785	1346.75
969.011	1280.75
969.236	1385.75
969.462	1309.75
969.687	1319.75
969.912	1369.75
970.138	1379.75
970.363	1293.75
970.588	1335.75
970.813	1325.75
971.038	1278.75
971.263	1343.75
971.488	1323.75
971.713	1365.75
971.938	1339.75
972.163	1243.75
972.388	1298.75
972.613	1297.75
972.838	1301.75
973.062	1308.75
973.287	1272.75
973.512	1228.75
973.736	1284.75
973.961	1243.75
974.185	1218.75
974.41	1240.75
974.634	1194.75
974.858	1200.75
975.083	1234.75
975.307	1264.75
975.531	1204.75
975.755	1170.75
975.98	1190.75
976.204	1146.75
976.428	1137.75
976.652	1138.75
976.876	1141.75
977.1	1170.75
977.324	1152.75
977.547	1185.75
977.771	1197.75
977.995	1159.75
978.219	1115.75
978.442	1235.75
978.666	1171.75
978.89	1166.75
979.113	1173.75
979.337	1148.75
979.56	1120.75
979.783	1203.75
980.007	1108.75
980.23	1112.75
980.453	1100.75
980.677	1162.75
980.9	1144.75
981.123	1047.75
981.346	1152.75
981.569	1131.75
981.792	1166.75
982.015	1086.75
982.238	1104.75
982.461	1097.75
982.684	1081.75
982.907	1072.75
983.129	1094.75
983.352	1146.75
983.575	1091.75
983.797	1113.75
984.02	1083.75
984.242	1058.75
984.465	1088.75
984.687	1110.75
984.91	1149.75
985.132	1115.75
985.354	1141.75
985.577	1089.75
985.799	1102.75
986.021	999.75
986.243	1043.75
986.465	1086.75
986.687	1139.75
986.909	1139.75
987.131	1075.75
987.353	1037.75
987.575	1114.75
987.797	1062.75
988.019	1000.75
988.241	1076.75
988.462	1020.75
988.684	1080.75
988.906	1118.75
989.127	1134.75
989.349	1024.75
989.57	1063.75
989.792	1103.75
990.013	1112.75
990.234	1102.75
990.456	1134.75
990.677	1105.75
990.898	1050.75
991.119	1064.75
991.341	1100.75
991.562	1044.75
991.783	1078.75
992.004	1008.75
992.225	986.75
992.446	1051.75
992.667	973.75
992.887	1047.75
993.108	952.75
993.329	1110.75
993.55	1047.75
993.77	987.75
993.991	992.75
994.212	1064.75
994.432	1022.75
994.653	1053.75
994.873	1025.75
995.093	939.75
995.314	987.75
995.534	1039.75
995.754	1087.75
995.975	1105.75
996.195	996.75
996.415	1035.75
996.635	1015.75
996.855	1037.75
997.075	1009.75
997.295	1015.75
997.515	998.75
997.735	1062.75
997.955	1009.75
998.174	1012.75
998.394	993.75
998.614	1034.75
998.834	996.75
999.053	1055.75
999.273	1032.75
999.492	1075.75
999.712	1015.75
999.931	987.75
1000.151	1045.75
1000.37	1012.75
1000.589	1083.75
1000.809	997.75
1001.028	1112.75
1001.247	1080.75
1001.466	955.75
1001.685	1100.75
1001.904	1052.75
1002.123	1015.75
1002.342	1036.75
1002.561	1005.75
1002.78	1017.75
1002.999	1096.75
1003.218	1028.75
1003.436	1004.75
1003.655	1060.75
1003.874	1032.75
1004.092	1053.75
1004.311	1080.75
1004.53	1034.75
1004.748	1119.75
1004.966	1055.75
1005.185	1103.75
1005.403	1076.75
1005.622	1073.75
1005.84	1141.75
1006.058	1026.75
1006.276	1075.75
1006.494	1557.75
1006.712	1056.75
1006.931	1125.75
1007.149	1049.75
1007.367	1059.75
1007.584	1114.75
1007.802	1137.75
1008.02	1065.75
1008.238	1190.75
1008.456	1163.75
1008.673	1030.75
1008.891	1177.75
1009.109	1113.75
1009.326	1159.75
1009.544	1228.75
1009.761	1134.75
1009.979	1231.75
1010.196	1218.75
1010.413	1329.75
1010.631	1357.75
1010.848	1369.75
1011.065	1407.75
1011.282	1362.75
1011.5	1274.75
1011.717	1400.75
1011.934	1334.75
1012.151	1380.75
1012.368	1370.75
1012.585	1279.75
1012.801	1366.75
1013.018	1340.75
1013.235	1300.75
1013.452	1326.75
1013.669	1319.75
1013.885	1315.75
1014.102	1353.75
1014.318	1318.75
1014.535	1304.75
1014.751	1346.75
1014.968	1304.75
1015.184	1341.75
1015.401	1261.75
1015.617	1299.75
1015.833	1228.75
1016.049	1255.75
1016.266	1240.75
1016.482	1211.75
1016.698	1144.75
1016.914	1230.75
1017.13	1178.75
1017.346	1189.75
1017.562	1225.75
1017.778	1157.75
1017.993	1138.75
1018.209	1209.75
1018.425	1193.75
1018.641	1134.75
1018.856	1126.75
1019.072	1162.75
1019.288	1196.75
1019.503	1136.75
1019.719	1073.75
1019.934	1074.75
1020.149	1175.75
1020.365	1100.75
1020.58	1041.75
1020.795	1109.75
1021.011	1047.75
1021.226	1032.75
1021.441	1062.75
1021.656	982.75
1021.871	920.75
1022.086	947.75
1022.301	938.75
1022.516	941.75
1022.731	997.75
1022.946	897.75
1023.16	907.75
1023.375	866.75
1023.59	859.75
1023.804	806.75
1024.019	923.75
1024.234	812.75
1024.448	849.75
1024.663	770.75
1024.877	794.75
1025.092	822.75
1025.306	823.75
1025.52	730.75
1025.734	812.75
1025.949	731.75
1026.163	732.75
1026.377	653.75
1026.591	712.75
1026.805	661.75
1027.019	673.75
1027.233	626.75
1027.447	581.75
1027.661	670.75
1027.875	619.75
1028.088	628.75
1028.302	567.75
1028.516	576.75
1028.73	569.75
1028.943	572.75
1029.157	526.75
1029.37	500.75
1029.584	0.75
1029.797	0.75
1030.011	-1.25
1030.224	-3.25
