Data from QEP037381__60__11-30-55-594.txt Node

Date: Wed Dec 21 11:30:55 EST 2022
User: dcclab
Spectrometer: QEP03738
Trigger mode: 4
Integration Time (sec): 1.000000E1
Scans to average: 1
Electric dark correction enabled: true
Nonlinearity correction enabled: false
Boxcar width: 0
XAxis mode: Wavelengths
Number of Pixels in Spectrum: 1044
>>>>>Begin Spectral Data<<<<<
784.041	15.25
784.3	-1.75
784.558	-2.75
784.817	-3.75
785.075	42706.25
785.334	8539.25
785.592	4369.25
785.851	3114.25
786.109	2416.25
786.368	1925.25
786.626	1568.25
786.884	1330.25
787.143	1161.25
787.401	947.25
787.659	886.25
787.917	772.25
788.175	729.25
788.433	651.25
788.691	579.25
788.949	572.25
789.207	578.25
789.465	472.25
789.723	482.25
789.98	444.25
790.238	481.25
790.496	453.25
790.753	439.25
791.011	501.25
791.268	442.25
791.526	427.25
791.783	446.25
792.041	433.25
792.298	367.25
792.556	415.25
792.813	410.25
793.07	394.25
793.327	383.25
793.584	462.25
793.841	388.25
794.099	403.25
794.356	465.25
794.613	377.25
794.869	402.25
795.126	365.25
795.383	366.25
795.64	390.25
795.897	328.25
796.153	403.25
796.41	378.25
796.667	358.25
796.923	371.25
797.18	370.25
797.436	399.25
797.693	362.25
797.949	413.25
798.206	445.25
798.462	350.25
798.718	411.25
798.974	385.25
799.231	422.25
799.487	405.25
799.743	401.25
799.999	436.25
800.255	430.25
800.511	410.25
800.767	438.25
801.023	415.25
801.279	453.25
801.534	464.25
801.79	492.25
802.046	491.25
802.302	589.25
802.557	630.25
802.813	752.25
803.068	833.25
803.324	1151.25
803.579	1502.25
803.835	1970.25
804.09	2706.25
804.345	3395.25
804.601	4229.25
804.856	5117.25
805.111	5964.25
805.366	6524.25
805.621	6936.25
805.876	7328.25
806.131	7431.25
806.386	7647.25
806.641	7746.25
806.896	7875.25
807.151	8092.25
807.406	8122.25
807.661	8314.25
807.915	8498.25
808.17	8590.25
808.425	8668.25
808.679	8700.25
808.934	8906.25
809.188	8926.25
809.443	9015.25
809.697	9127.25
809.951	9203.25
810.206	9309.25
810.46	9412.25
810.714	9476.25
810.968	9647.25
811.223	9607.25
811.477	9730.25
811.731	9779.25
811.985	9802.25
812.239	9833.25
812.493	9901.25
812.747	9896.25
813	9871.25
813.254	9989.25
813.508	10034.25
813.762	10142.25
814.015	10121.25
814.269	10266.25
814.522	10260.25
814.776	10424.25
815.03	10560.25
815.283	10721.25
815.536	10900.25
815.79	11010.25
816.043	11154.25
816.296	11220.25
816.55	11502.25
816.803	11544.25
817.056	11767.25
817.309	11824.25
817.562	11929.25
817.815	12051.25
818.068	12034.25
818.321	12239.25
818.574	12345.25
818.827	12571.25
819.079	12655.25
819.332	13031.25
819.585	13100.25
819.838	13287.25
820.09	13203.25
820.343	13344.25
820.595	13273.25
820.848	13466.25
821.1	13511.25
821.353	13512.25
821.605	13448.25
821.857	13501.25
822.11	13408.25
822.362	13368.25
822.614	13364.25
822.866	13374.25
823.118	13387.25
823.37	13494.25
823.622	13525.25
823.874	13441.25
824.126	13576.25
824.378	13446.25
824.63	13564.25
824.882	13592.25
825.134	13592.25
825.385	13587.25
825.637	13462.25
825.888	13519.25
826.14	13474.25
826.392	13400.25
826.643	13354.25
826.895	13373.25
827.146	13168.25
827.397	13214.25
827.649	13250.25
827.9	13145.25
828.151	13147.25
828.402	13262.25
828.653	13312.25
828.905	13304.25
829.156	13306.25
829.407	13299.25
829.658	13348.25
829.909	13458.25
830.159	13484.25
830.41	13393.25
830.661	13264.25
830.912	13080.25
831.162	13087.25
831.413	13057.25
831.664	13127.25
831.914	13075.25
832.165	13010.25
832.415	13021.25
832.666	13087.25
832.916	13102.25
833.167	13031.25
833.417	13041.25
833.667	12937.25
833.917	12872.25
834.168	12976.25
834.418	12944.25
834.668	12855.25
834.918	12753.25
835.168	12727.25
835.418	12628.25
835.668	12732.25
835.918	12593.25
836.167	12509.25
836.417	12544.25
836.667	12585.25
836.917	12584.25
837.166	12544.25
837.416	12603.25
837.666	12636.25
837.915	12524.25
838.165	12482.25
838.414	12437.25
838.663	12502.25
838.913	12441.25
839.162	12346.25
839.411	12549.25
839.661	12343.25
839.91	12317.25
840.159	12383.25
840.408	12295.25
840.657	12363.25
840.906	12412.25
841.155	12417.25
841.404	12358.25
841.653	12399.25
841.902	12336.25
842.15	12552.25
842.399	12548.25
842.648	12424.25
842.897	12419.25
843.145	12265.25
843.394	12078.25
843.642	12101.25
843.891	12085.25
844.139	11968.25
844.388	11860.25
844.636	11834.25
844.884	11858.25
845.133	11830.25
845.381	11867.25
845.629	11766.25
845.877	11809.25
846.125	11788.25
846.373	11727.25
846.621	11604.25
846.869	11710.25
847.117	11579.25
847.365	11487.25
847.613	11510.25
847.861	11490.25
848.108	11482.25
848.356	11471.25
848.604	11422.25
848.851	11497.25
849.099	11487.25
849.346	11498.25
849.594	11590.25
849.841	11670.25
850.089	11688.25
850.336	11754.25
850.583	11865.25
850.831	11810.25
851.078	11764.25
851.325	11637.25
851.572	11657.25
851.819	11387.25
852.066	11170.25
852.313	11057.25
852.56	10978.25
852.807	10958.25
853.054	10834.25
853.301	10916.25
853.548	10917.25
853.794	11014.25
854.041	11042.25
854.288	11024.25
854.534	11199.25
854.781	11230.25
855.028	11060.25
855.274	11139.25
855.52	11071.25
855.767	11020.25
856.013	11113.25
856.26	11341.25
856.506	10908.25
856.752	10943.25
856.998	10934.25
857.244	10975.25
857.49	11048.25
857.736	11113.25
857.982	11023.25
858.228	11034.25
858.474	10826.25
858.72	10782.25
858.966	10736.25
859.212	10625.25
859.458	10468.25
859.703	10395.25
859.949	10268.25
860.195	10290.25
860.44	10155.25
860.686	10159.25
860.931	10178.25
861.177	10095.25
861.422	10122.25
861.667	9932.25
861.913	9929.25
862.158	9989.25
862.403	10033.25
862.648	10031.25
862.893	9957.25
863.138	10056.25
863.384	9925.25
863.629	9957.25
863.873	9958.25
864.118	9978.25
864.363	9871.25
864.608	9861.25
864.853	9843.25
865.098	9806.25
865.342	9806.25
865.587	9653.25
865.832	9764.25
866.076	9657.25
866.321	9609.25
866.565	9580.25
866.81	9482.25
867.054	9593.25
867.298	9550.25
867.543	9450.25
867.787	9466.25
868.031	9456.25
868.275	9477.25
868.519	9365.25
868.764	9472.25
869.008	9410.25
869.252	9382.25
869.496	9385.25
869.739	9442.25
869.983	9499.25
870.227	9474.25
870.471	9330.25
870.715	9484.25
870.958	9464.25
871.202	9456.25
871.446	9549.25
871.689	9462.25
871.933	9550.25
872.176	9541.25
872.42	9462.25
872.663	9460.25
872.906	9512.25
873.15	9527.25
873.393	9518.25
873.636	9549.25
873.879	9405.25
874.122	9235.25
874.366	9047.25
874.609	9035.25
874.852	8936.25
875.095	8919.25
875.337	8793.25
875.58	8738.25
875.823	8764.25
876.066	8686.25
876.309	8753.25
876.551	8638.25
876.794	8613.25
877.037	8598.25
877.279	8503.25
877.522	8496.25
877.764	8592.25
878.007	8564.25
878.249	8520.25
878.491	8465.25
878.734	8519.25
878.976	8468.25
879.218	8418.25
879.46	8446.25
879.702	8397.25
879.945	8270.25
880.187	8196.25
880.429	8238.25
880.671	8117.25
880.912	8101.25
881.154	8107.25
881.396	7984.25
881.638	8005.25
881.88	8069.25
882.121	7989.25
882.363	7989.25
882.605	8071.25
882.846	8019.25
883.088	8101.25
883.329	7962.25
883.571	8059.25
883.812	8219.25
884.053	8443.25
884.295	8661.25
884.536	8762.25
884.777	8618.25
885.018	8591.25
885.259	8479.25
885.5	8366.25
885.742	8627.25
885.982	8410.25
886.223	8249.25
886.464	8247.25
886.705	8094.25
886.946	8064.25
887.187	7838.25
887.428	7781.25
887.668	7613.25
887.909	7498.25
888.15	7394.25
888.39	7425.25
888.631	7429.25
888.871	7335.25
889.111	7269.25
889.352	7180.25
889.592	7098.25
889.833	7080.25
890.073	6992.25
890.313	7048.25
890.553	6875.25
890.793	6924.25
891.033	6842.25
891.273	6831.25
891.513	6831.25
891.753	6867.25
891.993	6791.25
892.233	6793.25
892.473	6922.25
892.713	6861.25
892.952	6774.25
893.192	6842.25
893.432	6821.25
893.671	6797.25
893.911	6760.25
894.15	6731.25
894.39	6659.25
894.629	6700.25
894.869	6634.25
895.108	6598.25
895.347	6599.25
895.587	6603.25
895.826	6570.25
896.065	6523.25
896.304	6607.25
896.543	6602.25
896.782	6498.25
897.021	6504.25
897.26	6482.25
897.499	6497.25
897.738	6507.25
897.977	6526.25
898.216	6446.25
898.454	6328.25
898.693	6316.25
898.932	6366.25
899.17	6313.25
899.409	6314.25
899.647	6257.25
899.886	6296.25
900.124	6319.25
900.363	6253.25
900.601	6350.25
900.839	6365.25
901.078	6375.25
901.316	6437.25
901.554	6447.25
901.792	6479.25
902.03	6488.25
902.268	6403.25
902.506	6435.25
902.744	6372.25
902.982	6326.25
903.22	6171.25
903.458	6113.25
903.695	6096.25
903.933	5910.25
904.171	5892.25
904.409	5753.25
904.646	5713.25
904.884	5623.25
905.121	5624.25
905.359	5545.25
905.596	5486.25
905.833	5360.25
906.071	5341.25
906.308	5365.25
906.545	5310.25
906.783	5286.25
907.02	5312.25
907.257	5234.25
907.494	5259.25
907.731	5221.25
907.968	5241.25
908.205	5120.25
908.442	5144.25
908.679	5098.25
908.915	5113.25
909.152	5061.25
909.389	4918.25
909.626	4980.25
909.862	4892.25
910.099	4910.25
910.335	4942.25
910.572	4778.25
910.808	4860.25
911.045	4836.25
911.281	4801.25
911.518	4838.25
911.754	4732.25
911.99	4740.25
912.226	4711.25
912.463	4619.25
912.699	4594.25
912.935	4574.25
913.171	4570.25
913.407	4485.25
913.643	4524.25
913.879	4486.25
914.114	4429.25
914.35	4386.25
914.586	4329.25
914.822	4246.25
915.057	4377.25
915.293	4231.25
915.529	4155.25
915.764	4320.25
916	4244.25
916.235	4219.25
916.471	4219.25
916.706	4147.25
916.941	4168.25
917.177	4158.25
917.412	4151.25
917.647	4227.25
917.882	4148.25
918.117	4215.25
918.352	4153.25
918.588	4176.25
918.823	4067.25
919.057	4082.25
919.292	3942.25
919.527	4033.25
919.762	3955.25
919.997	3948.25
920.232	3908.25
920.466	3879.25
920.701	3749.25
920.935	3793.25
921.17	3781.25
921.405	3732.25
921.639	3790.25
921.873	3748.25
922.108	3760.25
922.342	3759.25
922.576	3690.25
922.811	3680.25
923.045	3699.25
923.279	3699.25
923.513	3550.25
923.747	3667.25
923.981	3667.25
924.215	3569.25
924.449	3535.25
924.683	3473.25
924.917	3481.25
925.151	3477.25
925.385	3596.25
925.618	3508.25
925.852	3484.25
926.086	3431.25
926.319	3469.25
926.553	3499.25
926.786	3480.25
927.02	3473.25
927.253	3475.25
927.486	3520.25
927.72	3406.25
927.953	3419.25
928.186	3396.25
928.42	3433.25
928.653	3339.25
928.886	3321.25
929.119	3398.25
929.352	3365.25
929.585	3333.25
929.818	3239.25
930.051	3302.25
930.284	3325.25
930.516	3182.25
930.749	3199.25
930.982	3232.25
931.215	3187.25
931.447	3126.25
931.68	3161.25
931.912	3175.25
932.145	3123.25
932.377	3191.25
932.61	3255.25
932.842	3069.25
933.074	3153.25
933.307	3091.25
933.539	3210.25
933.771	3199.25
934.003	3103.25
934.236	3197.25
934.468	3154.25
934.7	3098.25
934.932	3134.25
935.164	3064.25
935.395	3060.25
935.627	3082.25
935.859	3056.25
936.091	3037.25
936.323	3065.25
936.554	3094.25
936.786	3017.25
937.017	3011.25
937.249	3005.25
937.481	2974.25
937.712	3051.25
937.943	3057.25
938.175	2984.25
938.406	2972.25
938.637	3026.25
938.869	2927.25
939.1	3021.25
939.331	2947.25
939.562	3016.25
939.793	2959.25
940.024	3007.25
940.255	2976.25
940.486	2909.25
940.717	2895.25
940.948	2910.25
941.179	2878.25
941.409	2828.25
941.64	2879.25
941.871	2894.25
942.102	2836.25
942.332	2837.25
942.563	2864.25
942.793	2860.25
943.024	2827.25
943.254	2839.25
943.484	2894.25
943.715	2888.25
943.945	2910.25
944.175	2764.25
944.405	2776.25
944.636	2790.25
944.866	2818.25
945.096	2830.25
945.326	2777.25
945.556	2831.25
945.786	2822.25
946.016	2767.25
946.245	2700.25
946.475	2758.25
946.705	2694.25
946.935	2716.25
947.164	2708.25
947.394	2663.25
947.624	2707.25
947.853	2735.25
948.083	2633.25
948.312	2609.25
948.542	2570.25
948.771	2541.25
949	2595.25
949.23	2587.25
949.459	2611.25
949.688	2659.25
949.917	2579.25
950.146	2590.25
950.375	2648.25
950.604	2532.25
950.833	2615.25
951.062	2628.25
951.291	2568.25
951.52	2529.25
951.749	2537.25
951.978	2507.25
952.206	2531.25
952.435	2476.25
952.664	2572.25
952.892	2523.25
953.121	2512.25
953.349	2562.25
953.578	2546.25
953.806	2496.25
954.035	2411.25
954.263	2455.25
954.491	2423.25
954.719	2471.25
954.948	2423.25
955.176	2408.25
955.404	2304.25
955.632	2393.25
955.86	2391.25
956.088	2383.25
956.316	2406.25
956.544	2433.25
956.772	2356.25
956.999	2297.25
957.227	2400.25
957.455	2282.25
957.683	2316.25
957.91	2283.25
958.138	2264.25
958.365	2273.25
958.593	2254.25
958.82	2196.25
959.048	2271.25
959.275	2225.25
959.502	2207.25
959.73	2194.25
959.957	2236.25
960.184	2247.25
960.411	2205.25
960.638	2284.25
960.865	2217.25
961.092	2232.25
961.319	2173.25
961.546	2234.25
961.773	2240.25
962	2185.25
962.227	2264.25
962.454	2201.25
962.68	2167.25
962.907	2193.25
963.134	2130.25
963.36	2203.25
963.587	2210.25
963.813	2109.25
964.04	2148.25
964.266	2087.25
964.493	2153.25
964.719	2128.25
964.945	2165.25
965.171	2033.25
965.398	2073.25
965.624	2098.25
965.85	2024.25
966.076	2043.25
966.302	2078.25
966.528	2044.25
966.754	2036.25
966.98	2051.25
967.206	2031.25
967.431	1982.25
967.657	2045.25
967.883	2054.25
968.109	1998.25
968.334	1969.25
968.56	1975.25
968.785	1975.25
969.011	1929.25
969.236	2005.25
969.462	1915.25
969.687	1915.25
969.912	2024.25
970.138	1967.25
970.363	1943.25
970.588	1933.25
970.813	1926.25
971.038	1913.25
971.263	1913.25
971.488	1928.25
971.713	1965.25
971.938	1902.25
972.163	1837.25
972.388	1871.25
972.613	1846.25
972.838	1895.25
973.062	1865.25
973.287	1830.25
973.512	1773.25
973.736	1831.25
973.961	1814.25
974.185	1803.25
974.41	1830.25
974.634	1733.25
974.858	1739.25
975.083	1803.25
975.307	1814.25
975.531	1752.25
975.755	1709.25
975.98	1714.25
976.204	1662.25
976.428	1667.25
976.652	1648.25
976.876	1657.25
977.1	1692.25
977.324	1641.25
977.547	1693.25
977.771	1682.25
977.995	1634.25
978.219	1610.25
978.442	1761.25
978.666	1694.25
978.89	1648.25
979.113	1644.25
979.337	1638.25
979.56	1601.25
979.783	1682.25
980.007	1610.25
980.23	1629.25
980.453	1628.25
980.677	1621.25
980.9	1623.25
981.123	1516.25
981.346	1622.25
981.569	1610.25
981.792	1625.25
982.015	1571.25
982.238	1574.25
982.461	1588.25
982.684	1534.25
982.907	1550.25
983.129	1525.25
983.352	1564.25
983.575	1546.25
983.797	1590.25
984.02	1511.25
984.242	1534.25
984.465	1519.25
984.687	1574.25
984.91	1545.25
985.132	1545.25
985.354	1542.25
985.577	1521.25
985.799	1518.25
986.021	1426.25
986.243	1475.25
986.465	1447.25
986.687	1547.25
986.909	1557.25
987.131	1505.25
987.353	1459.25
987.575	1484.25
987.797	1449.25
988.019	1387.25
988.241	1432.25
988.462	1429.25
988.684	1498.25
988.906	1514.25
989.127	1540.25
989.349	1399.25
989.57	1452.25
989.792	1456.25
990.013	1460.25
990.234	1470.25
990.456	1519.25
990.677	1499.25
990.898	1440.25
991.119	1436.25
991.341	1483.25
991.562	1397.25
991.783	1437.25
992.004	1339.25
992.225	1349.25
992.446	1424.25
992.667	1315.25
992.887	1446.25
993.108	1305.25
993.329	1441.25
993.55	1403.25
993.77	1330.25
993.991	1333.25
994.212	1386.25
994.432	1356.25
994.653	1374.25
994.873	1352.25
995.093	1258.25
995.314	1320.25
995.534	1349.25
995.754	1388.25
995.975	1407.25
996.195	1310.25
996.415	1370.25
996.635	1345.25
996.855	1360.25
997.075	1325.25
997.295	1313.25
997.515	1315.25
997.735	1368.25
997.955	1317.25
998.174	1339.25
998.394	1305.25
998.614	1340.25
998.834	1303.25
999.053	1362.25
999.273	1329.25
999.492	1385.25
999.712	1309.25
999.931	1293.25
1000.151	1364.25
1000.37	1335.25
1000.589	1351.25
1000.809	1279.25
1001.028	1418.25
1001.247	1339.25
1001.466	1232.25
1001.685	1359.25
1001.904	1317.25
1002.123	1295.25
1002.342	1325.25
1002.561	1254.25
1002.78	1305.25
1002.999	1334.25
1003.218	1305.25
1003.436	1277.25
1003.655	1333.25
1003.874	1243.25
1004.092	1286.25
1004.311	1322.25
1004.53	1289.25
1004.748	1356.25
1004.966	1298.25
1005.185	1326.25
1005.403	1309.25
1005.622	1310.25
1005.84	1367.25
1006.058	1291.25
1006.276	1315.25
1006.494	1813.25
1006.712	1290.25
1006.931	1349.25
1007.149	1298.25
1007.367	1281.25
1007.584	1349.25
1007.802	1374.25
1008.02	1314.25
1008.238	1392.25
1008.456	1388.25
1008.673	1265.25
1008.891	1396.25
1009.109	1371.25
1009.326	1391.25
1009.544	1503.25
1009.761	1417.25
1009.979	1493.25
1010.196	1529.25
1010.413	1637.25
1010.631	1679.25
1010.848	1715.25
1011.065	1713.25
1011.282	1636.25
1011.5	1589.25
1011.717	1695.25
1011.934	1638.25
1012.151	1706.25
1012.368	1662.25
1012.585	1590.25
1012.801	1667.25
1013.018	1623.25
1013.235	1597.25
1013.452	1648.25
1013.669	1652.25
1013.885	1632.25
1014.102	1642.25
1014.318	1664.25
1014.535	1567.25
1014.751	1614.25
1014.968	1607.25
1015.184	1629.25
1015.401	1525.25
1015.617	1549.25
1015.833	1495.25
1016.049	1513.25
1016.266	1489.25
1016.482	1486.25
1016.698	1435.25
1016.914	1475.25
1017.13	1405.25
1017.346	1413.25
1017.562	1487.25
1017.778	1416.25
1017.993	1392.25
1018.209	1455.25
1018.425	1420.25
1018.641	1357.25
1018.856	1345.25
1019.072	1375.25
1019.288	1436.25
1019.503	1363.25
1019.719	1297.25
1019.934	1309.25
1020.149	1369.25
1020.365	1317.25
1020.58	1277.25
1020.795	1291.25
1021.011	1241.25
1021.226	1209.25
1021.441	1259.25
1021.656	1182.25
1021.871	1086.25
1022.086	1128.25
1022.301	1102.25
1022.516	1105.25
1022.731	1157.25
1022.946	1079.25
1023.16	1049.25
1023.375	1035.25
1023.59	1002.25
1023.804	977.25
1024.019	1065.25
1024.234	927.25
1024.448	971.25
1024.663	907.25
1024.877	913.25
1025.092	956.25
1025.306	956.25
1025.52	848.25
1025.734	932.25
1025.949	844.25
1026.163	845.25
1026.377	779.25
1026.591	836.25
1026.805	766.25
1027.019	753.25
1027.233	724.25
1027.447	687.25
1027.661	775.25
1027.875	712.25
1028.088	721.25
1028.302	671.25
1028.516	660.25
1028.73	636.25
1028.943	652.25
1029.157	597.25
1029.37	570.25
1029.584	-2.75
1029.797	-0.75
1030.011	-0.75
1030.224	-2.75
