Data from QEP037381__84__11-34-55-596.txt Node

Date: Wed Dec 21 11:34:55 EST 2022
User: dcclab
Spectrometer: QEP03738
Trigger mode: 4
Integration Time (sec): 1.000000E1
Scans to average: 1
Electric dark correction enabled: true
Nonlinearity correction enabled: false
Boxcar width: 0
XAxis mode: Wavelengths
Number of Pixels in Spectrum: 1044
>>>>>Begin Spectral Data<<<<<
784.041	15.25
784.3	2.25
784.558	-0.75
784.817	-6.75
785.075	41317.25
785.334	8393.25
785.592	4353.25
785.851	3065.25
786.109	2376.25
786.368	1872.25
786.626	1533.25
786.884	1300.25
787.143	1123.25
787.401	906.25
787.659	869.25
787.917	755.25
788.175	719.25
788.433	633.25
788.691	584.25
788.949	559.25
789.207	558.25
789.465	480.25
789.723	473.25
789.98	444.25
790.238	490.25
790.496	450.25
790.753	442.25
791.011	490.25
791.268	434.25
791.526	433.25
791.783	451.25
792.041	432.25
792.298	351.25
792.556	422.25
792.813	390.25
793.07	372.25
793.327	371.25
793.584	441.25
793.841	374.25
794.099	393.25
794.356	455.25
794.613	350.25
794.869	392.25
795.126	370.25
795.383	346.25
795.64	375.25
795.897	324.25
796.153	395.25
796.41	358.25
796.667	342.25
796.923	359.25
797.18	358.25
797.436	377.25
797.693	348.25
797.949	397.25
798.206	437.25
798.462	330.25
798.718	400.25
798.974	349.25
799.231	413.25
799.487	381.25
799.743	400.25
799.999	421.25
800.255	394.25
800.511	390.25
800.767	418.25
801.023	395.25
801.279	411.25
801.534	428.25
801.79	454.25
802.046	454.25
802.302	530.25
802.557	555.25
802.813	634.25
803.068	709.25
803.324	921.25
803.579	1153.25
803.835	1509.25
804.09	2012.25
804.345	2582.25
804.601	3145.25
804.856	3815.25
805.111	4399.25
805.366	4765.25
805.621	5122.25
805.876	5300.25
806.131	5458.25
806.386	5535.25
806.641	5595.25
806.896	5690.25
807.151	5857.25
807.406	5907.25
807.661	6066.25
807.915	6123.25
808.17	6210.25
808.425	6258.25
808.679	6280.25
808.934	6410.25
809.188	6411.25
809.443	6543.25
809.697	6588.25
809.951	6628.25
810.206	6650.25
810.46	6787.25
810.714	6848.25
810.968	6828.25
811.223	6935.25
811.477	6918.25
811.731	7017.25
811.985	6976.25
812.239	7013.25
812.493	7014.25
812.747	7076.25
813	7078.25
813.254	7137.25
813.508	7172.25
813.762	7173.25
814.015	7262.25
814.269	7260.25
814.522	7354.25
814.776	7360.25
815.03	7465.25
815.283	7514.25
815.536	7711.25
815.79	7720.25
816.043	7879.25
816.296	8002.25
816.55	8078.25
816.803	8100.25
817.056	8354.25
817.309	8352.25
817.562	8428.25
817.815	8579.25
818.068	8510.25
818.321	8597.25
818.574	8636.25
818.827	8909.25
819.079	8909.25
819.332	9199.25
819.585	9165.25
819.838	9359.25
820.09	9306.25
820.343	9436.25
820.595	9341.25
820.848	9331.25
821.1	9432.25
821.353	9424.25
821.605	9367.25
821.857	9456.25
822.11	9312.25
822.362	9304.25
822.614	9340.25
822.866	9400.25
823.118	9300.25
823.37	9407.25
823.622	9333.25
823.874	9399.25
824.126	9404.25
824.378	9316.25
824.63	9438.25
824.882	9476.25
825.134	9438.25
825.385	9406.25
825.637	9385.25
825.888	9300.25
826.14	9276.25
826.392	9178.25
826.643	9175.25
826.895	9222.25
827.146	9067.25
827.397	9057.25
827.649	9080.25
827.9	9063.25
828.151	9025.25
828.402	9098.25
828.653	9136.25
828.905	9187.25
829.156	9190.25
829.407	9102.25
829.658	9163.25
829.909	9284.25
830.159	9237.25
830.41	9186.25
830.661	9127.25
830.912	9046.25
831.162	9004.25
831.413	8986.25
831.664	9027.25
831.914	8962.25
832.165	8946.25
832.415	8936.25
832.666	8998.25
832.916	8986.25
833.167	8955.25
833.417	9011.25
833.667	8948.25
833.917	8828.25
834.168	8933.25
834.418	8890.25
834.668	8815.25
834.918	8749.25
835.168	8735.25
835.418	8596.25
835.668	8683.25
835.918	8678.25
836.167	8676.25
836.417	8623.25
836.667	8655.25
836.917	8622.25
837.166	8549.25
837.416	8649.25
837.666	8607.25
837.915	8573.25
838.165	8598.25
838.414	8498.25
838.663	8495.25
838.913	8553.25
839.162	8475.25
839.411	8554.25
839.661	8455.25
839.91	8461.25
840.159	8474.25
840.408	8494.25
840.657	8455.25
840.906	8502.25
841.155	8548.25
841.404	8457.25
841.653	8525.25
841.902	8507.25
842.15	8549.25
842.399	8556.25
842.648	8577.25
842.897	8507.25
843.145	8415.25
843.394	8334.25
843.642	8241.25
843.891	8282.25
844.139	8149.25
844.388	8075.25
844.636	7974.25
844.884	8052.25
845.133	7947.25
845.381	8036.25
845.629	8074.25
845.877	7984.25
846.125	7950.25
846.373	8020.25
846.621	7898.25
846.869	7996.25
847.117	7868.25
847.365	7857.25
847.613	7791.25
847.861	7848.25
848.108	7871.25
848.356	7806.25
848.604	7781.25
848.851	7803.25
849.099	7856.25
849.346	7779.25
849.594	7864.25
849.841	7969.25
850.089	8058.25
850.336	8173.25
850.583	8199.25
850.831	8105.25
851.078	8061.25
851.325	7991.25
851.572	7994.25
851.819	7845.25
852.066	7691.25
852.313	7466.25
852.56	7405.25
852.807	7399.25
853.054	7454.25
853.301	7429.25
853.548	7423.25
853.794	7534.25
854.041	7520.25
854.288	7528.25
854.534	7564.25
854.781	7571.25
855.028	7561.25
855.274	7589.25
855.52	7522.25
855.767	7557.25
856.013	7624.25
856.26	7853.25
856.506	7480.25
856.752	7505.25
856.998	7455.25
857.244	7477.25
857.49	7539.25
857.736	7576.25
857.982	7619.25
858.228	7466.25
858.474	7366.25
858.72	7294.25
858.966	7339.25
859.212	7163.25
859.458	7124.25
859.703	7051.25
859.949	6920.25
860.195	6981.25
860.44	6945.25
860.686	6849.25
860.931	6939.25
861.177	6841.25
861.422	6740.25
861.667	6704.25
861.913	6702.25
862.158	6682.25
862.403	6760.25
862.648	6760.25
862.893	6827.25
863.138	6778.25
863.384	6719.25
863.629	6683.25
863.873	6691.25
864.118	6694.25
864.363	6662.25
864.608	6659.25
864.853	6655.25
865.098	6600.25
865.342	6538.25
865.587	6496.25
865.832	6557.25
866.076	6575.25
866.321	6489.25
866.565	6467.25
866.81	6408.25
867.054	6421.25
867.298	6441.25
867.543	6399.25
867.787	6489.25
868.031	6425.25
868.275	6385.25
868.519	6409.25
868.764	6433.25
869.008	6423.25
869.252	6390.25
869.496	6420.25
869.739	6429.25
869.983	6460.25
870.227	6398.25
870.471	6405.25
870.715	6516.25
870.958	6475.25
871.202	6494.25
871.446	6523.25
871.689	6486.25
871.933	6513.25
872.176	6543.25
872.42	6464.25
872.663	6427.25
872.906	6549.25
873.15	6511.25
873.393	6453.25
873.636	6634.25
873.879	6493.25
874.122	6410.25
874.366	6293.25
874.609	6225.25
874.852	6117.25
875.095	6069.25
875.337	5979.25
875.58	5976.25
875.823	6017.25
876.066	6002.25
876.309	5983.25
876.551	5881.25
876.794	5844.25
877.037	5903.25
877.279	5775.25
877.522	5807.25
877.764	5834.25
878.007	5804.25
878.249	5800.25
878.491	5780.25
878.734	5829.25
878.976	5763.25
879.218	5628.25
879.46	5696.25
879.702	5637.25
879.945	5561.25
880.187	5557.25
880.429	5469.25
880.671	5441.25
880.912	5484.25
881.154	5475.25
881.396	5353.25
881.638	5425.25
881.88	5458.25
882.121	5349.25
882.363	5450.25
882.605	5503.25
882.846	5395.25
883.088	5488.25
883.329	5491.25
883.571	5530.25
883.812	5664.25
884.053	5832.25
884.295	6055.25
884.536	6154.25
884.777	6040.25
885.018	6024.25
885.259	5927.25
885.5	5844.25
885.742	6026.25
885.982	5828.25
886.223	5714.25
886.464	5694.25
886.705	5613.25
886.946	5538.25
887.187	5304.25
887.428	5356.25
887.668	5168.25
887.909	5076.25
888.15	5016.25
888.39	5037.25
888.631	5001.25
888.871	4949.25
889.111	4898.25
889.352	4858.25
889.592	4824.25
889.833	4749.25
890.073	4765.25
890.313	4786.25
890.553	4637.25
890.793	4596.25
891.033	4622.25
891.273	4547.25
891.513	4585.25
891.753	4662.25
891.993	4603.25
892.233	4591.25
892.473	4676.25
892.713	4669.25
892.952	4623.25
893.192	4662.25
893.432	4579.25
893.671	4638.25
893.911	4547.25
894.15	4570.25
894.39	4511.25
894.629	4544.25
894.869	4513.25
895.108	4446.25
895.347	4439.25
895.587	4482.25
895.826	4409.25
896.065	4437.25
896.304	4467.25
896.543	4464.25
896.782	4424.25
897.021	4465.25
897.26	4462.25
897.499	4507.25
897.738	4576.25
897.977	4430.25
898.216	4442.25
898.454	4393.25
898.693	4360.25
898.932	4375.25
899.17	4384.25
899.409	4369.25
899.647	4334.25
899.886	4300.25
900.124	4399.25
900.363	4352.25
900.601	4407.25
900.839	4439.25
901.078	4451.25
901.316	4537.25
901.554	4522.25
901.792	4529.25
902.03	4537.25
902.268	4553.25
902.506	4576.25
902.744	4530.25
902.982	4480.25
903.22	4331.25
903.458	4314.25
903.695	4209.25
903.933	4133.25
904.171	3991.25
904.409	3977.25
904.646	3899.25
904.884	3851.25
905.121	3843.25
905.359	3764.25
905.596	3766.25
905.833	3637.25
906.071	3638.25
906.308	3671.25
906.545	3630.25
906.783	3535.25
907.02	3596.25
907.257	3492.25
907.494	3504.25
907.731	3532.25
907.968	3564.25
908.205	3460.25
908.442	3459.25
908.679	3467.25
908.915	3447.25
909.152	3427.25
909.389	3335.25
909.626	3330.25
909.862	3300.25
910.099	3314.25
910.335	3285.25
910.572	3199.25
910.808	3254.25
911.045	3233.25
911.281	3192.25
911.518	3262.25
911.754	3192.25
911.99	3206.25
912.226	3166.25
912.463	3127.25
912.699	3126.25
912.935	3098.25
913.171	3029.25
913.407	3017.25
913.643	3074.25
913.879	2983.25
914.114	2975.25
914.35	2937.25
914.586	2950.25
914.822	2899.25
915.057	2981.25
915.293	2835.25
915.529	2811.25
915.764	2916.25
916	2846.25
916.235	2883.25
916.471	2889.25
916.706	2801.25
916.941	2805.25
917.177	2808.25
917.412	2843.25
917.647	2869.25
917.882	2776.25
918.117	2852.25
918.352	2785.25
918.588	2838.25
918.823	2728.25
919.057	2764.25
919.292	2679.25
919.527	2798.25
919.762	2675.25
919.997	2703.25
920.232	2643.25
920.466	2632.25
920.701	2537.25
920.935	2565.25
921.17	2581.25
921.405	2544.25
921.639	2582.25
921.873	2509.25
922.108	2551.25
922.342	2518.25
922.576	2464.25
922.811	2501.25
923.045	2531.25
923.279	2526.25
923.513	2409.25
923.747	2504.25
923.981	2463.25
924.215	2417.25
924.449	2405.25
924.683	2368.25
924.917	2382.25
925.151	2368.25
925.385	2453.25
925.618	2387.25
925.852	2369.25
926.086	2310.25
926.319	2398.25
926.553	2358.25
926.786	2387.25
927.02	2341.25
927.253	2423.25
927.486	2380.25
927.72	2326.25
927.953	2380.25
928.186	2331.25
928.42	2379.25
928.653	2305.25
928.886	2295.25
929.119	2346.25
929.352	2296.25
929.585	2319.25
929.818	2256.25
930.051	2271.25
930.284	2291.25
930.516	2174.25
930.749	2217.25
930.982	2228.25
931.215	2203.25
931.447	2135.25
931.68	2197.25
931.912	2169.25
932.145	2166.25
932.377	2191.25
932.61	2292.25
932.842	2128.25
933.074	2171.25
933.307	2124.25
933.539	2244.25
933.771	2212.25
934.003	2123.25
934.236	2259.25
934.468	2188.25
934.7	2151.25
934.932	2200.25
935.164	2138.25
935.395	2134.25
935.627	2175.25
935.859	2143.25
936.091	2132.25
936.323	2151.25
936.554	2175.25
936.786	2112.25
937.017	2091.25
937.249	2107.25
937.481	2024.25
937.712	2110.25
937.943	2078.25
938.175	2076.25
938.406	2076.25
938.637	2136.25
938.869	2021.25
939.1	2099.25
939.331	2043.25
939.562	2083.25
939.793	2117.25
940.024	2093.25
940.255	2132.25
940.486	1996.25
940.717	2046.25
940.948	1996.25
941.179	1995.25
941.409	2000.25
941.64	1997.25
941.871	2002.25
942.102	1971.25
942.332	1986.25
942.563	2014.25
942.793	2015.25
943.024	1955.25
943.254	2012.25
943.484	2016.25
943.715	2039.25
943.945	1987.25
944.175	1952.25
944.405	1908.25
944.636	1968.25
944.866	1989.25
945.096	1980.25
945.326	1920.25
945.556	1965.25
945.786	1981.25
946.016	1944.25
946.245	1864.25
946.475	1897.25
946.705	1926.25
946.935	1905.25
947.164	1886.25
947.394	1867.25
947.624	1886.25
947.853	1900.25
948.083	1878.25
948.312	1838.25
948.542	1773.25
948.771	1766.25
949	1813.25
949.23	1814.25
949.459	1866.25
949.688	1893.25
949.917	1827.25
950.146	1834.25
950.375	1925.25
950.604	1781.25
950.833	1848.25
951.062	1880.25
951.291	1815.25
951.52	1804.25
951.749	1806.25
951.978	1765.25
952.206	1754.25
952.435	1788.25
952.664	1807.25
952.892	1818.25
953.121	1781.25
953.349	1814.25
953.578	1812.25
953.806	1763.25
954.035	1731.25
954.263	1735.25
954.491	1675.25
954.719	1741.25
954.948	1694.25
955.176	1671.25
955.404	1655.25
955.632	1693.25
955.86	1709.25
956.088	1682.25
956.316	1692.25
956.544	1717.25
956.772	1652.25
956.999	1642.25
957.227	1708.25
957.455	1635.25
957.683	1640.25
957.91	1594.25
958.138	1576.25
958.365	1611.25
958.593	1597.25
958.82	1555.25
959.048	1647.25
959.275	1635.25
959.502	1618.25
959.73	1584.25
959.957	1620.25
960.184	1636.25
960.411	1547.25
960.638	1638.25
960.865	1609.25
961.092	1577.25
961.319	1521.25
961.546	1584.25
961.773	1610.25
962	1583.25
962.227	1625.25
962.454	1557.25
962.68	1583.25
962.907	1583.25
963.134	1514.25
963.36	1556.25
963.587	1592.25
963.813	1490.25
964.04	1577.25
964.266	1499.25
964.493	1588.25
964.719	1530.25
964.945	1568.25
965.171	1494.25
965.398	1504.25
965.624	1537.25
965.85	1475.25
966.076	1468.25
966.302	1528.25
966.528	1476.25
966.754	1499.25
966.98	1510.25
967.206	1488.25
967.431	1415.25
967.657	1508.25
967.883	1489.25
968.109	1488.25
968.334	1419.25
968.56	1430.25
968.785	1437.25
969.011	1398.25
969.236	1491.25
969.462	1428.25
969.687	1409.25
969.912	1457.25
970.138	1462.25
970.363	1416.25
970.588	1430.25
970.813	1409.25
971.038	1385.25
971.263	1433.25
971.488	1444.25
971.713	1426.25
971.938	1432.25
972.163	1352.25
972.388	1375.25
972.613	1354.25
972.838	1378.25
973.062	1364.25
973.287	1368.25
973.512	1308.25
973.736	1356.25
973.961	1342.25
974.185	1312.25
974.41	1375.25
974.634	1263.25
974.858	1295.25
975.083	1311.25
975.307	1334.25
975.531	1290.25
975.755	1233.25
975.98	1262.25
976.204	1233.25
976.428	1232.25
976.652	1224.25
976.876	1214.25
977.1	1256.25
977.324	1227.25
977.547	1279.25
977.771	1284.25
977.995	1257.25
978.219	1199.25
978.442	1313.25
978.666	1226.25
978.89	1257.25
979.113	1237.25
979.337	1240.25
979.56	1193.25
979.783	1292.25
980.007	1187.25
980.23	1202.25
980.453	1208.25
980.677	1234.25
980.9	1220.25
981.123	1141.25
981.346	1208.25
981.569	1206.25
981.792	1221.25
982.015	1178.25
982.238	1156.25
982.461	1190.25
982.684	1152.25
982.907	1136.25
983.129	1135.25
983.352	1207.25
983.575	1176.25
983.797	1179.25
984.02	1147.25
984.242	1126.25
984.465	1143.25
984.687	1185.25
984.91	1194.25
985.132	1185.25
985.354	1236.25
985.577	1155.25
985.799	1148.25
986.021	1088.25
986.243	1143.25
986.465	1130.25
986.687	1171.25
986.909	1209.25
987.131	1144.25
987.353	1118.25
987.575	1184.25
987.797	1141.25
988.019	1082.25
988.241	1140.25
988.462	1078.25
988.684	1139.25
988.906	1177.25
989.127	1212.25
989.349	1078.25
989.57	1117.25
989.792	1151.25
990.013	1168.25
990.234	1190.25
990.456	1199.25
990.677	1184.25
990.898	1124.25
991.119	1119.25
991.341	1178.25
991.562	1097.25
991.783	1151.25
992.004	1085.25
992.225	1058.25
992.446	1120.25
992.667	1019.25
992.887	1132.25
993.108	1020.25
993.329	1145.25
993.55	1131.25
993.77	1054.25
993.991	1064.25
994.212	1100.25
994.432	1081.25
994.653	1096.25
994.873	1092.25
995.093	985.25
995.314	1060.25
995.534	1108.25
995.754	1129.25
995.975	1154.25
996.195	1036.25
996.415	1119.25
996.635	1075.25
996.855	1106.25
997.075	1070.25
997.295	1054.25
997.515	1043.25
997.735	1117.25
997.955	1071.25
998.174	1056.25
998.394	1037.25
998.614	1101.25
998.834	1042.25
999.053	1108.25
999.273	1086.25
999.492	1122.25
999.712	1072.25
999.931	1034.25
1000.151	1084.25
1000.37	1061.25
1000.589	1136.25
1000.809	1061.25
1001.028	1158.25
1001.247	1113.25
1001.466	1014.25
1001.685	1150.25
1001.904	1090.25
1002.123	1073.25
1002.342	1080.25
1002.561	1057.25
1002.78	1084.25
1002.999	1160.25
1003.218	1105.25
1003.436	1066.25
1003.655	1126.25
1003.874	1050.25
1004.092	1090.25
1004.311	1132.25
1004.53	1095.25
1004.748	1159.25
1004.966	1092.25
1005.185	1119.25
1005.403	1134.25
1005.622	1109.25
1005.84	1186.25
1006.058	1083.25
1006.276	1130.25
1006.494	1631.25
1006.712	1130.25
1006.931	1183.25
1007.149	1083.25
1007.367	1106.25
1007.584	1142.25
1007.802	1154.25
1008.02	1128.25
1008.238	1198.25
1008.456	1226.25
1008.673	1102.25
1008.891	1203.25
1009.109	1166.25
1009.326	1214.25
1009.544	1299.25
1009.761	1226.25
1009.979	1330.25
1010.196	1347.25
1010.413	1424.25
1010.631	1495.25
1010.848	1502.25
1011.065	1503.25
1011.282	1452.25
1011.5	1397.25
1011.717	1517.25
1011.934	1467.25
1012.151	1503.25
1012.368	1503.25
1012.585	1433.25
1012.801	1488.25
1013.018	1447.25
1013.235	1436.25
1013.452	1437.25
1013.669	1466.25
1013.885	1450.25
1014.102	1520.25
1014.318	1465.25
1014.535	1395.25
1014.751	1442.25
1014.968	1442.25
1015.184	1472.25
1015.401	1374.25
1015.617	1422.25
1015.833	1364.25
1016.049	1367.25
1016.266	1319.25
1016.482	1365.25
1016.698	1305.25
1016.914	1336.25
1017.13	1292.25
1017.346	1285.25
1017.562	1359.25
1017.778	1307.25
1017.993	1273.25
1018.209	1302.25
1018.425	1288.25
1018.641	1261.25
1018.856	1239.25
1019.072	1256.25
1019.288	1275.25
1019.503	1269.25
1019.719	1167.25
1019.934	1204.25
1020.149	1267.25
1020.365	1219.25
1020.58	1157.25
1020.795	1200.25
1021.011	1117.25
1021.226	1129.25
1021.441	1143.25
1021.656	1071.25
1021.871	1006.25
1022.086	1001.25
1022.301	1003.25
1022.516	991.25
1022.731	1063.25
1022.946	956.25
1023.16	964.25
1023.375	942.25
1023.59	918.25
1023.804	885.25
1024.019	981.25
1024.234	848.25
1024.448	913.25
1024.663	819.25
1024.877	849.25
1025.092	838.25
1025.306	872.25
1025.52	770.25
1025.734	857.25
1025.949	793.25
1026.163	779.25
1026.377	712.25
1026.591	753.25
1026.805	704.25
1027.019	699.25
1027.233	665.25
1027.447	608.25
1027.661	716.25
1027.875	659.25
1028.088	654.25
1028.302	614.25
1028.516	594.25
1028.73	597.25
1028.943	583.25
1029.157	552.25
1029.37	517.25
1029.584	0.25
1029.797	-5.75
1030.011	-3.75
1030.224	-0.75
