Data from QEP037381__107__11-38-45-597.txt Node

Date: Wed Dec 21 11:38:45 EST 2022
User: dcclab
Spectrometer: QEP03738
Trigger mode: 4
Integration Time (sec): 1.000000E1
Scans to average: 1
Electric dark correction enabled: true
Nonlinearity correction enabled: false
Boxcar width: 0
XAxis mode: Wavelengths
Number of Pixels in Spectrum: 1044
>>>>>Begin Spectral Data<<<<<
784.041	14.12
784.3	0.12
784.558	-1.88
784.817	-2.88
785.075	40477.12
785.334	8142.12
785.592	4303.12
785.851	3067.12
786.109	2334.12
786.368	1857.12
786.626	1524.12
786.884	1270.12
787.143	1114.12
787.401	939.12
787.659	881.12
787.917	742.12
788.175	723.12
788.433	636.12
788.691	580.12
788.949	566.12
789.207	552.12
789.465	487.12
789.723	471.12
789.98	443.12
790.238	484.12
790.496	462.12
790.753	439.12
791.011	497.12
791.268	441.12
791.526	432.12
791.783	448.12
792.041	434.12
792.298	353.12
792.556	427.12
792.813	412.12
793.07	389.12
793.327	373.12
793.584	457.12
793.841	388.12
794.099	406.12
794.356	463.12
794.613	350.12
794.869	409.12
795.126	373.12
795.383	352.12
795.64	371.12
795.897	340.12
796.153	392.12
796.41	375.12
796.667	374.12
796.923	363.12
797.18	362.12
797.436	387.12
797.693	362.12
797.949	393.12
798.206	419.12
798.462	335.12
798.718	405.12
798.974	367.12
799.231	402.12
799.487	389.12
799.743	388.12
799.999	426.12
800.255	412.12
800.511	399.12
800.767	438.12
801.023	407.12
801.279	418.12
801.534	454.12
801.79	481.12
802.046	466.12
802.302	550.12
802.557	587.12
802.813	692.12
803.068	760.12
803.324	1014.12
803.579	1282.12
803.835	1692.12
804.09	2270.12
804.345	2884.12
804.601	3607.12
804.856	4327.12
805.111	4961.12
805.366	5450.12
805.621	5814.12
805.876	6106.12
806.131	6186.12
806.386	6322.12
806.641	6403.12
806.896	6565.12
807.151	6681.12
807.406	6798.12
807.661	6918.12
807.915	7028.12
808.17	7145.12
808.425	7218.12
808.679	7226.12
808.934	7355.12
809.188	7450.12
809.443	7494.12
809.697	7639.12
809.951	7563.12
810.206	7713.12
810.46	7829.12
810.714	7795.12
810.968	7867.12
811.223	7936.12
811.477	7990.12
811.731	8124.12
811.985	8115.12
812.239	8134.12
812.493	8134.12
812.747	8203.12
813	8172.12
813.254	8233.12
813.508	8371.12
813.762	8302.12
814.015	8275.12
814.269	8364.12
814.522	8494.12
814.776	8622.12
815.03	8678.12
815.283	8814.12
815.536	8986.12
815.79	9147.12
816.043	9164.12
816.296	9269.12
816.55	9496.12
816.803	9471.12
817.056	9751.12
817.309	9757.12
817.562	9846.12
817.815	9935.12
818.068	10091.12
818.321	10085.12
818.574	10228.12
818.827	10356.12
819.079	10462.12
819.332	10734.12
819.585	10783.12
819.838	10903.12
820.09	10964.12
820.343	10997.12
820.595	10935.12
820.848	11106.12
821.1	11085.12
821.353	11147.12
821.605	11085.12
821.857	11141.12
822.11	10920.12
822.362	10982.12
822.614	10937.12
822.866	11020.12
823.118	10950.12
823.37	11129.12
823.622	11078.12
823.874	11056.12
824.126	11127.12
824.378	11067.12
824.63	11161.12
824.882	11152.12
825.134	11102.12
825.385	11143.12
825.637	11103.12
825.888	10997.12
826.14	11017.12
826.392	11022.12
826.643	10906.12
826.895	10938.12
827.146	10777.12
827.397	10810.12
827.649	10855.12
827.9	10774.12
828.151	10816.12
828.402	10820.12
828.653	10821.12
828.905	10840.12
829.156	10959.12
829.407	10848.12
829.658	10852.12
829.909	11026.12
830.159	10930.12
830.41	10936.12
830.661	10821.12
830.912	10666.12
831.162	10716.12
831.413	10675.12
831.664	10689.12
831.914	10713.12
832.165	10665.12
832.415	10637.12
832.666	10643.12
832.916	10668.12
833.167	10638.12
833.417	10689.12
833.667	10609.12
833.917	10601.12
834.168	10620.12
834.418	10578.12
834.668	10477.12
834.918	10458.12
835.168	10297.12
835.418	10255.12
835.668	10374.12
835.918	10304.12
836.167	10274.12
836.417	10181.12
836.667	10230.12
836.917	10256.12
837.166	10208.12
837.416	10311.12
837.666	10230.12
837.915	10203.12
838.165	10218.12
838.414	10193.12
838.663	10060.12
838.913	10138.12
839.162	10115.12
839.411	10171.12
839.661	10054.12
839.91	10038.12
840.159	10084.12
840.408	10068.12
840.657	10127.12
840.906	10087.12
841.155	10104.12
841.404	10121.12
841.653	10095.12
841.902	10058.12
842.15	10095.12
842.399	10184.12
842.648	10150.12
842.897	10061.12
843.145	9952.12
843.394	9892.12
843.642	9870.12
843.891	9775.12
844.139	9733.12
844.388	9647.12
844.636	9521.12
844.884	9603.12
845.133	9578.12
845.381	9570.12
845.629	9573.12
845.877	9580.12
846.125	9567.12
846.373	9605.12
846.621	9520.12
846.869	9438.12
847.117	9455.12
847.365	9393.12
847.613	9323.12
847.861	9343.12
848.108	9368.12
848.356	9341.12
848.604	9275.12
848.851	9361.12
849.099	9382.12
849.346	9432.12
849.594	9492.12
849.841	9513.12
850.089	9611.12
850.336	9638.12
850.583	9724.12
850.831	9671.12
851.078	9615.12
851.325	9495.12
851.572	9499.12
851.819	9373.12
852.066	9129.12
852.313	9014.12
852.56	8871.12
852.807	8807.12
853.054	8863.12
853.301	8860.12
853.548	8832.12
853.794	8955.12
854.041	9019.12
854.288	8940.12
854.534	9122.12
854.781	9050.12
855.028	9008.12
855.274	9020.12
855.52	9018.12
855.767	8950.12
856.013	9078.12
856.26	9288.12
856.506	8881.12
856.752	8910.12
856.998	8824.12
857.244	8872.12
857.49	8984.12
857.736	8937.12
857.982	8978.12
858.228	8893.12
858.474	8806.12
858.72	8733.12
858.966	8615.12
859.212	8569.12
859.458	8503.12
859.703	8451.12
859.949	8332.12
860.195	8362.12
860.44	8258.12
860.686	8210.12
860.931	8239.12
861.177	8140.12
861.422	8115.12
861.667	8120.12
861.913	8071.12
862.158	8065.12
862.403	8130.12
862.648	8162.12
862.893	8198.12
863.138	8153.12
863.384	8110.12
863.629	8090.12
863.873	8067.12
864.118	8055.12
864.363	8009.12
864.608	8060.12
864.853	7984.12
865.098	7954.12
865.342	7929.12
865.587	7861.12
865.832	7884.12
866.076	7826.12
866.321	7886.12
866.565	7807.12
866.81	7724.12
867.054	7741.12
867.298	7696.12
867.543	7659.12
867.787	7705.12
868.031	7721.12
868.275	7733.12
868.519	7699.12
868.764	7669.12
869.008	7724.12
869.252	7712.12
869.496	7658.12
869.739	7574.12
869.983	7730.12
870.227	7652.12
870.471	7589.12
870.715	7737.12
870.958	7656.12
871.202	7715.12
871.446	7755.12
871.689	7715.12
871.933	7713.12
872.176	7737.12
872.42	7706.12
872.663	7663.12
872.906	7749.12
873.15	7670.12
873.393	7676.12
873.636	7719.12
873.879	7588.12
874.122	7590.12
874.366	7383.12
874.609	7346.12
874.852	7312.12
875.095	7191.12
875.337	7132.12
875.58	7109.12
875.823	7089.12
876.066	7118.12
876.309	7139.12
876.551	7010.12
876.794	6951.12
877.037	6998.12
877.279	6962.12
877.522	6894.12
877.764	6968.12
878.007	6935.12
878.249	6965.12
878.491	6869.12
878.734	6917.12
878.976	6912.12
879.218	6788.12
879.46	6794.12
879.702	6818.12
879.945	6687.12
880.187	6672.12
880.429	6658.12
880.671	6622.12
880.912	6598.12
881.154	6520.12
881.396	6480.12
881.638	6559.12
881.88	6550.12
882.121	6436.12
882.363	6509.12
882.605	6583.12
882.846	6522.12
883.088	6502.12
883.329	6572.12
883.571	6596.12
883.812	6644.12
884.053	6857.12
884.295	6943.12
884.536	7132.12
884.777	7029.12
885.018	6983.12
885.259	6939.12
885.5	6814.12
885.742	7121.12
885.982	6850.12
886.223	6709.12
886.464	6685.12
886.705	6575.12
886.946	6519.12
887.187	6296.12
887.428	6342.12
887.668	6198.12
887.909	6111.12
888.15	6050.12
888.39	6019.12
888.631	6008.12
888.871	5936.12
889.111	5874.12
889.352	5844.12
889.592	5731.12
889.833	5692.12
890.073	5684.12
890.313	5755.12
890.553	5594.12
890.793	5571.12
891.033	5534.12
891.273	5549.12
891.513	5587.12
891.753	5573.12
891.993	5518.12
892.233	5550.12
892.473	5623.12
892.713	5611.12
892.952	5551.12
893.192	5583.12
893.432	5572.12
893.671	5633.12
893.911	5542.12
894.15	5481.12
894.39	5388.12
894.629	5426.12
894.869	5438.12
895.108	5446.12
895.347	5367.12
895.587	5428.12
895.826	5346.12
896.065	5316.12
896.304	5390.12
896.543	5413.12
896.782	5302.12
897.021	5349.12
897.26	5324.12
897.499	5365.12
897.738	5349.12
897.977	5297.12
898.216	5296.12
898.454	5257.12
898.693	5224.12
898.932	5221.12
899.17	5134.12
899.409	5144.12
899.647	5223.12
899.886	5189.12
900.124	5217.12
900.363	5183.12
900.601	5235.12
900.839	5226.12
901.078	5255.12
901.316	5275.12
901.554	5302.12
901.792	5370.12
902.03	5339.12
902.268	5318.12
902.506	5341.12
902.744	5271.12
902.982	5285.12
903.22	5107.12
903.458	5087.12
903.695	4974.12
903.933	4905.12
904.171	4766.12
904.409	4741.12
904.646	4665.12
904.884	4602.12
905.121	4594.12
905.359	4508.12
905.596	4478.12
905.833	4387.12
906.071	4378.12
906.308	4416.12
906.545	4379.12
906.783	4302.12
907.02	4302.12
907.257	4267.12
907.494	4317.12
907.731	4253.12
907.968	4274.12
908.205	4164.12
908.442	4198.12
908.679	4162.12
908.915	4129.12
909.152	4133.12
909.389	4000.12
909.626	4000.12
909.862	3992.12
910.099	4010.12
910.335	3983.12
910.572	3896.12
910.808	3951.12
911.045	3913.12
911.281	3864.12
911.518	3958.12
911.754	3873.12
911.99	3866.12
912.226	3813.12
912.463	3771.12
912.699	3741.12
912.935	3735.12
913.171	3739.12
913.407	3625.12
913.643	3695.12
913.879	3627.12
914.114	3579.12
914.35	3549.12
914.586	3540.12
914.822	3477.12
915.057	3547.12
915.293	3411.12
915.529	3450.12
915.764	3473.12
916	3481.12
916.235	3419.12
916.471	3410.12
916.706	3390.12
916.941	3379.12
917.177	3407.12
917.412	3439.12
917.647	3417.12
917.882	3361.12
918.117	3436.12
918.352	3388.12
918.588	3390.12
918.823	3290.12
919.057	3283.12
919.292	3201.12
919.527	3333.12
919.762	3228.12
919.997	3236.12
920.232	3184.12
920.466	3184.12
920.701	3083.12
920.935	3099.12
921.17	3061.12
921.405	3060.12
921.639	3093.12
921.873	3047.12
922.108	3089.12
922.342	3030.12
922.576	2919.12
922.811	3035.12
923.045	3024.12
923.279	3013.12
923.513	2913.12
923.747	3022.12
923.981	2949.12
924.215	2906.12
924.449	2880.12
924.683	2865.12
924.917	2891.12
925.151	2846.12
925.385	2943.12
925.618	2849.12
925.852	2848.12
926.086	2821.12
926.319	2851.12
926.553	2820.12
926.786	2832.12
927.02	2799.12
927.253	2840.12
927.486	2854.12
927.72	2753.12
927.953	2835.12
928.186	2762.12
928.42	2791.12
928.653	2743.12
928.886	2751.12
929.119	2797.12
929.352	2741.12
929.585	2742.12
929.818	2696.12
930.051	2716.12
930.284	2717.12
930.516	2615.12
930.749	2618.12
930.982	2663.12
931.215	2659.12
931.447	2556.12
931.68	2552.12
931.912	2585.12
932.145	2595.12
932.377	2599.12
932.61	2754.12
932.842	2531.12
933.074	2590.12
933.307	2560.12
933.539	2664.12
933.771	2628.12
934.003	2584.12
934.236	2644.12
934.468	2618.12
934.7	2579.12
934.932	2616.12
935.164	2540.12
935.395	2537.12
935.627	2529.12
935.859	2544.12
936.091	2494.12
936.323	2554.12
936.554	2563.12
936.786	2508.12
937.017	2456.12
937.249	2512.12
937.481	2423.12
937.712	2524.12
937.943	2490.12
938.175	2459.12
938.406	2439.12
938.637	2537.12
938.869	2422.12
939.1	2517.12
939.331	2402.12
939.562	2478.12
939.793	2418.12
940.024	2478.12
940.255	2470.12
940.486	2397.12
940.717	2438.12
940.948	2384.12
941.179	2308.12
941.409	2366.12
941.64	2360.12
941.871	2393.12
942.102	2353.12
942.332	2363.12
942.563	2385.12
942.793	2342.12
943.024	2330.12
943.254	2342.12
943.484	2427.12
943.715	2380.12
943.945	2370.12
944.175	2295.12
944.405	2252.12
944.636	2295.12
944.866	2318.12
945.096	2319.12
945.326	2277.12
945.556	2307.12
945.786	2346.12
946.016	2308.12
946.245	2236.12
946.475	2252.12
946.705	2237.12
946.935	2222.12
947.164	2222.12
947.394	2211.12
947.624	2207.12
947.853	2286.12
948.083	2209.12
948.312	2181.12
948.542	2140.12
948.771	2109.12
949	2113.12
949.23	2161.12
949.459	2134.12
949.688	2195.12
949.917	2157.12
950.146	2171.12
950.375	2191.12
950.604	2129.12
950.833	2179.12
951.062	2188.12
951.291	2145.12
951.52	2091.12
951.749	2143.12
951.978	2062.12
952.206	2118.12
952.435	2083.12
952.664	2087.12
952.892	2147.12
953.121	2096.12
953.349	2122.12
953.578	2070.12
953.806	2034.12
954.035	2025.12
954.263	2044.12
954.491	2020.12
954.719	2036.12
954.948	2008.12
955.176	1991.12
955.404	1925.12
955.632	1990.12
955.86	1991.12
956.088	1969.12
956.316	1990.12
956.544	2009.12
956.772	1944.12
956.999	1944.12
957.227	1998.12
957.455	1928.12
957.683	1941.12
957.91	1872.12
958.138	1885.12
958.365	1860.12
958.593	1900.12
958.82	1835.12
959.048	1891.12
959.275	1845.12
959.502	1870.12
959.73	1825.12
959.957	1880.12
960.184	1902.12
960.411	1843.12
960.638	1917.12
960.865	1861.12
961.092	1872.12
961.319	1784.12
961.546	1891.12
961.773	1891.12
962	1820.12
962.227	1882.12
962.454	1835.12
962.68	1835.12
962.907	1829.12
963.134	1796.12
963.36	1833.12
963.587	1817.12
963.813	1755.12
964.04	1815.12
964.266	1756.12
964.493	1826.12
964.719	1798.12
964.945	1815.12
965.171	1699.12
965.398	1752.12
965.624	1778.12
965.85	1711.12
966.076	1694.12
966.302	1761.12
966.528	1730.12
966.754	1737.12
966.98	1736.12
967.206	1735.12
967.431	1637.12
967.657	1759.12
967.883	1723.12
968.109	1725.12
968.334	1656.12
968.56	1666.12
968.785	1661.12
969.011	1627.12
969.236	1703.12
969.462	1618.12
969.687	1617.12
969.912	1644.12
970.138	1713.12
970.363	1603.12
970.588	1675.12
970.813	1628.12
971.038	1592.12
971.263	1659.12
971.488	1635.12
971.713	1669.12
971.938	1647.12
972.163	1537.12
972.388	1592.12
972.613	1557.12
972.838	1578.12
973.062	1553.12
973.287	1571.12
973.512	1526.12
973.736	1533.12
973.961	1521.12
974.185	1508.12
974.41	1569.12
974.634	1464.12
974.858	1470.12
975.083	1549.12
975.307	1545.12
975.531	1497.12
975.755	1458.12
975.98	1468.12
976.204	1391.12
976.428	1399.12
976.652	1412.12
976.876	1394.12
977.1	1422.12
977.324	1410.12
977.547	1463.12
977.771	1434.12
977.995	1416.12
978.219	1369.12
978.442	1478.12
978.666	1435.12
978.89	1447.12
979.113	1426.12
979.337	1421.12
979.56	1393.12
979.783	1452.12
980.007	1385.12
980.23	1410.12
980.453	1353.12
980.677	1362.12
980.9	1393.12
981.123	1278.12
981.346	1411.12
981.569	1366.12
981.792	1419.12
982.015	1371.12
982.238	1315.12
982.461	1329.12
982.684	1314.12
982.907	1313.12
983.129	1293.12
983.352	1343.12
983.575	1325.12
983.797	1340.12
984.02	1303.12
984.242	1277.12
984.465	1335.12
984.687	1320.12
984.91	1348.12
985.132	1314.12
985.354	1352.12
985.577	1313.12
985.799	1320.12
986.021	1224.12
986.243	1259.12
986.465	1280.12
986.687	1331.12
986.909	1373.12
987.131	1285.12
987.353	1263.12
987.575	1316.12
987.797	1275.12
988.019	1190.12
988.241	1263.12
988.462	1227.12
988.684	1273.12
988.906	1322.12
989.127	1340.12
989.349	1220.12
989.57	1264.12
989.792	1287.12
990.013	1330.12
990.234	1325.12
990.456	1351.12
990.677	1298.12
990.898	1272.12
991.119	1242.12
991.341	1288.12
991.562	1219.12
991.783	1255.12
992.004	1179.12
992.225	1175.12
992.446	1240.12
992.667	1145.12
992.887	1242.12
993.108	1137.12
993.329	1277.12
993.55	1219.12
993.77	1174.12
993.991	1174.12
994.212	1216.12
994.432	1207.12
994.653	1233.12
994.873	1217.12
995.093	1094.12
995.314	1125.12
995.534	1221.12
995.754	1238.12
995.975	1261.12
996.195	1146.12
996.415	1195.12
996.635	1173.12
996.855	1205.12
997.075	1187.12
997.295	1182.12
997.515	1151.12
997.735	1224.12
997.955	1152.12
998.174	1175.12
998.394	1124.12
998.614	1184.12
998.834	1145.12
999.053	1227.12
999.273	1179.12
999.492	1231.12
999.712	1184.12
999.931	1140.12
1000.151	1166.12
1000.37	1182.12
1000.589	1235.12
1000.809	1158.12
1001.028	1259.12
1001.247	1192.12
1001.466	1111.12
1001.685	1244.12
1001.904	1190.12
1002.123	1173.12
1002.342	1188.12
1002.561	1123.12
1002.78	1164.12
1002.999	1242.12
1003.218	1171.12
1003.436	1165.12
1003.655	1214.12
1003.874	1144.12
1004.092	1188.12
1004.311	1205.12
1004.53	1158.12
1004.748	1246.12
1004.966	1160.12
1005.185	1211.12
1005.403	1216.12
1005.622	1199.12
1005.84	1301.12
1006.058	1178.12
1006.276	1186.12
1006.494	1684.12
1006.712	1201.12
1006.931	1259.12
1007.149	1151.12
1007.367	1166.12
1007.584	1192.12
1007.802	1226.12
1008.02	1192.12
1008.238	1300.12
1008.456	1304.12
1008.673	1138.12
1008.891	1263.12
1009.109	1236.12
1009.326	1280.12
1009.544	1356.12
1009.761	1272.12
1009.979	1359.12
1010.196	1388.12
1010.413	1464.12
1010.631	1480.12
1010.848	1556.12
1011.065	1524.12
1011.282	1492.12
1011.5	1426.12
1011.717	1529.12
1011.934	1477.12
1012.151	1508.12
1012.368	1488.12
1012.585	1425.12
1012.801	1499.12
1013.018	1460.12
1013.235	1452.12
1013.452	1472.12
1013.669	1478.12
1013.885	1470.12
1014.102	1493.12
1014.318	1448.12
1014.535	1402.12
1014.751	1439.12
1014.968	1430.12
1015.184	1494.12
1015.401	1390.12
1015.617	1422.12
1015.833	1362.12
1016.049	1365.12
1016.266	1353.12
1016.482	1362.12
1016.698	1289.12
1016.914	1360.12
1017.13	1280.12
1017.346	1288.12
1017.562	1333.12
1017.778	1302.12
1017.993	1268.12
1018.209	1318.12
1018.425	1288.12
1018.641	1248.12
1018.856	1239.12
1019.072	1268.12
1019.288	1328.12
1019.503	1235.12
1019.719	1185.12
1019.934	1201.12
1020.149	1265.12
1020.365	1214.12
1020.58	1166.12
1020.795	1199.12
1021.011	1143.12
1021.226	1125.12
1021.441	1164.12
1021.656	1103.12
1021.871	1050.12
1022.086	1052.12
1022.301	1036.12
1022.516	1008.12
1022.731	1094.12
1022.946	1018.12
1023.16	998.12
1023.375	950.12
1023.59	938.12
1023.804	908.12
1024.019	1037.12
1024.234	887.12
1024.448	912.12
1024.663	854.12
1024.877	851.12
1025.092	913.12
1025.306	887.12
1025.52	820.12
1025.734	885.12
1025.949	819.12
1026.163	778.12
1026.377	731.12
1026.591	783.12
1026.805	712.12
1027.019	709.12
1027.233	694.12
1027.447	640.12
1027.661	741.12
1027.875	675.12
1028.088	672.12
1028.302	623.12
1028.516	615.12
1028.73	626.12
1028.943	618.12
1029.157	573.12
1029.37	533.12
1029.584	1.12
1029.797	-3.88
1030.011	-2.88
1030.224	-3.88
