Data from QEP037381__8__11-22-15-593.txt Node

Date: Wed Dec 21 11:22:15 EST 2022
User: dcclab
Spectrometer: QEP03738
Trigger mode: 4
Integration Time (sec): 1.000000E1
Scans to average: 1
Electric dark correction enabled: true
Nonlinearity correction enabled: false
Boxcar width: 0
XAxis mode: Wavelengths
Number of Pixels in Spectrum: 1044
>>>>>Begin Spectral Data<<<<<
784.041	13.25
784.3	2.25
784.558	0.25
784.817	-4.75
785.075	42184.25
785.334	8491.25
785.592	4419.25
785.851	3111.25
786.109	2414.25
786.368	1921.25
786.626	1572.25
786.884	1344.25
787.143	1155.25
787.401	952.25
787.659	906.25
787.917	777.25
788.175	764.25
788.433	669.25
788.691	627.25
788.949	596.25
789.207	571.25
789.465	485.25
789.723	488.25
789.98	432.25
790.238	483.25
790.496	458.25
790.753	462.25
791.011	501.25
791.268	450.25
791.526	449.25
791.783	454.25
792.041	451.25
792.298	379.25
792.556	435.25
792.813	400.25
793.07	395.25
793.327	395.25
793.584	467.25
793.841	387.25
794.099	426.25
794.356	476.25
794.613	364.25
794.869	407.25
795.126	378.25
795.383	368.25
795.64	391.25
795.897	345.25
796.153	403.25
796.41	389.25
796.667	368.25
796.923	384.25
797.18	373.25
797.436	421.25
797.693	359.25
797.949	423.25
798.206	448.25
798.462	367.25
798.718	425.25
798.974	401.25
799.231	442.25
799.487	423.25
799.743	435.25
799.999	454.25
800.255	452.25
800.511	434.25
800.767	464.25
801.023	467.25
801.279	488.25
801.534	517.25
801.79	562.25
802.046	560.25
802.302	686.25
802.557	747.25
802.813	896.25
803.068	1071.25
803.324	1486.25
803.579	1989.25
803.835	2674.25
804.09	3659.25
804.345	4700.25
804.601	5970.25
804.856	7243.25
805.111	8320.25
805.366	9172.25
805.621	9859.25
805.876	10266.25
806.131	10592.25
806.386	10685.25
806.641	10952.25
806.896	11074.25
807.151	11328.25
807.406	11503.25
807.661	11707.25
807.915	11885.25
808.17	12057.25
808.425	12256.25
808.679	12328.25
808.934	12490.25
809.188	12551.25
809.443	12669.25
809.697	12821.25
809.951	13003.25
810.206	13016.25
810.46	13169.25
810.714	13238.25
810.968	13488.25
811.223	13495.25
811.477	13596.25
811.731	13769.25
811.985	13696.25
812.239	13711.25
812.493	13972.25
812.747	13927.25
813	13840.25
813.254	14026.25
813.508	14108.25
813.762	14194.25
814.015	14217.25
814.269	14305.25
814.522	14493.25
814.776	14602.25
815.03	14762.25
815.283	15004.25
815.536	15271.25
815.79	15451.25
816.043	15638.25
816.296	15950.25
816.55	16075.25
816.803	16278.25
817.056	16506.25
817.309	16594.25
817.562	16857.25
817.815	16995.25
818.068	17070.25
818.321	17205.25
818.574	17331.25
818.827	17686.25
819.079	17849.25
819.332	18183.25
819.585	18325.25
819.838	18527.25
820.09	18580.25
820.343	18780.25
820.595	18869.25
820.848	18975.25
821.1	19088.25
821.353	19036.25
821.605	18984.25
821.857	19056.25
822.11	18851.25
822.362	18928.25
822.614	18759.25
822.866	18810.25
823.118	18804.25
823.37	18980.25
823.622	18898.25
823.874	19118.25
824.126	19096.25
824.378	19088.25
824.63	19148.25
824.882	19265.25
825.134	19102.25
825.385	19219.25
825.637	18970.25
825.888	19033.25
826.14	18954.25
826.392	18888.25
826.643	18876.25
826.895	18929.25
827.146	18638.25
827.397	18738.25
827.649	18714.25
827.9	18710.25
828.151	18598.25
828.402	18680.25
828.653	18779.25
828.905	18906.25
829.156	18910.25
829.407	18780.25
829.658	18941.25
829.909	18982.25
830.159	18968.25
830.41	18858.25
830.661	18690.25
830.912	18526.25
831.162	18452.25
831.413	18549.25
831.664	18484.25
831.914	18405.25
832.165	18377.25
832.415	18399.25
832.666	18362.25
832.916	18524.25
833.167	18454.25
833.417	18440.25
833.667	18275.25
833.917	18257.25
834.168	18303.25
834.418	18249.25
834.668	18059.25
834.918	17933.25
835.168	17948.25
835.418	17900.25
835.668	17893.25
835.918	17891.25
836.167	17776.25
836.417	17769.25
836.667	17786.25
836.917	17736.25
837.166	17733.25
837.416	17762.25
837.666	17760.25
837.915	17691.25
838.165	17727.25
838.414	17645.25
838.663	17491.25
838.913	17573.25
839.162	17543.25
839.411	17583.25
839.661	17486.25
839.91	17451.25
840.159	17527.25
840.408	17397.25
840.657	17457.25
840.906	17420.25
841.155	17437.25
841.404	17477.25
841.653	17490.25
841.902	17481.25
842.15	17485.25
842.399	17593.25
842.648	17533.25
842.897	17506.25
843.145	17232.25
843.394	17256.25
843.642	17105.25
843.891	17067.25
844.139	16754.25
844.388	16805.25
844.636	16748.25
844.884	16783.25
845.133	16840.25
845.381	16734.25
845.629	16686.25
845.877	16583.25
846.125	16671.25
846.373	16608.25
846.621	16480.25
846.869	16544.25
847.117	16436.25
847.365	16436.25
847.613	16268.25
847.861	16270.25
848.108	16304.25
848.356	16212.25
848.604	16227.25
848.851	16206.25
849.099	16202.25
849.346	16315.25
849.594	16361.25
849.841	16492.25
850.089	16483.25
850.336	16563.25
850.583	16739.25
850.831	16650.25
851.078	16526.25
851.325	16323.25
851.572	16340.25
851.819	16222.25
852.066	15773.25
852.313	15594.25
852.56	15461.25
852.807	15486.25
853.054	15460.25
853.301	15375.25
853.548	15442.25
853.794	15551.25
854.041	15647.25
854.288	15597.25
854.534	15767.25
854.781	15741.25
855.028	15719.25
855.274	15780.25
855.52	15637.25
855.767	15628.25
856.013	15680.25
856.26	15930.25
856.506	15420.25
856.752	15507.25
856.998	15467.25
857.244	15499.25
857.49	15587.25
857.736	15529.25
857.982	15621.25
858.228	15516.25
858.474	15443.25
858.72	15305.25
858.966	15135.25
859.212	14960.25
859.458	14765.25
859.703	14692.25
859.949	14542.25
860.195	14503.25
860.44	14412.25
860.686	14410.25
860.931	14376.25
861.177	14154.25
861.422	14161.25
861.667	14067.25
861.913	13999.25
862.158	14116.25
862.403	14145.25
862.648	14255.25
862.893	14201.25
863.138	14256.25
863.384	14097.25
863.629	14204.25
863.873	14112.25
864.118	14074.25
864.363	14008.25
864.608	14052.25
864.853	13929.25
865.098	13912.25
865.342	13862.25
865.587	13773.25
865.832	13714.25
866.076	13789.25
866.321	13690.25
866.565	13685.25
866.81	13618.25
867.054	13544.25
867.298	13446.25
867.543	13459.25
867.787	13382.25
868.031	13432.25
868.275	13346.25
868.519	13430.25
868.764	13420.25
869.008	13346.25
869.252	13456.25
869.496	13302.25
869.739	13188.25
869.983	13247.25
870.227	13319.25
870.471	13228.25
870.715	13381.25
870.958	13397.25
871.202	13344.25
871.446	13507.25
871.689	13370.25
871.933	13404.25
872.176	13332.25
872.42	13353.25
872.663	13392.25
872.906	13383.25
873.15	13381.25
873.393	13361.25
873.636	13323.25
873.879	13151.25
874.122	13054.25
874.366	12825.25
874.609	12736.25
874.852	12604.25
875.095	12556.25
875.337	12437.25
875.58	12337.25
875.823	12337.25
876.066	12351.25
876.309	12293.25
876.551	12213.25
876.794	12091.25
877.037	12082.25
877.279	12039.25
877.522	12032.25
877.764	12139.25
878.007	11996.25
878.249	12071.25
878.491	12080.25
878.734	11996.25
878.976	12090.25
879.218	11893.25
879.46	11884.25
879.702	11810.25
879.945	11707.25
880.187	11561.25
880.429	11593.25
880.671	11508.25
880.912	11418.25
881.154	11369.25
881.396	11308.25
881.638	11353.25
881.88	11252.25
882.121	11317.25
882.363	11300.25
882.605	11424.25
882.846	11254.25
883.088	11310.25
883.329	11256.25
883.571	11333.25
883.812	11477.25
884.053	11829.25
884.295	11942.25
884.536	12128.25
884.777	11914.25
885.018	11876.25
885.259	11824.25
885.5	11694.25
885.742	11935.25
885.982	11650.25
886.223	11643.25
886.464	11457.25
886.705	11266.25
886.946	11233.25
887.187	10934.25
887.428	10861.25
887.668	10761.25
887.909	10595.25
888.15	10487.25
888.39	10505.25
888.631	10439.25
888.871	10350.25
889.111	10237.25
889.352	10183.25
889.592	10071.25
889.833	10026.25
890.073	9956.25
890.313	9912.25
890.553	9780.25
890.793	9741.25
891.033	9759.25
891.273	9600.25
891.513	9706.25
891.753	9612.25
891.993	9656.25
892.233	9662.25
892.473	9718.25
892.713	9593.25
892.952	9656.25
893.192	9664.25
893.432	9606.25
893.671	9623.25
893.911	9566.25
894.15	9576.25
894.39	9466.25
894.629	9434.25
894.869	9432.25
895.108	9327.25
895.347	9244.25
895.587	9309.25
895.826	9235.25
896.065	9253.25
896.304	9181.25
896.543	9200.25
896.782	9147.25
897.021	9154.25
897.26	9187.25
897.499	9210.25
897.738	9178.25
897.977	9059.25
898.216	9020.25
898.454	8969.25
898.693	8866.25
898.932	8861.25
899.17	8861.25
899.409	8829.25
899.647	8832.25
899.886	8820.25
900.124	8831.25
900.363	8776.25
900.601	8889.25
900.839	8855.25
901.078	8884.25
901.316	8907.25
901.554	8972.25
901.792	9049.25
902.03	8915.25
902.268	9005.25
902.506	8964.25
902.744	8871.25
902.982	8854.25
903.22	8719.25
903.458	8590.25
903.695	8470.25
903.933	8298.25
904.171	8230.25
904.409	8098.25
904.646	8021.25
904.884	7852.25
905.121	7848.25
905.359	7732.25
905.596	7645.25
905.833	7547.25
906.071	7496.25
906.308	7537.25
906.545	7483.25
906.783	7415.25
907.02	7473.25
907.257	7372.25
907.494	7406.25
907.731	7328.25
907.968	7358.25
908.205	7238.25
908.442	7276.25
908.679	7221.25
908.915	7109.25
909.152	7131.25
909.389	6935.25
909.626	6935.25
909.862	6910.25
910.099	6895.25
910.335	6876.25
910.572	6783.25
910.808	6824.25
911.045	6788.25
911.281	6684.25
911.518	6786.25
911.754	6713.25
911.99	6663.25
912.226	6572.25
912.463	6567.25
912.699	6542.25
912.935	6484.25
913.171	6413.25
913.407	6360.25
913.643	6382.25
913.879	6290.25
914.114	6206.25
914.35	6133.25
914.586	6060.25
914.822	6053.25
915.057	6117.25
915.293	5964.25
915.529	5965.25
915.764	6014.25
916	5978.25
916.235	5931.25
916.471	5956.25
916.706	5874.25
916.941	5897.25
917.177	5833.25
917.412	5879.25
917.647	5852.25
917.882	5802.25
918.117	5844.25
918.352	5786.25
918.588	5903.25
918.823	5733.25
919.057	5692.25
919.292	5593.25
919.527	5691.25
919.762	5536.25
919.997	5579.25
920.232	5408.25
920.466	5450.25
920.701	5306.25
920.935	5301.25
921.17	5296.25
921.405	5278.25
921.639	5339.25
921.873	5255.25
922.108	5254.25
922.342	5212.25
922.576	5186.25
922.811	5146.25
923.045	5194.25
923.279	5145.25
923.513	5015.25
923.747	5086.25
923.981	5060.25
924.215	4998.25
924.449	4956.25
924.683	4889.25
924.917	4869.25
925.151	4887.25
925.385	4994.25
925.618	4894.25
925.852	4851.25
926.086	4770.25
926.319	4871.25
926.553	4827.25
926.786	4866.25
927.02	4827.25
927.253	4854.25
927.486	4820.25
927.72	4765.25
927.953	4806.25
928.186	4687.25
928.42	4780.25
928.653	4689.25
928.886	4655.25
929.119	4655.25
929.352	4680.25
929.585	4594.25
929.818	4548.25
930.051	4528.25
930.284	4543.25
930.516	4431.25
930.749	4449.25
930.982	4458.25
931.215	4483.25
931.447	4381.25
931.68	4380.25
931.912	4358.25
932.145	4357.25
932.377	4345.25
932.61	4497.25
932.842	4296.25
933.074	4384.25
933.307	4321.25
933.539	4447.25
933.771	4349.25
934.003	4355.25
934.236	4380.25
934.468	4379.25
934.7	4322.25
934.932	4343.25
935.164	4324.25
935.395	4236.25
935.627	4292.25
935.859	4222.25
936.091	4210.25
936.323	4285.25
936.554	4258.25
936.786	4143.25
937.017	4175.25
937.249	4201.25
937.481	4106.25
937.712	4189.25
937.943	4111.25
938.175	4122.25
938.406	4079.25
938.637	4194.25
938.869	4069.25
939.1	4099.25
939.331	4071.25
939.562	4062.25
939.793	4077.25
940.024	4081.25
940.255	4096.25
940.486	3979.25
940.717	3995.25
940.948	3938.25
941.179	3927.25
941.409	3916.25
941.64	3936.25
941.871	3934.25
942.102	3904.25
942.332	3900.25
942.563	3947.25
942.793	3989.25
943.024	3903.25
943.254	3924.25
943.484	3927.25
943.715	3920.25
943.945	3925.25
944.175	3871.25
944.405	3853.25
944.636	3802.25
944.866	3831.25
945.096	3905.25
945.326	3774.25
945.556	3829.25
945.786	3836.25
946.016	3789.25
946.245	3692.25
946.475	3746.25
946.705	3733.25
946.935	3710.25
947.164	3711.25
947.394	3627.25
947.624	3704.25
947.853	3676.25
948.083	3606.25
948.312	3600.25
948.542	3500.25
948.771	3494.25
949	3511.25
949.23	3511.25
949.459	3551.25
949.688	3580.25
949.917	3519.25
950.146	3582.25
950.375	3597.25
950.604	3495.25
950.833	3564.25
951.062	3558.25
951.291	3488.25
951.52	3468.25
951.749	3479.25
951.978	3408.25
952.206	3443.25
952.435	3423.25
952.664	3412.25
952.892	3446.25
953.121	3429.25
953.349	3430.25
953.578	3409.25
953.806	3363.25
954.035	3305.25
954.263	3331.25
954.491	3269.25
954.719	3346.25
954.948	3268.25
955.176	3274.25
955.404	3159.25
955.632	3220.25
955.86	3237.25
956.088	3262.25
956.316	3266.25
956.544	3235.25
956.772	3181.25
956.999	3115.25
957.227	3259.25
957.455	3145.25
957.683	3138.25
957.91	3072.25
958.138	3074.25
958.365	3077.25
958.593	3029.25
958.82	2982.25
959.048	3061.25
959.275	3028.25
959.502	3047.25
959.73	2997.25
959.957	3020.25
960.184	3047.25
960.411	2976.25
960.638	3028.25
960.865	2959.25
961.092	2991.25
961.319	2931.25
961.546	3042.25
961.773	2991.25
962	2986.25
962.227	2979.25
962.454	2967.25
962.68	2909.25
962.907	2953.25
963.134	2909.25
963.36	2931.25
963.587	2924.25
963.813	2822.25
964.04	2885.25
964.266	2790.25
964.493	2893.25
964.719	2844.25
964.945	2833.25
965.171	2719.25
965.398	2809.25
965.624	2753.25
965.85	2696.25
966.076	2708.25
966.302	2739.25
966.528	2697.25
966.754	2726.25
966.98	2691.25
967.206	2707.25
967.431	2631.25
967.657	2732.25
967.883	2698.25
968.109	2697.25
968.334	2616.25
968.56	2638.25
968.785	2595.25
969.011	2559.25
969.236	2642.25
969.462	2566.25
969.687	2606.25
969.912	2610.25
970.138	2609.25
970.363	2545.25
970.588	2558.25
970.813	2532.25
971.038	2541.25
971.263	2553.25
971.488	2547.25
971.713	2588.25
971.938	2563.25
972.163	2481.25
972.388	2483.25
972.613	2480.25
972.838	2466.25
973.062	2453.25
973.287	2435.25
973.512	2372.25
973.736	2423.25
973.961	2404.25
974.185	2389.25
974.41	2409.25
974.634	2325.25
974.858	2304.25
975.083	2354.25
975.307	2369.25
975.531	2308.25
975.755	2230.25
975.98	2254.25
976.204	2207.25
976.428	2208.25
976.652	2234.25
976.876	2203.25
977.1	2220.25
977.324	2167.25
977.547	2240.25
977.771	2235.25
977.995	2165.25
978.219	2160.25
978.442	2275.25
978.666	2187.25
978.89	2171.25
979.113	2196.25
979.337	2137.25
979.56	2152.25
979.783	2236.25
980.007	2136.25
980.23	2137.25
980.453	2091.25
980.677	2125.25
980.9	2140.25
981.123	2047.25
981.346	2122.25
981.569	2087.25
981.792	2085.25
982.015	2067.25
982.238	2008.25
982.461	2039.25
982.684	1996.25
982.907	1970.25
983.129	1961.25
983.352	2031.25
983.575	2029.25
983.797	2012.25
984.02	1960.25
984.242	1954.25
984.465	1942.25
984.687	1982.25
984.91	2018.25
985.132	1938.25
985.354	1989.25
985.577	1947.25
985.799	1953.25
986.021	1850.25
986.243	1877.25
986.465	1911.25
986.687	1944.25
986.909	1987.25
987.131	1904.25
987.353	1849.25
987.575	1899.25
987.797	1861.25
988.019	1810.25
988.241	1865.25
988.462	1823.25
988.684	1865.25
988.906	1909.25
989.127	1923.25
989.349	1806.25
989.57	1858.25
989.792	1878.25
990.013	1877.25
990.234	1884.25
990.456	1886.25
990.677	1871.25
990.898	1809.25
991.119	1820.25
991.341	1867.25
991.562	1771.25
991.783	1871.25
992.004	1749.25
992.225	1731.25
992.446	1800.25
992.667	1675.25
992.887	1792.25
993.108	1658.25
993.329	1797.25
993.55	1731.25
993.77	1658.25
993.991	1673.25
994.212	1716.25
994.432	1688.25
994.653	1702.25
994.873	1698.25
995.093	1591.25
995.314	1652.25
995.534	1684.25
995.754	1727.25
995.975	1728.25
996.195	1632.25
996.415	1654.25
996.635	1649.25
996.855	1679.25
997.075	1640.25
997.295	1656.25
997.515	1615.25
997.735	1709.25
997.955	1645.25
998.174	1658.25
998.394	1594.25
998.614	1674.25
998.834	1602.25
999.053	1687.25
999.273	1630.25
999.492	1705.25
999.712	1633.25
999.931	1571.25
1000.151	1625.25
1000.37	1590.25
1000.589	1676.25
1000.809	1603.25
1001.028	1653.25
1001.247	1633.25
1001.466	1509.25
1001.685	1636.25
1001.904	1592.25
1002.123	1611.25
1002.342	1580.25
1002.561	1549.25
1002.78	1580.25
1002.999	1611.25
1003.218	1583.25
1003.436	1536.25
1003.655	1578.25
1003.874	1533.25
1004.092	1558.25
1004.311	1586.25
1004.53	1534.25
1004.748	1622.25
1004.966	1516.25
1005.185	1588.25
1005.403	1591.25
1005.622	1551.25
1005.84	1650.25
1006.058	1517.25
1006.276	1547.25
1006.494	2069.25
1006.712	1560.25
1006.931	1611.25
1007.149	1513.25
1007.367	1504.25
1007.584	1557.25
1007.802	1601.25
1008.02	1549.25
1008.238	1678.25
1008.456	1662.25
1008.673	1510.25
1008.891	1656.25
1009.109	1594.25
1009.326	1668.25
1009.544	1727.25
1009.761	1673.25
1009.979	1778.25
1010.196	1808.25
1010.413	1902.25
1010.631	1970.25
1010.848	2014.25
1011.065	2040.25
1011.282	1980.25
1011.5	1887.25
1011.717	2050.25
1011.934	1946.25
1012.151	1972.25
1012.368	1945.25
1012.585	1877.25
1012.801	1980.25
1013.018	1928.25
1013.235	1908.25
1013.452	1918.25
1013.669	1948.25
1013.885	1923.25
1014.102	1931.25
1014.318	1904.25
1014.535	1875.25
1014.751	1903.25
1014.968	1937.25
1015.184	1922.25
1015.401	1801.25
1015.617	1854.25
1015.833	1780.25
1016.049	1797.25
1016.266	1753.25
1016.482	1776.25
1016.698	1690.25
1016.914	1727.25
1017.13	1682.25
1017.346	1656.25
1017.562	1773.25
1017.778	1671.25
1017.993	1618.25
1018.209	1687.25
1018.425	1685.25
1018.641	1629.25
1018.856	1602.25
1019.072	1605.25
1019.288	1675.25
1019.503	1609.25
1019.719	1524.25
1019.934	1555.25
1020.149	1635.25
1020.365	1551.25
1020.58	1497.25
1020.795	1528.25
1021.011	1453.25
1021.226	1412.25
1021.441	1454.25
1021.656	1376.25
1021.871	1317.25
1022.086	1309.25
1022.301	1279.25
1022.516	1304.25
1022.731	1339.25
1022.946	1232.25
1023.16	1235.25
1023.375	1188.25
1023.59	1172.25
1023.804	1153.25
1024.019	1228.25
1024.234	1109.25
1024.448	1127.25
1024.663	1053.25
1024.877	1063.25
1025.092	1096.25
1025.306	1099.25
1025.52	966.25
1025.734	1082.25
1025.949	989.25
1026.163	946.25
1026.377	907.25
1026.591	953.25
1026.805	901.25
1027.019	890.25
1027.233	842.25
1027.447	801.25
1027.661	893.25
1027.875	840.25
1028.088	843.25
1028.302	742.25
1028.516	740.25
1028.73	747.25
1028.943	742.25
1029.157	682.25
1029.37	649.25
1029.584	-1.75
1029.797	-1.75
1030.011	-4.75
1030.224	-2.75
