Data from QEP037381__16__11-23-35-593.txt Node

Date: Wed Dec 21 11:23:35 EST 2022
User: dcclab
Spectrometer: QEP03738
Trigger mode: 4
Integration Time (sec): 1.000000E1
Scans to average: 1
Electric dark correction enabled: true
Nonlinearity correction enabled: false
Boxcar width: 0
XAxis mode: Wavelengths
Number of Pixels in Spectrum: 1044
>>>>>Begin Spectral Data<<<<<
784.041	12.25
784.3	2.25
784.558	-5.75
784.817	-2.75
785.075	40192.25
785.334	8143.25
785.592	4290.25
785.851	3070.25
786.109	2369.25
786.368	1879.25
786.626	1547.25
786.884	1317.25
787.143	1141.25
787.401	930.25
787.659	856.25
787.917	752.25
788.175	744.25
788.433	649.25
788.691	598.25
788.949	555.25
789.207	555.25
789.465	498.25
789.723	480.25
789.98	444.25
790.238	486.25
790.496	452.25
790.753	442.25
791.011	496.25
791.268	436.25
791.526	440.25
791.783	440.25
792.041	447.25
792.298	362.25
792.556	431.25
792.813	424.25
793.07	381.25
793.327	385.25
793.584	478.25
793.841	389.25
794.099	409.25
794.356	473.25
794.613	376.25
794.869	405.25
795.126	380.25
795.383	357.25
795.64	387.25
795.897	338.25
796.153	391.25
796.41	378.25
796.667	357.25
796.923	381.25
797.18	366.25
797.436	402.25
797.693	372.25
797.949	421.25
798.206	436.25
798.462	359.25
798.718	415.25
798.974	385.25
799.231	434.25
799.487	415.25
799.743	434.25
799.999	454.25
800.255	451.25
800.511	425.25
800.767	465.25
801.023	449.25
801.279	484.25
801.534	503.25
801.79	531.25
802.046	525.25
802.302	641.25
802.557	708.25
802.813	871.25
803.068	1018.25
803.324	1402.25
803.579	1836.25
803.835	2483.25
804.09	3383.25
804.345	4342.25
804.601	5416.25
804.856	6557.25
805.111	7599.25
805.366	8340.25
805.621	8921.25
805.876	9336.25
806.131	9565.25
806.386	9759.25
806.641	9910.25
806.896	10082.25
807.151	10331.25
807.406	10486.25
807.661	10686.25
807.915	10833.25
808.17	10986.25
808.425	11105.25
808.679	11183.25
808.934	11361.25
809.188	11464.25
809.443	11588.25
809.697	11766.25
809.951	11812.25
810.206	11845.25
810.46	12040.25
810.714	12136.25
810.968	12200.25
811.223	12257.25
811.477	12357.25
811.731	12434.25
811.985	12522.25
812.239	12539.25
812.493	12670.25
812.747	12653.25
813	12736.25
813.254	12793.25
813.508	12834.25
813.762	12873.25
814.015	12949.25
814.269	13017.25
814.522	13229.25
814.776	13325.25
815.03	13464.25
815.283	13709.25
815.536	13896.25
815.79	14114.25
816.043	14313.25
816.296	14546.25
816.55	14623.25
816.803	14780.25
817.056	15148.25
817.309	15218.25
817.562	15244.25
817.815	15431.25
818.068	15565.25
818.321	15652.25
818.574	15894.25
818.827	16105.25
819.079	16358.25
819.332	16638.25
819.585	16725.25
819.838	17059.25
820.09	16897.25
820.343	17082.25
820.595	17278.25
820.848	17317.25
821.1	17455.25
821.353	17402.25
821.605	17445.25
821.857	17436.25
822.11	17299.25
822.362	17142.25
822.614	17185.25
822.866	17263.25
823.118	17209.25
823.37	17351.25
823.622	17341.25
823.874	17358.25
824.126	17489.25
824.378	17510.25
824.63	17485.25
824.882	17608.25
825.134	17478.25
825.385	17540.25
825.637	17448.25
825.888	17322.25
826.14	17379.25
826.392	17290.25
826.643	17268.25
826.895	17231.25
827.146	17238.25
827.397	17054.25
827.649	17105.25
827.9	17050.25
828.151	17126.25
828.402	17077.25
828.653	17271.25
828.905	17267.25
829.156	17283.25
829.407	17253.25
829.658	17327.25
829.909	17384.25
830.159	17244.25
830.41	17233.25
830.661	17057.25
830.912	16975.25
831.162	16934.25
831.413	16882.25
831.664	17000.25
831.914	16856.25
832.165	16859.25
832.415	16869.25
832.666	16798.25
832.916	16864.25
833.167	16811.25
833.417	16888.25
833.667	16837.25
833.917	16826.25
834.168	16714.25
834.418	16699.25
834.668	16578.25
834.918	16480.25
835.168	16458.25
835.418	16443.25
835.668	16389.25
835.918	16358.25
836.167	16332.25
836.417	16207.25
836.667	16253.25
836.917	16248.25
837.166	16156.25
837.416	16289.25
837.666	16219.25
837.915	16257.25
838.165	16172.25
838.414	16019.25
838.663	16116.25
838.913	16073.25
839.162	15997.25
839.411	15981.25
839.661	15972.25
839.91	15972.25
840.159	15894.25
840.408	15918.25
840.657	15886.25
840.906	15869.25
841.155	15890.25
841.404	15823.25
841.653	15893.25
841.902	15859.25
842.15	16012.25
842.399	16002.25
842.648	16007.25
842.897	15843.25
843.145	15755.25
843.394	15716.25
843.642	15622.25
843.891	15513.25
844.139	15459.25
844.388	15280.25
844.636	15269.25
844.884	15297.25
845.133	15211.25
845.381	15213.25
845.629	15218.25
845.877	15136.25
846.125	15167.25
846.373	15164.25
846.621	15090.25
846.869	15091.25
847.117	15009.25
847.365	14759.25
847.613	14842.25
847.861	14799.25
848.108	14765.25
848.356	14739.25
848.604	14778.25
848.851	14763.25
849.099	14721.25
849.346	14813.25
849.594	14920.25
849.841	15019.25
850.089	15042.25
850.336	15089.25
850.583	15158.25
850.831	15074.25
851.078	14971.25
851.325	14930.25
851.572	14774.25
851.819	14700.25
852.066	14429.25
852.313	14190.25
852.56	14043.25
852.807	14012.25
853.054	13973.25
853.301	13981.25
853.548	14041.25
853.794	14156.25
854.041	14046.25
854.288	14156.25
854.534	14259.25
854.781	14138.25
855.028	14277.25
855.274	14313.25
855.52	14092.25
855.767	14133.25
856.013	14076.25
856.26	14437.25
856.506	13914.25
856.752	13978.25
856.998	13939.25
857.244	13996.25
857.49	14001.25
857.736	14111.25
857.982	14110.25
858.228	13934.25
858.474	13842.25
858.72	13892.25
858.966	13655.25
859.212	13536.25
859.458	13457.25
859.703	13309.25
859.949	13139.25
860.195	13080.25
860.44	13094.25
860.686	12972.25
860.931	13057.25
861.177	12888.25
861.422	12840.25
861.667	12790.25
861.913	12755.25
862.158	12759.25
862.403	12832.25
862.648	12843.25
862.893	12944.25
863.138	12911.25
863.384	12860.25
863.629	12828.25
863.873	12860.25
864.118	12719.25
864.363	12659.25
864.608	12649.25
864.853	12703.25
865.098	12529.25
865.342	12518.25
865.587	12458.25
865.832	12457.25
866.076	12448.25
866.321	12430.25
866.565	12373.25
866.81	12269.25
867.054	12196.25
867.298	12221.25
867.543	12164.25
867.787	12183.25
868.031	12110.25
868.275	12148.25
868.519	12056.25
868.764	12113.25
869.008	12083.25
869.252	11993.25
869.496	11913.25
869.739	11990.25
869.983	11996.25
870.227	11993.25
870.471	11940.25
870.715	11976.25
870.958	11991.25
871.202	12001.25
871.446	12124.25
871.689	12021.25
871.933	12050.25
872.176	12056.25
872.42	12010.25
872.663	12003.25
872.906	12090.25
873.15	11957.25
873.393	11957.25
873.636	12004.25
873.879	11764.25
874.122	11717.25
874.366	11500.25
874.609	11411.25
874.852	11312.25
875.095	11241.25
875.337	11204.25
875.58	11126.25
875.823	11157.25
876.066	11072.25
876.309	11092.25
876.551	10942.25
876.794	10941.25
877.037	10875.25
877.279	10827.25
877.522	10888.25
877.764	10874.25
878.007	10807.25
878.249	10781.25
878.491	10779.25
878.734	10823.25
878.976	10774.25
879.218	10656.25
879.46	10657.25
879.702	10569.25
879.945	10546.25
880.187	10329.25
880.429	10407.25
880.671	10370.25
880.912	10309.25
881.154	10337.25
881.396	10143.25
881.638	10253.25
881.88	10243.25
882.121	10141.25
882.363	10188.25
882.605	10184.25
882.846	10134.25
883.088	10099.25
883.329	10079.25
883.571	10153.25
883.812	10300.25
884.053	10442.25
884.295	10675.25
884.536	10755.25
884.777	10557.25
885.018	10514.25
885.259	10555.25
885.5	10380.25
885.742	10657.25
885.982	10441.25
886.223	10310.25
886.464	10193.25
886.705	10089.25
886.946	10005.25
887.187	9859.25
887.428	9750.25
887.668	9602.25
887.909	9538.25
888.15	9378.25
888.39	9450.25
888.631	9336.25
888.871	9269.25
889.111	9119.25
889.352	9158.25
889.592	9029.25
889.833	8971.25
890.073	8930.25
890.313	8894.25
890.553	8729.25
890.793	8746.25
891.033	8678.25
891.273	8663.25
891.513	8649.25
891.753	8677.25
891.993	8581.25
892.233	8651.25
892.473	8702.25
892.713	8689.25
892.952	8638.25
893.192	8570.25
893.432	8612.25
893.671	8649.25
893.911	8573.25
894.15	8534.25
894.39	8418.25
894.629	8455.25
894.869	8416.25
895.108	8343.25
895.347	8341.25
895.587	8336.25
895.826	8194.25
896.065	8281.25
896.304	8227.25
896.543	8290.25
896.782	8141.25
897.021	8133.25
897.26	8151.25
897.499	8208.25
897.738	8161.25
897.977	8005.25
898.216	8085.25
898.454	7983.25
898.693	7915.25
898.932	7973.25
899.17	7833.25
899.409	7814.25
899.647	7800.25
899.886	7813.25
900.124	7884.25
900.363	7795.25
900.601	7861.25
900.839	7954.25
901.078	7878.25
901.316	7910.25
901.554	7930.25
901.792	7951.25
902.03	7910.25
902.268	7856.25
902.506	7966.25
902.744	7842.25
902.982	7828.25
903.22	7642.25
903.458	7595.25
903.695	7518.25
903.933	7355.25
904.171	7209.25
904.409	7171.25
904.646	7053.25
904.884	7068.25
905.121	6969.25
905.359	6908.25
905.596	6784.25
905.833	6764.25
906.071	6650.25
906.308	6724.25
906.545	6663.25
906.783	6643.25
907.02	6610.25
907.257	6633.25
907.494	6571.25
907.731	6617.25
907.968	6478.25
908.205	6430.25
908.442	6441.25
908.679	6429.25
908.915	6361.25
909.152	6345.25
909.389	6201.25
909.626	6266.25
909.862	6119.25
910.099	6133.25
910.335	6165.25
910.572	6033.25
910.808	6042.25
911.045	6102.25
911.281	6052.25
911.518	6086.25
911.754	5965.25
911.99	5957.25
912.226	5927.25
912.463	5803.25
912.699	5819.25
912.935	5767.25
913.171	5729.25
913.407	5656.25
913.643	5693.25
913.879	5623.25
914.114	5512.25
914.35	5508.25
914.586	5454.25
914.822	5419.25
915.057	5443.25
915.293	5337.25
915.529	5308.25
915.764	5379.25
916	5312.25
916.235	5347.25
916.471	5302.25
916.706	5203.25
916.941	5258.25
917.177	5243.25
917.412	5250.25
917.647	5281.25
917.882	5208.25
918.117	5254.25
918.352	5217.25
918.588	5246.25
918.823	5145.25
919.057	5035.25
919.292	4957.25
919.527	5029.25
919.762	4898.25
919.997	4975.25
920.232	4825.25
920.466	4867.25
920.701	4704.25
920.935	4773.25
921.17	4690.25
921.405	4685.25
921.639	4721.25
921.873	4654.25
922.108	4683.25
922.342	4696.25
922.576	4560.25
922.811	4557.25
923.045	4618.25
923.279	4633.25
923.513	4466.25
923.747	4548.25
923.981	4497.25
924.215	4470.25
924.449	4394.25
924.683	4353.25
924.917	4328.25
925.151	4372.25
925.385	4371.25
925.618	4354.25
925.852	4369.25
926.086	4277.25
926.319	4295.25
926.553	4293.25
926.786	4300.25
927.02	4228.25
927.253	4354.25
927.486	4308.25
927.72	4246.25
927.953	4275.25
928.186	4237.25
928.42	4256.25
928.653	4200.25
928.886	4165.25
929.119	4181.25
929.352	4186.25
929.585	4137.25
929.818	4057.25
930.051	4078.25
930.284	4053.25
930.516	3969.25
930.749	3937.25
930.982	4002.25
931.215	3986.25
931.447	3892.25
931.68	3918.25
931.912	3885.25
932.145	3842.25
932.377	3901.25
932.61	3987.25
932.842	3836.25
933.074	3922.25
933.307	3831.25
933.539	3953.25
933.771	3881.25
934.003	3861.25
934.236	3912.25
934.468	3922.25
934.7	3842.25
934.932	3845.25
935.164	3763.25
935.395	3742.25
935.627	3779.25
935.859	3812.25
936.091	3704.25
936.323	3807.25
936.554	3790.25
936.786	3783.25
937.017	3678.25
937.249	3742.25
937.481	3658.25
937.712	3699.25
937.943	3666.25
938.175	3653.25
938.406	3665.25
938.637	3677.25
938.869	3596.25
939.1	3651.25
939.331	3621.25
939.562	3656.25
939.793	3593.25
940.024	3640.25
940.255	3642.25
940.486	3571.25
940.717	3585.25
940.948	3508.25
941.179	3478.25
941.409	3512.25
941.64	3490.25
941.871	3500.25
942.102	3524.25
942.332	3475.25
942.563	3497.25
942.793	3507.25
943.024	3418.25
943.254	3500.25
943.484	3482.25
943.715	3486.25
943.945	3474.25
944.175	3399.25
944.405	3408.25
944.636	3409.25
944.866	3474.25
945.096	3472.25
945.326	3358.25
945.556	3384.25
945.786	3384.25
946.016	3383.25
946.245	3310.25
946.475	3287.25
946.705	3315.25
946.935	3265.25
947.164	3305.25
947.394	3244.25
947.624	3258.25
947.853	3318.25
948.083	3189.25
948.312	3225.25
948.542	3137.25
948.771	3153.25
949	3142.25
949.23	3131.25
949.459	3155.25
949.688	3196.25
949.917	3166.25
950.146	3128.25
950.375	3181.25
950.604	3137.25
950.833	3210.25
951.062	3168.25
951.291	3124.25
951.52	3060.25
951.749	3112.25
951.978	3083.25
952.206	3036.25
952.435	3044.25
952.664	3125.25
952.892	3065.25
953.121	3042.25
953.349	3037.25
953.578	3051.25
953.806	3017.25
954.035	2998.25
954.263	3012.25
954.491	2932.25
954.719	2936.25
954.948	2936.25
955.176	2894.25
955.404	2867.25
955.632	2912.25
955.86	2919.25
956.088	2889.25
956.316	2880.25
956.544	2928.25
956.772	2831.25
956.999	2786.25
957.227	2873.25
957.455	2806.25
957.683	2785.25
957.91	2777.25
958.138	2744.25
958.365	2756.25
958.593	2779.25
958.82	2671.25
959.048	2737.25
959.275	2680.25
959.502	2697.25
959.73	2687.25
959.957	2687.25
960.184	2734.25
960.411	2673.25
960.638	2744.25
960.865	2693.25
961.092	2694.25
961.319	2598.25
961.546	2675.25
961.773	2714.25
962	2637.25
962.227	2688.25
962.454	2624.25
962.68	2645.25
962.907	2659.25
963.134	2576.25
963.36	2596.25
963.587	2598.25
963.813	2544.25
964.04	2573.25
964.266	2537.25
964.493	2589.25
964.719	2566.25
964.945	2570.25
965.171	2410.25
965.398	2498.25
965.624	2528.25
965.85	2411.25
966.076	2430.25
966.302	2478.25
966.528	2434.25
966.754	2443.25
966.98	2447.25
967.206	2487.25
967.431	2366.25
967.657	2414.25
967.883	2414.25
968.109	2427.25
968.334	2380.25
968.56	2340.25
968.785	2352.25
969.011	2321.25
969.236	2377.25
969.462	2343.25
969.687	2317.25
969.912	2355.25
970.138	2332.25
970.363	2278.25
970.588	2337.25
970.813	2338.25
971.038	2264.25
971.263	2319.25
971.488	2293.25
971.713	2305.25
971.938	2306.25
972.163	2203.25
972.388	2232.25
972.613	2222.25
972.838	2227.25
973.062	2212.25
973.287	2200.25
973.512	2112.25
973.736	2196.25
973.961	2171.25
974.185	2135.25
974.41	2193.25
974.634	2067.25
974.858	2063.25
975.083	2109.25
975.307	2129.25
975.531	2083.25
975.755	2030.25
975.98	2065.25
976.204	1994.25
976.428	2007.25
976.652	2010.25
976.876	1947.25
977.1	2017.25
977.324	1937.25
977.547	2028.25
977.771	2030.25
977.995	1977.25
978.219	1956.25
978.442	2021.25
978.666	1961.25
978.89	1955.25
979.113	1962.25
979.337	1961.25
979.56	1949.25
979.783	1961.25
980.007	1904.25
980.23	1930.25
980.453	1881.25
980.677	1886.25
980.9	1907.25
981.123	1833.25
981.346	1909.25
981.569	1878.25
981.792	1921.25
982.015	1885.25
982.238	1810.25
982.461	1864.25
982.684	1836.25
982.907	1784.25
983.129	1784.25
983.352	1823.25
983.575	1822.25
983.797	1791.25
984.02	1717.25
984.242	1765.25
984.465	1770.25
984.687	1814.25
984.91	1801.25
985.132	1781.25
985.354	1787.25
985.577	1737.25
985.799	1749.25
986.021	1660.25
986.243	1705.25
986.465	1726.25
986.687	1760.25
986.909	1797.25
987.131	1740.25
987.353	1719.25
987.575	1716.25
987.797	1691.25
988.019	1596.25
988.241	1687.25
988.462	1672.25
988.684	1710.25
988.906	1722.25
989.127	1712.25
989.349	1646.25
989.57	1667.25
989.792	1713.25
990.013	1720.25
990.234	1683.25
990.456	1700.25
990.677	1713.25
990.898	1664.25
991.119	1666.25
991.341	1686.25
991.562	1621.25
991.783	1642.25
992.004	1606.25
992.225	1570.25
992.446	1626.25
992.667	1522.25
992.887	1624.25
993.108	1499.25
993.329	1628.25
993.55	1613.25
993.77	1509.25
993.991	1517.25
994.212	1565.25
994.432	1538.25
994.653	1552.25
994.873	1550.25
995.093	1429.25
995.314	1486.25
995.534	1550.25
995.754	1575.25
995.975	1570.25
996.195	1482.25
996.415	1504.25
996.635	1512.25
996.855	1533.25
997.075	1489.25
997.295	1477.25
997.515	1478.25
997.735	1503.25
997.955	1471.25
998.174	1486.25
998.394	1449.25
998.614	1519.25
998.834	1475.25
999.053	1495.25
999.273	1496.25
999.492	1536.25
999.712	1463.25
999.931	1447.25
1000.151	1505.25
1000.37	1470.25
1000.589	1515.25
1000.809	1443.25
1001.028	1528.25
1001.247	1487.25
1001.466	1377.25
1001.685	1538.25
1001.904	1461.25
1002.123	1445.25
1002.342	1439.25
1002.561	1417.25
1002.78	1447.25
1002.999	1475.25
1003.218	1427.25
1003.436	1407.25
1003.655	1451.25
1003.874	1401.25
1004.092	1417.25
1004.311	1443.25
1004.53	1423.25
1004.748	1492.25
1004.966	1431.25
1005.185	1457.25
1005.403	1462.25
1005.622	1422.25
1005.84	1491.25
1006.058	1393.25
1006.276	1429.25
1006.494	1928.25
1006.712	1428.25
1006.931	1478.25
1007.149	1389.25
1007.367	1387.25
1007.584	1451.25
1007.802	1463.25
1008.02	1395.25
1008.238	1503.25
1008.456	1497.25
1008.673	1356.25
1008.891	1464.25
1009.109	1408.25
1009.326	1464.25
1009.544	1530.25
1009.761	1436.25
1009.979	1556.25
1010.196	1560.25
1010.413	1643.25
1010.631	1696.25
1010.848	1715.25
1011.065	1725.25
1011.282	1642.25
1011.5	1603.25
1011.717	1713.25
1011.934	1625.25
1012.151	1645.25
1012.368	1621.25
1012.585	1600.25
1012.801	1666.25
1013.018	1587.25
1013.235	1592.25
1013.452	1606.25
1013.669	1621.25
1013.885	1571.25
1014.102	1614.25
1014.318	1626.25
1014.535	1555.25
1014.751	1587.25
1014.968	1568.25
1015.184	1588.25
1015.401	1531.25
1015.617	1543.25
1015.833	1489.25
1016.049	1502.25
1016.266	1451.25
1016.482	1466.25
1016.698	1425.25
1016.914	1461.25
1017.13	1417.25
1017.346	1399.25
1017.562	1436.25
1017.778	1381.25
1017.993	1351.25
1018.209	1427.25
1018.425	1401.25
1018.641	1361.25
1018.856	1334.25
1019.072	1353.25
1019.288	1419.25
1019.503	1351.25
1019.719	1263.25
1019.934	1303.25
1020.149	1364.25
1020.365	1287.25
1020.58	1271.25
1020.795	1310.25
1021.011	1254.25
1021.226	1247.25
1021.441	1247.25
1021.656	1185.25
1021.871	1124.25
1022.086	1149.25
1022.301	1101.25
1022.516	1095.25
1022.731	1157.25
1022.946	1069.25
1023.16	1083.25
1023.375	1049.25
1023.59	1009.25
1023.804	999.25
1024.019	1090.25
1024.234	965.25
1024.448	978.25
1024.663	929.25
1024.877	936.25
1025.092	959.25
1025.306	966.25
1025.52	868.25
1025.734	962.25
1025.949	860.25
1026.163	856.25
1026.377	810.25
1026.591	858.25
1026.805	798.25
1027.019	772.25
1027.233	740.25
1027.447	688.25
1027.661	802.25
1027.875	732.25
1028.088	771.25
1028.302	676.25
1028.516	679.25
1028.73	678.25
1028.943	659.25
1029.157	613.25
1029.37	577.25
1029.584	-0.75
1029.797	-3.75
1030.011	-1.75
1030.224	0.25
