Data from QEP037381__29__11-25-45-594.txt Node

Date: Wed Dec 21 11:25:45 EST 2022
User: dcclab
Spectrometer: QEP03738
Trigger mode: 4
Integration Time (sec): 1.000000E1
Scans to average: 1
Electric dark correction enabled: true
Nonlinearity correction enabled: false
Boxcar width: 0
XAxis mode: Wavelengths
Number of Pixels in Spectrum: 1044
>>>>>Begin Spectral Data<<<<<
784.041	8.88
784.3	0.88
784.558	-3.12
784.817	-3.12
785.075	45304.88
785.334	9014.88
785.592	4636.88
785.851	3264.88
786.109	2520.88
786.368	2022.88
786.626	1631.88
786.884	1403.88
787.143	1205.88
787.401	977.88
787.659	917.88
787.917	798.88
788.175	747.88
788.433	674.88
788.691	638.88
788.949	595.88
789.207	574.88
789.465	494.88
789.723	485.88
789.98	449.88
790.238	496.88
790.496	469.88
790.753	461.88
791.011	503.88
791.268	448.88
791.526	446.88
791.783	453.88
792.041	445.88
792.298	356.88
792.556	423.88
792.813	408.88
793.07	404.88
793.327	378.88
793.584	466.88
793.841	393.88
794.099	390.88
794.356	462.88
794.613	355.88
794.869	410.88
795.126	376.88
795.383	345.88
795.64	384.88
795.897	338.88
796.153	400.88
796.41	385.88
796.667	359.88
796.923	366.88
797.18	374.88
797.436	392.88
797.693	361.88
797.949	408.88
798.206	429.88
798.462	338.88
798.718	407.88
798.974	379.88
799.231	417.88
799.487	409.88
799.743	411.88
799.999	432.88
800.255	417.88
800.511	402.88
800.767	440.88
801.023	419.88
801.279	436.88
801.534	459.88
801.79	488.88
802.046	486.88
802.302	577.88
802.557	620.88
802.813	742.88
803.068	843.88
803.324	1118.88
803.579	1404.88
803.835	1910.88
804.09	2565.88
804.345	3281.88
804.601	4070.88
804.856	4986.88
805.111	5684.88
805.366	6225.88
805.621	6592.88
805.876	6811.88
806.131	7045.88
806.386	7082.88
806.641	7252.88
806.896	7372.88
807.151	7621.88
807.406	7607.88
807.661	7701.88
807.915	7824.88
808.17	7993.88
808.425	8099.88
808.679	8109.88
808.934	8285.88
809.188	8278.88
809.443	8425.88
809.697	8579.88
809.951	8550.88
810.206	8566.88
810.46	8710.88
810.714	8818.88
810.968	8864.88
811.223	8880.88
811.477	8969.88
811.731	9007.88
811.985	8918.88
812.239	9010.88
812.493	9064.88
812.747	9116.88
813	9070.88
813.254	9180.88
813.508	9286.88
813.762	9258.88
814.015	9267.88
814.269	9346.88
814.522	9402.88
814.776	9522.88
815.03	9625.88
815.283	9716.88
815.536	9906.88
815.79	10019.88
816.043	10226.88
816.296	10368.88
816.55	10436.88
816.803	10527.88
817.056	10790.88
817.309	10754.88
817.562	10812.88
817.815	10886.88
818.068	10966.88
818.321	11069.88
818.574	11226.88
818.827	11367.88
819.079	11433.88
819.332	11741.88
819.585	11810.88
819.838	11984.88
820.09	11960.88
820.343	12054.88
820.595	12068.88
820.848	12141.88
821.1	12139.88
821.353	12129.88
821.605	12098.88
821.857	12158.88
822.11	12084.88
822.362	12002.88
822.614	12061.88
822.866	11998.88
823.118	11969.88
823.37	12136.88
823.622	12101.88
823.874	12089.88
824.126	12184.88
824.378	12130.88
824.63	12158.88
824.882	12121.88
825.134	12210.88
825.385	12235.88
825.637	12208.88
825.888	12021.88
826.14	12025.88
826.392	11961.88
826.643	11886.88
826.895	11933.88
827.146	11807.88
827.397	11768.88
827.649	11806.88
827.9	11840.88
828.151	11775.88
828.402	11741.88
828.653	11800.88
828.905	11936.88
829.156	11873.88
829.407	11766.88
829.658	11964.88
829.909	11956.88
830.159	11981.88
830.41	11916.88
830.661	11736.88
830.912	11705.88
831.162	11612.88
831.413	11611.88
831.664	11692.88
831.914	11640.88
832.165	11623.88
832.415	11558.88
832.666	11635.88
832.916	11565.88
833.167	11578.88
833.417	11631.88
833.667	11558.88
833.917	11571.88
834.168	11505.88
834.418	11489.88
834.668	11433.88
834.918	11312.88
835.168	11325.88
835.418	11187.88
835.668	11264.88
835.918	11253.88
836.167	11165.88
836.417	11192.88
836.667	11087.88
836.917	11160.88
837.166	11160.88
837.416	11225.88
837.666	11184.88
837.915	11115.88
838.165	11109.88
838.414	11014.88
838.663	11013.88
838.913	11038.88
839.162	10968.88
839.411	11134.88
839.661	11001.88
839.91	10957.88
840.159	10926.88
840.408	10966.88
840.657	10990.88
840.906	10982.88
841.155	10943.88
841.404	10914.88
841.653	10923.88
841.902	10954.88
842.15	11037.88
842.399	11089.88
842.648	10936.88
842.897	11019.88
843.145	10863.88
843.394	10777.88
843.642	10647.88
843.891	10671.88
844.139	10565.88
844.388	10474.88
844.636	10413.88
844.884	10369.88
845.133	10383.88
845.381	10397.88
845.629	10472.88
845.877	10447.88
846.125	10382.88
846.373	10366.88
846.621	10315.88
846.869	10279.88
847.117	10186.88
847.365	10141.88
847.613	10162.88
847.861	10078.88
848.108	10194.88
848.356	10101.88
848.604	10079.88
848.851	10109.88
849.099	10115.88
849.346	10140.88
849.594	10231.88
849.841	10358.88
850.089	10396.88
850.336	10479.88
850.583	10569.88
850.831	10506.88
851.078	10387.88
851.325	10286.88
851.572	10314.88
851.819	10209.88
852.066	9946.88
852.313	9734.88
852.56	9642.88
852.807	9573.88
853.054	9633.88
853.301	9630.88
853.548	9639.88
853.794	9756.88
854.041	9687.88
854.288	9672.88
854.534	9902.88
854.781	9851.88
855.028	9816.88
855.274	9872.88
855.52	9771.88
855.767	9731.88
856.013	9914.88
856.26	10088.88
856.506	9753.88
856.752	9644.88
856.998	9674.88
857.244	9672.88
857.49	9701.88
857.736	9791.88
857.982	9641.88
858.228	9659.88
858.474	9548.88
858.72	9501.88
858.966	9439.88
859.212	9313.88
859.458	9275.88
859.703	9152.88
859.949	9017.88
860.195	8979.88
860.44	8966.88
860.686	8943.88
860.931	8966.88
861.177	8898.88
861.422	8900.88
861.667	8770.88
861.913	8787.88
862.158	8789.88
862.403	8814.88
862.648	8845.88
862.893	8798.88
863.138	8766.88
863.384	8785.88
863.629	8772.88
863.873	8765.88
864.118	8748.88
864.363	8656.88
864.608	8707.88
864.853	8629.88
865.098	8518.88
865.342	8559.88
865.587	8487.88
865.832	8507.88
866.076	8496.88
866.321	8471.88
866.565	8433.88
866.81	8368.88
867.054	8334.88
867.298	8329.88
867.543	8401.88
867.787	8320.88
868.031	8314.88
868.275	8302.88
868.519	8258.88
868.764	8337.88
869.008	8271.88
869.252	8309.88
869.496	8231.88
869.739	8241.88
869.983	8315.88
870.227	8285.88
870.471	8267.88
870.715	8361.88
870.958	8369.88
871.202	8360.88
871.446	8385.88
871.689	8352.88
871.933	8374.88
872.176	8347.88
872.42	8290.88
872.663	8346.88
872.906	8449.88
873.15	8363.88
873.393	8298.88
873.636	8410.88
873.879	8333.88
874.122	8175.88
874.366	8052.88
874.609	7951.88
874.852	7893.88
875.095	7864.88
875.337	7793.88
875.58	7716.88
875.823	7745.88
876.066	7749.88
876.309	7793.88
876.551	7608.88
876.794	7475.88
877.037	7582.88
877.279	7464.88
877.522	7507.88
877.764	7529.88
878.007	7487.88
878.249	7517.88
878.491	7406.88
878.734	7510.88
878.976	7398.88
879.218	7356.88
879.46	7387.88
879.702	7304.88
879.945	7293.88
880.187	7176.88
880.429	7127.88
880.671	7123.88
880.912	7105.88
881.154	7072.88
881.396	7008.88
881.638	6974.88
881.88	7038.88
882.121	7031.88
882.363	6994.88
882.605	7076.88
882.846	6990.88
883.088	7083.88
883.329	7003.88
883.571	7126.88
883.812	7296.88
884.053	7500.88
884.295	7668.88
884.536	7852.88
884.777	7715.88
885.018	7610.88
885.259	7521.88
885.5	7556.88
885.742	7677.88
885.982	7429.88
886.223	7307.88
886.464	7320.88
886.705	7150.88
886.946	7113.88
887.187	6914.88
887.428	6859.88
887.668	6678.88
887.909	6566.88
888.15	6529.88
888.39	6505.88
888.631	6527.88
888.871	6416.88
889.111	6309.88
889.352	6336.88
889.592	6235.88
889.833	6200.88
890.073	6180.88
890.313	6149.88
890.553	6100.88
890.793	6069.88
891.033	6037.88
891.273	5986.88
891.513	6052.88
891.753	6066.88
891.993	5933.88
892.233	6045.88
892.473	6072.88
892.713	5985.88
892.952	5996.88
893.192	5957.88
893.432	5951.88
893.671	6022.88
893.911	5973.88
894.15	5936.88
894.39	5837.88
894.629	5851.88
894.869	5882.88
895.108	5808.88
895.347	5765.88
895.587	5822.88
895.826	5779.88
896.065	5767.88
896.304	5824.88
896.543	5785.88
896.782	5649.88
897.021	5759.88
897.26	5715.88
897.499	5803.88
897.738	5798.88
897.977	5733.88
898.216	5666.88
898.454	5670.88
898.693	5618.88
898.932	5697.88
899.17	5595.88
899.409	5595.88
899.647	5596.88
899.886	5524.88
900.124	5665.88
900.363	5532.88
900.601	5629.88
900.839	5649.88
901.078	5716.88
901.316	5738.88
901.554	5773.88
901.792	5797.88
902.03	5691.88
902.268	5760.88
902.506	5752.88
902.744	5733.88
902.982	5665.88
903.22	5471.88
903.458	5417.88
903.695	5391.88
903.933	5275.88
904.171	5163.88
904.409	5080.88
904.646	5076.88
904.884	4947.88
905.121	4907.88
905.359	4840.88
905.596	4823.88
905.833	4742.88
906.071	4722.88
906.308	4770.88
906.545	4678.88
906.783	4615.88
907.02	4676.88
907.257	4632.88
907.494	4625.88
907.731	4589.88
907.968	4628.88
908.205	4467.88
908.442	4486.88
908.679	4504.88
908.915	4435.88
909.152	4402.88
909.389	4347.88
909.626	4359.88
909.862	4321.88
910.099	4304.88
910.335	4324.88
910.572	4229.88
910.808	4239.88
911.045	4232.88
911.281	4214.88
911.518	4283.88
911.754	4158.88
911.99	4158.88
912.226	4127.88
912.463	4066.88
912.699	4046.88
912.935	4036.88
913.171	4012.88
913.407	3933.88
913.643	3993.88
913.879	3940.88
914.114	3863.88
914.35	3856.88
914.586	3840.88
914.822	3789.88
915.057	3814.88
915.293	3655.88
915.529	3666.88
915.764	3764.88
916	3761.88
916.235	3721.88
916.471	3738.88
916.706	3644.88
916.941	3644.88
917.177	3671.88
917.412	3693.88
917.647	3678.88
917.882	3610.88
918.117	3627.88
918.352	3666.88
918.588	3711.88
918.823	3569.88
919.057	3613.88
919.292	3456.88
919.527	3574.88
919.762	3489.88
919.997	3495.88
920.232	3427.88
920.466	3422.88
920.701	3300.88
920.935	3328.88
921.17	3316.88
921.405	3265.88
921.639	3338.88
921.873	3258.88
922.108	3278.88
922.342	3296.88
922.576	3231.88
922.811	3228.88
923.045	3283.88
923.279	3289.88
923.513	3115.88
923.747	3198.88
923.981	3216.88
924.215	3150.88
924.449	3160.88
924.683	3072.88
924.917	3114.88
925.151	3097.88
925.385	3137.88
925.618	3119.88
925.852	3084.88
926.086	2995.88
926.319	3047.88
926.553	3044.88
926.786	3078.88
927.02	3056.88
927.253	3091.88
927.486	3079.88
927.72	2991.88
927.953	3062.88
928.186	3015.88
928.42	3020.88
928.653	2967.88
928.886	2926.88
929.119	3009.88
929.352	2972.88
929.585	2937.88
929.818	2911.88
930.051	2951.88
930.284	2888.88
930.516	2807.88
930.749	2821.88
930.982	2844.88
931.215	2878.88
931.447	2787.88
931.68	2833.88
931.912	2817.88
932.145	2808.88
932.377	2795.88
932.61	2931.88
932.842	2722.88
933.074	2813.88
933.307	2734.88
933.539	2878.88
933.771	2837.88
934.003	2751.88
934.236	2863.88
934.468	2833.88
934.7	2751.88
934.932	2804.88
935.164	2778.88
935.395	2711.88
935.627	2732.88
935.859	2772.88
936.091	2703.88
936.323	2714.88
936.554	2752.88
936.786	2715.88
937.017	2679.88
937.249	2686.88
937.481	2606.88
937.712	2685.88
937.943	2669.88
938.175	2641.88
938.406	2629.88
938.637	2682.88
938.869	2588.88
939.1	2655.88
939.331	2650.88
939.562	2629.88
939.793	2590.88
940.024	2627.88
940.255	2662.88
940.486	2620.88
940.717	2590.88
940.948	2584.88
941.179	2520.88
941.409	2559.88
941.64	2537.88
941.871	2561.88
942.102	2533.88
942.332	2542.88
942.563	2590.88
942.793	2563.88
943.024	2514.88
943.254	2514.88
943.484	2558.88
943.715	2574.88
943.945	2573.88
944.175	2501.88
944.405	2432.88
944.636	2474.88
944.866	2515.88
945.096	2511.88
945.326	2435.88
945.556	2502.88
945.786	2548.88
946.016	2471.88
946.245	2417.88
946.475	2419.88
946.705	2422.88
946.935	2398.88
947.164	2427.88
947.394	2352.88
947.624	2392.88
947.853	2454.88
948.083	2371.88
948.312	2326.88
948.542	2258.88
948.771	2261.88
949	2300.88
949.23	2288.88
949.459	2333.88
949.688	2382.88
949.917	2340.88
950.146	2303.88
950.375	2371.88
950.604	2269.88
950.833	2324.88
951.062	2328.88
951.291	2302.88
951.52	2235.88
951.749	2273.88
951.978	2243.88
952.206	2201.88
952.435	2203.88
952.664	2252.88
952.892	2282.88
953.121	2233.88
953.349	2225.88
953.578	2247.88
953.806	2197.88
954.035	2162.88
954.263	2193.88
954.491	2145.88
954.719	2186.88
954.948	2127.88
955.176	2152.88
955.404	2038.88
955.632	2140.88
955.86	2151.88
956.088	2098.88
956.316	2125.88
956.544	2141.88
956.772	2057.88
956.999	2047.88
957.227	2141.88
957.455	2017.88
957.683	2024.88
957.91	2014.88
958.138	2005.88
958.365	2024.88
958.593	2015.88
958.82	1946.88
959.048	2044.88
959.275	2010.88
959.502	1982.88
959.73	1977.88
959.957	1992.88
960.184	2004.88
960.411	1952.88
960.638	2048.88
960.865	1975.88
961.092	2009.88
961.319	1870.88
961.546	1993.88
961.773	2007.88
962	1996.88
962.227	2005.88
962.454	1940.88
962.68	1948.88
962.907	1971.88
963.134	1906.88
963.36	1940.88
963.587	1959.88
963.813	1930.88
964.04	1938.88
964.266	1872.88
964.493	1943.88
964.719	1908.88
964.945	1901.88
965.171	1826.88
965.398	1898.88
965.624	1883.88
965.85	1814.88
966.076	1804.88
966.302	1839.88
966.528	1815.88
966.754	1840.88
966.98	1835.88
967.206	1839.88
967.431	1771.88
967.657	1845.88
967.883	1815.88
968.109	1790.88
968.334	1759.88
968.56	1757.88
968.785	1756.88
969.011	1738.88
969.236	1834.88
969.462	1726.88
969.687	1746.88
969.912	1779.88
970.138	1812.88
970.363	1710.88
970.588	1761.88
970.813	1747.88
971.038	1718.88
971.263	1736.88
971.488	1718.88
971.713	1753.88
971.938	1744.88
972.163	1648.88
972.388	1694.88
972.613	1658.88
972.838	1713.88
973.062	1696.88
973.287	1672.88
973.512	1613.88
973.736	1662.88
973.961	1642.88
974.185	1619.88
974.41	1663.88
974.634	1536.88
974.858	1611.88
975.083	1608.88
975.307	1644.88
975.531	1566.88
975.755	1537.88
975.98	1570.88
976.204	1492.88
976.428	1505.88
976.652	1495.88
976.876	1494.88
977.1	1542.88
977.324	1493.88
977.547	1546.88
977.771	1557.88
977.995	1528.88
978.219	1443.88
978.442	1588.88
978.666	1502.88
978.89	1534.88
979.113	1473.88
979.337	1507.88
979.56	1460.88
979.783	1555.88
980.007	1421.88
980.23	1474.88
980.453	1453.88
980.677	1470.88
980.9	1473.88
981.123	1378.88
981.346	1484.88
981.569	1459.88
981.792	1495.88
982.015	1442.88
982.238	1407.88
982.461	1439.88
982.684	1416.88
982.907	1369.88
983.129	1384.88
983.352	1434.88
983.575	1419.88
983.797	1420.88
984.02	1376.88
984.242	1355.88
984.465	1363.88
984.687	1404.88
984.91	1433.88
985.132	1402.88
985.354	1429.88
985.577	1370.88
985.799	1370.88
986.021	1338.88
986.243	1331.88
986.465	1383.88
986.687	1395.88
986.909	1449.88
987.131	1365.88
987.353	1344.88
987.575	1373.88
987.797	1351.88
988.019	1254.88
988.241	1333.88
988.462	1282.88
988.684	1355.88
988.906	1386.88
989.127	1417.88
989.349	1278.88
989.57	1334.88
989.792	1342.88
990.013	1390.88
990.234	1366.88
990.456	1394.88
990.677	1399.88
990.898	1330.88
991.119	1305.88
991.341	1349.88
991.562	1300.88
991.783	1311.88
992.004	1263.88
992.225	1244.88
992.446	1303.88
992.667	1224.88
992.887	1295.88
993.108	1224.88
993.329	1329.88
993.55	1266.88
993.77	1214.88
993.991	1231.88
994.212	1270.88
994.432	1255.88
994.653	1275.88
994.873	1264.88
995.093	1163.88
995.314	1215.88
995.534	1281.88
995.754	1281.88
995.975	1336.88
996.195	1214.88
996.415	1266.88
996.635	1255.88
996.855	1271.88
997.075	1256.88
997.295	1232.88
997.515	1226.88
997.735	1251.88
997.955	1264.88
998.174	1231.88
998.394	1221.88
998.614	1255.88
998.834	1206.88
999.053	1268.88
999.273	1252.88
999.492	1308.88
999.712	1244.88
999.931	1211.88
1000.151	1259.88
1000.37	1228.88
1000.589	1293.88
1000.809	1218.88
1001.028	1351.88
1001.247	1258.88
1001.466	1164.88
1001.685	1306.88
1001.904	1227.88
1002.123	1239.88
1002.342	1223.88
1002.561	1200.88
1002.78	1226.88
1002.999	1292.88
1003.218	1242.88
1003.436	1208.88
1003.655	1263.88
1003.874	1191.88
1004.092	1221.88
1004.311	1273.88
1004.53	1232.88
1004.748	1278.88
1004.966	1228.88
1005.185	1270.88
1005.403	1283.88
1005.622	1268.88
1005.84	1313.88
1006.058	1216.88
1006.276	1253.88
1006.494	1721.88
1006.712	1251.88
1006.931	1309.88
1007.149	1203.88
1007.367	1235.88
1007.584	1267.88
1007.802	1314.88
1008.02	1259.88
1008.238	1354.88
1008.456	1370.88
1008.673	1232.88
1008.891	1344.88
1009.109	1304.88
1009.326	1372.88
1009.544	1452.88
1009.761	1384.88
1009.979	1493.88
1010.196	1510.88
1010.413	1600.88
1010.631	1655.88
1010.848	1713.88
1011.065	1692.88
1011.282	1652.88
1011.5	1556.88
1011.717	1706.88
1011.934	1622.88
1012.151	1680.88
1012.368	1655.88
1012.585	1590.88
1012.801	1662.88
1013.018	1600.88
1013.235	1614.88
1013.452	1620.88
1013.669	1618.88
1013.885	1612.88
1014.102	1652.88
1014.318	1632.88
1014.535	1586.88
1014.751	1600.88
1014.968	1613.88
1015.184	1607.88
1015.401	1510.88
1015.617	1554.88
1015.833	1521.88
1016.049	1509.88
1016.266	1480.88
1016.482	1495.88
1016.698	1415.88
1016.914	1474.88
1017.13	1410.88
1017.346	1422.88
1017.562	1473.88
1017.778	1404.88
1017.993	1367.88
1018.209	1439.88
1018.425	1400.88
1018.641	1375.88
1018.856	1341.88
1019.072	1370.88
1019.288	1427.88
1019.503	1378.88
1019.719	1297.88
1019.934	1306.88
1020.149	1394.88
1020.365	1303.88
1020.58	1266.88
1020.795	1308.88
1021.011	1215.88
1021.226	1231.88
1021.441	1257.88
1021.656	1172.88
1021.871	1132.88
1022.086	1135.88
1022.301	1104.88
1022.516	1103.88
1022.731	1162.88
1022.946	1069.88
1023.16	1046.88
1023.375	1022.88
1023.59	983.88
1023.804	962.88
1024.019	1074.88
1024.234	940.88
1024.448	961.88
1024.663	901.88
1024.877	920.88
1025.092	923.88
1025.306	911.88
1025.52	830.88
1025.734	919.88
1025.949	880.88
1026.163	822.88
1026.377	763.88
1026.591	834.88
1026.805	748.88
1027.019	762.88
1027.233	716.88
1027.447	658.88
1027.661	775.88
1027.875	706.88
1028.088	727.88
1028.302	642.88
1028.516	650.88
1028.73	655.88
1028.943	638.88
1029.157	609.88
1029.37	572.88
1029.584	2.88
1029.797	-1.12
1030.011	-4.12
1030.224	-1.12
