Data from QEP037381__77__11-33-45-597.txt Node

Date: Wed Dec 21 11:33:45 EST 2022
User: dcclab
Spectrometer: QEP03738
Trigger mode: 4
Integration Time (sec): 1.000000E1
Scans to average: 1
Electric dark correction enabled: true
Nonlinearity correction enabled: false
Boxcar width: 0
XAxis mode: Wavelengths
Number of Pixels in Spectrum: 1044
>>>>>Begin Spectral Data<<<<<
784.041	12.88
784.3	2.88
784.558	-2.12
784.817	-2.12
785.075	41244.88
785.334	8321.88
785.592	4425.88
785.851	3111.88
786.109	2381.88
786.368	1932.88
786.626	1579.88
786.884	1371.88
787.143	1120.88
787.401	947.88
787.659	884.88
787.917	770.88
788.175	735.88
788.433	652.88
788.691	598.88
788.949	558.88
789.207	560.88
789.465	480.88
789.723	478.88
789.98	435.88
790.238	493.88
790.496	456.88
790.753	450.88
791.011	489.88
791.268	434.88
791.526	442.88
791.783	447.88
792.041	424.88
792.298	342.88
792.556	421.88
792.813	402.88
793.07	393.88
793.327	370.88
793.584	464.88
793.841	376.88
794.099	406.88
794.356	455.88
794.613	354.88
794.869	395.88
795.126	373.88
795.383	356.88
795.64	373.88
795.897	336.88
796.153	393.88
796.41	371.88
796.667	372.88
796.923	359.88
797.18	375.88
797.436	379.88
797.693	351.88
797.949	397.88
798.206	420.88
798.462	331.88
798.718	397.88
798.974	369.88
799.231	409.88
799.487	388.88
799.743	396.88
799.999	433.88
800.255	407.88
800.511	385.88
800.767	426.88
801.023	407.88
801.279	434.88
801.534	446.88
801.79	481.88
802.046	476.88
802.302	553.88
802.557	595.88
802.813	718.88
803.068	789.88
803.324	1023.88
803.579	1333.88
803.835	1778.88
804.09	2408.88
804.345	3051.88
804.601	3734.88
804.856	4502.88
805.111	5194.88
805.366	5659.88
805.621	6055.88
805.876	6322.88
806.131	6431.88
806.386	6508.88
806.641	6681.88
806.896	6788.88
807.151	6919.88
807.406	6964.88
807.661	7094.88
807.915	7250.88
808.17	7373.88
808.425	7411.88
808.679	7472.88
808.934	7608.88
809.188	7627.88
809.443	7682.88
809.697	7843.88
809.951	7830.88
810.206	7929.88
810.46	8021.88
810.714	8045.88
810.968	8204.88
811.223	8138.88
811.477	8283.88
811.731	8308.88
811.985	8326.88
812.239	8322.88
812.493	8387.88
812.747	8449.88
813	8363.88
813.254	8466.88
813.508	8632.88
813.762	8490.88
814.015	8559.88
814.269	8653.88
814.522	8711.88
814.776	8773.88
815.03	8886.88
815.283	8999.88
815.536	9190.88
815.79	9306.88
816.043	9484.88
816.296	9529.88
816.55	9684.88
816.803	9712.88
817.056	9942.88
817.309	10044.88
817.562	10001.88
817.815	10205.88
818.068	10173.88
818.321	10267.88
818.574	10415.88
818.827	10558.88
819.079	10662.88
819.332	10932.88
819.585	10985.88
819.838	11194.88
820.09	11154.88
820.343	11150.88
820.595	11208.88
820.848	11315.88
821.1	11336.88
821.353	11310.88
821.605	11292.88
821.857	11296.88
822.11	11222.88
822.362	11199.88
822.614	11169.88
822.866	11185.88
823.118	11198.88
823.37	11322.88
823.622	11330.88
823.874	11299.88
824.126	11364.88
824.378	11282.88
824.63	11343.88
824.882	11399.88
825.134	11280.88
825.385	11434.88
825.637	11286.88
825.888	11178.88
826.14	11265.88
826.392	11231.88
826.643	11154.88
826.895	11088.88
827.146	10967.88
827.397	10887.88
827.649	11074.88
827.9	10951.88
828.151	10952.88
828.402	11011.88
828.653	11081.88
828.905	11067.88
829.156	11133.88
829.407	11030.88
829.658	11145.88
829.909	11215.88
830.159	11168.88
830.41	11117.88
830.661	10984.88
830.912	10968.88
831.162	10840.88
831.413	10843.88
831.664	10945.88
831.914	10913.88
832.165	10815.88
832.415	10864.88
832.666	10878.88
832.916	10876.88
833.167	10830.88
833.417	10809.88
833.667	10779.88
833.917	10748.88
834.168	10780.88
834.418	10747.88
834.668	10632.88
834.918	10564.88
835.168	10622.88
835.418	10479.88
835.668	10496.88
835.918	10563.88
836.167	10438.88
836.417	10361.88
836.667	10442.88
836.917	10394.88
837.166	10347.88
837.416	10343.88
837.666	10439.88
837.915	10405.88
838.165	10273.88
838.414	10318.88
838.663	10235.88
838.913	10345.88
839.162	10222.88
839.411	10349.88
839.661	10197.88
839.91	10211.88
840.159	10239.88
840.408	10224.88
840.657	10197.88
840.906	10186.88
841.155	10243.88
841.404	10150.88
841.653	10247.88
841.902	10238.88
842.15	10259.88
842.399	10298.88
842.648	10273.88
842.897	10206.88
843.145	10151.88
843.394	10044.88
843.642	10013.88
843.891	10005.88
844.139	9842.88
844.388	9764.88
844.636	9717.88
844.884	9715.88
845.133	9615.88
845.381	9685.88
845.629	9732.88
845.877	9667.88
846.125	9654.88
846.373	9683.88
846.621	9608.88
846.869	9628.88
847.117	9604.88
847.365	9497.88
847.613	9435.88
847.861	9507.88
848.108	9486.88
848.356	9524.88
848.604	9447.88
848.851	9432.88
849.099	9495.88
849.346	9452.88
849.594	9600.88
849.841	9678.88
850.089	9671.88
850.336	9740.88
850.583	9787.88
850.831	9816.88
851.078	9655.88
851.325	9632.88
851.572	9515.88
851.819	9407.88
852.066	9178.88
852.313	9059.88
852.56	9011.88
852.807	8995.88
853.054	8888.88
853.301	8993.88
853.548	8975.88
853.794	9085.88
854.041	9072.88
854.288	9056.88
854.534	9199.88
854.781	9219.88
855.028	9180.88
855.274	9216.88
855.52	9096.88
855.767	9074.88
856.013	9212.88
856.26	9391.88
856.506	8995.88
856.752	8971.88
856.998	8942.88
857.244	9028.88
857.49	9029.88
857.736	9095.88
857.982	9062.88
858.228	9072.88
858.474	8882.88
858.72	8867.88
858.966	8735.88
859.212	8671.88
859.458	8540.88
859.703	8487.88
859.949	8456.88
860.195	8392.88
860.44	8334.88
860.686	8279.88
860.931	8361.88
861.177	8230.88
861.422	8123.88
861.667	8165.88
861.913	8132.88
862.158	8132.88
862.403	8209.88
862.648	8181.88
862.893	8255.88
863.138	8173.88
863.384	8095.88
863.629	8200.88
863.873	8212.88
864.118	8171.88
864.363	8044.88
864.608	8083.88
864.853	8077.88
865.098	7997.88
865.342	8027.88
865.587	7915.88
865.832	7962.88
866.076	7916.88
866.321	7853.88
866.565	7871.88
866.81	7782.88
867.054	7838.88
867.298	7815.88
867.543	7741.88
867.787	7813.88
868.031	7805.88
868.275	7794.88
868.519	7762.88
868.764	7750.88
869.008	7733.88
869.252	7709.88
869.496	7706.88
869.739	7720.88
869.983	7729.88
870.227	7763.88
870.471	7671.88
870.715	7757.88
870.958	7784.88
871.202	7756.88
871.446	7778.88
871.689	7798.88
871.933	7786.88
872.176	7799.88
872.42	7769.88
872.663	7691.88
872.906	7791.88
873.15	7786.88
873.393	7750.88
873.636	7848.88
873.879	7684.88
874.122	7670.88
874.366	7464.88
874.609	7450.88
874.852	7324.88
875.095	7280.88
875.337	7240.88
875.58	7160.88
875.823	7167.88
876.066	7206.88
876.309	7175.88
876.551	7103.88
876.794	7005.88
877.037	7063.88
877.279	6971.88
877.522	7005.88
877.764	7035.88
878.007	6923.88
878.249	6964.88
878.491	6882.88
878.734	6946.88
878.976	6972.88
879.218	6853.88
879.46	6858.88
879.702	6799.88
879.945	6739.88
880.187	6689.88
880.429	6634.88
880.671	6595.88
880.912	6601.88
881.154	6629.88
881.396	6466.88
881.638	6571.88
881.88	6557.88
882.121	6549.88
882.363	6498.88
882.605	6570.88
882.846	6534.88
883.088	6584.88
883.329	6550.88
883.571	6622.88
883.812	6693.88
884.053	6918.88
884.295	7075.88
884.536	7223.88
884.777	7099.88
885.018	7059.88
885.259	6997.88
885.5	6862.88
885.742	7111.88
885.982	6916.88
886.223	6769.88
886.464	6738.88
886.705	6665.88
886.946	6615.88
887.187	6400.88
887.428	6384.88
887.668	6246.88
887.909	6139.88
888.15	6045.88
888.39	6028.88
888.631	6053.88
888.871	6016.88
889.111	5890.88
889.352	5878.88
889.592	5792.88
889.833	5746.88
890.073	5747.88
890.313	5742.88
890.553	5674.88
890.793	5619.88
891.033	5564.88
891.273	5538.88
891.513	5588.88
891.753	5596.88
891.993	5589.88
892.233	5604.88
892.473	5628.88
892.713	5575.88
892.952	5500.88
893.192	5584.88
893.432	5544.88
893.671	5562.88
893.911	5561.88
894.15	5490.88
894.39	5480.88
894.629	5413.88
894.869	5472.88
895.108	5419.88
895.347	5361.88
895.587	5387.88
895.826	5353.88
896.065	5308.88
896.304	5357.88
896.543	5401.88
896.782	5269.88
897.021	5325.88
897.26	5323.88
897.499	5359.88
897.738	5402.88
897.977	5299.88
898.216	5279.88
898.454	5263.88
898.693	5174.88
898.932	5214.88
899.17	5163.88
899.409	5188.88
899.647	5176.88
899.886	5108.88
900.124	5174.88
900.363	5158.88
900.601	5162.88
900.839	5242.88
901.078	5259.88
901.316	5319.88
901.554	5280.88
901.792	5338.88
902.03	5322.88
902.268	5316.88
902.506	5315.88
902.744	5261.88
902.982	5251.88
903.22	5084.88
903.458	5012.88
903.695	4936.88
903.933	4896.88
904.171	4763.88
904.409	4715.88
904.646	4659.88
904.884	4571.88
905.121	4579.88
905.359	4581.88
905.596	4461.88
905.833	4384.88
906.071	4358.88
906.308	4399.88
906.545	4353.88
906.783	4270.88
907.02	4296.88
907.257	4263.88
907.494	4309.88
907.731	4248.88
907.968	4281.88
908.205	4179.88
908.442	4180.88
908.679	4193.88
908.915	4162.88
909.152	4083.88
909.389	4002.88
909.626	3999.88
909.862	3965.88
910.099	4003.88
910.335	4018.88
910.572	3888.88
910.808	3943.88
911.045	3893.88
911.281	3863.88
911.518	3924.88
911.754	3850.88
911.99	3821.88
912.226	3805.88
912.463	3726.88
912.699	3719.88
912.935	3759.88
913.171	3716.88
913.407	3637.88
913.643	3692.88
913.879	3594.88
914.114	3632.88
914.35	3543.88
914.586	3540.88
914.822	3477.88
915.057	3577.88
915.293	3457.88
915.529	3445.88
915.764	3480.88
916	3490.88
916.235	3449.88
916.471	3490.88
916.706	3372.88
916.941	3393.88
917.177	3351.88
917.412	3377.88
917.647	3391.88
917.882	3340.88
918.117	3414.88
918.352	3387.88
918.588	3432.88
918.823	3310.88
919.057	3292.88
919.292	3216.88
919.527	3322.88
919.762	3214.88
919.997	3257.88
920.232	3182.88
920.466	3201.88
920.701	3042.88
920.935	3131.88
921.17	3049.88
921.405	3039.88
921.639	3086.88
921.873	3034.88
922.108	3052.88
922.342	3052.88
922.576	2988.88
922.811	3020.88
923.045	2994.88
923.279	3011.88
923.513	2911.88
923.747	2997.88
923.981	2949.88
924.215	2920.88
924.449	2890.88
924.683	2869.88
924.917	2852.88
925.151	2874.88
925.385	2876.88
925.618	2851.88
925.852	2854.88
926.086	2800.88
926.319	2812.88
926.553	2796.88
926.786	2805.88
927.02	2820.88
927.253	2835.88
927.486	2844.88
927.72	2798.88
927.953	2821.88
928.186	2799.88
928.42	2785.88
928.653	2726.88
928.886	2741.88
929.119	2778.88
929.352	2770.88
929.585	2765.88
929.818	2681.88
930.051	2719.88
930.284	2728.88
930.516	2625.88
930.749	2621.88
930.982	2628.88
931.215	2618.88
931.447	2561.88
931.68	2594.88
931.912	2546.88
932.145	2586.88
932.377	2612.88
932.61	2707.88
932.842	2535.88
933.074	2578.88
933.307	2519.88
933.539	2646.88
933.771	2633.88
934.003	2545.88
934.236	2636.88
934.468	2658.88
934.7	2558.88
934.932	2566.88
935.164	2537.88
935.395	2517.88
935.627	2565.88
935.859	2561.88
936.091	2473.88
936.323	2533.88
936.554	2561.88
936.786	2495.88
937.017	2439.88
937.249	2491.88
937.481	2418.88
937.712	2523.88
937.943	2474.88
938.175	2444.88
938.406	2447.88
938.637	2503.88
938.869	2407.88
939.1	2488.88
939.331	2445.88
939.562	2425.88
939.793	2444.88
940.024	2462.88
940.255	2452.88
940.486	2389.88
940.717	2380.88
940.948	2378.88
941.179	2332.88
941.409	2352.88
941.64	2349.88
941.871	2371.88
942.102	2340.88
942.332	2368.88
942.563	2377.88
942.793	2374.88
943.024	2268.88
943.254	2326.88
943.484	2360.88
943.715	2391.88
943.945	2345.88
944.175	2259.88
944.405	2251.88
944.636	2295.88
944.866	2315.88
945.096	2319.88
945.326	2266.88
945.556	2316.88
945.786	2334.88
946.016	2281.88
946.245	2241.88
946.475	2259.88
946.705	2220.88
946.935	2212.88
947.164	2259.88
947.394	2177.88
947.624	2214.88
947.853	2245.88
948.083	2185.88
948.312	2179.88
948.542	2118.88
948.771	2101.88
949	2079.88
949.23	2122.88
949.459	2141.88
949.688	2184.88
949.917	2145.88
950.146	2122.88
950.375	2162.88
950.604	2097.88
950.833	2184.88
951.062	2188.88
951.291	2146.88
951.52	2095.88
951.749	2103.88
951.978	2063.88
952.206	2067.88
952.435	2023.88
952.664	2131.88
952.892	2098.88
953.121	2066.88
953.349	2085.88
953.578	2089.88
953.806	2033.88
954.035	2018.88
954.263	2054.88
954.491	1992.88
954.719	2020.88
954.948	1978.88
955.176	1968.88
955.404	1922.88
955.632	1967.88
955.86	1988.88
956.088	1982.88
956.316	1948.88
956.544	1998.88
956.772	1937.88
956.999	1894.88
957.227	1969.88
957.455	1892.88
957.683	1901.88
957.91	1874.88
958.138	1866.88
958.365	1879.88
958.593	1858.88
958.82	1794.88
959.048	1885.88
959.275	1855.88
959.502	1833.88
959.73	1828.88
959.957	1867.88
960.184	1833.88
960.411	1800.88
960.638	1890.88
960.865	1807.88
961.092	1865.88
961.319	1774.88
961.546	1865.88
961.773	1879.88
962	1795.88
962.227	1842.88
962.454	1840.88
962.68	1795.88
962.907	1820.88
963.134	1774.88
963.36	1781.88
963.587	1833.88
963.813	1759.88
964.04	1791.88
964.266	1731.88
964.493	1770.88
964.719	1797.88
964.945	1774.88
965.171	1670.88
965.398	1747.88
965.624	1787.88
965.85	1692.88
966.076	1672.88
966.302	1726.88
966.528	1693.88
966.754	1733.88
966.98	1712.88
967.206	1719.88
967.431	1640.88
967.657	1726.88
967.883	1680.88
968.109	1704.88
968.334	1622.88
968.56	1636.88
968.785	1617.88
969.011	1632.88
969.236	1678.88
969.462	1601.88
969.687	1651.88
969.912	1682.88
970.138	1682.88
970.363	1580.88
970.588	1661.88
970.813	1609.88
971.038	1580.88
971.263	1605.88
971.488	1616.88
971.713	1667.88
971.938	1626.88
972.163	1556.88
972.388	1574.88
972.613	1553.88
972.838	1585.88
973.062	1540.88
973.287	1573.88
973.512	1482.88
973.736	1544.88
973.961	1506.88
974.185	1503.88
974.41	1569.88
974.634	1477.88
974.858	1464.88
975.083	1502.88
975.307	1532.88
975.531	1437.88
975.755	1423.88
975.98	1446.88
976.204	1411.88
976.428	1413.88
976.652	1410.88
976.876	1377.88
977.1	1423.88
977.324	1384.88
977.547	1418.88
977.771	1431.88
977.995	1407.88
978.219	1387.88
978.442	1463.88
978.666	1423.88
978.89	1388.88
979.113	1402.88
979.337	1410.88
979.56	1361.88
979.783	1465.88
980.007	1363.88
980.23	1388.88
980.453	1368.88
980.677	1390.88
980.9	1347.88
981.123	1260.88
981.346	1381.88
981.569	1390.88
981.792	1407.88
982.015	1322.88
982.238	1331.88
982.461	1318.88
982.684	1300.88
982.907	1289.88
983.129	1305.88
983.352	1343.88
983.575	1286.88
983.797	1322.88
984.02	1301.88
984.242	1306.88
984.465	1290.88
984.687	1315.88
984.91	1362.88
985.132	1304.88
985.354	1328.88
985.577	1297.88
985.799	1316.88
986.021	1205.88
986.243	1263.88
986.465	1256.88
986.687	1314.88
986.909	1347.88
987.131	1265.88
987.353	1279.88
987.575	1247.88
987.797	1252.88
988.019	1182.88
988.241	1280.88
988.462	1220.88
988.684	1258.88
988.906	1309.88
989.127	1301.88
989.349	1196.88
989.57	1247.88
989.792	1276.88
990.013	1287.88
990.234	1281.88
990.456	1314.88
990.677	1293.88
990.898	1242.88
991.119	1245.88
991.341	1261.88
991.562	1207.88
991.783	1264.88
992.004	1203.88
992.225	1186.88
992.446	1230.88
992.667	1141.88
992.887	1225.88
993.108	1141.88
993.329	1255.88
993.55	1218.88
993.77	1165.88
993.991	1160.88
994.212	1193.88
994.432	1167.88
994.653	1205.88
994.873	1197.88
995.093	1080.88
995.314	1145.88
995.534	1216.88
995.754	1205.88
995.975	1236.88
996.195	1149.88
996.415	1229.88
996.635	1189.88
996.855	1168.88
997.075	1141.88
997.295	1179.88
997.515	1134.88
997.735	1201.88
997.955	1175.88
998.174	1147.88
998.394	1127.88
998.614	1197.88
998.834	1135.88
999.053	1205.88
999.273	1195.88
999.492	1214.88
999.712	1150.88
999.931	1121.88
1000.151	1194.88
1000.37	1176.88
1000.589	1231.88
1000.809	1137.88
1001.028	1262.88
1001.247	1196.88
1001.466	1086.88
1001.685	1212.88
1001.904	1165.88
1002.123	1151.88
1002.342	1170.88
1002.561	1126.88
1002.78	1180.88
1002.999	1226.88
1003.218	1181.88
1003.436	1156.88
1003.655	1199.88
1003.874	1147.88
1004.092	1167.88
1004.311	1198.88
1004.53	1173.88
1004.748	1247.88
1004.966	1155.88
1005.185	1215.88
1005.403	1233.88
1005.622	1177.88
1005.84	1261.88
1006.058	1154.88
1006.276	1196.88
1006.494	1674.88
1006.712	1197.88
1006.931	1252.88
1007.149	1176.88
1007.367	1183.88
1007.584	1209.88
1007.802	1249.88
1008.02	1185.88
1008.238	1293.88
1008.456	1277.88
1008.673	1153.88
1008.891	1285.88
1009.109	1237.88
1009.326	1293.88
1009.544	1360.88
1009.761	1277.88
1009.979	1379.88
1010.196	1398.88
1010.413	1501.88
1010.631	1522.88
1010.848	1556.88
1011.065	1580.88
1011.282	1514.88
1011.5	1463.88
1011.717	1548.88
1011.934	1507.88
1012.151	1517.88
1012.368	1502.88
1012.585	1465.88
1012.801	1533.88
1013.018	1501.88
1013.235	1448.88
1013.452	1501.88
1013.669	1499.88
1013.885	1467.88
1014.102	1516.88
1014.318	1490.88
1014.535	1449.88
1014.751	1491.88
1014.968	1485.88
1015.184	1498.88
1015.401	1408.88
1015.617	1441.88
1015.833	1391.88
1016.049	1403.88
1016.266	1364.88
1016.482	1362.88
1016.698	1311.88
1016.914	1370.88
1017.13	1301.88
1017.346	1305.88
1017.562	1354.88
1017.778	1294.88
1017.993	1279.88
1018.209	1310.88
1018.425	1296.88
1018.641	1256.88
1018.856	1236.88
1019.072	1287.88
1019.288	1322.88
1019.503	1246.88
1019.719	1174.88
1019.934	1200.88
1020.149	1255.88
1020.365	1223.88
1020.58	1175.88
1020.795	1216.88
1021.011	1158.88
1021.226	1130.88
1021.441	1160.88
1021.656	1065.88
1021.871	1032.88
1022.086	1022.88
1022.301	1029.88
1022.516	1031.88
1022.731	1081.88
1022.946	981.88
1023.16	965.88
1023.375	930.88
1023.59	939.88
1023.804	918.88
1024.019	1000.88
1024.234	871.88
1024.448	917.88
1024.663	837.88
1024.877	861.88
1025.092	879.88
1025.306	891.88
1025.52	778.88
1025.734	916.88
1025.949	818.88
1026.163	773.88
1026.377	735.88
1026.591	792.88
1026.805	722.88
1027.019	701.88
1027.233	672.88
1027.447	626.88
1027.661	729.88
1027.875	684.88
1028.088	687.88
1028.302	612.88
1028.516	602.88
1028.73	600.88
1028.943	601.88
1029.157	558.88
1029.37	524.88
1029.584	-6.12
1029.797	-1.12
1030.011	-1.12
1030.224	-3.12
