Data from QEP037381__97__11-37-05-597.txt Node

Date: Wed Dec 21 11:37:05 EST 2022
User: dcclab
Spectrometer: QEP03738
Trigger mode: 4
Integration Time (sec): 1.000000E1
Scans to average: 1
Electric dark correction enabled: true
Nonlinearity correction enabled: false
Boxcar width: 0
XAxis mode: Wavelengths
Number of Pixels in Spectrum: 1044
>>>>>Begin Spectral Data<<<<<
784.041	8.5
784.3	-0.5
784.558	0.5
784.817	-5.5
785.075	42274.5
785.334	8423.5
785.592	4368.5
785.851	3102.5
786.109	2375.5
786.368	1896.5
786.626	1579.5
786.884	1334.5
787.143	1145.5
787.401	951.5
787.659	887.5
787.917	768.5
788.175	740.5
788.433	660.5
788.691	594.5
788.949	566.5
789.207	551.5
789.465	484.5
789.723	471.5
789.98	433.5
790.238	502.5
790.496	465.5
790.753	435.5
791.011	492.5
791.268	444.5
791.526	432.5
791.783	434.5
792.041	437.5
792.298	351.5
792.556	425.5
792.813	395.5
793.07	389.5
793.327	388.5
793.584	460.5
793.841	369.5
794.099	390.5
794.356	459.5
794.613	381.5
794.869	386.5
795.126	366.5
795.383	358.5
795.64	366.5
795.897	335.5
796.153	387.5
796.41	377.5
796.667	351.5
796.923	353.5
797.18	357.5
797.436	384.5
797.693	360.5
797.949	399.5
798.206	427.5
798.462	331.5
798.718	397.5
798.974	366.5
799.231	408.5
799.487	397.5
799.743	405.5
799.999	420.5
800.255	415.5
800.511	383.5
800.767	428.5
801.023	404.5
801.279	428.5
801.534	450.5
801.79	482.5
802.046	475.5
802.302	552.5
802.557	594.5
802.813	674.5
803.068	749.5
803.324	1018.5
803.579	1280.5
803.835	1678.5
804.09	2300.5
804.345	2883.5
804.601	3587.5
804.856	4334.5
805.111	5000.5
805.366	5479.5
805.621	5833.5
805.876	6106.5
806.131	6281.5
806.386	6374.5
806.641	6418.5
806.896	6547.5
807.151	6728.5
807.406	6813.5
807.661	6947.5
807.915	7066.5
808.17	7207.5
808.425	7220.5
808.679	7312.5
808.934	7425.5
809.188	7429.5
809.443	7518.5
809.697	7637.5
809.951	7637.5
810.206	7722.5
810.46	7850.5
810.714	7884.5
810.968	7923.5
811.223	7963.5
811.477	8067.5
811.731	8094.5
811.985	8080.5
812.239	8147.5
812.493	8157.5
812.747	8199.5
813	8160.5
813.254	8259.5
813.508	8297.5
813.762	8315.5
814.015	8319.5
814.269	8389.5
814.522	8543.5
814.776	8616.5
815.03	8744.5
815.283	8819.5
815.536	8964.5
815.79	9076.5
816.043	9253.5
816.296	9399.5
816.55	9434.5
816.803	9513.5
817.056	9710.5
817.309	9737.5
817.562	9912.5
817.815	10042.5
818.068	9978.5
818.321	10166.5
818.574	10165.5
818.827	10412.5
819.079	10463.5
819.332	10778.5
819.585	10753.5
819.838	10976.5
820.09	10880.5
820.343	10997.5
820.595	10977.5
820.848	11120.5
821.1	11170.5
821.353	11115.5
821.605	11099.5
821.857	11097.5
822.11	11047.5
822.362	11023.5
822.614	11015.5
822.866	11024.5
823.118	10942.5
823.37	11073.5
823.622	11033.5
823.874	11096.5
824.126	11114.5
824.378	11106.5
824.63	11192.5
824.882	11173.5
825.134	11134.5
825.385	11190.5
825.637	11144.5
825.888	11078.5
826.14	11103.5
826.392	11024.5
826.643	10919.5
826.895	10943.5
827.146	10882.5
827.397	10839.5
827.649	10885.5
827.9	10847.5
828.151	10812.5
828.402	10905.5
828.653	10857.5
828.905	10880.5
829.156	10930.5
829.407	10900.5
829.658	10918.5
829.909	10998.5
830.159	11009.5
830.41	10898.5
830.661	10802.5
830.912	10712.5
831.162	10713.5
831.413	10674.5
831.664	10685.5
831.914	10688.5
832.165	10619.5
832.415	10637.5
832.666	10747.5
832.916	10735.5
833.167	10656.5
833.417	10736.5
833.667	10647.5
833.917	10591.5
834.168	10674.5
834.418	10577.5
834.668	10565.5
834.918	10425.5
835.168	10467.5
835.418	10259.5
835.668	10440.5
835.918	10296.5
836.167	10373.5
836.417	10258.5
836.667	10270.5
836.917	10330.5
837.166	10276.5
837.416	10298.5
837.666	10309.5
837.915	10291.5
838.165	10206.5
838.414	10105.5
838.663	10105.5
838.913	10207.5
839.162	10086.5
839.411	10178.5
839.661	10100.5
839.91	10148.5
840.159	10035.5
840.408	10112.5
840.657	10077.5
840.906	10106.5
841.155	10075.5
841.404	10062.5
841.653	10155.5
841.902	10039.5
842.15	10187.5
842.399	10106.5
842.648	10127.5
842.897	10085.5
843.145	10027.5
843.394	9913.5
843.642	9858.5
843.891	9822.5
844.139	9769.5
844.388	9665.5
844.636	9561.5
844.884	9634.5
845.133	9591.5
845.381	9605.5
845.629	9677.5
845.877	9539.5
846.125	9581.5
846.373	9589.5
846.621	9417.5
846.869	9525.5
847.117	9478.5
847.365	9401.5
847.613	9358.5
847.861	9357.5
848.108	9375.5
848.356	9375.5
848.604	9281.5
848.851	9304.5
849.099	9303.5
849.346	9413.5
849.594	9494.5
849.841	9508.5
850.089	9598.5
850.336	9632.5
850.583	9668.5
850.831	9706.5
851.078	9581.5
851.325	9503.5
851.572	9494.5
851.819	9370.5
852.066	9109.5
852.313	9012.5
852.56	8846.5
852.807	8844.5
853.054	8851.5
853.301	8792.5
853.548	8834.5
853.794	8978.5
854.041	9010.5
854.288	8968.5
854.534	9153.5
854.781	9055.5
855.028	9061.5
855.274	9098.5
855.52	8947.5
855.767	9002.5
856.013	9008.5
856.26	9279.5
856.506	8833.5
856.752	8957.5
856.998	8867.5
857.244	8909.5
857.49	8958.5
857.736	8997.5
857.982	8921.5
858.228	8910.5
858.474	8790.5
858.72	8793.5
858.966	8655.5
859.212	8661.5
859.458	8489.5
859.703	8429.5
859.949	8279.5
860.195	8331.5
860.44	8288.5
860.686	8190.5
860.931	8233.5
861.177	8087.5
861.422	8141.5
861.667	8064.5
861.913	8047.5
862.158	8149.5
862.403	8144.5
862.648	8193.5
862.893	8168.5
863.138	8147.5
863.384	8074.5
863.629	8154.5
863.873	8077.5
864.118	8016.5
864.363	7934.5
864.608	8035.5
864.853	8001.5
865.098	7909.5
865.342	7921.5
865.587	7885.5
865.832	7877.5
866.076	7872.5
866.321	7840.5
866.565	7820.5
866.81	7756.5
867.054	7794.5
867.298	7765.5
867.543	7746.5
867.787	7743.5
868.031	7681.5
868.275	7729.5
868.519	7724.5
868.764	7650.5
869.008	7631.5
869.252	7749.5
869.496	7591.5
869.739	7620.5
869.983	7705.5
870.227	7649.5
870.471	7695.5
870.715	7633.5
870.958	7735.5
871.202	7729.5
871.446	7762.5
871.689	7703.5
871.933	7702.5
872.176	7653.5
872.42	7638.5
872.663	7684.5
872.906	7751.5
873.15	7686.5
873.393	7672.5
873.636	7680.5
873.879	7555.5
874.122	7543.5
874.366	7438.5
874.609	7339.5
874.852	7273.5
875.095	7208.5
875.337	7166.5
875.58	7063.5
875.823	7094.5
876.066	7112.5
876.309	7147.5
876.551	6999.5
876.794	7013.5
877.037	7002.5
877.279	6904.5
877.522	6881.5
877.764	6988.5
878.007	6960.5
878.249	6941.5
878.491	6888.5
878.734	6914.5
878.976	6893.5
879.218	6789.5
879.46	6861.5
879.702	6771.5
879.945	6741.5
880.187	6645.5
880.429	6637.5
880.671	6599.5
880.912	6603.5
881.154	6582.5
881.396	6451.5
881.638	6543.5
881.88	6558.5
882.121	6465.5
882.363	6489.5
882.605	6536.5
882.846	6526.5
883.088	6495.5
883.329	6472.5
883.571	6523.5
883.812	6667.5
884.053	6753.5
884.295	6927.5
884.536	7063.5
884.777	6985.5
885.018	6931.5
885.259	6896.5
885.5	6742.5
885.742	6978.5
885.982	6704.5
886.223	6654.5
886.464	6658.5
886.705	6514.5
886.946	6484.5
887.187	6248.5
887.428	6383.5
887.668	6189.5
887.909	6111.5
888.15	5992.5
888.39	6059.5
888.631	6037.5
888.871	5944.5
889.111	5887.5
889.352	5859.5
889.592	5814.5
889.833	5727.5
890.073	5695.5
890.313	5812.5
890.553	5644.5
890.793	5646.5
891.033	5624.5
891.273	5609.5
891.513	5596.5
891.753	5616.5
891.993	5592.5
892.233	5565.5
892.473	5688.5
892.713	5595.5
892.952	5575.5
893.192	5596.5
893.432	5536.5
893.671	5613.5
893.911	5588.5
894.15	5546.5
894.39	5403.5
894.629	5445.5
894.869	5446.5
895.108	5454.5
895.347	5368.5
895.587	5389.5
895.826	5378.5
896.065	5332.5
896.304	5413.5
896.543	5362.5
896.782	5297.5
897.021	5362.5
897.26	5345.5
897.499	5375.5
897.738	5426.5
897.977	5330.5
898.216	5295.5
898.454	5235.5
898.693	5213.5
898.932	5201.5
899.17	5232.5
899.409	5199.5
899.647	5204.5
899.886	5163.5
900.124	5190.5
900.363	5141.5
900.601	5197.5
900.839	5240.5
901.078	5263.5
901.316	5245.5
901.554	5350.5
901.792	5331.5
902.03	5254.5
902.268	5325.5
902.506	5293.5
902.744	5228.5
902.982	5208.5
903.22	5074.5
903.458	5071.5
903.695	4966.5
903.933	4933.5
904.171	4783.5
904.409	4706.5
904.646	4723.5
904.884	4574.5
905.121	4574.5
905.359	4521.5
905.596	4436.5
905.833	4403.5
906.071	4362.5
906.308	4413.5
906.545	4357.5
906.783	4314.5
907.02	4318.5
907.257	4330.5
907.494	4283.5
907.731	4335.5
907.968	4266.5
908.205	4242.5
908.442	4192.5
908.679	4166.5
908.915	4150.5
909.152	4085.5
909.389	4033.5
909.626	4057.5
909.862	3997.5
910.099	4042.5
910.335	4012.5
910.572	3921.5
910.808	3981.5
911.045	3939.5
911.281	3922.5
911.518	3952.5
911.754	3871.5
911.99	3902.5
912.226	3811.5
912.463	3781.5
912.699	3786.5
912.935	3744.5
913.171	3719.5
913.407	3668.5
913.643	3704.5
913.879	3686.5
914.114	3634.5
914.35	3598.5
914.586	3548.5
914.822	3451.5
915.057	3606.5
915.293	3442.5
915.529	3439.5
915.764	3532.5
916	3448.5
916.235	3483.5
916.471	3452.5
916.706	3368.5
916.941	3414.5
917.177	3436.5
917.412	3449.5
917.647	3434.5
917.882	3344.5
918.117	3460.5
918.352	3418.5
918.588	3434.5
918.823	3357.5
919.057	3339.5
919.292	3242.5
919.527	3342.5
919.762	3232.5
919.997	3296.5
920.232	3224.5
920.466	3180.5
920.701	3109.5
920.935	3102.5
921.17	3074.5
921.405	3047.5
921.639	3141.5
921.873	3119.5
922.108	3118.5
922.342	3054.5
922.576	2957.5
922.811	3027.5
923.045	3071.5
923.279	3102.5
923.513	2925.5
923.747	2980.5
923.981	2995.5
924.215	2924.5
924.449	2901.5
924.683	2880.5
924.917	2898.5
925.151	2879.5
925.385	2938.5
925.618	2922.5
925.852	2904.5
926.086	2841.5
926.319	2867.5
926.553	2826.5
926.786	2870.5
927.02	2851.5
927.253	2894.5
927.486	2891.5
927.72	2803.5
927.953	2852.5
928.186	2796.5
928.42	2832.5
928.653	2771.5
928.886	2717.5
929.119	2781.5
929.352	2743.5
929.585	2747.5
929.818	2725.5
930.051	2720.5
930.284	2729.5
930.516	2639.5
930.749	2607.5
930.982	2660.5
931.215	2650.5
931.447	2607.5
931.68	2611.5
931.912	2577.5
932.145	2579.5
932.377	2650.5
932.61	2770.5
932.842	2562.5
933.074	2640.5
933.307	2560.5
933.539	2705.5
933.771	2650.5
934.003	2610.5
934.236	2674.5
934.468	2667.5
934.7	2572.5
934.932	2649.5
935.164	2554.5
935.395	2518.5
935.627	2559.5
935.859	2580.5
936.091	2473.5
936.323	2575.5
936.554	2585.5
936.786	2477.5
937.017	2472.5
937.249	2512.5
937.481	2435.5
937.712	2520.5
937.943	2502.5
938.175	2471.5
938.406	2484.5
938.637	2538.5
938.869	2430.5
939.1	2498.5
939.331	2421.5
939.562	2481.5
939.793	2456.5
940.024	2476.5
940.255	2441.5
940.486	2453.5
940.717	2401.5
940.948	2397.5
941.179	2373.5
941.409	2368.5
941.64	2366.5
941.871	2388.5
942.102	2376.5
942.332	2370.5
942.563	2382.5
942.793	2359.5
943.024	2330.5
943.254	2333.5
943.484	2393.5
943.715	2380.5
943.945	2401.5
944.175	2289.5
944.405	2306.5
944.636	2310.5
944.866	2324.5
945.096	2357.5
945.326	2255.5
945.556	2356.5
945.786	2334.5
946.016	2288.5
946.245	2243.5
946.475	2254.5
946.705	2262.5
946.935	2222.5
947.164	2244.5
947.394	2215.5
947.624	2225.5
947.853	2232.5
948.083	2226.5
948.312	2206.5
948.542	2119.5
948.771	2120.5
949	2154.5
949.23	2171.5
949.459	2155.5
949.688	2233.5
949.917	2148.5
950.146	2146.5
950.375	2188.5
950.604	2113.5
950.833	2194.5
951.062	2185.5
951.291	2169.5
951.52	2110.5
951.749	2135.5
951.978	2079.5
952.206	2080.5
952.435	2103.5
952.664	2100.5
952.892	2122.5
953.121	2071.5
953.349	2126.5
953.578	2101.5
953.806	2079.5
954.035	2013.5
954.263	2052.5
954.491	1979.5
954.719	2042.5
954.948	1995.5
955.176	1997.5
955.404	1899.5
955.632	1962.5
955.86	2002.5
956.088	1978.5
956.316	1979.5
956.544	2013.5
956.772	1985.5
956.999	1937.5
957.227	2022.5
957.455	1907.5
957.683	1936.5
957.91	1902.5
958.138	1891.5
958.365	1890.5
958.593	1889.5
958.82	1839.5
959.048	1921.5
959.275	1886.5
959.502	1891.5
959.73	1844.5
959.957	1867.5
960.184	1899.5
960.411	1839.5
960.638	1928.5
960.865	1841.5
961.092	1882.5
961.319	1779.5
961.546	1875.5
961.773	1890.5
962	1844.5
962.227	1884.5
962.454	1834.5
962.68	1829.5
962.907	1849.5
963.134	1818.5
963.36	1834.5
963.587	1842.5
963.813	1763.5
964.04	1835.5
964.266	1735.5
964.493	1842.5
964.719	1795.5
964.945	1797.5
965.171	1710.5
965.398	1733.5
965.624	1810.5
965.85	1711.5
966.076	1723.5
966.302	1752.5
966.528	1727.5
966.754	1718.5
966.98	1710.5
967.206	1716.5
967.431	1671.5
967.657	1740.5
967.883	1723.5
968.109	1726.5
968.334	1671.5
968.56	1653.5
968.785	1687.5
969.011	1620.5
969.236	1675.5
969.462	1630.5
969.687	1662.5
969.912	1713.5
970.138	1680.5
970.363	1630.5
970.588	1651.5
970.813	1629.5
971.038	1597.5
971.263	1657.5
971.488	1635.5
971.713	1667.5
971.938	1640.5
972.163	1556.5
972.388	1591.5
972.613	1589.5
972.838	1605.5
973.062	1566.5
973.287	1579.5
973.512	1516.5
973.736	1543.5
973.961	1517.5
974.185	1504.5
974.41	1566.5
974.634	1481.5
974.858	1474.5
975.083	1545.5
975.307	1573.5
975.531	1480.5
975.755	1450.5
975.98	1462.5
976.204	1387.5
976.428	1420.5
976.652	1440.5
976.876	1397.5
977.1	1464.5
977.324	1387.5
977.547	1466.5
977.771	1458.5
977.995	1431.5
978.219	1374.5
978.442	1479.5
978.666	1416.5
978.89	1444.5
979.113	1433.5
979.337	1402.5
979.56	1383.5
979.783	1447.5
980.007	1346.5
980.23	1404.5
980.453	1376.5
980.677	1384.5
980.9	1394.5
981.123	1291.5
981.346	1383.5
981.569	1381.5
981.792	1431.5
982.015	1359.5
982.238	1320.5
982.461	1371.5
982.684	1295.5
982.907	1316.5
983.129	1330.5
983.352	1352.5
983.575	1322.5
983.797	1349.5
984.02	1283.5
984.242	1290.5
984.465	1294.5
984.687	1312.5
984.91	1350.5
985.132	1312.5
985.354	1346.5
985.577	1324.5
985.799	1308.5
986.021	1231.5
986.243	1254.5
986.465	1272.5
986.687	1331.5
986.909	1349.5
987.131	1269.5
987.353	1266.5
987.575	1293.5
987.797	1252.5
988.019	1210.5
988.241	1270.5
988.462	1214.5
988.684	1295.5
988.906	1303.5
989.127	1315.5
989.349	1218.5
989.57	1255.5
989.792	1281.5
990.013	1294.5
990.234	1305.5
990.456	1325.5
990.677	1299.5
990.898	1251.5
991.119	1234.5
991.341	1309.5
991.562	1226.5
991.783	1243.5
992.004	1199.5
992.225	1182.5
992.446	1239.5
992.667	1146.5
992.887	1230.5
993.108	1137.5
993.329	1254.5
993.55	1210.5
993.77	1171.5
993.991	1191.5
994.212	1227.5
994.432	1182.5
994.653	1206.5
994.873	1202.5
995.093	1099.5
995.314	1123.5
995.534	1226.5
995.754	1198.5
995.975	1241.5
996.195	1145.5
996.415	1216.5
996.635	1182.5
996.855	1196.5
997.075	1162.5
997.295	1161.5
997.515	1164.5
997.735	1179.5
997.955	1167.5
998.174	1167.5
998.394	1122.5
998.614	1185.5
998.834	1139.5
999.053	1238.5
999.273	1170.5
999.492	1238.5
999.712	1161.5
999.931	1127.5
1000.151	1184.5
1000.37	1162.5
1000.589	1223.5
1000.809	1165.5
1001.028	1274.5
1001.247	1188.5
1001.466	1097.5
1001.685	1228.5
1001.904	1190.5
1002.123	1180.5
1002.342	1163.5
1002.561	1137.5
1002.78	1153.5
1002.999	1261.5
1003.218	1171.5
1003.436	1140.5
1003.655	1192.5
1003.874	1129.5
1004.092	1185.5
1004.311	1206.5
1004.53	1152.5
1004.748	1231.5
1004.966	1166.5
1005.185	1225.5
1005.403	1220.5
1005.622	1173.5
1005.84	1274.5
1006.058	1138.5
1006.276	1173.5
1006.494	1672.5
1006.712	1180.5
1006.931	1231.5
1007.149	1150.5
1007.367	1184.5
1007.584	1204.5
1007.802	1231.5
1008.02	1182.5
1008.238	1285.5
1008.456	1252.5
1008.673	1138.5
1008.891	1243.5
1009.109	1218.5
1009.326	1239.5
1009.544	1346.5
1009.761	1245.5
1009.979	1353.5
1010.196	1350.5
1010.413	1446.5
1010.631	1468.5
1010.848	1481.5
1011.065	1506.5
1011.282	1441.5
1011.5	1383.5
1011.717	1473.5
1011.934	1425.5
1012.151	1449.5
1012.368	1452.5
1012.585	1380.5
1012.801	1458.5
1013.018	1418.5
1013.235	1401.5
1013.452	1419.5
1013.669	1419.5
1013.885	1402.5
1014.102	1420.5
1014.318	1409.5
1014.535	1369.5
1014.751	1397.5
1014.968	1404.5
1015.184	1450.5
1015.401	1327.5
1015.617	1361.5
1015.833	1303.5
1016.049	1311.5
1016.266	1322.5
1016.482	1318.5
1016.698	1233.5
1016.914	1273.5
1017.13	1257.5
1017.346	1232.5
1017.562	1306.5
1017.778	1238.5
1017.993	1218.5
1018.209	1261.5
1018.425	1222.5
1018.641	1202.5
1018.856	1187.5
1019.072	1234.5
1019.288	1281.5
1019.503	1202.5
1019.719	1131.5
1019.934	1130.5
1020.149	1251.5
1020.365	1162.5
1020.58	1104.5
1020.795	1167.5
1021.011	1113.5
1021.226	1102.5
1021.441	1116.5
1021.656	1027.5
1021.871	1004.5
1022.086	1035.5
1022.301	979.5
1022.516	978.5
1022.731	1064.5
1022.946	970.5
1023.16	947.5
1023.375	934.5
1023.59	910.5
1023.804	879.5
1024.019	967.5
1024.234	861.5
1024.448	911.5
1024.663	842.5
1024.877	841.5
1025.092	882.5
1025.306	870.5
1025.52	782.5
1025.734	868.5
1025.949	806.5
1026.163	795.5
1026.377	726.5
1026.591	767.5
1026.805	715.5
1027.019	704.5
1027.233	665.5
1027.447	633.5
1027.661	734.5
1027.875	684.5
1028.088	674.5
1028.302	612.5
1028.516	579.5
1028.73	594.5
1028.943	607.5
1029.157	580.5
1029.37	522.5
1029.584	0.5
1029.797	-1.5
1030.011	-4.5
1030.224	2.5
