Data from QEP037381__100__11-37-35-597.txt Node

Date: Wed Dec 21 11:37:35 EST 2022
User: dcclab
Spectrometer: QEP03738
Trigger mode: 4
Integration Time (sec): 1.000000E1
Scans to average: 1
Electric dark correction enabled: true
Nonlinearity correction enabled: false
Boxcar width: 0
XAxis mode: Wavelengths
Number of Pixels in Spectrum: 1044
>>>>>Begin Spectral Data<<<<<
784.041	13.62
784.3	-0.38
784.558	-1.38
784.817	-4.38
785.075	40326.62
785.334	8098.62
785.592	4249.62
785.851	3020.62
786.109	2367.62
786.368	1861.62
786.626	1509.62
786.884	1287.62
787.143	1121.62
787.401	931.62
787.659	876.62
787.917	741.62
788.175	735.62
788.433	642.62
788.691	583.62
788.949	562.62
789.207	550.62
789.465	469.62
789.723	492.62
789.98	434.62
790.238	488.62
790.496	464.62
790.753	444.62
791.011	486.62
791.268	429.62
791.526	420.62
791.783	443.62
792.041	424.62
792.298	351.62
792.556	415.62
792.813	424.62
793.07	380.62
793.327	373.62
793.584	456.62
793.841	376.62
794.099	409.62
794.356	456.62
794.613	364.62
794.869	400.62
795.126	372.62
795.383	340.62
795.64	362.62
795.897	330.62
796.153	382.62
796.41	373.62
796.667	351.62
796.923	373.62
797.18	352.62
797.436	396.62
797.693	353.62
797.949	393.62
798.206	438.62
798.462	337.62
798.718	394.62
798.974	359.62
799.231	411.62
799.487	389.62
799.743	407.62
799.999	414.62
800.255	419.62
800.511	385.62
800.767	406.62
801.023	418.62
801.279	429.62
801.534	440.62
801.79	449.62
802.046	455.62
802.302	543.62
802.557	569.62
802.813	649.62
803.068	734.62
803.324	960.62
803.579	1211.62
803.835	1601.62
804.09	2183.62
804.345	2741.62
804.601	3397.62
804.856	4140.62
805.111	4781.62
805.366	5229.62
805.621	5617.62
805.876	5876.62
806.131	6020.62
806.386	6101.62
806.641	6124.62
806.896	6307.62
807.151	6463.62
807.406	6481.62
807.661	6624.62
807.915	6718.62
808.17	6828.62
808.425	6893.62
808.679	6855.62
808.934	7060.62
809.188	7069.62
809.443	7188.62
809.697	7255.62
809.951	7243.62
810.206	7274.62
810.46	7425.62
810.714	7488.62
810.968	7592.62
811.223	7525.62
811.477	7662.62
811.731	7732.62
811.985	7727.62
812.239	7716.62
812.493	7732.62
812.747	7838.62
813	7851.62
813.254	7890.62
813.508	7887.62
813.762	7907.62
814.015	7943.62
814.269	8027.62
814.522	8105.62
814.776	8181.62
815.03	8264.62
815.283	8404.62
815.536	8525.62
815.79	8659.62
816.043	8828.62
816.296	8901.62
816.55	8902.62
816.803	9087.62
817.056	9205.62
817.309	9304.62
817.562	9358.62
817.815	9430.62
818.068	9553.62
818.321	9591.62
818.574	9623.62
818.827	9879.62
819.079	9957.62
819.332	10235.62
819.585	10318.62
819.838	10452.62
820.09	10408.62
820.343	10514.62
820.595	10499.62
820.848	10614.62
821.1	10667.62
821.353	10570.62
821.605	10539.62
821.857	10627.62
822.11	10517.62
822.362	10447.62
822.614	10399.62
822.866	10536.62
823.118	10418.62
823.37	10599.62
823.622	10494.62
823.874	10523.62
824.126	10693.62
824.378	10495.62
824.63	10599.62
824.882	10680.62
825.134	10543.62
825.385	10699.62
825.637	10606.62
825.888	10563.62
826.14	10534.62
826.392	10529.62
826.643	10351.62
826.895	10367.62
827.146	10310.62
827.397	10239.62
827.649	10351.62
827.9	10298.62
828.151	10268.62
828.402	10317.62
828.653	10358.62
828.905	10417.62
829.156	10429.62
829.407	10381.62
829.658	10415.62
829.909	10453.62
830.159	10425.62
830.41	10393.62
830.661	10359.62
830.912	10243.62
831.162	10198.62
831.413	10137.62
831.664	10215.62
831.914	10156.62
832.165	10178.62
832.415	10210.62
832.666	10168.62
832.916	10201.62
833.167	10127.62
833.417	10118.62
833.667	10146.62
833.917	10043.62
834.168	10086.62
834.418	9999.62
834.668	9943.62
834.918	9920.62
835.168	9838.62
835.418	9777.62
835.668	9843.62
835.918	9783.62
836.167	9841.62
836.417	9747.62
836.667	9782.62
836.917	9758.62
837.166	9705.62
837.416	9741.62
837.666	9778.62
837.915	9696.62
838.165	9635.62
838.414	9668.62
838.663	9565.62
838.913	9560.62
839.162	9600.62
839.411	9657.62
839.661	9536.62
839.91	9499.62
840.159	9558.62
840.408	9550.62
840.657	9528.62
840.906	9499.62
841.155	9604.62
841.404	9485.62
841.653	9526.62
841.902	9573.62
842.15	9632.62
842.399	9615.62
842.648	9538.62
842.897	9489.62
843.145	9450.62
843.394	9350.62
843.642	9281.62
843.891	9310.62
844.139	9184.62
844.388	9106.62
844.636	9064.62
844.884	9058.62
845.133	9037.62
845.381	9115.62
845.629	9072.62
845.877	9075.62
846.125	9032.62
846.373	9013.62
846.621	8915.62
846.869	8980.62
847.117	8904.62
847.365	8880.62
847.613	8844.62
847.861	8807.62
848.108	8858.62
848.356	8860.62
848.604	8840.62
848.851	8789.62
849.099	8860.62
849.346	8811.62
849.594	8954.62
849.841	8985.62
850.089	9052.62
850.336	9099.62
850.583	9099.62
850.831	9102.62
851.078	9010.62
851.325	8966.62
851.572	9009.62
851.819	8853.62
852.066	8564.62
852.313	8508.62
852.56	8356.62
852.807	8318.62
853.054	8349.62
853.301	8360.62
853.548	8322.62
853.794	8474.62
854.041	8376.62
854.288	8493.62
854.534	8607.62
854.781	8553.62
855.028	8500.62
855.274	8502.62
855.52	8494.62
855.767	8454.62
856.013	8413.62
856.26	8702.62
856.506	8334.62
856.752	8324.62
856.998	8373.62
857.244	8314.62
857.49	8327.62
857.736	8418.62
857.982	8405.62
858.228	8393.62
858.474	8217.62
858.72	8268.62
858.966	8111.62
859.212	8079.62
859.458	7984.62
859.703	7946.62
859.949	7789.62
860.195	7809.62
860.44	7865.62
860.686	7722.62
860.931	7707.62
861.177	7701.62
861.422	7653.62
861.667	7535.62
861.913	7578.62
862.158	7595.62
862.403	7656.62
862.648	7667.62
862.893	7631.62
863.138	7612.62
863.384	7564.62
863.629	7677.62
863.873	7640.62
864.118	7600.62
864.363	7447.62
864.608	7561.62
864.853	7502.62
865.098	7451.62
865.342	7446.62
865.587	7382.62
865.832	7429.62
866.076	7397.62
866.321	7376.62
866.565	7375.62
866.81	7229.62
867.054	7274.62
867.298	7300.62
867.543	7263.62
867.787	7276.62
868.031	7234.62
868.275	7271.62
868.519	7183.62
868.764	7169.62
869.008	7215.62
869.252	7205.62
869.496	7145.62
869.739	7149.62
869.983	7205.62
870.227	7206.62
870.471	7138.62
870.715	7214.62
870.958	7242.62
871.202	7198.62
871.446	7178.62
871.689	7220.62
871.933	7235.62
872.176	7195.62
872.42	7210.62
872.663	7186.62
872.906	7193.62
873.15	7156.62
873.393	7127.62
873.636	7233.62
873.879	7091.62
874.122	7100.62
874.366	6890.62
874.609	6916.62
874.852	6793.62
875.095	6744.62
875.337	6720.62
875.58	6624.62
875.823	6673.62
876.066	6644.62
876.309	6707.62
876.551	6581.62
876.794	6472.62
877.037	6563.62
877.279	6482.62
877.522	6522.62
877.764	6544.62
878.007	6520.62
878.249	6462.62
878.491	6416.62
878.734	6499.62
878.976	6505.62
879.218	6423.62
879.46	6376.62
879.702	6353.62
879.945	6340.62
880.187	6235.62
880.429	6197.62
880.671	6194.62
880.912	6185.62
881.154	6189.62
881.396	6047.62
881.638	6112.62
881.88	6082.62
882.121	6056.62
882.363	6118.62
882.605	6118.62
882.846	6089.62
883.088	6083.62
883.329	6052.62
883.571	6077.62
883.812	6208.62
884.053	6323.62
884.295	6422.62
884.536	6543.62
884.777	6508.62
885.018	6438.62
885.259	6419.62
885.5	6293.62
885.742	6518.62
885.982	6259.62
886.223	6244.62
886.464	6167.62
886.705	6086.62
886.946	6092.62
887.187	5901.62
887.428	5892.62
887.668	5749.62
887.909	5693.62
888.15	5639.62
888.39	5634.62
888.631	5664.62
888.871	5574.62
889.111	5564.62
889.352	5437.62
889.592	5417.62
889.833	5385.62
890.073	5384.62
890.313	5383.62
890.553	5226.62
890.793	5246.62
891.033	5255.62
891.273	5197.62
891.513	5186.62
891.753	5238.62
891.993	5173.62
892.233	5159.62
892.473	5295.62
892.713	5227.62
892.952	5184.62
893.192	5211.62
893.432	5199.62
893.671	5163.62
893.911	5220.62
894.15	5139.62
894.39	5089.62
894.629	5089.62
894.869	5127.62
895.108	4998.62
895.347	5016.62
895.587	5030.62
895.826	5017.62
896.065	4982.62
896.304	5038.62
896.543	5057.62
896.782	4943.62
897.021	4978.62
897.26	4994.62
897.499	5030.62
897.738	5004.62
897.977	4928.62
898.216	4918.62
898.454	4882.62
898.693	4839.62
898.932	4894.62
899.17	4830.62
899.409	4800.62
899.647	4808.62
899.886	4806.62
900.124	4855.62
900.363	4824.62
900.601	4848.62
900.839	4847.62
901.078	4857.62
901.316	4878.62
901.554	4916.62
901.792	4952.62
902.03	4919.62
902.268	4920.62
902.506	4906.62
902.744	4878.62
902.982	4858.62
903.22	4743.62
903.458	4660.62
903.695	4625.62
903.933	4597.62
904.171	4449.62
904.409	4374.62
904.646	4369.62
904.884	4229.62
905.121	4313.62
905.359	4275.62
905.596	4176.62
905.833	4073.62
906.071	4093.62
906.308	4117.62
906.545	4083.62
906.783	4009.62
907.02	4014.62
907.257	3957.62
907.494	4010.62
907.731	3963.62
907.968	3993.62
908.205	3916.62
908.442	3911.62
908.679	3895.62
908.915	3866.62
909.152	3861.62
909.389	3722.62
909.626	3758.62
909.862	3728.62
910.099	3772.62
910.335	3762.62
910.572	3621.62
910.808	3707.62
911.045	3674.62
911.281	3605.62
911.518	3695.62
911.754	3621.62
911.99	3656.62
912.226	3606.62
912.463	3498.62
912.699	3514.62
912.935	3507.62
913.171	3451.62
913.407	3410.62
913.643	3449.62
913.879	3431.62
914.114	3419.62
914.35	3339.62
914.586	3329.62
914.822	3280.62
915.057	3351.62
915.293	3275.62
915.529	3177.62
915.764	3273.62
916	3234.62
916.235	3234.62
916.471	3233.62
916.706	3171.62
916.941	3229.62
917.177	3190.62
917.412	3217.62
917.647	3225.62
917.882	3151.62
918.117	3206.62
918.352	3219.62
918.588	3205.62
918.823	3159.62
919.057	3082.62
919.292	3043.62
919.527	3119.62
919.762	2998.62
919.997	3027.62
920.232	3004.62
920.466	3005.62
920.701	2867.62
920.935	2966.62
921.17	2892.62
921.405	2837.62
921.639	2936.62
921.873	2850.62
922.108	2897.62
922.342	2899.62
922.576	2822.62
922.811	2808.62
923.045	2862.62
923.279	2907.62
923.513	2771.62
923.747	2800.62
923.981	2777.62
924.215	2747.62
924.449	2724.62
924.683	2682.62
924.917	2669.62
925.151	2695.62
925.385	2735.62
925.618	2665.62
925.852	2704.62
926.086	2608.62
926.319	2689.62
926.553	2668.62
926.786	2670.62
927.02	2670.62
927.253	2667.62
927.486	2713.62
927.72	2633.62
927.953	2668.62
928.186	2668.62
928.42	2654.62
928.653	2591.62
928.886	2571.62
929.119	2614.62
929.352	2594.62
929.585	2576.62
929.818	2530.62
930.051	2559.62
930.284	2539.62
930.516	2485.62
930.749	2470.62
930.982	2518.62
931.215	2454.62
931.447	2407.62
931.68	2417.62
931.912	2428.62
932.145	2450.62
932.377	2445.62
932.61	2563.62
932.842	2398.62
933.074	2442.62
933.307	2383.62
933.539	2487.62
933.771	2482.62
934.003	2404.62
934.236	2490.62
934.468	2471.62
934.7	2380.62
934.932	2456.62
935.164	2395.62
935.395	2386.62
935.627	2411.62
935.859	2395.62
936.091	2321.62
936.323	2382.62
936.554	2450.62
936.786	2361.62
937.017	2296.62
937.249	2323.62
937.481	2313.62
937.712	2382.62
937.943	2325.62
938.175	2287.62
938.406	2312.62
938.637	2402.62
938.869	2259.62
939.1	2343.62
939.331	2288.62
939.562	2300.62
939.793	2285.62
940.024	2296.62
940.255	2291.62
940.486	2290.62
940.717	2256.62
940.948	2236.62
941.179	2177.62
941.409	2237.62
941.64	2240.62
941.871	2229.62
942.102	2203.62
942.332	2203.62
942.563	2275.62
942.793	2232.62
943.024	2147.62
943.254	2218.62
943.484	2249.62
943.715	2229.62
943.945	2214.62
944.175	2139.62
944.405	2104.62
944.636	2160.62
944.866	2204.62
945.096	2202.62
945.326	2123.62
945.556	2185.62
945.786	2219.62
946.016	2143.62
946.245	2107.62
946.475	2114.62
946.705	2124.62
946.935	2132.62
947.164	2090.62
947.394	2061.62
947.624	2084.62
947.853	2106.62
948.083	2075.62
948.312	2035.62
948.542	2005.62
948.771	2011.62
949	1973.62
949.23	1999.62
949.459	2032.62
949.688	2095.62
949.917	2014.62
950.146	2028.62
950.375	2066.62
950.604	1946.62
950.833	2032.62
951.062	2025.62
951.291	1987.62
951.52	1967.62
951.749	1976.62
951.978	1929.62
952.206	1982.62
952.435	1934.62
952.664	1977.62
952.892	2005.62
953.121	1941.62
953.349	1999.62
953.578	1976.62
953.806	1921.62
954.035	1866.62
954.263	1941.62
954.491	1882.62
954.719	1897.62
954.948	1855.62
955.176	1890.62
955.404	1785.62
955.632	1848.62
955.86	1863.62
956.088	1855.62
956.316	1866.62
956.544	1878.62
956.772	1832.62
956.999	1814.62
957.227	1900.62
957.455	1790.62
957.683	1823.62
957.91	1763.62
958.138	1733.62
958.365	1811.62
958.593	1779.62
958.82	1704.62
959.048	1803.62
959.275	1769.62
959.502	1751.62
959.73	1744.62
959.957	1738.62
960.184	1782.62
960.411	1736.62
960.638	1804.62
960.865	1717.62
961.092	1775.62
961.319	1678.62
961.546	1765.62
961.773	1755.62
962	1700.62
962.227	1774.62
962.454	1739.62
962.68	1716.62
962.907	1743.62
963.134	1674.62
963.36	1701.62
963.587	1686.62
963.813	1652.62
964.04	1738.62
964.266	1658.62
964.493	1732.62
964.719	1709.62
964.945	1702.62
965.171	1582.62
965.398	1651.62
965.624	1678.62
965.85	1597.62
966.076	1621.62
966.302	1642.62
966.528	1576.62
966.754	1643.62
966.98	1635.62
967.206	1619.62
967.431	1553.62
967.657	1623.62
967.883	1609.62
968.109	1598.62
968.334	1542.62
968.56	1554.62
968.785	1561.62
969.011	1531.62
969.236	1588.62
969.462	1527.62
969.687	1557.62
969.912	1595.62
970.138	1603.62
970.363	1531.62
970.588	1560.62
970.813	1526.62
971.038	1515.62
971.263	1535.62
971.488	1543.62
971.713	1575.62
971.938	1556.62
972.163	1455.62
972.388	1468.62
972.613	1486.62
972.838	1500.62
973.062	1493.62
973.287	1488.62
973.512	1410.62
973.736	1462.62
973.961	1446.62
974.185	1437.62
974.41	1455.62
974.634	1384.62
974.858	1397.62
975.083	1436.62
975.307	1431.62
975.531	1400.62
975.755	1367.62
975.98	1390.62
976.204	1321.62
976.428	1331.62
976.652	1356.62
976.876	1315.62
977.1	1366.62
977.324	1332.62
977.547	1367.62
977.771	1387.62
977.995	1342.62
978.219	1297.62
978.442	1393.62
978.666	1370.62
978.89	1334.62
979.113	1315.62
979.337	1310.62
979.56	1306.62
979.783	1410.62
980.007	1281.62
980.23	1308.62
980.453	1280.62
980.677	1331.62
980.9	1310.62
981.123	1212.62
981.346	1334.62
981.569	1319.62
981.792	1314.62
982.015	1255.62
982.238	1255.62
982.461	1268.62
982.684	1254.62
982.907	1244.62
983.129	1224.62
983.352	1290.62
983.575	1244.62
983.797	1292.62
984.02	1245.62
984.242	1234.62
984.465	1229.62
984.687	1267.62
984.91	1300.62
985.132	1244.62
985.354	1258.62
985.577	1248.62
985.799	1256.62
986.021	1174.62
986.243	1199.62
986.465	1203.62
986.687	1237.62
986.909	1289.62
987.131	1220.62
987.353	1194.62
987.575	1235.62
987.797	1179.62
988.019	1130.62
988.241	1186.62
988.462	1168.62
988.684	1228.62
988.906	1230.62
989.127	1274.62
989.349	1155.62
989.57	1182.62
989.792	1232.62
990.013	1235.62
990.234	1252.62
990.456	1271.62
990.677	1221.62
990.898	1185.62
991.119	1184.62
991.341	1233.62
991.562	1162.62
991.783	1197.62
992.004	1117.62
992.225	1146.62
992.446	1164.62
992.667	1106.62
992.887	1196.62
993.108	1079.62
993.329	1217.62
993.55	1162.62
993.77	1120.62
993.991	1119.62
994.212	1148.62
994.432	1168.62
994.653	1164.62
994.873	1154.62
995.093	1068.62
995.314	1102.62
995.534	1157.62
995.754	1165.62
995.975	1198.62
996.195	1104.62
996.415	1132.62
996.635	1136.62
996.855	1139.62
997.075	1098.62
997.295	1118.62
997.515	1074.62
997.735	1135.62
997.955	1128.62
998.174	1099.62
998.394	1104.62
998.614	1110.62
998.834	1106.62
999.053	1157.62
999.273	1149.62
999.492	1192.62
999.712	1131.62
999.931	1100.62
1000.151	1127.62
1000.37	1119.62
1000.589	1166.62
1000.809	1103.62
1001.028	1202.62
1001.247	1131.62
1001.466	1064.62
1001.685	1189.62
1001.904	1137.62
1002.123	1141.62
1002.342	1144.62
1002.561	1077.62
1002.78	1116.62
1002.999	1177.62
1003.218	1137.62
1003.436	1104.62
1003.655	1147.62
1003.874	1096.62
1004.092	1132.62
1004.311	1165.62
1004.53	1111.62
1004.748	1192.62
1004.966	1130.62
1005.185	1204.62
1005.403	1179.62
1005.622	1134.62
1005.84	1213.62
1006.058	1121.62
1006.276	1127.62
1006.494	1646.62
1006.712	1161.62
1006.931	1197.62
1007.149	1094.62
1007.367	1119.62
1007.584	1161.62
1007.802	1196.62
1008.02	1142.62
1008.238	1246.62
1008.456	1213.62
1008.673	1089.62
1008.891	1234.62
1009.109	1171.62
1009.326	1214.62
1009.544	1268.62
1009.761	1190.62
1009.979	1278.62
1010.196	1264.62
1010.413	1349.62
1010.631	1368.62
1010.848	1416.62
1011.065	1435.62
1011.282	1370.62
1011.5	1322.62
1011.717	1426.62
1011.934	1358.62
1012.151	1380.62
1012.368	1358.62
1012.585	1327.62
1012.801	1395.62
1013.018	1354.62
1013.235	1338.62
1013.452	1328.62
1013.669	1354.62
1013.885	1337.62
1014.102	1359.62
1014.318	1341.62
1014.535	1273.62
1014.751	1358.62
1014.968	1324.62
1015.184	1344.62
1015.401	1272.62
1015.617	1311.62
1015.833	1240.62
1016.049	1265.62
1016.266	1248.62
1016.482	1254.62
1016.698	1170.62
1016.914	1262.62
1017.13	1182.62
1017.346	1179.62
1017.562	1242.62
1017.778	1181.62
1017.993	1165.62
1018.209	1222.62
1018.425	1185.62
1018.641	1144.62
1018.856	1126.62
1019.072	1164.62
1019.288	1213.62
1019.503	1170.62
1019.719	1070.62
1019.934	1100.62
1020.149	1173.62
1020.365	1101.62
1020.58	1048.62
1020.795	1125.62
1021.011	1055.62
1021.226	1032.62
1021.441	1080.62
1021.656	1006.62
1021.871	956.62
1022.086	969.62
1022.301	948.62
1022.516	942.62
1022.731	1018.62
1022.946	940.62
1023.16	933.62
1023.375	867.62
1023.59	885.62
1023.804	868.62
1024.019	946.62
1024.234	838.62
1024.448	866.62
1024.663	787.62
1024.877	809.62
1025.092	832.62
1025.306	848.62
1025.52	758.62
1025.734	852.62
1025.949	769.62
1026.163	745.62
1026.377	697.62
1026.591	755.62
1026.805	691.62
1027.019	682.62
1027.233	644.62
1027.447	592.62
1027.661	714.62
1027.875	643.62
1028.088	655.62
1028.302	602.62
1028.516	583.62
1028.73	590.62
1028.943	585.62
1029.157	547.62
1029.37	510.62
1029.584	1.62
1029.797	-2.38
1030.011	-3.38
1030.224	-3.38
