Data from QEP037381__83__11-34-45-595.txt Node

Date: Wed Dec 21 11:34:45 EST 2022
User: dcclab
Spectrometer: QEP03738
Trigger mode: 4
Integration Time (sec): 1.000000E1
Scans to average: 1
Electric dark correction enabled: true
Nonlinearity correction enabled: false
Boxcar width: 0
XAxis mode: Wavelengths
Number of Pixels in Spectrum: 1044
>>>>>Begin Spectral Data<<<<<
784.041	12.75
784.3	-0.25
784.558	-3.25
784.817	-4.25
785.075	42492.75
785.334	8469.75
785.592	4366.75
785.851	3082.75
786.109	2420.75
786.368	1910.75
786.626	1537.75
786.884	1323.75
787.143	1121.75
787.401	906.75
787.659	879.75
787.917	758.75
788.175	721.75
788.433	644.75
788.691	584.75
788.949	557.75
789.207	550.75
789.465	477.75
789.723	480.75
789.98	450.75
790.238	471.75
790.496	463.75
790.753	449.75
791.011	498.75
791.268	435.75
791.526	439.75
791.783	449.75
792.041	417.75
792.298	344.75
792.556	430.75
792.813	392.75
793.07	379.75
793.327	379.75
793.584	453.75
793.841	372.75
794.099	391.75
794.356	458.75
794.613	369.75
794.869	407.75
795.126	375.75
795.383	358.75
795.64	372.75
795.897	317.75
796.153	387.75
796.41	372.75
796.667	350.75
796.923	367.75
797.18	360.75
797.436	383.75
797.693	330.75
797.949	399.75
798.206	417.75
798.462	330.75
798.718	396.75
798.974	377.75
799.231	407.75
799.487	389.75
799.743	396.75
799.999	413.75
800.255	414.75
800.511	379.75
800.767	427.75
801.023	407.75
801.279	409.75
801.534	434.75
801.79	468.75
802.046	444.75
802.302	513.75
802.557	552.75
802.813	641.75
803.068	682.75
803.324	931.75
803.579	1154.75
803.835	1523.75
804.09	2018.75
804.345	2526.75
804.601	3067.75
804.856	3694.75
805.111	4229.75
805.366	4662.75
805.621	4985.75
805.876	5199.75
806.131	5320.75
806.386	5360.75
806.641	5451.75
806.896	5559.75
807.151	5710.75
807.406	5765.75
807.661	5864.75
807.915	5945.75
808.17	6070.75
808.425	6121.75
808.679	6132.75
808.934	6280.75
809.188	6288.75
809.443	6342.75
809.697	6431.75
809.951	6417.75
810.206	6489.75
810.46	6568.75
810.714	6660.75
810.968	6672.75
811.223	6677.75
811.477	6824.75
811.731	6841.75
811.985	6767.75
812.239	6786.75
812.493	6851.75
812.747	6903.75
813	6829.75
813.254	6981.75
813.508	6949.75
813.762	6928.75
814.015	7022.75
814.269	7014.75
814.522	7194.75
814.776	7226.75
815.03	7213.75
815.283	7384.75
815.536	7506.75
815.79	7591.75
816.043	7758.75
816.296	7774.75
816.55	7837.75
816.803	7965.75
817.056	8085.75
817.309	8091.75
817.562	8140.75
817.815	8310.75
818.068	8325.75
818.321	8330.75
818.574	8471.75
818.827	8578.75
819.079	8636.75
819.332	8899.75
819.585	9004.75
819.838	9039.75
820.09	8971.75
820.343	9147.75
820.595	9077.75
820.848	9118.75
821.1	9151.75
821.353	9174.75
821.605	9145.75
821.857	9203.75
822.11	8963.75
822.362	9013.75
822.614	9033.75
822.866	9045.75
823.118	8980.75
823.37	9076.75
823.622	9000.75
823.874	9113.75
824.126	9215.75
824.378	9174.75
824.63	9140.75
824.882	9129.75
825.134	9170.75
825.385	9118.75
825.637	9098.75
825.888	9039.75
826.14	9043.75
826.392	9012.75
826.643	8924.75
826.895	8903.75
827.146	8867.75
827.397	8857.75
827.649	8889.75
827.9	8805.75
828.151	8868.75
828.402	8731.75
828.653	8874.75
828.905	8836.75
829.156	8947.75
829.407	8832.75
829.658	8887.75
829.909	8975.75
830.159	9028.75
830.41	8956.75
830.661	8877.75
830.912	8809.75
831.162	8776.75
831.413	8763.75
831.664	8758.75
831.914	8711.75
832.165	8681.75
832.415	8679.75
832.666	8711.75
832.916	8754.75
833.167	8711.75
833.417	8705.75
833.667	8690.75
833.917	8611.75
834.168	8690.75
834.418	8596.75
834.668	8518.75
834.918	8525.75
835.168	8436.75
835.418	8357.75
835.668	8425.75
835.918	8436.75
836.167	8341.75
836.417	8319.75
836.667	8361.75
836.917	8345.75
837.166	8338.75
837.416	8304.75
837.666	8337.75
837.915	8388.75
838.165	8302.75
838.414	8239.75
838.663	8271.75
838.913	8311.75
839.162	8220.75
839.411	8347.75
839.661	8163.75
839.91	8249.75
840.159	8225.75
840.408	8247.75
840.657	8248.75
840.906	8264.75
841.155	8289.75
841.404	8245.75
841.653	8202.75
841.902	8230.75
842.15	8301.75
842.399	8303.75
842.648	8302.75
842.897	8284.75
843.145	8241.75
843.394	8101.75
843.642	8010.75
843.891	8030.75
844.139	8017.75
844.388	7878.75
844.636	7748.75
844.884	7861.75
845.133	7763.75
845.381	7802.75
845.629	7868.75
845.877	7803.75
846.125	7771.75
846.373	7772.75
846.621	7784.75
846.869	7731.75
847.117	7643.75
847.365	7674.75
847.613	7657.75
847.861	7616.75
848.108	7633.75
848.356	7594.75
848.604	7634.75
848.851	7634.75
849.099	7628.75
849.346	7630.75
849.594	7682.75
849.841	7759.75
850.089	7777.75
850.336	7817.75
850.583	8048.75
850.831	7932.75
851.078	7820.75
851.325	7800.75
851.572	7795.75
851.819	7641.75
852.066	7480.75
852.313	7324.75
852.56	7252.75
852.807	7218.75
853.054	7179.75
853.301	7235.75
853.548	7213.75
853.794	7322.75
854.041	7321.75
854.288	7391.75
854.534	7520.75
854.781	7371.75
855.028	7387.75
855.274	7477.75
855.52	7356.75
855.767	7444.75
856.013	7446.75
856.26	7698.75
856.506	7278.75
856.752	7331.75
856.998	7309.75
857.244	7342.75
857.49	7387.75
857.736	7413.75
857.982	7394.75
858.228	7377.75
858.474	7205.75
858.72	7213.75
858.966	7090.75
859.212	7041.75
859.458	6971.75
859.703	6909.75
859.949	6800.75
860.195	6808.75
860.44	6851.75
860.686	6770.75
860.931	6827.75
861.177	6673.75
861.422	6664.75
861.667	6560.75
861.913	6576.75
862.158	6489.75
862.403	6661.75
862.648	6614.75
862.893	6645.75
863.138	6631.75
863.384	6610.75
863.629	6559.75
863.873	6610.75
864.118	6557.75
864.363	6481.75
864.608	6494.75
864.853	6514.75
865.098	6465.75
865.342	6419.75
865.587	6387.75
865.832	6414.75
866.076	6427.75
866.321	6390.75
866.565	6386.75
866.81	6227.75
867.054	6290.75
867.298	6323.75
867.543	6301.75
867.787	6230.75
868.031	6269.75
868.275	6312.75
868.519	6263.75
868.764	6326.75
869.008	6243.75
869.252	6325.75
869.496	6261.75
869.739	6245.75
869.983	6317.75
870.227	6330.75
870.471	6328.75
870.715	6383.75
870.958	6334.75
871.202	6351.75
871.446	6386.75
871.689	6293.75
871.933	6359.75
872.176	6377.75
872.42	6328.75
872.663	6369.75
872.906	6365.75
873.15	6437.75
873.393	6378.75
873.636	6505.75
873.879	6355.75
874.122	6275.75
874.366	6157.75
874.609	6040.75
874.852	5980.75
875.095	5949.75
875.337	5872.75
875.58	5794.75
875.823	5827.75
876.066	5907.75
876.309	5850.75
876.551	5757.75
876.794	5726.75
877.037	5780.75
877.279	5731.75
877.522	5738.75
877.764	5743.75
878.007	5631.75
878.249	5667.75
878.491	5625.75
878.734	5691.75
878.976	5585.75
879.218	5570.75
879.46	5559.75
879.702	5506.75
879.945	5475.75
880.187	5435.75
880.429	5402.75
880.671	5372.75
880.912	5394.75
881.154	5317.75
881.396	5249.75
881.638	5334.75
881.88	5323.75
882.121	5282.75
882.363	5299.75
882.605	5347.75
882.846	5362.75
883.088	5352.75
883.329	5373.75
883.571	5429.75
883.812	5569.75
884.053	5777.75
884.295	5960.75
884.536	6133.75
884.777	6001.75
885.018	5891.75
885.259	5863.75
885.5	5754.75
885.742	5998.75
885.982	5772.75
886.223	5616.75
886.464	5627.75
886.705	5519.75
886.946	5427.75
887.187	5244.75
887.428	5219.75
887.668	5060.75
887.909	5009.75
888.15	4912.75
888.39	4931.75
888.631	4930.75
888.871	4856.75
889.111	4772.75
889.352	4744.75
889.592	4690.75
889.833	4704.75
890.073	4651.75
890.313	4724.75
890.553	4525.75
890.793	4546.75
891.033	4497.75
891.273	4491.75
891.513	4497.75
891.753	4558.75
891.993	4508.75
892.233	4507.75
892.473	4612.75
892.713	4504.75
892.952	4485.75
893.192	4556.75
893.432	4521.75
893.671	4548.75
893.911	4498.75
894.15	4457.75
894.39	4420.75
894.629	4465.75
894.869	4467.75
895.108	4402.75
895.347	4375.75
895.587	4365.75
895.826	4325.75
896.065	4341.75
896.304	4396.75
896.543	4389.75
896.782	4321.75
897.021	4368.75
897.26	4364.75
897.499	4441.75
897.738	4420.75
897.977	4348.75
898.216	4346.75
898.454	4358.75
898.693	4280.75
898.932	4309.75
899.17	4275.75
899.409	4242.75
899.647	4288.75
899.886	4234.75
900.124	4319.75
900.363	4235.75
900.601	4331.75
900.839	4328.75
901.078	4363.75
901.316	4410.75
901.554	4437.75
901.792	4520.75
902.03	4425.75
902.268	4421.75
902.506	4441.75
902.744	4389.75
902.982	4353.75
903.22	4244.75
903.458	4156.75
903.695	4089.75
903.933	4033.75
904.171	3962.75
904.409	3832.75
904.646	3819.75
904.884	3743.75
905.121	3789.75
905.359	3682.75
905.596	3670.75
905.833	3563.75
906.071	3565.75
906.308	3575.75
906.545	3589.75
906.783	3542.75
907.02	3522.75
907.257	3470.75
907.494	3475.75
907.731	3524.75
907.968	3513.75
908.205	3397.75
908.442	3412.75
908.679	3412.75
908.915	3326.75
909.152	3340.75
909.389	3216.75
909.626	3292.75
909.862	3234.75
910.099	3248.75
910.335	3251.75
910.572	3164.75
910.808	3175.75
911.045	3152.75
911.281	3157.75
911.518	3185.75
911.754	3159.75
911.99	3169.75
912.226	3086.75
912.463	3094.75
912.699	3043.75
912.935	3064.75
913.171	3009.75
913.407	2946.75
913.643	3023.75
913.879	2979.75
914.114	2921.75
914.35	2916.75
914.586	2878.75
914.822	2855.75
915.057	2934.75
915.293	2782.75
915.529	2795.75
915.764	2863.75
916	2821.75
916.235	2847.75
916.471	2797.75
916.706	2728.75
916.941	2767.75
917.177	2770.75
917.412	2765.75
917.647	2788.75
917.882	2751.75
918.117	2763.75
918.352	2738.75
918.588	2816.75
918.823	2727.75
919.057	2726.75
919.292	2594.75
919.527	2694.75
919.762	2602.75
919.997	2673.75
920.232	2593.75
920.466	2648.75
920.701	2520.75
920.935	2545.75
921.17	2512.75
921.405	2520.75
921.639	2501.75
921.873	2517.75
922.108	2487.75
922.342	2490.75
922.576	2430.75
922.811	2443.75
923.045	2492.75
923.279	2510.75
923.513	2360.75
923.747	2470.75
923.981	2426.75
924.215	2381.75
924.449	2344.75
924.683	2317.75
924.917	2342.75
925.151	2356.75
925.385	2378.75
925.618	2354.75
925.852	2369.75
926.086	2281.75
926.319	2363.75
926.553	2303.75
926.786	2350.75
927.02	2298.75
927.253	2357.75
927.486	2341.75
927.72	2289.75
927.953	2340.75
928.186	2291.75
928.42	2312.75
928.653	2284.75
928.886	2281.75
929.119	2258.75
929.352	2277.75
929.585	2258.75
929.818	2212.75
930.051	2267.75
930.284	2249.75
930.516	2144.75
930.749	2173.75
930.982	2210.75
931.215	2194.75
931.447	2130.75
931.68	2150.75
931.912	2131.75
932.145	2089.75
932.377	2164.75
932.61	2276.75
932.842	2095.75
933.074	2146.75
933.307	2085.75
933.539	2163.75
933.771	2183.75
934.003	2126.75
934.236	2173.75
934.468	2196.75
934.7	2110.75
934.932	2137.75
935.164	2084.75
935.395	2118.75
935.627	2127.75
935.859	2133.75
936.091	2088.75
936.323	2129.75
936.554	2158.75
936.786	2054.75
937.017	2044.75
937.249	2072.75
937.481	2030.75
937.712	2089.75
937.943	2074.75
938.175	2030.75
938.406	2011.75
938.637	2096.75
938.869	2025.75
939.1	2061.75
939.331	2023.75
939.562	2063.75
939.793	2055.75
940.024	2074.75
940.255	2072.75
940.486	2001.75
940.717	1976.75
940.948	2003.75
941.179	1935.75
941.409	1974.75
941.64	1971.75
941.871	1973.75
942.102	1939.75
942.332	1992.75
942.563	1999.75
942.793	1994.75
943.024	1920.75
943.254	1957.75
943.484	2032.75
943.715	2008.75
943.945	1975.75
944.175	1906.75
944.405	1874.75
944.636	1914.75
944.866	1953.75
945.096	1957.75
945.326	1887.75
945.556	1977.75
945.786	1944.75
946.016	1913.75
946.245	1856.75
946.475	1861.75
946.705	1857.75
946.935	1868.75
947.164	1882.75
947.394	1808.75
947.624	1831.75
947.853	1877.75
948.083	1865.75
948.312	1815.75
948.542	1787.75
948.771	1754.75
949	1755.75
949.23	1784.75
949.459	1785.75
949.688	1869.75
949.917	1793.75
950.146	1809.75
950.375	1857.75
950.604	1763.75
950.833	1845.75
951.062	1849.75
951.291	1759.75
951.52	1747.75
951.749	1788.75
951.978	1726.75
952.206	1733.75
952.435	1738.75
952.664	1770.75
952.892	1777.75
953.121	1746.75
953.349	1807.75
953.578	1787.75
953.806	1744.75
954.035	1680.75
954.263	1722.75
954.491	1645.75
954.719	1729.75
954.948	1677.75
955.176	1665.75
955.404	1615.75
955.632	1663.75
955.86	1676.75
956.088	1687.75
956.316	1683.75
956.544	1667.75
956.772	1628.75
956.999	1594.75
957.227	1714.75
957.455	1606.75
957.683	1647.75
957.91	1558.75
958.138	1580.75
958.365	1598.75
958.593	1568.75
958.82	1536.75
959.048	1608.75
959.275	1557.75
959.502	1584.75
959.73	1542.75
959.957	1569.75
960.184	1596.75
960.411	1524.75
960.638	1617.75
960.865	1564.75
961.092	1605.75
961.319	1470.75
961.546	1570.75
961.773	1559.75
962	1541.75
962.227	1566.75
962.454	1542.75
962.68	1540.75
962.907	1581.75
963.134	1514.75
963.36	1550.75
963.587	1554.75
963.813	1489.75
964.04	1532.75
964.266	1470.75
964.493	1544.75
964.719	1501.75
964.945	1558.75
965.171	1437.75
965.398	1494.75
965.624	1495.75
965.85	1461.75
966.076	1452.75
966.302	1481.75
966.528	1452.75
966.754	1495.75
966.98	1475.75
967.206	1465.75
967.431	1411.75
967.657	1495.75
967.883	1445.75
968.109	1480.75
968.334	1423.75
968.56	1420.75
968.785	1442.75
969.011	1394.75
969.236	1453.75
969.462	1361.75
969.687	1405.75
969.912	1448.75
970.138	1440.75
970.363	1381.75
970.588	1398.75
970.813	1418.75
971.038	1359.75
971.263	1433.75
971.488	1400.75
971.713	1419.75
971.938	1406.75
972.163	1294.75
972.388	1338.75
972.613	1347.75
972.838	1346.75
973.062	1337.75
973.287	1328.75
973.512	1280.75
973.736	1318.75
973.961	1321.75
974.185	1298.75
974.41	1361.75
974.634	1239.75
974.858	1280.75
975.083	1324.75
975.307	1324.75
975.531	1285.75
975.755	1213.75
975.98	1255.75
976.204	1219.75
976.428	1233.75
976.652	1204.75
976.876	1211.75
977.1	1242.75
977.324	1189.75
977.547	1227.75
977.771	1270.75
977.995	1238.75
978.219	1200.75
978.442	1301.75
978.666	1226.75
978.89	1231.75
979.113	1221.75
979.337	1225.75
979.56	1183.75
979.783	1271.75
980.007	1173.75
980.23	1210.75
980.453	1183.75
980.677	1208.75
980.9	1216.75
981.123	1138.75
981.346	1210.75
981.569	1195.75
981.792	1226.75
982.015	1188.75
982.238	1151.75
982.461	1181.75
982.684	1130.75
982.907	1103.75
983.129	1128.75
983.352	1193.75
983.575	1159.75
983.797	1170.75
984.02	1129.75
984.242	1125.75
984.465	1130.75
984.687	1165.75
984.91	1169.75
985.132	1175.75
985.354	1186.75
985.577	1160.75
985.799	1170.75
986.021	1088.75
986.243	1094.75
986.465	1104.75
986.687	1168.75
986.909	1184.75
987.131	1144.75
987.353	1124.75
987.575	1161.75
987.797	1108.75
988.019	1050.75
988.241	1121.75
988.462	1093.75
988.684	1127.75
988.906	1158.75
989.127	1170.75
989.349	1063.75
989.57	1110.75
989.792	1165.75
990.013	1158.75
990.234	1150.75
990.456	1174.75
990.677	1178.75
990.898	1110.75
991.119	1095.75
991.341	1147.75
991.562	1089.75
991.783	1137.75
992.004	1086.75
992.225	1034.75
992.446	1119.75
992.667	1019.75
992.887	1129.75
993.108	1021.75
993.329	1149.75
993.55	1093.75
993.77	1028.75
993.991	1048.75
994.212	1078.75
994.432	1058.75
994.653	1090.75
994.873	1095.75
995.093	980.75
995.314	1031.75
995.534	1103.75
995.754	1104.75
995.975	1145.75
996.195	1029.75
996.415	1097.75
996.635	1060.75
996.855	1100.75
997.075	1044.75
997.295	1077.75
997.515	1061.75
997.735	1107.75
997.955	1068.75
998.174	1058.75
998.394	1046.75
998.614	1093.75
998.834	1037.75
999.053	1130.75
999.273	1098.75
999.492	1138.75
999.712	1058.75
999.931	1048.75
1000.151	1086.75
1000.37	1082.75
1000.589	1120.75
1000.809	1057.75
1001.028	1177.75
1001.247	1114.75
1001.466	996.75
1001.685	1140.75
1001.904	1076.75
1002.123	1068.75
1002.342	1106.75
1002.561	1040.75
1002.78	1072.75
1002.999	1138.75
1003.218	1077.75
1003.436	1072.75
1003.655	1126.75
1003.874	1054.75
1004.092	1073.75
1004.311	1115.75
1004.53	1077.75
1004.748	1173.75
1004.966	1095.75
1005.185	1145.75
1005.403	1147.75
1005.622	1109.75
1005.84	1182.75
1006.058	1081.75
1006.276	1107.75
1006.494	1618.75
1006.712	1144.75
1006.931	1175.75
1007.149	1098.75
1007.367	1094.75
1007.584	1125.75
1007.802	1148.75
1008.02	1118.75
1008.238	1244.75
1008.456	1227.75
1008.673	1076.75
1008.891	1192.75
1009.109	1157.75
1009.326	1212.75
1009.544	1314.75
1009.761	1228.75
1009.979	1335.75
1010.196	1327.75
1010.413	1449.75
1010.631	1517.75
1010.848	1520.75
1011.065	1507.75
1011.282	1451.75
1011.5	1422.75
1011.717	1523.75
1011.934	1492.75
1012.151	1513.75
1012.368	1492.75
1012.585	1439.75
1012.801	1473.75
1013.018	1450.75
1013.235	1439.75
1013.452	1454.75
1013.669	1459.75
1013.885	1431.75
1014.102	1478.75
1014.318	1468.75
1014.535	1405.75
1014.751	1436.75
1014.968	1440.75
1015.184	1463.75
1015.401	1361.75
1015.617	1418.75
1015.833	1358.75
1016.049	1381.75
1016.266	1338.75
1016.482	1349.75
1016.698	1295.75
1016.914	1345.75
1017.13	1277.75
1017.346	1287.75
1017.562	1335.75
1017.778	1276.75
1017.993	1227.75
1018.209	1289.75
1018.425	1277.75
1018.641	1262.75
1018.856	1240.75
1019.072	1229.75
1019.288	1275.75
1019.503	1266.75
1019.719	1155.75
1019.934	1174.75
1020.149	1261.75
1020.365	1177.75
1020.58	1154.75
1020.795	1183.75
1021.011	1109.75
1021.226	1120.75
1021.441	1126.75
1021.656	1059.75
1021.871	995.75
1022.086	995.75
1022.301	1018.75
1022.516	1005.75
1022.731	1041.75
1022.946	959.75
1023.16	971.75
1023.375	930.75
1023.59	913.75
1023.804	860.75
1024.019	990.75
1024.234	830.75
1024.448	895.75
1024.663	824.75
1024.877	820.75
1025.092	867.75
1025.306	851.75
1025.52	766.75
1025.734	864.75
1025.949	790.75
1026.163	777.75
1026.377	700.75
1026.591	757.75
1026.805	700.75
1027.019	710.75
1027.233	648.75
1027.447	599.75
1027.661	705.75
1027.875	647.75
1028.088	661.75
1028.302	588.75
1028.516	579.75
1028.73	583.75
1028.943	589.75
1029.157	529.75
1029.37	513.75
1029.584	-3.25
1029.797	-0.25
1030.011	-2.25
1030.224	0.75
