Data from QEP037381__104__11-38-15-597.txt Node

Date: Wed Dec 21 11:38:15 EST 2022
User: dcclab
Spectrometer: QEP03738
Trigger mode: 4
Integration Time (sec): 1.000000E1
Scans to average: 1
Electric dark correction enabled: true
Nonlinearity correction enabled: false
Boxcar width: 0
XAxis mode: Wavelengths
Number of Pixels in Spectrum: 1044
>>>>>Begin Spectral Data<<<<<
784.041	14.25
784.3	-2.75
784.558	-1.75
784.817	-5.75
785.075	40256.25
785.334	7968.25
785.592	4217.25
785.851	2974.25
786.109	2314.25
786.368	1871.25
786.626	1527.25
786.884	1315.25
787.143	1117.25
787.401	928.25
787.659	891.25
787.917	769.25
788.175	742.25
788.433	632.25
788.691	607.25
788.949	572.25
789.207	543.25
789.465	475.25
789.723	465.25
789.98	454.25
790.238	488.25
790.496	464.25
790.753	448.25
791.011	507.25
791.268	435.25
791.526	422.25
791.783	439.25
792.041	431.25
792.298	356.25
792.556	421.25
792.813	392.25
793.07	385.25
793.327	372.25
793.584	462.25
793.841	385.25
794.099	401.25
794.356	460.25
794.613	364.25
794.869	420.25
795.126	367.25
795.383	346.25
795.64	367.25
795.897	324.25
796.153	387.25
796.41	372.25
796.667	356.25
796.923	358.25
797.18	355.25
797.436	388.25
797.693	352.25
797.949	412.25
798.206	430.25
798.462	340.25
798.718	398.25
798.974	369.25
799.231	418.25
799.487	385.25
799.743	406.25
799.999	407.25
800.255	403.25
800.511	398.25
800.767	429.25
801.023	419.25
801.279	423.25
801.534	433.25
801.79	467.25
802.046	461.25
802.302	534.25
802.557	575.25
802.813	642.25
803.068	746.25
803.324	966.25
803.579	1199.25
803.835	1576.25
804.09	2188.25
804.345	2752.25
804.601	3398.25
804.856	4198.25
805.111	4773.25
805.366	5260.25
805.621	5663.25
805.876	5918.25
806.131	6070.25
806.386	6178.25
806.641	6207.25
806.896	6412.25
807.151	6517.25
807.406	6631.25
807.661	6703.25
807.915	6824.25
808.17	6910.25
808.425	7030.25
808.679	7061.25
808.934	7184.25
809.188	7200.25
809.443	7317.25
809.697	7467.25
809.951	7426.25
810.206	7491.25
810.46	7608.25
810.714	7576.25
810.968	7718.25
811.223	7716.25
811.477	7756.25
811.731	7919.25
811.985	7777.25
812.239	7821.25
812.493	7878.25
812.747	7961.25
813	7945.25
813.254	8014.25
813.508	8001.25
813.762	8056.25
814.015	8050.25
814.269	8128.25
814.522	8235.25
814.776	8335.25
815.03	8386.25
815.283	8506.25
815.536	8651.25
815.79	8771.25
816.043	8897.25
816.296	9029.25
816.55	9087.25
816.803	9183.25
817.056	9370.25
817.309	9378.25
817.562	9510.25
817.815	9640.25
818.068	9671.25
818.321	9757.25
818.574	9831.25
818.827	9991.25
819.079	10112.25
819.332	10340.25
819.585	10387.25
819.838	10563.25
820.09	10489.25
820.343	10646.25
820.595	10620.25
820.848	10707.25
821.1	10762.25
821.353	10649.25
821.605	10695.25
821.857	10637.25
822.11	10474.25
822.362	10577.25
822.614	10527.25
822.866	10586.25
823.118	10527.25
823.37	10657.25
823.622	10614.25
823.874	10622.25
824.126	10709.25
824.378	10623.25
824.63	10737.25
824.882	10750.25
825.134	10746.25
825.385	10643.25
825.637	10655.25
825.888	10620.25
826.14	10628.25
826.392	10478.25
826.643	10458.25
826.895	10452.25
827.146	10460.25
827.397	10321.25
827.649	10471.25
827.9	10302.25
828.151	10312.25
828.402	10404.25
828.653	10382.25
828.905	10457.25
829.156	10531.25
829.407	10451.25
829.658	10458.25
829.909	10521.25
830.159	10486.25
830.41	10439.25
830.661	10390.25
830.912	10285.25
831.162	10158.25
831.413	10270.25
831.664	10221.25
831.914	10174.25
832.165	10214.25
832.415	10213.25
832.666	10199.25
832.916	10230.25
833.167	10244.25
833.417	10250.25
833.667	10172.25
833.917	10126.25
834.168	10119.25
834.418	10151.25
834.668	10027.25
834.918	9932.25
835.168	9937.25
835.418	9764.25
835.668	9889.25
835.918	9815.25
836.167	9832.25
836.417	9763.25
836.667	9804.25
836.917	9810.25
837.166	9773.25
837.416	9779.25
837.666	9782.25
837.915	9688.25
838.165	9702.25
838.414	9617.25
838.663	9617.25
838.913	9645.25
839.162	9651.25
839.411	9634.25
839.661	9551.25
839.91	9642.25
840.159	9573.25
840.408	9623.25
840.657	9596.25
840.906	9608.25
841.155	9666.25
841.404	9626.25
841.653	9586.25
841.902	9590.25
842.15	9622.25
842.399	9659.25
842.648	9667.25
842.897	9550.25
843.145	9461.25
843.394	9393.25
843.642	9314.25
843.891	9301.25
844.139	9279.25
844.388	9077.25
844.636	9055.25
844.884	9123.25
845.133	9054.25
845.381	9100.25
845.629	9059.25
845.877	9095.25
846.125	9073.25
846.373	9022.25
846.621	8914.25
846.869	9016.25
847.117	8927.25
847.365	8864.25
847.613	8846.25
847.861	8890.25
848.108	8935.25
848.356	8808.25
848.604	8838.25
848.851	8813.25
849.099	8896.25
849.346	8903.25
849.594	8921.25
849.841	8979.25
850.089	9061.25
850.336	9178.25
850.583	9212.25
850.831	9149.25
851.078	9002.25
851.325	8969.25
851.572	8930.25
851.819	8830.25
852.066	8657.25
852.313	8507.25
852.56	8404.25
852.807	8382.25
853.054	8370.25
853.301	8347.25
853.548	8381.25
853.794	8500.25
854.041	8399.25
854.288	8503.25
854.534	8579.25
854.781	8534.25
855.028	8529.25
855.274	8555.25
855.52	8483.25
855.767	8483.25
856.013	8543.25
856.26	8816.25
856.506	8338.25
856.752	8394.25
856.998	8384.25
857.244	8437.25
857.49	8458.25
857.736	8476.25
857.982	8492.25
858.228	8409.25
858.474	8303.25
858.72	8269.25
858.966	8153.25
859.212	8097.25
859.458	8064.25
859.703	7887.25
859.949	7857.25
860.195	7835.25
860.44	7795.25
860.686	7723.25
860.931	7803.25
861.177	7669.25
861.422	7647.25
861.667	7619.25
861.913	7608.25
862.158	7569.25
862.403	7642.25
862.648	7613.25
862.893	7683.25
863.138	7600.25
863.384	7603.25
863.629	7588.25
863.873	7640.25
864.118	7521.25
864.363	7491.25
864.608	7491.25
864.853	7467.25
865.098	7479.25
865.342	7490.25
865.587	7410.25
865.832	7412.25
866.076	7419.25
866.321	7301.25
866.565	7309.25
866.81	7232.25
867.054	7223.25
867.298	7273.25
867.543	7187.25
867.787	7203.25
868.031	7183.25
868.275	7175.25
868.519	7195.25
868.764	7207.25
869.008	7177.25
869.252	7210.25
869.496	7159.25
869.739	7212.25
869.983	7233.25
870.227	7214.25
870.471	7161.25
870.715	7301.25
870.958	7205.25
871.202	7263.25
871.446	7293.25
871.689	7225.25
871.933	7190.25
872.176	7280.25
872.42	7205.25
872.663	7192.25
872.906	7315.25
873.15	7245.25
873.393	7213.25
873.636	7262.25
873.879	7192.25
874.122	7057.25
874.366	6956.25
874.609	6897.25
874.852	6802.25
875.095	6812.25
875.337	6702.25
875.58	6654.25
875.823	6678.25
876.066	6636.25
876.309	6680.25
876.551	6585.25
876.794	6475.25
877.037	6532.25
877.279	6491.25
877.522	6518.25
877.764	6478.25
878.007	6423.25
878.249	6448.25
878.491	6474.25
878.734	6477.25
878.976	6447.25
879.218	6368.25
879.46	6384.25
879.702	6353.25
879.945	6257.25
880.187	6192.25
880.429	6212.25
880.671	6155.25
880.912	6106.25
881.154	6065.25
881.396	6045.25
881.638	6074.25
881.88	6104.25
882.121	6067.25
882.363	6035.25
882.605	6105.25
882.846	6120.25
883.088	6102.25
883.329	6116.25
883.571	6088.25
883.812	6224.25
884.053	6342.25
884.295	6556.25
884.536	6710.25
884.777	6568.25
885.018	6553.25
885.259	6448.25
885.5	6385.25
885.742	6629.25
885.982	6407.25
886.223	6239.25
886.464	6248.25
886.705	6112.25
886.946	6085.25
887.187	5837.25
887.428	5901.25
887.668	5756.25
887.909	5669.25
888.15	5589.25
888.39	5621.25
888.631	5598.25
888.871	5521.25
889.111	5490.25
889.352	5439.25
889.592	5409.25
889.833	5317.25
890.073	5264.25
890.313	5304.25
890.553	5192.25
890.793	5202.25
891.033	5147.25
891.273	5169.25
891.513	5131.25
891.753	5167.25
891.993	5123.25
892.233	5143.25
892.473	5270.25
892.713	5166.25
892.952	5111.25
893.192	5176.25
893.432	5158.25
893.671	5199.25
893.911	5145.25
894.15	5090.25
894.39	5037.25
894.629	5076.25
894.869	5079.25
895.108	5010.25
895.347	4982.25
895.587	5027.25
895.826	4998.25
896.065	4984.25
896.304	4946.25
896.543	4991.25
896.782	4882.25
897.021	4972.25
897.26	4931.25
897.499	5009.25
897.738	4974.25
897.977	4888.25
898.216	4943.25
898.454	4848.25
898.693	4799.25
898.932	4883.25
899.17	4815.25
899.409	4831.25
899.647	4787.25
899.886	4770.25
900.124	4837.25
900.363	4775.25
900.601	4840.25
900.839	4881.25
901.078	4886.25
901.316	4864.25
901.554	4945.25
901.792	4940.25
902.03	4909.25
902.268	4958.25
902.506	4969.25
902.744	4893.25
902.982	4836.25
903.22	4716.25
903.458	4709.25
903.695	4596.25
903.933	4555.25
904.171	4437.25
904.409	4382.25
904.646	4387.25
904.884	4245.25
905.121	4261.25
905.359	4205.25
905.596	4152.25
905.833	4073.25
906.071	4042.25
906.308	4064.25
906.545	3995.25
906.783	3937.25
907.02	3995.25
907.257	3943.25
907.494	3931.25
907.731	3934.25
907.968	3920.25
908.205	3900.25
908.442	3878.25
908.679	3850.25
908.915	3825.25
909.152	3814.25
909.389	3721.25
909.626	3715.25
909.862	3668.25
910.099	3682.25
910.335	3707.25
910.572	3607.25
910.808	3668.25
911.045	3619.25
911.281	3572.25
911.518	3627.25
911.754	3571.25
911.99	3572.25
912.226	3529.25
912.463	3487.25
912.699	3470.25
912.935	3422.25
913.171	3430.25
913.407	3366.25
913.643	3404.25
913.879	3385.25
914.114	3309.25
914.35	3259.25
914.586	3268.25
914.822	3242.25
915.057	3323.25
915.293	3129.25
915.529	3180.25
915.764	3235.25
916	3201.25
916.235	3173.25
916.471	3167.25
916.706	3120.25
916.941	3121.25
917.177	3147.25
917.412	3175.25
917.647	3153.25
917.882	3105.25
918.117	3159.25
918.352	3134.25
918.588	3177.25
918.823	3057.25
919.057	3028.25
919.292	2975.25
919.527	3026.25
919.762	2981.25
919.997	3007.25
920.232	2906.25
920.466	2942.25
920.701	2820.25
920.935	2876.25
921.17	2842.25
921.405	2806.25
921.639	2863.25
921.873	2813.25
922.108	2838.25
922.342	2821.25
922.576	2779.25
922.811	2736.25
923.045	2825.25
923.279	2816.25
923.513	2685.25
923.747	2764.25
923.981	2727.25
924.215	2672.25
924.449	2677.25
924.683	2634.25
924.917	2647.25
925.151	2605.25
925.385	2707.25
925.618	2656.25
925.852	2628.25
926.086	2556.25
926.319	2598.25
926.553	2639.25
926.786	2620.25
927.02	2575.25
927.253	2659.25
927.486	2651.25
927.72	2593.25
927.953	2623.25
928.186	2596.25
928.42	2609.25
928.653	2522.25
928.886	2535.25
929.119	2566.25
929.352	2526.25
929.585	2551.25
929.818	2494.25
930.051	2529.25
930.284	2496.25
930.516	2401.25
930.749	2442.25
930.982	2449.25
931.215	2461.25
931.447	2382.25
931.68	2368.25
931.912	2390.25
932.145	2386.25
932.377	2417.25
932.61	2525.25
932.842	2352.25
933.074	2386.25
933.307	2352.25
933.539	2431.25
933.771	2427.25
934.003	2398.25
934.236	2412.25
934.468	2448.25
934.7	2354.25
934.932	2395.25
935.164	2346.25
935.395	2331.25
935.627	2347.25
935.859	2375.25
936.091	2300.25
936.323	2353.25
936.554	2376.25
936.786	2297.25
937.017	2287.25
937.249	2314.25
937.481	2246.25
937.712	2359.25
937.943	2299.25
938.175	2262.25
938.406	2269.25
938.637	2364.25
938.869	2212.25
939.1	2278.25
939.331	2238.25
939.562	2296.25
939.793	2259.25
940.024	2249.25
940.255	2283.25
940.486	2232.25
940.717	2194.25
940.948	2205.25
941.179	2174.25
941.409	2216.25
941.64	2194.25
941.871	2206.25
942.102	2164.25
942.332	2177.25
942.563	2198.25
942.793	2193.25
943.024	2131.25
943.254	2142.25
943.484	2205.25
943.715	2226.25
943.945	2205.25
944.175	2130.25
944.405	2110.25
944.636	2146.25
944.866	2143.25
945.096	2143.25
945.326	2102.25
945.556	2140.25
945.786	2164.25
946.016	2118.25
946.245	2059.25
946.475	2068.25
946.705	2055.25
946.935	2093.25
947.164	2082.25
947.394	2021.25
947.624	2042.25
947.853	2092.25
948.083	2053.25
948.312	2024.25
948.542	1960.25
948.771	1950.25
949	1932.25
949.23	1980.25
949.459	1967.25
949.688	2068.25
949.917	1997.25
950.146	1971.25
950.375	2039.25
950.604	1934.25
950.833	2039.25
951.062	2029.25
951.291	1977.25
951.52	1926.25
951.749	1962.25
951.978	1912.25
952.206	1920.25
952.435	1914.25
952.664	1960.25
952.892	1975.25
953.121	1957.25
953.349	1949.25
953.578	1947.25
953.806	1918.25
954.035	1869.25
954.263	1918.25
954.491	1848.25
954.719	1877.25
954.948	1850.25
955.176	1857.25
955.404	1774.25
955.632	1862.25
955.86	1821.25
956.088	1855.25
956.316	1844.25
956.544	1864.25
956.772	1792.25
956.999	1777.25
957.227	1861.25
957.455	1772.25
957.683	1806.25
957.91	1771.25
958.138	1728.25
958.365	1756.25
958.593	1745.25
958.82	1668.25
959.048	1757.25
959.275	1747.25
959.502	1728.25
959.73	1715.25
959.957	1726.25
960.184	1768.25
960.411	1682.25
960.638	1762.25
960.865	1696.25
961.092	1731.25
961.319	1645.25
961.546	1747.25
961.773	1754.25
962	1701.25
962.227	1720.25
962.454	1691.25
962.68	1701.25
962.907	1714.25
963.134	1643.25
963.36	1695.25
963.587	1711.25
963.813	1622.25
964.04	1684.25
964.266	1613.25
964.493	1701.25
964.719	1682.25
964.945	1688.25
965.171	1573.25
965.398	1643.25
965.624	1648.25
965.85	1593.25
966.076	1591.25
966.302	1632.25
966.528	1611.25
966.754	1618.25
966.98	1594.25
967.206	1581.25
967.431	1560.25
967.657	1615.25
967.883	1632.25
968.109	1603.25
968.334	1530.25
968.56	1525.25
968.785	1540.25
969.011	1486.25
969.236	1572.25
969.462	1512.25
969.687	1521.25
969.912	1577.25
970.138	1617.25
970.363	1507.25
970.588	1518.25
970.813	1508.25
971.038	1485.25
971.263	1537.25
971.488	1536.25
971.713	1547.25
971.938	1536.25
972.163	1448.25
972.388	1494.25
972.613	1447.25
972.838	1478.25
973.062	1443.25
973.287	1474.25
973.512	1401.25
973.736	1452.25
973.961	1438.25
974.185	1445.25
974.41	1452.25
974.634	1368.25
974.858	1357.25
975.083	1438.25
975.307	1453.25
975.531	1401.25
975.755	1340.25
975.98	1366.25
976.204	1294.25
976.428	1287.25
976.652	1295.25
976.876	1315.25
977.1	1339.25
977.324	1286.25
977.547	1351.25
977.771	1342.25
977.995	1326.25
978.219	1260.25
978.442	1377.25
978.666	1343.25
978.89	1330.25
979.113	1325.25
979.337	1329.25
979.56	1289.25
979.783	1359.25
980.007	1281.25
980.23	1320.25
980.453	1270.25
980.677	1314.25
980.9	1298.25
981.123	1184.25
981.346	1288.25
981.569	1310.25
981.792	1334.25
982.015	1264.25
982.238	1235.25
982.461	1266.25
982.684	1245.25
982.907	1211.25
983.129	1211.25
983.352	1273.25
983.575	1229.25
983.797	1250.25
984.02	1219.25
984.242	1221.25
984.465	1238.25
984.687	1242.25
984.91	1295.25
985.132	1236.25
985.354	1274.25
985.577	1221.25
985.799	1226.25
986.021	1135.25
986.243	1187.25
986.465	1186.25
986.687	1216.25
986.909	1277.25
987.131	1218.25
987.353	1172.25
987.575	1216.25
987.797	1195.25
988.019	1128.25
988.241	1214.25
988.462	1156.25
988.684	1215.25
988.906	1250.25
989.127	1264.25
989.349	1133.25
989.57	1200.25
989.792	1208.25
990.013	1225.25
990.234	1223.25
990.456	1261.25
990.677	1233.25
990.898	1171.25
991.119	1175.25
991.341	1201.25
991.562	1151.25
991.783	1181.25
992.004	1127.25
992.225	1105.25
992.446	1180.25
992.667	1085.25
992.887	1158.25
993.108	1065.25
993.329	1206.25
993.55	1172.25
993.77	1100.25
993.991	1117.25
994.212	1141.25
994.432	1123.25
994.653	1169.25
994.873	1149.25
995.093	1000.25
995.314	1098.25
995.534	1142.25
995.754	1153.25
995.975	1182.25
996.195	1091.25
996.415	1151.25
996.635	1098.25
996.855	1132.25
997.075	1107.25
997.295	1115.25
997.515	1099.25
997.735	1127.25
997.955	1148.25
998.174	1131.25
998.394	1096.25
998.614	1112.25
998.834	1090.25
999.053	1147.25
999.273	1133.25
999.492	1185.25
999.712	1111.25
999.931	1109.25
1000.151	1124.25
1000.37	1086.25
1000.589	1169.25
1000.809	1110.25
1001.028	1227.25
1001.247	1179.25
1001.466	1036.25
1001.685	1204.25
1001.904	1131.25
1002.123	1122.25
1002.342	1131.25
1002.561	1084.25
1002.78	1126.25
1002.999	1186.25
1003.218	1121.25
1003.436	1102.25
1003.655	1159.25
1003.874	1102.25
1004.092	1109.25
1004.311	1156.25
1004.53	1123.25
1004.748	1218.25
1004.966	1126.25
1005.185	1195.25
1005.403	1174.25
1005.622	1136.25
1005.84	1243.25
1006.058	1122.25
1006.276	1135.25
1006.494	1631.25
1006.712	1143.25
1006.931	1198.25
1007.149	1124.25
1007.367	1111.25
1007.584	1164.25
1007.802	1183.25
1008.02	1160.25
1008.238	1227.25
1008.456	1231.25
1008.673	1129.25
1008.891	1214.25
1009.109	1175.25
1009.326	1225.25
1009.544	1296.25
1009.761	1223.25
1009.979	1347.25
1010.196	1309.25
1010.413	1431.25
1010.631	1481.25
1010.848	1494.25
1011.065	1512.25
1011.282	1426.25
1011.5	1373.25
1011.717	1475.25
1011.934	1423.25
1012.151	1469.25
1012.368	1467.25
1012.585	1389.25
1012.801	1431.25
1013.018	1428.25
1013.235	1394.25
1013.452	1396.25
1013.669	1417.25
1013.885	1416.25
1014.102	1443.25
1014.318	1410.25
1014.535	1371.25
1014.751	1419.25
1014.968	1425.25
1015.184	1420.25
1015.401	1330.25
1015.617	1373.25
1015.833	1303.25
1016.049	1353.25
1016.266	1304.25
1016.482	1310.25
1016.698	1251.25
1016.914	1290.25
1017.13	1256.25
1017.346	1250.25
1017.562	1302.25
1017.778	1240.25
1017.993	1201.25
1018.209	1275.25
1018.425	1247.25
1018.641	1213.25
1018.856	1197.25
1019.072	1221.25
1019.288	1265.25
1019.503	1232.25
1019.719	1147.25
1019.934	1152.25
1020.149	1238.25
1020.365	1166.25
1020.58	1134.25
1020.795	1185.25
1021.011	1113.25
1021.226	1086.25
1021.441	1130.25
1021.656	1030.25
1021.871	1002.25
1022.086	997.25
1022.301	1007.25
1022.516	1009.25
1022.731	1066.25
1022.946	973.25
1023.16	941.25
1023.375	918.25
1023.59	903.25
1023.804	870.25
1024.019	961.25
1024.234	846.25
1024.448	892.25
1024.663	845.25
1024.877	840.25
1025.092	838.25
1025.306	857.25
1025.52	773.25
1025.734	877.25
1025.949	778.25
1026.163	757.25
1026.377	691.25
1026.591	760.25
1026.805	713.25
1027.019	682.25
1027.233	653.25
1027.447	604.25
1027.661	710.25
1027.875	637.25
1028.088	671.25
1028.302	603.25
1028.516	594.25
1028.73	597.25
1028.943	590.25
1029.157	554.25
1029.37	514.25
1029.584	-1.75
1029.797	-2.75
1030.011	-2.75
1030.224	3.25
