Data from QEP037381__70__11-32-35-596.txt Node

Date: Wed Dec 21 11:32:35 EST 2022
User: dcclab
Spectrometer: QEP03738
Trigger mode: 4
Integration Time (sec): 1.000000E1
Scans to average: 1
Electric dark correction enabled: true
Nonlinearity correction enabled: false
Boxcar width: 0
XAxis mode: Wavelengths
Number of Pixels in Spectrum: 1044
>>>>>Begin Spectral Data<<<<<
784.041	12.25
784.3	-2.75
784.558	-4.75
784.817	-2.75
785.075	42167.25
785.334	8398.25
785.592	4448.25
785.851	3132.25
786.109	2439.25
786.368	1913.25
786.626	1582.25
786.884	1358.25
787.143	1171.25
787.401	944.25
787.659	920.25
787.917	786.25
788.175	736.25
788.433	647.25
788.691	606.25
788.949	578.25
789.207	572.25
789.465	471.25
789.723	480.25
789.98	446.25
790.238	486.25
790.496	472.25
790.753	436.25
791.011	486.25
791.268	438.25
791.526	431.25
791.783	450.25
792.041	437.25
792.298	353.25
792.556	419.25
792.813	399.25
793.07	388.25
793.327	379.25
793.584	460.25
793.841	368.25
794.099	398.25
794.356	458.25
794.613	368.25
794.869	406.25
795.126	363.25
795.383	359.25
795.64	384.25
795.897	339.25
796.153	383.25
796.41	364.25
796.667	356.25
796.923	367.25
797.18	358.25
797.436	387.25
797.693	341.25
797.949	411.25
798.206	443.25
798.462	343.25
798.718	403.25
798.974	370.25
799.231	419.25
799.487	411.25
799.743	401.25
799.999	422.25
800.255	417.25
800.511	386.25
800.767	427.25
801.023	408.25
801.279	437.25
801.534	458.25
801.79	486.25
802.046	474.25
802.302	565.25
802.557	618.25
802.813	736.25
803.068	827.25
803.324	1122.25
803.579	1426.25
803.835	1905.25
804.09	2557.25
804.345	3278.25
804.601	4030.25
804.856	4858.25
805.111	5603.25
805.366	6103.25
805.621	6494.25
805.876	6756.25
806.131	6935.25
806.386	7074.25
806.641	7209.25
806.896	7353.25
807.151	7496.25
807.406	7533.25
807.661	7669.25
807.915	7799.25
808.17	7939.25
808.425	8044.25
808.679	8084.25
808.934	8218.25
809.188	8259.25
809.443	8374.25
809.697	8503.25
809.951	8462.25
810.206	8582.25
810.46	8588.25
810.714	8766.25
810.968	8859.25
811.223	8826.25
811.477	8879.25
811.731	8995.25
811.985	9021.25
812.239	9019.25
812.493	9087.25
812.747	9090.25
813	9070.25
813.254	9133.25
813.508	9246.25
813.762	9242.25
814.015	9331.25
814.269	9272.25
814.522	9447.25
814.776	9536.25
815.03	9642.25
815.283	9712.25
815.536	9875.25
815.79	10074.25
816.043	10165.25
816.296	10299.25
816.55	10344.25
816.803	10507.25
817.056	10742.25
817.309	10797.25
817.562	10884.25
817.815	10989.25
818.068	11027.25
818.321	11158.25
818.574	11366.25
818.827	11521.25
819.079	11615.25
819.332	11861.25
819.585	11886.25
819.838	12090.25
820.09	12040.25
820.343	12218.25
820.595	12104.25
820.848	12240.25
821.1	12336.25
821.353	12206.25
821.605	12253.25
821.857	12280.25
822.11	12112.25
822.362	12134.25
822.614	12099.25
822.866	12192.25
823.118	12038.25
823.37	12214.25
823.622	12209.25
823.874	12241.25
824.126	12285.25
824.378	12251.25
824.63	12222.25
824.882	12315.25
825.134	12349.25
825.385	12277.25
825.637	12253.25
825.888	12130.25
826.14	12180.25
826.392	12091.25
826.643	11998.25
826.895	12041.25
827.146	11941.25
827.397	11904.25
827.649	11968.25
827.9	11922.25
828.151	11881.25
828.402	11863.25
828.653	11990.25
828.905	11987.25
829.156	12060.25
829.407	12031.25
829.658	11972.25
829.909	12161.25
830.159	12134.25
830.41	11919.25
830.661	11998.25
830.912	11796.25
831.162	11799.25
831.413	11770.25
831.664	11802.25
831.914	11798.25
832.165	11688.25
832.415	11673.25
832.666	11762.25
832.916	11722.25
833.167	11744.25
833.417	11754.25
833.667	11601.25
833.917	11532.25
834.168	11570.25
834.418	11559.25
834.668	11497.25
834.918	11457.25
835.168	11336.25
835.418	11290.25
835.668	11350.25
835.918	11310.25
836.167	11265.25
836.417	11176.25
836.667	11259.25
836.917	11321.25
837.166	11199.25
837.416	11308.25
837.666	11262.25
837.915	11266.25
838.165	11184.25
838.414	11162.25
838.663	11034.25
838.913	11199.25
839.162	11056.25
839.411	11147.25
839.661	11010.25
839.91	11076.25
840.159	11039.25
840.408	11072.25
840.657	11079.25
840.906	11064.25
841.155	11093.25
841.404	11006.25
841.653	11143.25
841.902	11009.25
842.15	11230.25
842.399	11135.25
842.648	11086.25
842.897	11076.25
843.145	10850.25
843.394	10892.25
843.642	10781.25
843.891	10774.25
844.139	10647.25
844.388	10582.25
844.636	10512.25
844.884	10560.25
845.133	10527.25
845.381	10441.25
845.629	10541.25
845.877	10398.25
846.125	10477.25
846.373	10453.25
846.621	10316.25
846.869	10377.25
847.117	10302.25
847.365	10212.25
847.613	10314.25
847.861	10300.25
848.108	10151.25
848.356	10195.25
848.604	10168.25
848.851	10247.25
849.099	10217.25
849.346	10206.25
849.594	10302.25
849.841	10459.25
850.089	10433.25
850.336	10579.25
850.583	10606.25
850.831	10578.25
851.078	10433.25
851.325	10352.25
851.572	10350.25
851.819	10217.25
852.066	9952.25
852.313	9804.25
852.56	9702.25
852.807	9649.25
853.054	9685.25
853.301	9650.25
853.548	9767.25
853.794	9857.25
854.041	9760.25
854.288	9815.25
854.534	9959.25
854.781	9908.25
855.028	9888.25
855.274	9933.25
855.52	9874.25
855.767	9888.25
856.013	9963.25
856.26	10175.25
856.506	9754.25
856.752	9762.25
856.998	9751.25
857.244	9738.25
857.49	9852.25
857.736	9852.25
857.982	9856.25
858.228	9810.25
858.474	9637.25
858.72	9580.25
858.966	9460.25
859.212	9360.25
859.458	9284.25
859.703	9214.25
859.949	9137.25
860.195	9071.25
860.44	9050.25
860.686	8982.25
860.931	9012.25
861.177	8910.25
861.422	8796.25
861.667	8774.25
861.913	8744.25
862.158	8787.25
862.403	8841.25
862.648	8841.25
862.893	8794.25
863.138	8822.25
863.384	8809.25
863.629	8785.25
863.873	8765.25
864.118	8798.25
864.363	8722.25
864.608	8689.25
864.853	8695.25
865.098	8564.25
865.342	8560.25
865.587	8513.25
865.832	8515.25
866.076	8527.25
866.321	8456.25
866.565	8428.25
866.81	8359.25
867.054	8372.25
867.298	8364.25
867.543	8273.25
867.787	8356.25
868.031	8369.25
868.275	8275.25
868.519	8305.25
868.764	8299.25
869.008	8250.25
869.252	8318.25
869.496	8237.25
869.739	8288.25
869.983	8312.25
870.227	8317.25
870.471	8295.25
870.715	8318.25
870.958	8360.25
871.202	8379.25
871.446	8388.25
871.689	8444.25
871.933	8469.25
872.176	8439.25
872.42	8344.25
872.663	8358.25
872.906	8428.25
873.15	8370.25
873.393	8429.25
873.636	8440.25
873.879	8271.25
874.122	8238.25
874.366	8055.25
874.609	8003.25
874.852	7795.25
875.095	7842.25
875.337	7752.25
875.58	7661.25
875.823	7725.25
876.066	7714.25
876.309	7720.25
876.551	7547.25
876.794	7541.25
877.037	7560.25
877.279	7497.25
877.522	7480.25
877.764	7518.25
878.007	7501.25
878.249	7516.25
878.491	7448.25
878.734	7522.25
878.976	7420.25
879.218	7291.25
879.46	7349.25
879.702	7299.25
879.945	7156.25
880.187	7112.25
880.429	7096.25
880.671	7031.25
880.912	7089.25
881.154	7009.25
881.396	6975.25
881.638	7034.25
881.88	6969.25
882.121	6979.25
882.363	6972.25
882.605	7038.25
882.846	6991.25
883.088	6970.25
883.329	7011.25
883.571	7080.25
883.812	7273.25
884.053	7493.25
884.295	7683.25
884.536	7869.25
884.777	7702.25
885.018	7645.25
885.259	7537.25
885.5	7480.25
885.742	7715.25
885.982	7495.25
886.223	7359.25
886.464	7328.25
886.705	7131.25
886.946	7085.25
887.187	6813.25
887.428	6848.25
887.668	6605.25
887.909	6494.25
888.15	6433.25
888.39	6450.25
888.631	6418.25
888.871	6331.25
889.111	6242.25
889.352	6230.25
889.592	6177.25
889.833	6122.25
890.073	6033.25
890.313	6088.25
890.553	5944.25
890.793	5939.25
891.033	5937.25
891.273	5860.25
891.513	5865.25
891.753	5949.25
891.993	5903.25
892.233	5875.25
892.473	5982.25
892.713	5868.25
892.952	5865.25
893.192	5885.25
893.432	5827.25
893.671	5882.25
893.911	5844.25
894.15	5820.25
894.39	5735.25
894.629	5715.25
894.869	5767.25
895.108	5688.25
895.347	5699.25
895.587	5726.25
895.826	5635.25
896.065	5673.25
896.304	5660.25
896.543	5669.25
896.782	5562.25
897.021	5671.25
897.26	5611.25
897.499	5658.25
897.738	5625.25
897.977	5598.25
898.216	5564.25
898.454	5487.25
898.693	5496.25
898.932	5503.25
899.17	5495.25
899.409	5474.25
899.647	5508.25
899.886	5433.25
900.124	5503.25
900.363	5452.25
900.601	5554.25
900.839	5548.25
901.078	5563.25
901.316	5574.25
901.554	5661.25
901.792	5675.25
902.03	5684.25
902.268	5662.25
902.506	5728.25
902.744	5558.25
902.982	5605.25
903.22	5372.25
903.458	5353.25
903.695	5260.25
903.933	5187.25
904.171	5018.25
904.409	4922.25
904.646	4942.25
904.884	4798.25
905.121	4798.25
905.359	4755.25
905.596	4659.25
905.833	4626.25
906.071	4578.25
906.308	4613.25
906.545	4596.25
906.783	4513.25
907.02	4494.25
907.257	4446.25
907.494	4524.25
907.731	4469.25
907.968	4459.25
908.205	4430.25
908.442	4427.25
908.679	4367.25
908.915	4346.25
909.152	4325.25
909.389	4188.25
909.626	4273.25
909.862	4181.25
910.099	4184.25
910.335	4218.25
910.572	4090.25
910.808	4133.25
911.045	4115.25
911.281	4055.25
911.518	4112.25
911.754	4057.25
911.99	4072.25
912.226	3941.25
912.463	3918.25
912.699	3923.25
912.935	3893.25
913.171	3860.25
913.407	3797.25
913.643	3861.25
913.879	3831.25
914.114	3779.25
914.35	3704.25
914.586	3709.25
914.822	3672.25
915.057	3712.25
915.293	3605.25
915.529	3595.25
915.764	3679.25
916	3573.25
916.235	3563.25
916.471	3609.25
916.706	3534.25
916.941	3534.25
917.177	3568.25
917.412	3595.25
917.647	3536.25
917.882	3494.25
918.117	3544.25
918.352	3536.25
918.588	3550.25
918.823	3482.25
919.057	3450.25
919.292	3305.25
919.527	3445.25
919.762	3401.25
919.997	3408.25
920.232	3305.25
920.466	3300.25
920.701	3218.25
920.935	3237.25
921.17	3228.25
921.405	3168.25
921.639	3246.25
921.873	3140.25
922.108	3216.25
922.342	3171.25
922.576	3139.25
922.811	3138.25
923.045	3145.25
923.279	3148.25
923.513	3016.25
923.747	3076.25
923.981	3102.25
924.215	3054.25
924.449	3006.25
924.683	2967.25
924.917	3000.25
925.151	2975.25
925.385	3047.25
925.618	3029.25
925.852	2997.25
926.086	2953.25
926.319	2918.25
926.553	2930.25
926.786	2965.25
927.02	2912.25
927.253	2991.25
927.486	2931.25
927.72	2953.25
927.953	2942.25
928.186	2896.25
928.42	2939.25
928.653	2840.25
928.886	2803.25
929.119	2896.25
929.352	2868.25
929.585	2859.25
929.818	2778.25
930.051	2836.25
930.284	2817.25
930.516	2742.25
930.749	2751.25
930.982	2773.25
931.215	2725.25
931.447	2646.25
931.68	2706.25
931.912	2684.25
932.145	2664.25
932.377	2698.25
932.61	2839.25
932.842	2653.25
933.074	2712.25
933.307	2619.25
933.539	2752.25
933.771	2729.25
934.003	2636.25
934.236	2737.25
934.468	2752.25
934.7	2616.25
934.932	2693.25
935.164	2631.25
935.395	2599.25
935.627	2634.25
935.859	2641.25
936.091	2576.25
936.323	2645.25
936.554	2647.25
936.786	2614.25
937.017	2559.25
937.249	2611.25
937.481	2490.25
937.712	2562.25
937.943	2529.25
938.175	2534.25
938.406	2528.25
938.637	2603.25
938.869	2491.25
939.1	2607.25
939.331	2484.25
939.562	2535.25
939.793	2546.25
940.024	2537.25
940.255	2523.25
940.486	2488.25
940.717	2497.25
940.948	2491.25
941.179	2407.25
941.409	2436.25
941.64	2430.25
941.871	2456.25
942.102	2427.25
942.332	2455.25
942.563	2490.25
942.793	2457.25
943.024	2355.25
943.254	2434.25
943.484	2477.25
943.715	2471.25
943.945	2443.25
944.175	2361.25
944.405	2356.25
944.636	2384.25
944.866	2420.25
945.096	2419.25
945.326	2347.25
945.556	2423.25
945.786	2427.25
946.016	2385.25
946.245	2321.25
946.475	2337.25
946.705	2304.25
946.935	2312.25
947.164	2299.25
947.394	2235.25
947.624	2299.25
947.853	2298.25
948.083	2260.25
948.312	2252.25
948.542	2198.25
948.771	2185.25
949	2186.25
949.23	2171.25
949.459	2245.25
949.688	2292.25
949.917	2234.25
950.146	2215.25
950.375	2292.25
950.604	2151.25
950.833	2249.25
951.062	2242.25
951.291	2190.25
951.52	2161.25
951.749	2185.25
951.978	2169.25
952.206	2156.25
952.435	2154.25
952.664	2205.25
952.892	2162.25
953.121	2098.25
953.349	2188.25
953.578	2174.25
953.806	2156.25
954.035	2081.25
954.263	2123.25
954.491	2072.25
954.719	2142.25
954.948	2040.25
955.176	2039.25
955.404	1982.25
955.632	2048.25
955.86	2042.25
956.088	2050.25
956.316	2060.25
956.544	2080.25
956.772	2005.25
956.999	2007.25
957.227	2070.25
957.455	1968.25
957.683	1968.25
957.91	1939.25
958.138	1958.25
958.365	1981.25
958.593	1930.25
958.82	1896.25
959.048	1941.25
959.275	1921.25
959.502	1933.25
959.73	1875.25
959.957	1936.25
960.184	1942.25
960.411	1909.25
960.638	1963.25
960.865	1885.25
961.092	1952.25
961.319	1834.25
961.546	1954.25
961.773	1946.25
962	1867.25
962.227	1966.25
962.454	1885.25
962.68	1868.25
962.907	1904.25
963.134	1854.25
963.36	1866.25
963.587	1889.25
963.813	1811.25
964.04	1836.25
964.266	1805.25
964.493	1872.25
964.719	1851.25
964.945	1834.25
965.171	1735.25
965.398	1807.25
965.624	1817.25
965.85	1764.25
966.076	1767.25
966.302	1794.25
966.528	1777.25
966.754	1780.25
966.98	1778.25
967.206	1767.25
967.431	1708.25
967.657	1760.25
967.883	1767.25
968.109	1734.25
968.334	1707.25
968.56	1685.25
968.785	1710.25
969.011	1694.25
969.236	1759.25
969.462	1664.25
969.687	1673.25
969.912	1741.25
970.138	1751.25
970.363	1680.25
970.588	1688.25
970.813	1682.25
971.038	1633.25
971.263	1664.25
971.488	1696.25
971.713	1698.25
971.938	1693.25
972.163	1577.25
972.388	1623.25
972.613	1617.25
972.838	1629.25
973.062	1612.25
973.287	1581.25
973.512	1567.25
973.736	1596.25
973.961	1588.25
974.185	1577.25
974.41	1597.25
974.634	1514.25
974.858	1536.25
975.083	1544.25
975.307	1612.25
975.531	1486.25
975.755	1495.25
975.98	1500.25
976.204	1415.25
976.428	1436.25
976.652	1476.25
976.876	1410.25
977.1	1464.25
977.324	1413.25
977.547	1493.25
977.771	1487.25
977.995	1462.25
978.219	1421.25
978.442	1511.25
978.666	1446.25
978.89	1469.25
979.113	1467.25
979.337	1427.25
979.56	1416.25
979.783	1496.25
980.007	1408.25
980.23	1392.25
980.453	1407.25
980.677	1411.25
980.9	1421.25
981.123	1353.25
981.346	1450.25
981.569	1401.25
981.792	1429.25
982.015	1403.25
982.238	1365.25
982.461	1365.25
982.684	1369.25
982.907	1323.25
983.129	1365.25
983.352	1372.25
983.575	1331.25
983.797	1375.25
984.02	1311.25
984.242	1351.25
984.465	1334.25
984.687	1390.25
984.91	1382.25
985.132	1355.25
985.354	1368.25
985.577	1351.25
985.799	1337.25
986.021	1252.25
986.243	1303.25
986.465	1327.25
986.687	1368.25
986.909	1394.25
987.131	1325.25
987.353	1287.25
987.575	1324.25
987.797	1281.25
988.019	1247.25
988.241	1311.25
988.462	1241.25
988.684	1342.25
988.906	1342.25
989.127	1372.25
989.349	1228.25
989.57	1288.25
989.792	1313.25
990.013	1341.25
990.234	1349.25
990.456	1369.25
990.677	1328.25
990.898	1263.25
991.119	1258.25
991.341	1319.25
991.562	1255.25
991.783	1282.25
992.004	1215.25
992.225	1205.25
992.446	1269.25
992.667	1180.25
992.887	1282.25
993.108	1162.25
993.329	1294.25
993.55	1241.25
993.77	1196.25
993.991	1206.25
994.212	1249.25
994.432	1220.25
994.653	1261.25
994.873	1254.25
995.093	1135.25
995.314	1158.25
995.534	1225.25
995.754	1258.25
995.975	1273.25
996.195	1153.25
996.415	1242.25
996.635	1224.25
996.855	1216.25
997.075	1190.25
997.295	1202.25
997.515	1197.25
997.735	1222.25
997.955	1201.25
998.174	1216.25
998.394	1183.25
998.614	1214.25
998.834	1174.25
999.053	1239.25
999.273	1234.25
999.492	1263.25
999.712	1207.25
999.931	1159.25
1000.151	1221.25
1000.37	1217.25
1000.589	1254.25
1000.809	1171.25
1001.028	1308.25
1001.247	1217.25
1001.466	1117.25
1001.685	1272.25
1001.904	1207.25
1002.123	1191.25
1002.342	1205.25
1002.561	1152.25
1002.78	1171.25
1002.999	1266.25
1003.218	1210.25
1003.436	1189.25
1003.655	1220.25
1003.874	1144.25
1004.092	1179.25
1004.311	1223.25
1004.53	1183.25
1004.748	1289.25
1004.966	1202.25
1005.185	1255.25
1005.403	1234.25
1005.622	1220.25
1005.84	1267.25
1006.058	1200.25
1006.276	1207.25
1006.494	1729.25
1006.712	1211.25
1006.931	1277.25
1007.149	1179.25
1007.367	1232.25
1007.584	1247.25
1007.802	1271.25
1008.02	1229.25
1008.238	1365.25
1008.456	1315.25
1008.673	1203.25
1008.891	1340.25
1009.109	1265.25
1009.326	1316.25
1009.544	1447.25
1009.761	1358.25
1009.979	1412.25
1010.196	1471.25
1010.413	1563.25
1010.631	1604.25
1010.848	1650.25
1011.065	1650.25
1011.282	1614.25
1011.5	1562.25
1011.717	1640.25
1011.934	1591.25
1012.151	1645.25
1012.368	1579.25
1012.585	1565.25
1012.801	1586.25
1013.018	1581.25
1013.235	1525.25
1013.452	1582.25
1013.669	1552.25
1013.885	1552.25
1014.102	1632.25
1014.318	1605.25
1014.535	1521.25
1014.751	1566.25
1014.968	1587.25
1015.184	1588.25
1015.401	1503.25
1015.617	1511.25
1015.833	1465.25
1016.049	1475.25
1016.266	1457.25
1016.482	1452.25
1016.698	1389.25
1016.914	1444.25
1017.13	1397.25
1017.346	1358.25
1017.562	1457.25
1017.778	1373.25
1017.993	1342.25
1018.209	1405.25
1018.425	1360.25
1018.641	1352.25
1018.856	1319.25
1019.072	1320.25
1019.288	1384.25
1019.503	1332.25
1019.719	1250.25
1019.934	1282.25
1020.149	1337.25
1020.365	1270.25
1020.58	1224.25
1020.795	1300.25
1021.011	1221.25
1021.226	1196.25
1021.441	1203.25
1021.656	1141.25
1021.871	1079.25
1022.086	1085.25
1022.301	1068.25
1022.516	1040.25
1022.731	1105.25
1022.946	1032.25
1023.16	1014.25
1023.375	999.25
1023.59	972.25
1023.804	937.25
1024.019	1028.25
1024.234	905.25
1024.448	930.25
1024.663	863.25
1024.877	891.25
1025.092	900.25
1025.306	899.25
1025.52	803.25
1025.734	913.25
1025.949	824.25
1026.163	799.25
1026.377	740.25
1026.591	820.25
1026.805	720.25
1027.019	747.25
1027.233	673.25
1027.447	643.25
1027.661	747.25
1027.875	682.25
1028.088	686.25
1028.302	629.25
1028.516	613.25
1028.73	623.25
1028.943	622.25
1029.157	568.25
1029.37	551.25
1029.584	1.25
1029.797	-5.75
1030.011	1.25
1030.224	1.25
