Data from QEP037381__167__11-17-15-919.txt Node

Date: Fri Apr 28 11:17:15 EDT 2023
User: dcclab
Spectrometer: QEP03738
Trigger mode: 4
Integration Time (sec): 1.000000E1
Scans to average: 1
Electric dark correction enabled: true
Nonlinearity correction enabled: false
Boxcar width: 0
XAxis mode: Wavelengths
Number of Pixels in Spectrum: 1044
>>>>>Begin Spectral Data<<<<<
784.041	10.5
784.3	-2.5
784.558	-2.5
784.817	-4.5
785.075	83326.5
785.334	16592.5
785.592	8611.5
785.851	6000.5
786.109	4514.5
786.368	3492.5
786.626	2784.5
786.884	2292.5
787.143	1946.5
787.401	1581.5
787.659	1423.5
787.917	1208.5
788.175	1103.5
788.433	985.5
788.691	882.5
788.949	814.5
789.207	779.5
789.465	666.5
789.723	673.5
789.98	588.5
790.238	598.5
790.496	603.5
790.753	557.5
791.011	619.5
791.268	538.5
791.526	536.5
791.783	530.5
792.041	537.5
792.298	440.5
792.556	494.5
792.813	487.5
793.07	473.5
793.327	442.5
793.584	538.5
793.841	461.5
794.099	474.5
794.356	529.5
794.613	433.5
794.869	477.5
795.126	433.5
795.383	425.5
795.64	443.5
795.897	390.5
796.153	461.5
796.41	434.5
796.667	409.5
796.923	423.5
797.18	429.5
797.436	465.5
797.693	424.5
797.949	466.5
798.206	480.5
798.462	410.5
798.718	485.5
798.974	448.5
799.231	472.5
799.487	453.5
799.743	484.5
799.999	512.5
800.255	506.5
800.511	496.5
800.767	542.5
801.023	534.5
801.279	574.5
801.534	613.5
801.79	655.5
802.046	720.5
802.302	870.5
802.557	1029.5
802.813	1315.5
803.068	1632.5
803.324	2347.5
803.579	3231.5
803.835	4447.5
804.09	6036.5
804.345	7551.5
804.601	9191.5
804.856	10589.5
805.111	11700.5
805.366	12381.5
805.621	12954.5
805.876	13337.5
806.131	13607.5
806.386	13865.5
806.641	13985.5
806.896	14263.5
807.151	14575.5
807.406	14733.5
807.661	14956.5
807.915	15249.5
808.17	15465.5
808.425	15651.5
808.679	15732.5
808.934	15930.5
809.188	16096.5
809.443	16314.5
809.697	16472.5
809.951	16601.5
810.206	16793.5
810.46	16864.5
810.714	16995.5
810.968	17229.5
811.223	17263.5
811.477	17421.5
811.731	17596.5
811.985	17647.5
812.239	17703.5
812.493	17665.5
812.747	17698.5
813	17757.5
813.254	17909.5
813.508	18003.5
813.762	18156.5
814.015	18203.5
814.269	18255.5
814.522	18387.5
814.776	18603.5
815.03	18750.5
815.283	19033.5
815.536	19361.5
815.79	19619.5
816.043	19880.5
816.296	20094.5
816.55	20297.5
816.803	20538.5
817.056	20810.5
817.309	21067.5
817.562	21230.5
817.815	21392.5
818.068	21676.5
818.321	21950.5
818.574	22139.5
818.827	22449.5
819.079	22887.5
819.332	23269.5
819.585	23500.5
819.838	23818.5
820.09	23785.5
820.343	24141.5
820.595	24173.5
820.848	24386.5
821.1	24600.5
821.353	24415.5
821.605	24362.5
821.857	24488.5
822.11	24190.5
822.362	24074.5
822.614	24051.5
822.866	24246.5
823.118	24158.5
823.37	24328.5
823.622	24318.5
823.874	24525.5
824.126	24643.5
824.378	24603.5
824.63	24601.5
824.882	24675.5
825.134	24825.5
825.385	24525.5
825.637	24594.5
825.888	24510.5
826.14	24405.5
826.392	24306.5
826.643	24150.5
826.895	24132.5
827.146	23969.5
827.397	23934.5
827.649	24027.5
827.9	23826.5
828.151	23968.5
828.402	24081.5
828.653	24114.5
828.905	24178.5
829.156	24326.5
829.407	24256.5
829.658	24384.5
829.909	24565.5
830.159	24626.5
830.41	24403.5
830.661	24198.5
830.912	24012.5
831.162	23893.5
831.413	23961.5
831.664	23927.5
831.914	23915.5
832.165	23756.5
832.415	23767.5
832.666	23755.5
832.916	23834.5
833.167	23865.5
833.417	23822.5
833.667	23655.5
833.917	23606.5
834.168	23605.5
834.418	23497.5
834.668	23503.5
834.918	23304.5
835.168	23236.5
835.418	23029.5
835.668	23028.5
835.918	22974.5
836.167	23000.5
836.417	22849.5
836.667	22863.5
836.917	22785.5
837.166	22831.5
837.416	22825.5
837.666	22873.5
837.915	22815.5
838.165	22713.5
838.414	22729.5
838.663	22671.5
838.913	22679.5
839.162	22701.5
839.411	22684.5
839.661	22543.5
839.91	22562.5
840.159	22656.5
840.408	22562.5
840.657	22665.5
840.906	22551.5
841.155	22610.5
841.404	22546.5
841.653	22605.5
841.902	22701.5
842.15	22791.5
842.399	22777.5
842.648	22691.5
842.897	22630.5
843.145	22360.5
843.394	22293.5
843.642	22156.5
843.891	22052.5
844.139	21908.5
844.388	21780.5
844.636	21542.5
844.884	21685.5
845.133	21630.5
845.381	21685.5
845.629	21673.5
845.877	21718.5
846.125	21562.5
846.373	21558.5
846.621	21464.5
846.869	21480.5
847.117	21344.5
847.365	21171.5
847.613	21229.5
847.861	21093.5
848.108	21147.5
848.356	21159.5
848.604	21011.5
848.851	21042.5
849.099	21215.5
849.346	21083.5
849.594	21283.5
849.841	21186.5
850.089	21284.5
850.336	21366.5
850.583	21485.5
850.831	21225.5
851.078	21009.5
851.325	21108.5
851.572	21135.5
851.819	21039.5
852.066	20451.5
852.313	20160.5
852.56	19933.5
852.807	20008.5
853.054	19886.5
853.301	19947.5
853.548	19946.5
853.794	20127.5
854.041	20067.5
854.288	20180.5
854.534	20414.5
854.781	20374.5
855.028	20363.5
855.274	20403.5
855.52	20317.5
855.767	20368.5
856.013	20504.5
856.26	20801.5
856.506	20150.5
856.752	20136.5
856.998	20083.5
857.244	20191.5
857.49	20234.5
857.736	20340.5
857.982	20268.5
858.228	20096.5
858.474	19906.5
858.72	19664.5
858.966	19513.5
859.212	19400.5
859.458	19198.5
859.703	18921.5
859.949	18833.5
860.195	18696.5
860.44	18677.5
860.686	18718.5
860.931	18681.5
861.177	18457.5
861.422	18275.5
861.667	18159.5
861.913	18068.5
862.158	18138.5
862.403	18173.5
862.648	18194.5
862.893	18199.5
863.138	18206.5
863.384	18065.5
863.629	17984.5
863.873	17940.5
864.118	17984.5
864.363	17846.5
864.608	17675.5
864.853	17739.5
865.098	17489.5
865.342	17463.5
865.587	17373.5
865.832	17452.5
866.076	17275.5
866.321	17274.5
866.565	17326.5
866.81	17167.5
867.054	17095.5
867.298	17117.5
867.543	17070.5
867.787	17071.5
868.031	17081.5
868.275	17128.5
868.519	16989.5
868.764	16977.5
869.008	17033.5
869.252	17024.5
869.496	17008.5
869.739	16943.5
869.983	17059.5
870.227	17179.5
870.471	17127.5
870.715	17166.5
870.958	17332.5
871.202	17345.5
871.446	17357.5
871.689	17358.5
871.933	17252.5
872.176	17219.5
872.42	17169.5
872.663	17215.5
872.906	17280.5
873.15	17276.5
873.393	17439.5
873.636	17425.5
873.879	17186.5
874.122	16877.5
874.366	16520.5
874.609	16438.5
874.852	16099.5
875.095	16040.5
875.337	16007.5
875.58	15904.5
875.823	15870.5
876.066	15738.5
876.309	15825.5
876.551	15646.5
876.794	15550.5
877.037	15578.5
877.279	15480.5
877.522	15465.5
877.764	15518.5
878.007	15341.5
878.249	15331.5
878.491	15253.5
878.734	15233.5
878.976	15131.5
879.218	14960.5
879.46	14976.5
879.702	14945.5
879.945	14716.5
880.187	14605.5
880.429	14406.5
880.671	14392.5
880.912	14373.5
881.154	14331.5
881.396	14210.5
881.638	14199.5
881.88	14300.5
882.121	14225.5
882.363	14209.5
882.605	14230.5
882.846	14219.5
883.088	14345.5
883.329	14350.5
883.571	14480.5
883.812	14915.5
884.053	15417.5
884.295	15996.5
884.536	16036.5
884.777	15943.5
885.018	15745.5
885.259	15547.5
885.5	15388.5
885.742	15509.5
885.982	15214.5
886.223	14971.5
886.464	14993.5
886.705	14649.5
886.946	14473.5
887.187	14045.5
887.428	13823.5
887.668	13495.5
887.909	13318.5
888.15	13039.5
888.39	13022.5
888.631	12820.5
888.871	12728.5
889.111	12634.5
889.352	12533.5
889.592	12377.5
889.833	12350.5
890.073	12191.5
890.313	12258.5
890.553	11976.5
890.793	11920.5
891.033	11861.5
891.273	11818.5
891.513	11864.5
891.753	11751.5
891.993	11763.5
892.233	11786.5
892.473	11857.5
892.713	11752.5
892.952	11837.5
893.192	11821.5
893.432	11719.5
893.671	11802.5
893.911	11748.5
894.15	11605.5
894.39	11458.5
894.629	11496.5
894.869	11394.5
895.108	11275.5
895.347	11298.5
895.587	11244.5
895.826	11204.5
896.065	11071.5
896.304	11149.5
896.543	11158.5
896.782	10972.5
897.021	11054.5
897.26	11000.5
897.499	11005.5
897.738	11096.5
897.977	10863.5
898.216	10897.5
898.454	10783.5
898.693	10713.5
898.932	10739.5
899.17	10723.5
899.409	10628.5
899.647	10590.5
899.886	10608.5
900.124	10674.5
900.363	10644.5
900.601	10768.5
900.839	10780.5
901.078	10865.5
901.316	10915.5
901.554	11010.5
901.792	11102.5
902.03	11120.5
902.268	11066.5
902.506	11005.5
902.744	10921.5
902.982	10908.5
903.22	10606.5
903.458	10436.5
903.695	10274.5
903.933	10062.5
904.171	9820.5
904.409	9712.5
904.646	9619.5
904.884	9415.5
905.121	9372.5
905.359	9208.5
905.596	9197.5
905.833	9026.5
906.071	8962.5
906.308	9111.5
906.545	8953.5
906.783	8953.5
907.02	8902.5
907.257	8879.5
907.494	8983.5
907.731	8869.5
907.968	8781.5
908.205	8761.5
908.442	8667.5
908.679	8677.5
908.915	8611.5
909.152	8494.5
909.389	8417.5
909.626	8312.5
909.862	8272.5
910.099	8285.5
910.335	8267.5
910.572	8191.5
910.808	8144.5
911.045	8113.5
911.281	8030.5
911.518	8098.5
911.754	7940.5
911.99	7974.5
912.226	7874.5
912.463	7796.5
912.699	7769.5
912.935	7666.5
913.171	7653.5
913.407	7581.5
913.643	7555.5
913.879	7476.5
914.114	7350.5
914.35	7352.5
914.586	7270.5
914.822	7181.5
915.057	7260.5
915.293	7126.5
915.529	7091.5
915.764	7094.5
916	7064.5
916.235	7077.5
916.471	7065.5
916.706	6988.5
916.941	6985.5
917.177	7020.5
917.412	7035.5
917.647	6994.5
917.882	6913.5
918.117	6960.5
918.352	6879.5
918.588	6961.5
918.823	6799.5
919.057	6759.5
919.292	6635.5
919.527	6697.5
919.762	6557.5
919.997	6523.5
920.232	6438.5
920.466	6427.5
920.701	6304.5
920.935	6282.5
921.17	6229.5
921.405	6175.5
921.639	6202.5
921.873	6130.5
922.108	6182.5
922.342	6179.5
922.576	6038.5
922.811	6049.5
923.045	6082.5
923.279	6085.5
923.513	5903.5
923.747	6009.5
923.981	5949.5
924.215	5878.5
924.449	5860.5
924.683	5812.5
924.917	5742.5
925.151	5739.5
925.385	5805.5
925.618	5714.5
925.852	5746.5
926.086	5676.5
926.319	5714.5
926.553	5695.5
926.786	5688.5
927.02	5663.5
927.253	5640.5
927.486	5685.5
927.72	5595.5
927.953	5615.5
928.186	5580.5
928.42	5544.5
928.653	5544.5
928.886	5489.5
929.119	5508.5
929.352	5518.5
929.585	5449.5
929.818	5361.5
930.051	5404.5
930.284	5367.5
930.516	5234.5
930.749	5237.5
930.982	5213.5
931.215	5214.5
931.447	5124.5
931.68	5140.5
931.912	5169.5
932.145	5079.5
932.377	5132.5
932.61	5276.5
932.842	5104.5
933.074	5111.5
933.307	5058.5
933.539	5146.5
933.771	5155.5
934.003	5110.5
934.236	5161.5
934.468	5183.5
934.7	5088.5
934.932	5042.5
935.164	5041.5
935.395	4964.5
935.627	4980.5
935.859	4977.5
936.091	4912.5
936.323	4979.5
936.554	4959.5
936.786	4890.5
937.017	4816.5
937.249	4890.5
937.481	4842.5
937.712	4846.5
937.943	4811.5
938.175	4793.5
938.406	4773.5
938.637	4861.5
938.869	4724.5
939.1	4871.5
939.331	4748.5
939.562	4746.5
939.793	4739.5
940.024	4771.5
940.255	4736.5
940.486	4700.5
940.717	4652.5
940.948	4618.5
941.179	4620.5
941.409	4562.5
941.64	4591.5
941.871	4566.5
942.102	4588.5
942.332	4621.5
942.563	4598.5
942.793	4591.5
943.024	4549.5
943.254	4574.5
943.484	4615.5
943.715	4578.5
943.945	4572.5
944.175	4493.5
944.405	4444.5
944.636	4474.5
944.866	4521.5
945.096	4540.5
945.326	4433.5
945.556	4525.5
945.786	4479.5
946.016	4434.5
946.245	4318.5
946.475	4376.5
946.705	4325.5
946.935	4337.5
947.164	4317.5
947.394	4252.5
947.624	4261.5
947.853	4317.5
948.083	4212.5
948.312	4214.5
948.542	4125.5
948.771	4178.5
949	4120.5
949.23	4160.5
949.459	4106.5
949.688	4196.5
949.917	4117.5
950.146	4173.5
950.375	4186.5
950.604	4114.5
950.833	4203.5
951.062	4197.5
951.291	4123.5
951.52	4029.5
951.749	4055.5
951.978	4016.5
952.206	4041.5
952.435	4018.5
952.664	4042.5
952.892	4106.5
953.121	4020.5
953.349	4006.5
953.578	3982.5
953.806	3959.5
954.035	3904.5
954.263	3912.5
954.491	3856.5
954.719	3879.5
954.948	3837.5
955.176	3861.5
955.404	3783.5
955.632	3820.5
955.86	3785.5
956.088	3791.5
956.316	3809.5
956.544	3806.5
956.772	3717.5
956.999	3670.5
957.227	3739.5
957.455	3667.5
957.683	3616.5
957.91	3642.5
958.138	3578.5
958.365	3567.5
958.593	3592.5
958.82	3553.5
959.048	3600.5
959.275	3508.5
959.502	3529.5
959.73	3501.5
959.957	3535.5
960.184	3545.5
960.411	3516.5
960.638	3533.5
960.865	3503.5
961.092	3525.5
961.319	3392.5
961.546	3506.5
961.773	3493.5
962	3474.5
962.227	3509.5
962.454	3431.5
962.68	3418.5
962.907	3440.5
963.134	3385.5
963.36	3383.5
963.587	3418.5
963.813	3316.5
964.04	3347.5
964.266	3283.5
964.493	3333.5
964.719	3300.5
964.945	3305.5
965.171	3162.5
965.398	3227.5
965.624	3265.5
965.85	3192.5
966.076	3150.5
966.302	3227.5
966.528	3165.5
966.754	3202.5
966.98	3153.5
967.206	3132.5
967.431	3062.5
967.657	3153.5
967.883	3125.5
968.109	3137.5
968.334	3030.5
968.56	3021.5
968.785	3046.5
969.011	3019.5
969.236	3070.5
969.462	3047.5
969.687	3021.5
969.912	3065.5
970.138	3038.5
970.363	2957.5
970.588	3006.5
970.813	2953.5
971.038	2929.5
971.263	2969.5
971.488	2957.5
971.713	3003.5
971.938	2974.5
972.163	2856.5
972.388	2907.5
972.613	2830.5
972.838	2863.5
973.062	2815.5
973.287	2867.5
973.512	2782.5
973.736	2792.5
973.961	2784.5
974.185	2757.5
974.41	2819.5
974.634	2678.5
974.858	2729.5
975.083	2773.5
975.307	2724.5
975.531	2699.5
975.755	2609.5
975.98	2643.5
976.204	2556.5
976.428	2576.5
976.652	2584.5
976.876	2575.5
977.1	2585.5
977.324	2572.5
977.547	2572.5
977.771	2589.5
977.995	2573.5
978.219	2497.5
978.442	2601.5
978.666	2534.5
978.89	2535.5
979.113	2519.5
979.337	2509.5
979.56	2458.5
979.783	2581.5
980.007	2454.5
980.23	2512.5
980.453	2429.5
980.677	2461.5
980.9	2488.5
981.123	2367.5
981.346	2464.5
981.569	2440.5
981.792	2435.5
982.015	2399.5
982.238	2355.5
982.461	2401.5
982.684	2341.5
982.907	2312.5
983.129	2323.5
983.352	2324.5
983.575	2313.5
983.797	2335.5
984.02	2296.5
984.242	2251.5
984.465	2267.5
984.687	2299.5
984.91	2301.5
985.132	2272.5
985.354	2295.5
985.577	2252.5
985.799	2239.5
986.021	2154.5
986.243	2240.5
986.465	2212.5
986.687	2247.5
986.909	2272.5
987.131	2193.5
987.353	2157.5
987.575	2225.5
987.797	2181.5
988.019	2101.5
988.241	2173.5
988.462	2141.5
988.684	2170.5
988.906	2199.5
989.127	2202.5
989.349	2103.5
989.57	2134.5
989.792	2122.5
990.013	2158.5
990.234	2173.5
990.456	2202.5
990.677	2163.5
990.898	2112.5
991.119	2097.5
991.341	2118.5
991.562	2073.5
991.783	2086.5
992.004	2035.5
992.225	1980.5
992.446	2059.5
992.667	1955.5
992.887	2052.5
993.108	1957.5
993.329	2053.5
993.55	1998.5
993.77	1944.5
993.991	1950.5
994.212	1979.5
994.432	1971.5
994.653	1999.5
994.873	1991.5
995.093	1863.5
995.314	1912.5
995.534	1939.5
995.754	1982.5
995.975	2008.5
996.195	1886.5
996.415	1944.5
996.635	1922.5
996.855	1930.5
997.075	1937.5
997.295	1929.5
997.515	1906.5
997.735	1955.5
997.955	1904.5
998.174	1929.5
998.394	1905.5
998.614	1946.5
998.834	1882.5
999.053	1945.5
999.273	1907.5
999.492	1960.5
999.712	1893.5
999.931	1817.5
1000.151	1862.5
1000.37	1846.5
1000.589	1921.5
1000.809	1823.5
1001.028	1931.5
1001.247	1840.5
1001.466	1748.5
1001.685	1869.5
1001.904	1836.5
1002.123	1821.5
1002.342	1816.5
1002.561	1723.5
1002.78	1775.5
1002.999	1831.5
1003.218	1749.5
1003.436	1742.5
1003.655	1800.5
1003.874	1737.5
1004.092	1798.5
1004.311	1789.5
1004.53	1734.5
1004.748	1811.5
1004.966	1735.5
1005.185	1790.5
1005.403	1766.5
1005.622	1784.5
1005.84	1857.5
1006.058	1742.5
1006.276	1754.5
1006.494	2136.5
1006.712	1732.5
1006.931	1824.5
1007.149	1746.5
1007.367	1770.5
1007.584	1798.5
1007.802	1879.5
1008.02	1803.5
1008.238	1916.5
1008.456	1929.5
1008.673	1814.5
1008.891	1940.5
1009.109	1948.5
1009.326	2041.5
1009.544	2128.5
1009.761	2077.5
1009.979	2243.5
1010.196	2298.5
1010.413	2460.5
1010.631	2565.5
1010.848	2637.5
1011.065	2635.5
1011.282	2620.5
1011.5	2542.5
1011.717	2630.5
1011.934	2565.5
1012.151	2564.5
1012.368	2577.5
1012.585	2498.5
1012.801	2614.5
1013.018	2552.5
1013.235	2527.5
1013.452	2558.5
1013.669	2581.5
1013.885	2579.5
1014.102	2647.5
1014.318	2589.5
1014.535	2568.5
1014.751	2570.5
1014.968	2553.5
1015.184	2579.5
1015.401	2450.5
1015.617	2458.5
1015.833	2404.5
1016.049	2399.5
1016.266	2393.5
1016.482	2344.5
1016.698	2263.5
1016.914	2310.5
1017.13	2232.5
1017.346	2203.5
1017.562	2264.5
1017.778	2163.5
1017.993	2160.5
1018.209	2223.5
1018.425	2185.5
1018.641	2140.5
1018.856	2141.5
1019.072	2192.5
1019.288	2198.5
1019.503	2146.5
1019.719	2044.5
1019.934	2067.5
1020.149	2102.5
1020.365	2036.5
1020.58	1991.5
1020.795	1976.5
1021.011	1891.5
1021.226	1839.5
1021.441	1830.5
1021.656	1760.5
1021.871	1671.5
1022.086	1674.5
1022.301	1630.5
1022.516	1630.5
1022.731	1647.5
1022.946	1570.5
1023.16	1489.5
1023.375	1462.5
1023.59	1422.5
1023.804	1382.5
1024.019	1477.5
1024.234	1340.5
1024.448	1354.5
1024.663	1305.5
1024.877	1266.5
1025.092	1271.5
1025.306	1288.5
1025.52	1155.5
1025.734	1268.5
1025.949	1136.5
1026.163	1132.5
1026.377	1041.5
1026.591	1101.5
1026.805	1010.5
1027.019	1030.5
1027.233	964.5
1027.447	926.5
1027.661	1004.5
1027.875	944.5
1028.088	950.5
1028.302	868.5
1028.516	842.5
1028.73	853.5
1028.943	815.5
1029.157	769.5
1029.37	720.5
1029.584	-1.5
1029.797	0.5
1030.011	-1.5
1030.224	1.5
