Data from QEP037381__151__11-14-35-918.txt Node

Date: Fri Apr 28 11:14:35 EDT 2023
User: dcclab
Spectrometer: QEP03738
Trigger mode: 4
Integration Time (sec): 1.000000E1
Scans to average: 1
Electric dark correction enabled: true
Nonlinearity correction enabled: false
Boxcar width: 0
XAxis mode: Wavelengths
Number of Pixels in Spectrum: 1044
>>>>>Begin Spectral Data<<<<<
784.041	9.25
784.3	1.25
784.558	-1.75
784.817	-4.75
785.075	80767.25
785.334	15969.25
785.592	8286.25
785.851	5814.25
786.109	4379.25
786.368	3398.25
786.626	2780.25
786.884	2303.25
787.143	1937.25
787.401	1588.25
787.659	1421.25
787.917	1226.25
788.175	1115.25
788.433	977.25
788.691	904.25
788.949	814.25
789.207	792.25
789.465	681.25
789.723	678.25
789.98	611.25
790.238	655.25
790.496	594.25
790.753	570.25
791.011	613.25
791.268	536.25
791.526	530.25
791.783	531.25
792.041	531.25
792.298	440.25
792.556	505.25
792.813	473.25
793.07	456.25
793.327	451.25
793.584	544.25
793.841	455.25
794.099	472.25
794.356	529.25
794.613	420.25
794.869	462.25
795.126	432.25
795.383	419.25
795.64	438.25
795.897	394.25
796.153	454.25
796.41	457.25
796.667	421.25
796.923	433.25
797.18	418.25
797.436	452.25
797.693	421.25
797.949	465.25
798.206	511.25
798.462	419.25
798.718	484.25
798.974	437.25
799.231	495.25
799.487	477.25
799.743	492.25
799.999	514.25
800.255	516.25
800.511	492.25
800.767	546.25
801.023	555.25
801.279	579.25
801.534	632.25
801.79	670.25
802.046	721.25
802.302	903.25
802.557	1055.25
802.813	1344.25
803.068	1740.25
803.324	2496.25
803.579	3421.25
803.835	4790.25
804.09	6459.25
804.345	8116.25
804.601	9896.25
804.856	11332.25
805.111	12602.25
805.366	13333.25
805.621	13936.25
805.876	14389.25
806.131	14680.25
806.386	14924.25
806.641	15095.25
806.896	15388.25
807.151	15662.25
807.406	15823.25
807.661	15999.25
807.915	16336.25
808.17	16706.25
808.425	16684.25
808.679	16888.25
808.934	17151.25
809.188	17272.25
809.443	17426.25
809.697	17683.25
809.951	17809.25
810.206	17933.25
810.46	18140.25
810.714	18242.25
810.968	18479.25
811.223	18488.25
811.477	18617.25
811.731	18752.25
811.985	18783.25
812.239	18783.25
812.493	18982.25
812.747	19108.25
813	19067.25
813.254	19184.25
813.508	19380.25
813.762	19412.25
814.015	19391.25
814.269	19485.25
814.522	19673.25
814.776	19951.25
815.03	20055.25
815.283	20340.25
815.536	20681.25
815.79	20942.25
816.043	21261.25
816.296	21457.25
816.55	21719.25
816.803	22014.25
817.056	22239.25
817.309	22508.25
817.562	22764.25
817.815	22907.25
818.068	23199.25
818.321	23397.25
818.574	23773.25
818.827	23985.25
819.079	24335.25
819.332	24951.25
819.585	25157.25
819.838	25443.25
820.09	25498.25
820.343	25642.25
820.595	25775.25
820.848	26017.25
821.1	26117.25
821.353	26130.25
821.605	26035.25
821.857	25897.25
822.11	25885.25
822.362	25756.25
822.614	25730.25
822.866	25742.25
823.118	25737.25
823.37	26025.25
823.622	26093.25
823.874	26092.25
824.126	26236.25
824.378	26102.25
824.63	26252.25
824.882	26375.25
825.134	26291.25
825.385	26207.25
825.637	26064.25
825.888	25948.25
826.14	25949.25
826.392	25774.25
826.643	25640.25
826.895	25734.25
827.146	25522.25
827.397	25405.25
827.649	25481.25
827.9	25418.25
828.151	25563.25
828.402	25539.25
828.653	25691.25
828.905	25634.25
829.156	25887.25
829.407	25717.25
829.658	25731.25
829.909	25930.25
830.159	26009.25
830.41	25748.25
830.661	25504.25
830.912	25434.25
831.162	25222.25
831.413	25258.25
831.664	25242.25
831.914	25254.25
832.165	25126.25
832.415	25074.25
832.666	25126.25
832.916	25266.25
833.167	25080.25
833.417	25039.25
833.667	24983.25
833.917	24838.25
834.168	24784.25
834.418	24838.25
834.668	24612.25
834.918	24539.25
835.168	24452.25
835.418	24235.25
835.668	24203.25
835.918	24253.25
836.167	24111.25
836.417	23998.25
836.667	24045.25
836.917	23862.25
837.166	24032.25
837.416	23989.25
837.666	23924.25
837.915	23947.25
838.165	23944.25
838.414	23789.25
838.663	23753.25
838.913	23810.25
839.162	23677.25
839.411	23683.25
839.661	23680.25
839.91	23645.25
840.159	23585.25
840.408	23570.25
840.657	23551.25
840.906	23672.25
841.155	23550.25
841.404	23501.25
841.653	23553.25
841.902	23542.25
842.15	23581.25
842.399	23588.25
842.648	23598.25
842.897	23592.25
843.145	23385.25
843.394	23169.25
843.642	23062.25
843.891	23004.25
844.139	22658.25
844.388	22624.25
844.636	22526.25
844.884	22563.25
845.133	22500.25
845.381	22473.25
845.629	22463.25
845.877	22410.25
846.125	22463.25
846.373	22312.25
846.621	22282.25
846.869	22293.25
847.117	22145.25
847.365	22008.25
847.613	21931.25
847.861	21885.25
848.108	21881.25
848.356	21802.25
848.604	21782.25
848.851	21777.25
849.099	21819.25
849.346	21773.25
849.594	21943.25
849.841	22022.25
850.089	22097.25
850.336	21955.25
850.583	22073.25
850.831	21974.25
851.078	21788.25
851.325	21765.25
851.572	21784.25
851.819	21539.25
852.066	21029.25
852.313	20872.25
852.56	20678.25
852.807	20733.25
853.054	20456.25
853.301	20512.25
853.548	20543.25
853.794	20746.25
854.041	20646.25
854.288	20754.25
854.534	20966.25
854.781	21015.25
855.028	20909.25
855.274	20848.25
855.52	20857.25
855.767	20909.25
856.013	20941.25
856.26	21164.25
856.506	20542.25
856.752	20466.25
856.998	20501.25
857.244	20496.25
857.49	20646.25
857.736	20690.25
857.982	20686.25
858.228	20660.25
858.474	20435.25
858.72	20131.25
858.966	19998.25
859.212	19770.25
859.458	19559.25
859.703	19345.25
859.949	19185.25
860.195	19031.25
860.44	19102.25
860.686	18960.25
860.931	19019.25
861.177	18777.25
861.422	18716.25
861.667	18538.25
861.913	18509.25
862.158	18555.25
862.403	18576.25
862.648	18630.25
862.893	18649.25
863.138	18649.25
863.384	18433.25
863.629	18490.25
863.873	18457.25
864.118	18419.25
864.363	18315.25
864.608	18114.25
864.853	18094.25
865.098	17954.25
865.342	17909.25
865.587	17803.25
865.832	17829.25
866.076	17771.25
866.321	17658.25
866.565	17647.25
866.81	17522.25
867.054	17509.25
867.298	17549.25
867.543	17419.25
867.787	17462.25
868.031	17412.25
868.275	17302.25
868.519	17411.25
868.764	17315.25
869.008	17340.25
869.252	17353.25
869.496	17266.25
869.739	17330.25
869.983	17361.25
870.227	17318.25
870.471	17422.25
870.715	17418.25
870.958	17466.25
871.202	17530.25
871.446	17601.25
871.689	17451.25
871.933	17432.25
872.176	17463.25
872.42	17402.25
872.663	17477.25
872.906	17411.25
873.15	17532.25
873.393	17409.25
873.636	17476.25
873.879	17164.25
874.122	16959.25
874.366	16630.25
874.609	16503.25
874.852	16317.25
875.095	16220.25
875.337	16110.25
875.58	16092.25
875.823	16005.25
876.066	15996.25
876.309	15929.25
876.551	15745.25
876.794	15675.25
877.037	15695.25
877.279	15646.25
877.522	15574.25
877.764	15619.25
878.007	15605.25
878.249	15557.25
878.491	15492.25
878.734	15411.25
878.976	15407.25
879.218	15224.25
879.46	15219.25
879.702	15026.25
879.945	14854.25
880.187	14788.25
880.429	14655.25
880.671	14622.25
880.912	14493.25
881.154	14392.25
881.396	14370.25
881.638	14456.25
881.88	14442.25
882.121	14392.25
882.363	14442.25
882.605	14545.25
882.846	14460.25
883.088	14472.25
883.329	14568.25
883.571	14597.25
883.812	14889.25
884.053	15322.25
884.295	15706.25
884.536	15930.25
884.777	15847.25
885.018	15570.25
885.259	15426.25
885.5	15276.25
885.742	15429.25
885.982	15231.25
886.223	15036.25
886.464	14798.25
886.705	14639.25
886.946	14410.25
887.187	14100.25
887.428	13905.25
887.668	13696.25
887.909	13438.25
888.15	13254.25
888.39	13080.25
888.631	13053.25
888.871	12856.25
889.111	12839.25
889.352	12685.25
889.592	12579.25
889.833	12492.25
890.073	12410.25
890.313	12392.25
890.553	12141.25
890.793	12128.25
891.033	12102.25
891.273	12014.25
891.513	12090.25
891.753	11979.25
891.993	11953.25
892.233	11950.25
892.473	12063.25
892.713	11982.25
892.952	11981.25
893.192	11959.25
893.432	11947.25
893.671	11910.25
893.911	11867.25
894.15	11817.25
894.39	11606.25
894.629	11608.25
894.869	11633.25
895.108	11517.25
895.347	11446.25
895.587	11423.25
895.826	11408.25
896.065	11226.25
896.304	11264.25
896.543	11311.25
896.782	11184.25
897.021	11195.25
897.26	11168.25
897.499	11242.25
897.738	11165.25
897.977	11105.25
898.216	11018.25
898.454	10861.25
898.693	10836.25
898.932	10835.25
899.17	10857.25
899.409	10739.25
899.647	10704.25
899.886	10704.25
900.124	10784.25
900.363	10735.25
900.601	10844.25
900.839	10795.25
901.078	10878.25
901.316	10956.25
901.554	10976.25
901.792	11090.25
902.03	11042.25
902.268	11077.25
902.506	10998.25
902.744	10956.25
902.982	10818.25
903.22	10664.25
903.458	10401.25
903.695	10379.25
903.933	10090.25
904.171	9934.25
904.409	9748.25
904.646	9673.25
904.884	9540.25
905.121	9496.25
905.359	9386.25
905.596	9235.25
905.833	9166.25
906.071	9157.25
906.308	9116.25
906.545	9121.25
906.783	9033.25
907.02	9076.25
907.257	8980.25
907.494	8946.25
907.731	9035.25
907.968	8917.25
908.205	8796.25
908.442	8807.25
908.679	8758.25
908.915	8620.25
909.152	8555.25
909.389	8483.25
909.626	8482.25
909.862	8378.25
910.099	8391.25
910.335	8393.25
910.572	8284.25
910.808	8287.25
911.045	8232.25
911.281	8183.25
911.518	8183.25
911.754	8101.25
911.99	8106.25
912.226	8084.25
912.463	7927.25
912.699	7938.25
912.935	7822.25
913.171	7779.25
913.407	7659.25
913.643	7706.25
913.879	7595.25
914.114	7537.25
914.35	7457.25
914.586	7393.25
914.822	7291.25
915.057	7342.25
915.293	7171.25
915.529	7174.25
915.764	7255.25
916	7243.25
916.235	7213.25
916.471	7153.25
916.706	7082.25
916.941	7097.25
917.177	7090.25
917.412	7083.25
917.647	7098.25
917.882	7025.25
918.117	7010.25
918.352	6988.25
918.588	7092.25
918.823	6903.25
919.057	6874.25
919.292	6711.25
919.527	6729.25
919.762	6613.25
919.997	6628.25
920.232	6455.25
920.466	6515.25
920.701	6357.25
920.935	6371.25
921.17	6354.25
921.405	6281.25
921.639	6385.25
921.873	6236.25
922.108	6265.25
922.342	6195.25
922.576	6127.25
922.811	6119.25
923.045	6176.25
923.279	6207.25
923.513	5993.25
923.747	6052.25
923.981	6046.25
924.215	5944.25
924.449	5958.25
924.683	5879.25
924.917	5882.25
925.151	5811.25
925.385	5883.25
925.618	5795.25
925.852	5806.25
926.086	5711.25
926.319	5736.25
926.553	5769.25
926.786	5761.25
927.02	5720.25
927.253	5778.25
927.486	5734.25
927.72	5603.25
927.953	5730.25
928.186	5655.25
928.42	5683.25
928.653	5537.25
928.886	5571.25
929.119	5543.25
929.352	5523.25
929.585	5524.25
929.818	5460.25
930.051	5459.25
930.284	5396.25
930.516	5274.25
930.749	5193.25
930.982	5317.25
931.215	5242.25
931.447	5131.25
931.68	5151.25
931.912	5184.25
932.145	5117.25
932.377	5182.25
932.61	5257.25
932.842	5143.25
933.074	5190.25
933.307	5144.25
933.539	5202.25
933.771	5197.25
934.003	5095.25
934.236	5213.25
934.468	5193.25
934.7	5106.25
934.932	5131.25
935.164	5064.25
935.395	5026.25
935.627	5093.25
935.859	5016.25
936.091	4962.25
936.323	4994.25
936.554	5021.25
936.786	4968.25
937.017	4928.25
937.249	4902.25
937.481	4834.25
937.712	4870.25
937.943	4850.25
938.175	4850.25
938.406	4813.25
938.637	4919.25
938.869	4784.25
939.1	4871.25
939.331	4789.25
939.562	4780.25
939.793	4775.25
940.024	4801.25
940.255	4765.25
940.486	4654.25
940.717	4692.25
940.948	4685.25
941.179	4608.25
941.409	4657.25
941.64	4593.25
941.871	4612.25
942.102	4568.25
942.332	4577.25
942.563	4647.25
942.793	4599.25
943.024	4513.25
943.254	4591.25
943.484	4666.25
943.715	4601.25
943.945	4614.25
944.175	4496.25
944.405	4519.25
944.636	4505.25
944.866	4577.25
945.096	4543.25
945.326	4473.25
945.556	4503.25
945.786	4519.25
946.016	4472.25
946.245	4352.25
946.475	4371.25
946.705	4367.25
946.935	4332.25
947.164	4353.25
947.394	4291.25
947.624	4275.25
947.853	4329.25
948.083	4244.25
948.312	4244.25
948.542	4168.25
948.771	4188.25
949	4139.25
949.23	4151.25
949.459	4191.25
949.688	4239.25
949.917	4174.25
950.146	4158.25
950.375	4252.25
950.604	4103.25
950.833	4171.25
951.062	4167.25
951.291	4100.25
951.52	4080.25
951.749	4092.25
951.978	4049.25
952.206	4062.25
952.435	4046.25
952.664	4093.25
952.892	4016.25
953.121	4020.25
953.349	4039.25
953.578	4015.25
953.806	3911.25
954.035	3874.25
954.263	3942.25
954.491	3857.25
954.719	3931.25
954.948	3854.25
955.176	3844.25
955.404	3778.25
955.632	3796.25
955.86	3812.25
956.088	3859.25
956.316	3810.25
956.544	3802.25
956.772	3742.25
956.999	3725.25
957.227	3807.25
957.455	3662.25
957.683	3668.25
957.91	3622.25
958.138	3573.25
958.365	3587.25
958.593	3600.25
958.82	3560.25
959.048	3623.25
959.275	3538.25
959.502	3556.25
959.73	3499.25
959.957	3563.25
960.184	3568.25
960.411	3485.25
960.638	3593.25
960.865	3484.25
961.092	3501.25
961.319	3401.25
961.546	3534.25
961.773	3509.25
962	3509.25
962.227	3526.25
962.454	3476.25
962.68	3401.25
962.907	3420.25
963.134	3378.25
963.36	3380.25
963.587	3381.25
963.813	3317.25
964.04	3377.25
964.266	3263.25
964.493	3368.25
964.719	3312.25
964.945	3274.25
965.171	3197.25
965.398	3219.25
965.624	3284.25
965.85	3188.25
966.076	3187.25
966.302	3217.25
966.528	3171.25
966.754	3156.25
966.98	3156.25
967.206	3143.25
967.431	3101.25
967.657	3198.25
967.883	3141.25
968.109	3128.25
968.334	3071.25
968.56	3071.25
968.785	3048.25
969.011	3047.25
969.236	3065.25
969.462	3039.25
969.687	3047.25
969.912	3066.25
970.138	3066.25
970.363	2980.25
970.588	3026.25
970.813	2980.25
971.038	2949.25
971.263	2983.25
971.488	2994.25
971.713	2951.25
971.938	2980.25
972.163	2852.25
972.388	2865.25
972.613	2881.25
972.838	2863.25
973.062	2857.25
973.287	2848.25
973.512	2782.25
973.736	2818.25
973.961	2818.25
974.185	2816.25
974.41	2793.25
974.634	2679.25
974.858	2694.25
975.083	2740.25
975.307	2759.25
975.531	2646.25
975.755	2635.25
975.98	2617.25
976.204	2570.25
976.428	2551.25
976.652	2598.25
976.876	2560.25
977.1	2640.25
977.324	2539.25
977.547	2591.25
977.771	2619.25
977.995	2557.25
978.219	2519.25
978.442	2628.25
978.666	2544.25
978.89	2569.25
979.113	2534.25
979.337	2506.25
979.56	2502.25
979.783	2518.25
980.007	2436.25
980.23	2439.25
980.453	2404.25
980.677	2509.25
980.9	2445.25
981.123	2370.25
981.346	2484.25
981.569	2413.25
981.792	2459.25
982.015	2396.25
982.238	2367.25
982.461	2394.25
982.684	2351.25
982.907	2288.25
983.129	2293.25
983.352	2349.25
983.575	2307.25
983.797	2322.25
984.02	2281.25
984.242	2236.25
984.465	2291.25
984.687	2290.25
984.91	2331.25
985.132	2250.25
985.354	2293.25
985.577	2263.25
985.799	2234.25
986.021	2175.25
986.243	2179.25
986.465	2194.25
986.687	2231.25
986.909	2288.25
987.131	2213.25
987.353	2167.25
987.575	2227.25
987.797	2134.25
988.019	2112.25
988.241	2178.25
988.462	2116.25
988.684	2176.25
988.906	2238.25
989.127	2208.25
989.349	2088.25
989.57	2130.25
989.792	2167.25
990.013	2138.25
990.234	2152.25
990.456	2176.25
990.677	2163.25
990.898	2093.25
991.119	2069.25
991.341	2128.25
991.562	2040.25
991.783	2082.25
992.004	2032.25
992.225	1979.25
992.446	2080.25
992.667	1944.25
992.887	2073.25
993.108	1954.25
993.329	2053.25
993.55	1987.25
993.77	1965.25
993.991	1923.25
994.212	1955.25
994.432	1920.25
994.653	1959.25
994.873	1942.25
995.093	1840.25
995.314	1908.25
995.534	1981.25
995.754	1965.25
995.975	1998.25
996.195	1869.25
996.415	1897.25
996.635	1899.25
996.855	1939.25
997.075	1907.25
997.295	1900.25
997.515	1892.25
997.735	1912.25
997.955	1917.25
998.174	1905.25
998.394	1872.25
998.614	1915.25
998.834	1867.25
999.053	1944.25
999.273	1869.25
999.492	1927.25
999.712	1851.25
999.931	1821.25
1000.151	1832.25
1000.37	1827.25
1000.589	1879.25
1000.809	1789.25
1001.028	1897.25
1001.247	1835.25
1001.466	1718.25
1001.685	1881.25
1001.904	1789.25
1002.123	1776.25
1002.342	1773.25
1002.561	1712.25
1002.78	1776.25
1002.999	1814.25
1003.218	1744.25
1003.436	1708.25
1003.655	1759.25
1003.874	1724.25
1004.092	1730.25
1004.311	1737.25
1004.53	1718.25
1004.748	1806.25
1004.966	1704.25
1005.185	1790.25
1005.403	1750.25
1005.622	1727.25
1005.84	1789.25
1006.058	1718.25
1006.276	1758.25
1006.494	2121.25
1006.712	1735.25
1006.931	1809.25
1007.149	1703.25
1007.367	1749.25
1007.584	1773.25
1007.802	1828.25
1008.02	1767.25
1008.238	1881.25
1008.456	1897.25
1008.673	1764.25
1008.891	1904.25
1009.109	1850.25
1009.326	1926.25
1009.544	2043.25
1009.761	1979.25
1009.979	2114.25
1010.196	2155.25
1010.413	2291.25
1010.631	2368.25
1010.848	2452.25
1011.065	2413.25
1011.282	2393.25
1011.5	2348.25
1011.717	2431.25
1011.934	2355.25
1012.151	2391.25
1012.368	2402.25
1012.585	2319.25
1012.801	2391.25
1013.018	2341.25
1013.235	2316.25
1013.452	2353.25
1013.669	2401.25
1013.885	2379.25
1014.102	2427.25
1014.318	2398.25
1014.535	2307.25
1014.751	2358.25
1014.968	2358.25
1015.184	2351.25
1015.401	2219.25
1015.617	2284.25
1015.833	2185.25
1016.049	2199.25
1016.266	2169.25
1016.482	2152.25
1016.698	2110.25
1016.914	2125.25
1017.13	2047.25
1017.346	2056.25
1017.562	2085.25
1017.778	2038.25
1017.993	1988.25
1018.209	2090.25
1018.425	2029.25
1018.641	1988.25
1018.856	1994.25
1019.072	1969.25
1019.288	2057.25
1019.503	1969.25
1019.719	1900.25
1019.934	1901.25
1020.149	1974.25
1020.365	1868.25
1020.58	1818.25
1020.795	1877.25
1021.011	1785.25
1021.226	1761.25
1021.441	1713.25
1021.656	1660.25
1021.871	1566.25
1022.086	1565.25
1022.301	1521.25
1022.516	1530.25
1022.731	1568.25
1022.946	1452.25
1023.16	1439.25
1023.375	1399.25
1023.59	1333.25
1023.804	1327.25
1024.019	1397.25
1024.234	1265.25
1024.448	1293.25
1024.663	1205.25
1024.877	1233.25
1025.092	1235.25
1025.306	1224.25
1025.52	1140.25
1025.734	1201.25
1025.949	1104.25
1026.163	1073.25
1026.377	1020.25
1026.591	1046.25
1026.805	978.25
1027.019	986.25
1027.233	948.25
1027.447	884.25
1027.661	979.25
1027.875	908.25
1028.088	915.25
1028.302	823.25
1028.516	818.25
1028.73	819.25
1028.943	814.25
1029.157	740.25
1029.37	679.25
1029.584	-1.75
1029.797	-0.75
1030.011	-1.75
1030.224	0.25
