Data from QEP037381__90__10-18-22-731.txt Node

Date: Wed Dec 21 10:18:22 EST 2022
User: dcclab
Spectrometer: QEP03738
Trigger mode: 4
Integration Time (sec): 1.000000E1
Scans to average: 1
Electric dark correction enabled: true
Nonlinearity correction enabled: false
Boxcar width: 0
XAxis mode: Wavelengths
Number of Pixels in Spectrum: 1044
>>>>>Begin Spectral Data<<<<<
784.041	13.38
784.3	0.38
784.558	-1.62
784.817	-1.62
785.075	77352.38
785.334	13068.38
785.592	5977.38
785.851	4174.38
786.109	3145.38
786.368	2455.38
786.626	2025.38
786.884	1678.38
787.143	1433.38
787.401	1176.38
787.659	1081.38
787.917	962.38
788.175	878.38
788.433	781.38
788.691	709.38
788.949	653.38
789.207	643.38
789.465	559.38
789.723	530.38
789.98	483.38
790.238	526.38
790.496	496.38
790.753	477.38
791.011	530.38
791.268	480.38
791.526	455.38
791.783	468.38
792.041	453.38
792.298	377.38
792.556	450.38
792.813	419.38
793.07	408.38
793.327	394.38
793.584	471.38
793.841	412.38
794.099	407.38
794.356	488.38
794.613	371.38
794.869	409.38
795.126	373.38
795.383	357.38
795.64	377.38
795.897	336.38
796.153	397.38
796.41	382.38
796.667	371.38
796.923	359.38
797.18	365.38
797.436	389.38
797.693	357.38
797.949	399.38
798.206	444.38
798.462	332.38
798.718	412.38
798.974	374.38
799.231	415.38
799.487	395.38
799.743	408.38
799.999	426.38
800.255	405.38
800.511	375.38
800.767	414.38
801.023	392.38
801.279	415.38
801.534	428.38
801.79	447.38
802.046	428.38
802.302	499.38
802.557	523.38
802.813	577.38
803.068	605.38
803.324	787.38
803.579	958.38
803.835	1217.38
804.09	1619.38
804.345	2040.38
804.601	2511.38
804.856	3085.38
805.111	3491.38
805.366	3864.38
805.621	4016.38
805.876	4228.38
806.131	4294.38
806.386	4283.38
806.641	4378.38
806.896	4444.38
807.151	4573.38
807.406	4601.38
807.661	4677.38
807.915	4734.38
808.17	4875.38
808.425	4889.38
808.679	4858.38
808.934	5052.38
809.188	5004.38
809.443	5059.38
809.697	5199.38
809.951	5159.38
810.206	5216.38
810.46	5310.38
810.714	5347.38
810.968	5381.38
811.223	5381.38
811.477	5444.38
811.731	5484.38
811.985	5419.38
812.239	5467.38
812.493	5546.38
812.747	5580.38
813	5564.38
813.254	5606.38
813.508	5633.38
813.762	5628.38
814.015	5655.38
814.269	5753.38
814.522	5811.38
814.776	5874.38
815.03	5921.38
815.283	5997.38
815.536	6139.38
815.79	6181.38
816.043	6218.38
816.296	6368.38
816.55	6434.38
816.803	6494.38
817.056	6660.38
817.309	6617.38
817.562	6608.38
817.815	6743.38
818.068	6700.38
818.321	6796.38
818.574	6898.38
818.827	7097.38
819.079	7078.38
819.332	7349.38
819.585	7362.38
819.838	7508.38
820.09	7437.38
820.343	7575.38
820.595	7592.38
820.848	7678.38
821.1	7685.38
821.353	7641.38
821.605	7651.38
821.857	7743.38
822.11	7642.38
822.362	7626.38
822.614	7586.38
822.866	7696.38
823.118	7576.38
823.37	7711.38
823.622	7718.38
823.874	7767.38
824.126	7826.38
824.378	7797.38
824.63	7776.38
824.882	7871.38
825.134	7788.38
825.385	7831.38
825.637	7796.38
825.888	7727.38
826.14	7753.38
826.392	7597.38
826.643	7654.38
826.895	7665.38
827.146	7605.38
827.397	7571.38
827.649	7639.38
827.9	7553.38
828.151	7528.38
828.402	7630.38
828.653	7662.38
828.905	7676.38
829.156	7676.38
829.407	7639.38
829.658	7601.38
829.909	7713.38
830.159	7701.38
830.41	7660.38
830.661	7645.38
830.912	7582.38
831.162	7558.38
831.413	7554.38
831.664	7551.38
831.914	7559.38
832.165	7576.38
832.415	7522.38
832.666	7558.38
832.916	7613.38
833.167	7549.38
833.417	7567.38
833.667	7477.38
833.917	7578.38
834.168	7551.38
834.418	7514.38
834.668	7540.38
834.918	7513.38
835.168	7442.38
835.418	7370.38
835.668	7393.38
835.918	7414.38
836.167	7454.38
836.417	7347.38
836.667	7363.38
836.917	7299.38
837.166	7325.38
837.416	7409.38
837.666	7385.38
837.915	7299.38
838.165	7292.38
838.414	7204.38
838.663	7136.38
838.913	7252.38
839.162	7209.38
839.411	7273.38
839.661	7119.38
839.91	7235.38
840.159	7205.38
840.408	7245.38
840.657	7217.38
840.906	7237.38
841.155	7274.38
841.404	7205.38
841.653	7169.38
841.902	7203.38
842.15	7238.38
842.399	7202.38
842.648	7191.38
842.897	7224.38
843.145	7195.38
843.394	7070.38
843.642	7094.38
843.891	7104.38
844.139	7083.38
844.388	6972.38
844.636	6927.38
844.884	6970.38
845.133	6957.38
845.381	6962.38
845.629	6983.38
845.877	6904.38
846.125	6956.38
846.373	6916.38
846.621	6868.38
846.869	6884.38
847.117	6920.38
847.365	6811.38
847.613	6814.38
847.861	6757.38
848.108	6883.38
848.356	6813.38
848.604	6819.38
848.851	6760.38
849.099	6824.38
849.346	6763.38
849.594	6820.38
849.841	6904.38
850.089	6916.38
850.336	6876.38
850.583	6859.38
850.831	6849.38
851.078	6845.38
851.325	6881.38
851.572	7033.38
851.819	6912.38
852.066	6665.38
852.313	6585.38
852.56	6514.38
852.807	6467.38
853.054	6450.38
853.301	6473.38
853.548	6549.38
853.794	6601.38
854.041	6641.38
854.288	6614.38
854.534	6736.38
854.781	6692.38
855.028	6597.38
855.274	6674.38
855.52	6533.38
855.767	6476.38
856.013	6566.38
856.26	6829.38
856.506	6460.38
856.752	6471.38
856.998	6431.38
857.244	6443.38
857.49	6521.38
857.736	6512.38
857.982	6517.38
858.228	6520.38
858.474	6437.38
858.72	6452.38
858.966	6365.38
859.212	6319.38
859.458	6260.38
859.703	6200.38
859.949	6117.38
860.195	6092.38
860.44	6105.38
860.686	6010.38
860.931	6105.38
861.177	5995.38
861.422	6035.38
861.667	5937.38
861.913	6015.38
862.158	6005.38
862.403	6037.38
862.648	6053.38
862.893	6096.38
863.138	6080.38
863.384	6053.38
863.629	6080.38
863.873	6067.38
864.118	6042.38
864.363	5972.38
864.608	5984.38
864.853	6021.38
865.098	5919.38
865.342	5892.38
865.587	5852.38
865.832	5937.38
866.076	5898.38
866.321	5811.38
866.565	5822.38
866.81	5757.38
867.054	5795.38
867.298	5764.38
867.543	5727.38
867.787	5760.38
868.031	5727.38
868.275	5757.38
868.519	5739.38
868.764	5715.38
869.008	5747.38
869.252	5752.38
869.496	5707.38
869.739	5688.38
869.983	5728.38
870.227	5724.38
870.471	5668.38
870.715	5723.38
870.958	5748.38
871.202	5688.38
871.446	5728.38
871.689	5720.38
871.933	5765.38
872.176	5747.38
872.42	5702.38
872.663	5685.38
872.906	5742.38
873.15	5672.38
873.393	5624.38
873.636	5709.38
873.879	5641.38
874.122	5621.38
874.366	5503.38
874.609	5492.38
874.852	5401.38
875.095	5400.38
875.337	5396.38
875.58	5334.38
875.823	5358.38
876.066	5378.38
876.309	5360.38
876.551	5289.38
876.794	5232.38
877.037	5300.38
877.279	5187.38
877.522	5241.38
877.764	5283.38
878.007	5235.38
878.249	5248.38
878.491	5181.38
878.734	5302.38
878.976	5254.38
879.218	5104.38
879.46	5203.38
879.702	5139.38
879.945	5126.38
880.187	5039.38
880.429	5051.38
880.671	4974.38
880.912	5010.38
881.154	5009.38
881.396	4902.38
881.638	4980.38
881.88	4932.38
882.121	4899.38
882.363	4879.38
882.605	4952.38
882.846	4892.38
883.088	4885.38
883.329	4867.38
883.571	4915.38
883.812	4969.38
884.053	5029.38
884.295	5140.38
884.536	5258.38
884.777	5147.38
885.018	5163.38
885.259	5133.38
885.5	5118.38
885.742	5424.38
885.982	5073.38
886.223	4991.38
886.464	4955.38
886.705	4948.38
886.946	4937.38
887.187	4787.38
887.428	4809.38
887.668	4710.38
887.909	4607.38
888.15	4589.38
888.39	4627.38
888.631	4609.38
888.871	4553.38
889.111	4527.38
889.352	4485.38
889.592	4447.38
889.833	4391.38
890.073	4397.38
890.313	4409.38
890.553	4299.38
890.793	4300.38
891.033	4263.38
891.273	4272.38
891.513	4270.38
891.753	4360.38
891.993	4230.38
892.233	4275.38
892.473	4340.38
892.713	4278.38
892.952	4296.38
893.192	4336.38
893.432	4350.38
893.671	4347.38
893.911	4291.38
894.15	4291.38
894.39	4128.38
894.629	4162.38
894.869	4170.38
895.108	4157.38
895.347	4070.38
895.587	4144.38
895.826	4152.38
896.065	4103.38
896.304	4121.38
896.543	4163.38
896.782	4025.38
897.021	4061.38
897.26	4077.38
897.499	4120.38
897.738	4107.38
897.977	4067.38
898.216	3985.38
898.454	3979.38
898.693	3944.38
898.932	3971.38
899.17	3939.38
899.409	3942.38
899.647	3923.38
899.886	3886.38
900.124	3887.38
900.363	3879.38
900.601	3905.38
900.839	3884.38
901.078	3907.38
901.316	3961.38
901.554	3962.38
901.792	4030.38
902.03	3921.38
902.268	3966.38
902.506	4009.38
902.744	3949.38
902.982	3982.38
903.22	3811.38
903.458	3819.38
903.695	3799.38
903.933	3789.38
904.171	3665.38
904.409	3615.38
904.646	3627.38
904.884	3517.38
905.121	3559.38
905.359	3505.38
905.596	3522.38
905.833	3368.38
906.071	3427.38
906.308	3456.38
906.545	3395.38
906.783	3375.38
907.02	3379.38
907.257	3346.38
907.494	3342.38
907.731	3351.38
907.968	3382.38
908.205	3310.38
908.442	3296.38
908.679	3311.38
908.915	3254.38
909.152	3277.38
909.389	3163.38
909.626	3190.38
909.862	3145.38
910.099	3162.38
910.335	3206.38
910.572	3095.38
910.808	3127.38
911.045	3092.38
911.281	3096.38
911.518	3195.38
911.754	3094.38
911.99	3125.38
912.226	3080.38
912.463	3023.38
912.699	3011.38
912.935	3000.38
913.171	2993.38
913.407	2936.38
913.643	2997.38
913.879	2957.38
914.114	2914.38
914.35	2865.38
914.586	2852.38
914.822	2813.38
915.057	2929.38
915.293	2765.38
915.529	2772.38
915.764	2852.38
916	2814.38
916.235	2806.38
916.471	2833.38
916.706	2704.38
916.941	2755.38
917.177	2731.38
917.412	2797.38
917.647	2775.38
917.882	2716.38
918.117	2799.38
918.352	2756.38
918.588	2790.38
918.823	2709.38
919.057	2714.38
919.292	2574.38
919.527	2703.38
919.762	2634.38
919.997	2670.38
920.232	2545.38
920.466	2603.38
920.701	2493.38
920.935	2533.38
921.17	2510.38
921.405	2459.38
921.639	2538.38
921.873	2496.38
922.108	2489.38
922.342	2505.38
922.576	2421.38
922.811	2462.38
923.045	2511.38
923.279	2491.38
923.513	2372.38
923.747	2489.38
923.981	2447.38
924.215	2371.38
924.449	2397.38
924.683	2370.38
924.917	2380.38
925.151	2368.38
925.385	2406.38
925.618	2352.38
925.852	2350.38
926.086	2263.38
926.319	2341.38
926.553	2327.38
926.786	2336.38
927.02	2330.38
927.253	2372.38
927.486	2344.38
927.72	2285.38
927.953	2330.38
928.186	2303.38
928.42	2342.38
928.653	2262.38
928.886	2272.38
929.119	2300.38
929.352	2273.38
929.585	2265.38
929.818	2221.38
930.051	2265.38
930.284	2262.38
930.516	2174.38
930.749	2166.38
930.982	2224.38
931.215	2206.38
931.447	2089.38
931.68	2144.38
931.912	2180.38
932.145	2159.38
932.377	2153.38
932.61	2301.38
932.842	2095.38
933.074	2145.38
933.307	2116.38
933.539	2213.38
933.771	2196.38
934.003	2129.38
934.236	2210.38
934.468	2237.38
934.7	2151.38
934.932	2168.38
935.164	2119.38
935.395	2113.38
935.627	2113.38
935.859	2123.38
936.091	2071.38
936.323	2118.38
936.554	2128.38
936.786	2077.38
937.017	2049.38
937.249	2077.38
937.481	2046.38
937.712	2080.38
937.943	2081.38
938.175	2030.38
938.406	2038.38
938.637	2142.38
938.869	2036.38
939.1	2073.38
939.331	2029.38
939.562	2039.38
939.793	2067.38
940.024	2089.38
940.255	2084.38
940.486	2033.38
940.717	2013.38
940.948	1994.38
941.179	1966.38
941.409	1991.38
941.64	1983.38
941.871	1971.38
942.102	1987.38
942.332	1980.38
942.563	1992.38
942.793	2000.38
943.024	1928.38
943.254	2003.38
943.484	2018.38
943.715	2032.38
943.945	1992.38
944.175	1976.38
944.405	1905.38
944.636	1925.38
944.866	1979.38
945.096	2004.38
945.326	1895.38
945.556	1985.38
945.786	2003.38
946.016	1938.38
946.245	1874.38
946.475	1910.38
946.705	1874.38
946.935	1920.38
947.164	1921.38
947.394	1875.38
947.624	1888.38
947.853	1923.38
948.083	1889.38
948.312	1908.38
948.542	1809.38
948.771	1798.38
949	1815.38
949.23	1834.38
949.459	1858.38
949.688	1900.38
949.917	1817.38
950.146	1859.38
950.375	1909.38
950.604	1830.38
950.833	1932.38
951.062	1884.38
951.291	1834.38
951.52	1811.38
951.749	1833.38
951.978	1798.38
952.206	1815.38
952.435	1813.38
952.664	1849.38
952.892	1834.38
953.121	1840.38
953.349	1820.38
953.578	1838.38
953.806	1803.38
954.035	1760.38
954.263	1779.38
954.491	1718.38
954.719	1783.38
954.948	1745.38
955.176	1762.38
955.404	1684.38
955.632	1752.38
955.86	1746.38
956.088	1744.38
956.316	1762.38
956.544	1790.38
956.772	1732.38
956.999	1712.38
957.227	1815.38
957.455	1704.38
957.683	1726.38
957.91	1663.38
958.138	1654.38
958.365	1688.38
958.593	1651.38
958.82	1637.38
959.048	1708.38
959.275	1677.38
959.502	1687.38
959.73	1658.38
959.957	1686.38
960.184	1726.38
960.411	1653.38
960.638	1738.38
960.865	1657.38
961.092	1691.38
961.319	1576.38
961.546	1677.38
961.773	1702.38
962	1626.38
962.227	1661.38
962.454	1648.38
962.68	1673.38
962.907	1641.38
963.134	1599.38
963.36	1632.38
963.587	1642.38
963.813	1592.38
964.04	1620.38
964.266	1546.38
964.493	1625.38
964.719	1624.38
964.945	1615.38
965.171	1547.38
965.398	1569.38
965.624	1596.38
965.85	1531.38
966.076	1525.38
966.302	1604.38
966.528	1542.38
966.754	1552.38
966.98	1592.38
967.206	1553.38
967.431	1506.38
967.657	1553.38
967.883	1565.38
968.109	1528.38
968.334	1496.38
968.56	1495.38
968.785	1495.38
969.011	1473.38
969.236	1556.38
969.462	1471.38
969.687	1489.38
969.912	1509.38
970.138	1550.38
970.363	1484.38
970.588	1483.38
970.813	1468.38
971.038	1446.38
971.263	1496.38
971.488	1509.38
971.713	1536.38
971.938	1502.38
972.163	1394.38
972.388	1453.38
972.613	1428.38
972.838	1476.38
973.062	1447.38
973.287	1464.38
973.512	1370.38
973.736	1431.38
973.961	1404.38
974.185	1373.38
974.41	1461.38
974.634	1360.38
974.858	1351.38
975.083	1393.38
975.307	1447.38
975.531	1370.38
975.755	1322.38
975.98	1342.38
976.204	1267.38
976.428	1303.38
976.652	1311.38
976.876	1292.38
977.1	1331.38
977.324	1309.38
977.547	1353.38
977.771	1359.38
977.995	1308.38
978.219	1260.38
978.442	1379.38
978.666	1314.38
978.89	1305.38
979.113	1301.38
979.337	1317.38
979.56	1289.38
979.783	1361.38
980.007	1253.38
980.23	1297.38
980.453	1245.38
980.677	1293.38
980.9	1277.38
981.123	1184.38
981.346	1296.38
981.569	1269.38
981.792	1303.38
982.015	1264.38
982.238	1244.38
982.461	1243.38
982.684	1212.38
982.907	1207.38
983.129	1204.38
983.352	1264.38
983.575	1256.38
983.797	1233.38
984.02	1199.38
984.242	1212.38
984.465	1215.38
984.687	1266.38
984.91	1259.38
985.132	1254.38
985.354	1264.38
985.577	1222.38
985.799	1233.38
986.021	1154.38
986.243	1172.38
986.465	1205.38
986.687	1224.38
986.909	1272.38
987.131	1218.38
987.353	1167.38
987.575	1213.38
987.797	1174.38
988.019	1152.38
988.241	1199.38
988.462	1149.38
988.684	1216.38
988.906	1244.38
989.127	1260.38
989.349	1138.38
989.57	1173.38
989.792	1221.38
990.013	1219.38
990.234	1235.38
990.456	1245.38
990.677	1223.38
990.898	1164.38
991.119	1182.38
991.341	1205.38
991.562	1150.38
991.783	1196.38
992.004	1132.38
992.225	1117.38
992.446	1173.38
992.667	1088.38
992.887	1192.38
993.108	1060.38
993.329	1215.38
993.55	1154.38
993.77	1081.38
993.991	1120.38
994.212	1136.38
994.432	1115.38
994.653	1171.38
994.873	1143.38
995.093	1025.38
995.314	1076.38
995.534	1142.38
995.754	1163.38
995.975	1189.38
996.195	1082.38
996.415	1143.38
996.635	1107.38
996.855	1117.38
997.075	1087.38
997.295	1095.38
997.515	1098.38
997.735	1157.38
997.955	1124.38
998.174	1093.38
998.394	1069.38
998.614	1113.38
998.834	1099.38
999.053	1150.38
999.273	1121.38
999.492	1180.38
999.712	1116.38
999.931	1080.38
1000.151	1106.38
1000.37	1110.38
1000.589	1172.38
1000.809	1081.38
1001.028	1193.38
1001.247	1139.38
1001.466	1058.38
1001.685	1195.38
1001.904	1132.38
1002.123	1127.38
1002.342	1139.38
1002.561	1067.38
1002.78	1136.38
1002.999	1175.38
1003.218	1142.38
1003.436	1084.38
1003.655	1144.38
1003.874	1099.38
1004.092	1118.38
1004.311	1162.38
1004.53	1130.38
1004.748	1200.38
1004.966	1122.38
1005.185	1189.38
1005.403	1163.38
1005.622	1143.38
1005.84	1206.38
1006.058	1107.38
1006.276	1132.38
1006.494	1636.38
1006.712	1147.38
1006.931	1199.38
1007.149	1101.38
1007.367	1108.38
1007.584	1145.38
1007.802	1164.38
1008.02	1137.38
1008.238	1220.38
1008.456	1210.38
1008.673	1082.38
1008.891	1206.38
1009.109	1163.38
1009.326	1160.38
1009.544	1262.38
1009.761	1168.38
1009.979	1233.38
1010.196	1224.38
1010.413	1314.38
1010.631	1325.38
1010.848	1354.38
1011.065	1343.38
1011.282	1291.38
1011.5	1244.38
1011.717	1379.38
1011.934	1336.38
1012.151	1328.38
1012.368	1300.38
1012.585	1264.38
1012.801	1333.38
1013.018	1279.38
1013.235	1251.38
1013.452	1275.38
1013.669	1297.38
1013.885	1245.38
1014.102	1269.38
1014.318	1255.38
1014.535	1217.38
1014.751	1267.38
1014.968	1266.38
1015.184	1297.38
1015.401	1185.38
1015.617	1255.38
1015.833	1187.38
1016.049	1219.38
1016.266	1187.38
1016.482	1207.38
1016.698	1140.38
1016.914	1201.38
1017.13	1128.38
1017.346	1146.38
1017.562	1202.38
1017.778	1153.38
1017.993	1142.38
1018.209	1178.38
1018.425	1144.38
1018.641	1127.38
1018.856	1099.38
1019.072	1120.38
1019.288	1178.38
1019.503	1111.38
1019.719	1059.38
1019.934	1073.38
1020.149	1137.38
1020.365	1075.38
1020.58	1034.38
1020.795	1092.38
1021.011	1050.38
1021.226	1031.38
1021.441	1054.38
1021.656	969.38
1021.871	933.38
1022.086	932.38
1022.301	925.38
1022.516	905.38
1022.731	1006.38
1022.946	892.38
1023.16	890.38
1023.375	869.38
1023.59	851.38
1023.804	812.38
1024.019	926.38
1024.234	796.38
1024.448	835.38
1024.663	770.38
1024.877	788.38
1025.092	806.38
1025.306	826.38
1025.52	721.38
1025.734	828.38
1025.949	739.38
1026.163	721.38
1026.377	664.38
1026.591	728.38
1026.805	648.38
1027.019	656.38
1027.233	607.38
1027.447	566.38
1027.661	669.38
1027.875	595.38
1028.088	634.38
1028.302	549.38
1028.516	542.38
1028.73	544.38
1028.943	561.38
1029.157	502.38
1029.37	488.38
1029.584	-1.62
1029.797	-4.62
1030.011	-0.62
1030.224	-3.62
