Data from QEP037381__152__10-28-42-735.txt Node

Date: Wed Dec 21 10:28:42 EST 2022
User: dcclab
Spectrometer: QEP03738
Trigger mode: 4
Integration Time (sec): 1.000000E1
Scans to average: 1
Electric dark correction enabled: true
Nonlinearity correction enabled: false
Boxcar width: 0
XAxis mode: Wavelengths
Number of Pixels in Spectrum: 1044
>>>>>Begin Spectral Data<<<<<
784.041	12.88
784.3	0.88
784.558	-3.12
784.817	-1.12
785.075	78692.88
785.334	13239.88
785.592	6021.88
785.851	4151.88
786.109	3148.88
786.368	2480.88
786.626	2001.88
786.884	1667.88
787.143	1436.88
787.401	1154.88
787.659	1071.88
787.917	922.88
788.175	881.88
788.433	755.88
788.691	703.88
788.949	639.88
789.207	610.88
789.465	534.88
789.723	512.88
789.98	469.88
790.238	525.88
790.496	490.88
790.753	466.88
791.011	517.88
791.268	460.88
791.526	453.88
791.783	451.88
792.041	441.88
792.298	371.88
792.556	435.88
792.813	414.88
793.07	395.88
793.327	372.88
793.584	461.88
793.841	376.88
794.099	392.88
794.356	467.88
794.613	357.88
794.869	409.88
795.126	373.88
795.383	345.88
795.64	360.88
795.897	316.88
796.153	367.88
796.41	364.88
796.667	343.88
796.923	346.88
797.18	352.88
797.436	376.88
797.693	337.88
797.949	385.88
798.206	413.88
798.462	333.88
798.718	382.88
798.974	349.88
799.231	397.88
799.487	370.88
799.743	366.88
799.999	409.88
800.255	371.88
800.511	351.88
800.767	402.88
801.023	364.88
801.279	391.88
801.534	398.88
801.79	408.88
802.046	390.88
802.302	445.88
802.557	437.88
802.813	481.88
803.068	445.88
803.324	581.88
803.579	640.88
803.835	760.88
804.09	1003.88
804.345	1162.88
804.601	1378.88
804.856	1648.88
805.111	1867.88
805.366	1989.88
805.621	2110.88
805.876	2190.88
806.131	2208.88
806.386	2196.88
806.641	2233.88
806.896	2283.88
807.151	2407.88
807.406	2317.88
807.661	2391.88
807.915	2425.88
808.17	2471.88
808.425	2477.88
808.679	2421.88
808.934	2578.88
809.188	2545.88
809.443	2597.88
809.697	2642.88
809.951	2588.88
810.206	2611.88
810.46	2668.88
810.714	2696.88
810.968	2736.88
811.223	2675.88
811.477	2762.88
811.731	2763.88
811.985	2738.88
812.239	2679.88
812.493	2753.88
812.747	2781.88
813	2764.88
813.254	2827.88
813.508	2845.88
813.762	2798.88
814.015	2808.88
814.269	2888.88
814.522	2903.88
814.776	2919.88
815.03	2972.88
815.283	3009.88
815.536	3024.88
815.79	3076.88
816.043	3085.88
816.296	3147.88
816.55	3172.88
816.803	3180.88
817.056	3319.88
817.309	3277.88
817.562	3308.88
817.815	3367.88
818.068	3330.88
818.321	3334.88
818.574	3391.88
818.827	3481.88
819.079	3480.88
819.332	3658.88
819.585	3626.88
819.838	3710.88
820.09	3658.88
820.343	3743.88
820.595	3671.88
820.848	3740.88
821.1	3753.88
821.353	3776.88
821.605	3716.88
821.857	3778.88
822.11	3700.88
822.362	3702.88
822.614	3713.88
822.866	3769.88
823.118	3708.88
823.37	3858.88
823.622	3802.88
823.874	3820.88
824.126	3828.88
824.378	3840.88
824.63	3853.88
824.882	3914.88
825.134	3825.88
825.385	3821.88
825.637	3824.88
825.888	3760.88
826.14	3761.88
826.392	3737.88
826.643	3643.88
826.895	3737.88
827.146	3731.88
827.397	3646.88
827.649	3718.88
827.9	3654.88
828.151	3619.88
828.402	3653.88
828.653	3706.88
828.905	3691.88
829.156	3759.88
829.407	3615.88
829.658	3704.88
829.909	3747.88
830.159	3742.88
830.41	3711.88
830.661	3696.88
830.912	3685.88
831.162	3642.88
831.413	3621.88
831.664	3693.88
831.914	3660.88
832.165	3661.88
832.415	3643.88
832.666	3646.88
832.916	3710.88
833.167	3657.88
833.417	3735.88
833.667	3678.88
833.917	3672.88
834.168	3744.88
834.418	3739.88
834.668	3708.88
834.918	3627.88
835.168	3683.88
835.418	3605.88
835.668	3654.88
835.918	3615.88
836.167	3626.88
836.417	3604.88
836.667	3645.88
836.917	3628.88
837.166	3582.88
837.416	3595.88
837.666	3620.88
837.915	3565.88
838.165	3546.88
838.414	3504.88
838.663	3433.88
838.913	3571.88
839.162	3485.88
839.411	3578.88
839.661	3457.88
839.91	3485.88
840.159	3437.88
840.408	3534.88
840.657	3527.88
840.906	3517.88
841.155	3529.88
841.404	3501.88
841.653	3485.88
841.902	3442.88
842.15	3502.88
842.399	3524.88
842.648	3478.88
842.897	3491.88
843.145	3416.88
843.394	3447.88
843.642	3395.88
843.891	3480.88
844.139	3425.88
844.388	3374.88
844.636	3320.88
844.884	3322.88
845.133	3349.88
845.381	3382.88
845.629	3383.88
845.877	3348.88
846.125	3327.88
846.373	3366.88
846.621	3334.88
846.869	3373.88
847.117	3346.88
847.365	3358.88
847.613	3299.88
847.861	3322.88
848.108	3335.88
848.356	3319.88
848.604	3235.88
848.851	3292.88
849.099	3337.88
849.346	3273.88
849.594	3387.88
849.841	3360.88
850.089	3325.88
850.336	3337.88
850.583	3388.88
850.831	3408.88
851.078	3450.88
851.325	3483.88
851.572	3610.88
851.819	3530.88
852.066	3329.88
852.313	3210.88
852.56	3155.88
852.807	3117.88
853.054	3146.88
853.301	3162.88
853.548	3214.88
853.794	3307.88
854.041	3282.88
854.288	3239.88
854.534	3335.88
854.781	3244.88
855.028	3242.88
855.274	3266.88
855.52	3176.88
855.767	3157.88
856.013	3210.88
856.26	3490.88
856.506	3099.88
856.752	3166.88
856.998	3141.88
857.244	3150.88
857.49	3177.88
857.736	3204.88
857.982	3196.88
858.228	3194.88
858.474	3113.88
858.72	3147.88
858.966	3100.88
859.212	3106.88
859.458	3072.88
859.703	3009.88
859.949	2988.88
860.195	2990.88
860.44	2965.88
860.686	2941.88
860.931	3001.88
861.177	2906.88
861.422	2958.88
861.667	2926.88
861.913	2875.88
862.158	2938.88
862.403	2956.88
862.648	2947.88
862.893	3002.88
863.138	2982.88
863.384	2939.88
863.629	2902.88
863.873	2923.88
864.118	2936.88
864.363	2845.88
864.608	2965.88
864.853	2967.88
865.098	2918.88
865.342	2920.88
865.587	2863.88
865.832	2921.88
866.076	2897.88
866.321	2838.88
866.565	2879.88
866.81	2777.88
867.054	2834.88
867.298	2832.88
867.543	2766.88
867.787	2849.88
868.031	2826.88
868.275	2776.88
868.519	2798.88
868.764	2798.88
869.008	2776.88
869.252	2809.88
869.496	2770.88
869.739	2791.88
869.983	2838.88
870.227	2772.88
870.471	2814.88
870.715	2844.88
870.958	2802.88
871.202	2780.88
871.446	2815.88
871.689	2778.88
871.933	2788.88
872.176	2832.88
872.42	2796.88
872.663	2797.88
872.906	2809.88
873.15	2785.88
873.393	2747.88
873.636	2796.88
873.879	2789.88
874.122	2830.88
874.366	2720.88
874.609	2722.88
874.852	2676.88
875.095	2727.88
875.337	2651.88
875.58	2571.88
875.823	2627.88
876.066	2662.88
876.309	2679.88
876.551	2603.88
876.794	2548.88
877.037	2634.88
877.279	2555.88
877.522	2580.88
877.764	2633.88
878.007	2531.88
878.249	2547.88
878.491	2536.88
878.734	2610.88
878.976	2586.88
879.218	2518.88
879.46	2557.88
879.702	2518.88
879.945	2498.88
880.187	2480.88
880.429	2452.88
880.671	2447.88
880.912	2448.88
881.154	2421.88
881.396	2362.88
881.638	2449.88
881.88	2421.88
882.121	2376.88
882.363	2402.88
882.605	2476.88
882.846	2390.88
883.088	2424.88
883.329	2423.88
883.571	2356.88
883.812	2418.88
884.053	2486.88
884.295	2522.88
884.536	2649.88
884.777	2597.88
885.018	2616.88
885.259	2635.88
885.5	2530.88
885.742	2806.88
885.982	2503.88
886.223	2455.88
886.464	2440.88
886.705	2393.88
886.946	2434.88
887.187	2348.88
887.428	2379.88
887.668	2276.88
887.909	2245.88
888.15	2195.88
888.39	2244.88
888.631	2278.88
888.871	2236.88
889.111	2224.88
889.352	2209.88
889.592	2169.88
889.833	2144.88
890.073	2163.88
890.313	2240.88
890.553	2125.88
890.793	2113.88
891.033	2076.88
891.273	2101.88
891.513	2112.88
891.753	2137.88
891.993	2095.88
892.233	2132.88
892.473	2185.88
892.713	2096.88
892.952	2096.88
893.192	2112.88
893.432	2097.88
893.671	2160.88
893.911	2117.88
894.15	2150.88
894.39	2043.88
894.629	2046.88
894.869	2067.88
895.108	2043.88
895.347	2006.88
895.587	2048.88
895.826	2014.88
896.065	2021.88
896.304	2048.88
896.543	2075.88
896.782	1988.88
897.021	2069.88
897.26	2052.88
897.499	2096.88
897.738	2090.88
897.977	2046.88
898.216	2018.88
898.454	2002.88
898.693	1944.88
898.932	1987.88
899.17	1961.88
899.409	1958.88
899.647	1949.88
899.886	1938.88
900.124	1964.88
900.363	1917.88
900.601	1949.88
900.839	1942.88
901.078	1981.88
901.316	1972.88
901.554	1998.88
901.792	1998.88
902.03	1945.88
902.268	1954.88
902.506	2011.88
902.744	1940.88
902.982	1982.88
903.22	1882.88
903.458	1896.88
903.695	1909.88
903.933	1890.88
904.171	1804.88
904.409	1774.88
904.646	1832.88
904.884	1786.88
905.121	1802.88
905.359	1774.88
905.596	1764.88
905.833	1671.88
906.071	1721.88
906.308	1759.88
906.545	1696.88
906.783	1653.88
907.02	1718.88
907.257	1660.88
907.494	1692.88
907.731	1692.88
907.968	1707.88
908.205	1635.88
908.442	1644.88
908.679	1662.88
908.915	1654.88
909.152	1640.88
909.389	1604.88
909.626	1626.88
909.862	1601.88
910.099	1632.88
910.335	1653.88
910.572	1541.88
910.808	1611.88
911.045	1580.88
911.281	1574.88
911.518	1622.88
911.754	1560.88
911.99	1567.88
912.226	1525.88
912.463	1501.88
912.699	1530.88
912.935	1527.88
913.171	1499.88
913.407	1476.88
913.643	1529.88
913.879	1484.88
914.114	1516.88
914.35	1488.88
914.586	1470.88
914.822	1430.88
915.057	1487.88
915.293	1387.88
915.529	1417.88
915.764	1487.88
916	1433.88
916.235	1428.88
916.471	1462.88
916.706	1358.88
916.941	1408.88
917.177	1432.88
917.412	1440.88
917.647	1433.88
917.882	1379.88
918.117	1447.88
918.352	1416.88
918.588	1458.88
918.823	1384.88
919.057	1368.88
919.292	1296.88
919.527	1423.88
919.762	1339.88
919.997	1417.88
920.232	1347.88
920.466	1379.88
920.701	1254.88
920.935	1343.88
921.17	1290.88
921.405	1277.88
921.639	1309.88
921.873	1301.88
922.108	1332.88
922.342	1324.88
922.576	1289.88
922.811	1243.88
923.045	1338.88
923.279	1333.88
923.513	1207.88
923.747	1317.88
923.981	1295.88
924.215	1242.88
924.449	1244.88
924.683	1238.88
924.917	1226.88
925.151	1243.88
925.385	1279.88
925.618	1253.88
925.852	1251.88
926.086	1189.88
926.319	1243.88
926.553	1230.88
926.786	1248.88
927.02	1220.88
927.253	1276.88
927.486	1274.88
927.72	1211.88
927.953	1284.88
928.186	1210.88
928.42	1247.88
928.653	1195.88
928.886	1193.88
929.119	1247.88
929.352	1222.88
929.585	1210.88
929.818	1174.88
930.051	1205.88
930.284	1223.88
930.516	1113.88
930.749	1151.88
930.982	1187.88
931.215	1206.88
931.447	1123.88
931.68	1154.88
931.912	1163.88
932.145	1139.88
932.377	1161.88
932.61	1316.88
932.842	1080.88
933.074	1169.88
933.307	1143.88
933.539	1239.88
933.771	1275.88
934.003	1248.88
934.236	1371.88
934.468	1443.88
934.7	1399.88
934.932	1435.88
935.164	1340.88
935.395	1271.88
935.627	1235.88
935.859	1209.88
936.091	1134.88
936.323	1184.88
936.554	1180.88
936.786	1144.88
937.017	1089.88
937.249	1159.88
937.481	1075.88
937.712	1155.88
937.943	1120.88
938.175	1115.88
938.406	1100.88
938.637	1203.88
938.869	1078.88
939.1	1138.88
939.331	1103.88
939.562	1141.88
939.793	1113.88
940.024	1156.88
940.255	1172.88
940.486	1110.88
940.717	1114.88
940.948	1101.88
941.179	1059.88
941.409	1066.88
941.64	1083.88
941.871	1107.88
942.102	1069.88
942.332	1097.88
942.563	1109.88
942.793	1090.88
943.024	1048.88
943.254	1093.88
943.484	1123.88
943.715	1152.88
943.945	1087.88
944.175	1027.88
944.405	1016.88
944.636	1023.88
944.866	1085.88
945.096	1103.88
945.326	1026.88
945.556	1096.88
945.786	1133.88
946.016	1068.88
946.245	1022.88
946.475	1053.88
946.705	1044.88
946.935	1057.88
947.164	1085.88
947.394	1026.88
947.624	1042.88
947.853	1093.88
948.083	1074.88
948.312	1018.88
948.542	988.88
948.771	974.88
949	1002.88
949.23	1007.88
949.459	1025.88
949.688	1100.88
949.917	1017.88
950.146	1046.88
950.375	1088.88
950.604	984.88
950.833	1075.88
951.062	1064.88
951.291	1015.88
951.52	992.88
951.749	1017.88
951.978	980.88
952.206	1001.88
952.435	990.88
952.664	1050.88
952.892	1056.88
953.121	1029.88
953.349	1037.88
953.578	1049.88
953.806	1011.88
954.035	946.88
954.263	1011.88
954.491	954.88
954.719	1009.88
954.948	963.88
955.176	964.88
955.404	906.88
955.632	1001.88
955.86	994.88
956.088	1000.88
956.316	1006.88
956.544	1043.88
956.772	973.88
956.999	969.88
957.227	1040.88
957.455	948.88
957.683	979.88
957.91	956.88
958.138	938.88
958.365	959.88
958.593	932.88
958.82	911.88
959.048	960.88
959.275	972.88
959.502	945.88
959.73	947.88
959.957	991.88
960.184	1019.88
960.411	961.88
960.638	1040.88
960.865	992.88
961.092	995.88
961.319	886.88
961.546	991.88
961.773	983.88
962	937.88
962.227	1008.88
962.454	943.88
962.68	938.88
962.907	963.88
963.134	935.88
963.36	975.88
963.587	1014.88
963.813	925.88
964.04	973.88
964.266	916.88
964.493	987.88
964.719	966.88
964.945	999.88
965.171	899.88
965.398	925.88
965.624	956.88
965.85	883.88
966.076	908.88
966.302	948.88
966.528	906.88
966.754	964.88
966.98	947.88
967.206	946.88
967.431	887.88
967.657	964.88
967.883	965.88
968.109	934.88
968.334	869.88
968.56	884.88
968.785	885.88
969.011	881.88
969.236	907.88
969.462	872.88
969.687	907.88
969.912	947.88
970.138	954.88
970.363	894.88
970.588	919.88
970.813	892.88
971.038	876.88
971.263	912.88
971.488	929.88
971.713	972.88
971.938	927.88
972.163	830.88
972.388	898.88
972.613	874.88
972.838	897.88
973.062	891.88
973.287	860.88
973.512	810.88
973.736	872.88
973.961	874.88
974.185	874.88
974.41	890.88
974.634	807.88
974.858	836.88
975.083	857.88
975.307	903.88
975.531	828.88
975.755	822.88
975.98	839.88
976.204	777.88
976.428	781.88
976.652	787.88
976.876	773.88
977.1	821.88
977.324	789.88
977.547	862.88
977.771	840.88
977.995	833.88
978.219	760.88
978.442	887.88
978.666	817.88
978.89	815.88
979.113	826.88
979.337	813.88
979.56	780.88
979.783	878.88
980.007	767.88
980.23	836.88
980.453	774.88
980.677	824.88
980.9	823.88
981.123	732.88
981.346	839.88
981.569	809.88
981.792	849.88
982.015	791.88
982.238	785.88
982.461	813.88
982.684	785.88
982.907	765.88
983.129	747.88
983.352	793.88
983.575	787.88
983.797	802.88
984.02	776.88
984.242	766.88
984.465	776.88
984.687	816.88
984.91	837.88
985.132	800.88
985.354	821.88
985.577	821.88
985.799	815.88
986.021	729.88
986.243	761.88
986.465	771.88
986.687	826.88
986.909	882.88
987.131	799.88
987.353	785.88
987.575	807.88
987.797	761.88
988.019	734.88
988.241	779.88
988.462	761.88
988.684	814.88
988.906	845.88
989.127	862.88
989.349	750.88
989.57	765.88
989.792	835.88
990.013	852.88
990.234	831.88
990.456	870.88
990.677	837.88
990.898	799.88
991.119	799.88
991.341	832.88
991.562	757.88
991.783	814.88
992.004	756.88
992.225	734.88
992.446	795.88
992.667	729.88
992.887	826.88
993.108	726.88
993.329	849.88
993.55	798.88
993.77	743.88
993.991	770.88
994.212	776.88
994.432	766.88
994.653	804.88
994.873	808.88
995.093	695.88
995.314	740.88
995.534	822.88
995.754	830.88
995.975	855.88
996.195	759.88
996.415	799.88
996.635	788.88
996.855	818.88
997.075	759.88
997.295	779.88
997.515	747.88
997.735	814.88
997.955	778.88
998.174	773.88
998.394	746.88
998.614	817.88
998.834	774.88
999.053	836.88
999.273	796.88
999.492	869.88
999.712	798.88
999.931	783.88
1000.151	815.88
1000.37	800.88
1000.589	859.88
1000.809	787.88
1001.028	896.88
1001.247	865.88
1001.466	758.88
1001.685	913.88
1001.904	836.88
1002.123	830.88
1002.342	842.88
1002.561	820.88
1002.78	823.88
1002.999	916.88
1003.218	840.88
1003.436	827.88
1003.655	869.88
1003.874	836.88
1004.092	858.88
1004.311	900.88
1004.53	860.88
1004.748	935.88
1004.966	862.88
1005.185	911.88
1005.403	905.88
1005.622	898.88
1005.84	955.88
1006.058	862.88
1006.276	873.88
1006.494	1384.88
1006.712	878.88
1006.931	940.88
1007.149	847.88
1007.367	845.88
1007.584	880.88
1007.802	901.88
1008.02	864.88
1008.238	956.88
1008.456	938.88
1008.673	804.88
1008.891	902.88
1009.109	863.88
1009.326	876.88
1009.544	977.88
1009.761	861.88
1009.979	934.88
1010.196	929.88
1010.413	962.88
1010.631	1014.88
1010.848	997.88
1011.065	1009.88
1011.282	953.88
1011.5	895.88
1011.717	1026.88
1011.934	949.88
1012.151	1003.88
1012.368	1003.88
1012.585	937.88
1012.801	970.88
1013.018	937.88
1013.235	932.88
1013.452	941.88
1013.669	952.88
1013.885	910.88
1014.102	952.88
1014.318	891.88
1014.535	875.88
1014.751	918.88
1014.968	929.88
1015.184	958.88
1015.401	864.88
1015.617	909.88
1015.833	862.88
1016.049	877.88
1016.266	885.88
1016.482	897.88
1016.698	822.88
1016.914	870.88
1017.13	830.88
1017.346	841.88
1017.562	916.88
1017.778	830.88
1017.993	831.88
1018.209	873.88
1018.425	855.88
1018.641	812.88
1018.856	788.88
1019.072	815.88
1019.288	883.88
1019.503	823.88
1019.719	735.88
1019.934	781.88
1020.149	837.88
1020.365	799.88
1020.58	748.88
1020.795	822.88
1021.011	763.88
1021.226	735.88
1021.441	816.88
1021.656	721.88
1021.871	682.88
1022.086	697.88
1022.301	684.88
1022.516	687.88
1022.731	754.88
1022.946	662.88
1023.16	643.88
1023.375	641.88
1023.59	641.88
1023.804	610.88
1024.019	712.88
1024.234	585.88
1024.448	634.88
1024.663	583.88
1024.877	597.88
1025.092	629.88
1025.306	631.88
1025.52	557.88
1025.734	665.88
1025.949	580.88
1026.163	548.88
1026.377	502.88
1026.591	575.88
1026.805	515.88
1027.019	498.88
1027.233	479.88
1027.447	423.88
1027.661	530.88
1027.875	481.88
1028.088	495.88
1028.302	420.88
1028.516	438.88
1028.73	447.88
1028.943	440.88
1029.157	409.88
1029.37	390.88
1029.584	-3.12
1029.797	-0.12
1030.011	-3.12
1030.224	-3.12
