Data from QEP037381__153__10-28-52-735.txt Node

Date: Wed Dec 21 10:28:52 EST 2022
User: dcclab
Spectrometer: QEP03738
Trigger mode: 4
Integration Time (sec): 1.000000E1
Scans to average: 1
Electric dark correction enabled: true
Nonlinearity correction enabled: false
Boxcar width: 0
XAxis mode: Wavelengths
Number of Pixels in Spectrum: 1044
>>>>>Begin Spectral Data<<<<<
784.041	15.38
784.3	0.38
784.558	-0.62
784.817	-2.62
785.075	76154.38
785.334	12784.38
785.592	5959.38
785.851	4093.38
786.109	3094.38
786.368	2445.38
786.626	1997.38
786.884	1655.38
787.143	1417.38
787.401	1183.38
787.659	1085.38
787.917	924.38
788.175	892.38
788.433	787.38
788.691	717.38
788.949	656.38
789.207	621.38
789.465	538.38
789.723	530.38
789.98	486.38
790.238	537.38
790.496	496.38
790.753	469.38
791.011	529.38
791.268	453.38
791.526	439.38
791.783	469.38
792.041	459.38
792.298	367.38
792.556	423.38
792.813	412.38
793.07	398.38
793.327	381.38
793.584	451.38
793.841	378.38
794.099	393.38
794.356	473.38
794.613	367.38
794.869	397.38
795.126	376.38
795.383	358.38
795.64	374.38
795.897	328.38
796.153	382.38
796.41	365.38
796.667	343.38
796.923	347.38
797.18	347.38
797.436	381.38
797.693	335.38
797.949	392.38
798.206	418.38
798.462	328.38
798.718	378.38
798.974	354.38
799.231	392.38
799.487	392.38
799.743	383.38
799.999	397.38
800.255	378.38
800.511	370.38
800.767	383.38
801.023	370.38
801.279	380.38
801.534	384.38
801.79	408.38
802.046	390.38
802.302	459.38
802.557	439.38
802.813	490.38
803.068	479.38
803.324	593.38
803.579	665.38
803.835	809.38
804.09	1034.38
804.345	1237.38
804.601	1494.38
804.856	1786.38
805.111	2013.38
805.366	2143.38
805.621	2256.38
805.876	2316.38
806.131	2379.38
806.386	2381.38
806.641	2368.38
806.896	2413.38
807.151	2574.38
807.406	2527.38
807.661	2561.38
807.915	2577.38
808.17	2644.38
808.425	2658.38
808.679	2615.38
808.934	2747.38
809.188	2699.38
809.443	2790.38
809.697	2833.38
809.951	2816.38
810.206	2819.38
810.46	2860.38
810.714	2875.38
810.968	2956.38
811.223	2862.38
811.477	2970.38
811.731	2940.38
811.985	2918.38
812.239	2892.38
812.493	2987.38
812.747	3021.38
813	2955.38
813.254	3014.38
813.508	3088.38
813.762	3013.38
814.015	3043.38
814.269	3068.38
814.522	3128.38
814.776	3175.38
815.03	3177.38
815.283	3192.38
815.536	3286.38
815.79	3328.38
816.043	3366.38
816.296	3380.38
816.55	3402.38
816.803	3420.38
817.056	3602.38
817.309	3566.38
817.562	3577.38
817.815	3636.38
818.068	3584.38
818.321	3651.38
818.574	3708.38
818.827	3777.38
819.079	3797.38
819.332	3968.38
819.585	3924.38
819.838	4007.38
820.09	4000.38
820.343	4080.38
820.595	3965.38
820.848	4126.38
821.1	4124.38
821.353	4130.38
821.605	4103.38
821.857	4154.38
822.11	4064.38
822.362	4081.38
822.614	4084.38
822.866	4085.38
823.118	4065.38
823.37	4203.38
823.622	4108.38
823.874	4162.38
824.126	4253.38
824.378	4166.38
824.63	4235.38
824.882	4208.38
825.134	4195.38
825.385	4179.38
825.637	4136.38
825.888	4104.38
826.14	4092.38
826.392	4095.38
826.643	4043.38
826.895	4091.38
827.146	4030.38
827.397	4012.38
827.649	4059.38
827.9	4013.38
828.151	3975.38
828.402	3981.38
828.653	4025.38
828.905	4059.38
829.156	4121.38
829.407	4007.38
829.658	4056.38
829.909	4085.38
830.159	4119.38
830.41	4074.38
830.661	4068.38
830.912	4039.38
831.162	4004.38
831.413	3987.38
831.664	4008.38
831.914	4019.38
832.165	4018.38
832.415	4048.38
832.666	4037.38
832.916	4054.38
833.167	3989.38
833.417	4080.38
833.667	4063.38
833.917	4007.38
834.168	4077.38
834.418	4039.38
834.668	4048.38
834.918	3999.38
835.168	4050.38
835.418	3969.38
835.668	3969.38
835.918	3983.38
836.167	3955.38
836.417	3882.38
836.667	3922.38
836.917	3978.38
837.166	3919.38
837.416	3958.38
837.666	3903.38
837.915	3854.38
838.165	3884.38
838.414	3799.38
838.663	3787.38
838.913	3857.38
839.162	3818.38
839.411	3858.38
839.661	3807.38
839.91	3830.38
840.159	3858.38
840.408	3805.38
840.657	3845.38
840.906	3839.38
841.155	3913.38
841.404	3842.38
841.653	3820.38
841.902	3805.38
842.15	3806.38
842.399	3863.38
842.648	3808.38
842.897	3821.38
843.145	3738.38
843.394	3721.38
843.642	3713.38
843.891	3754.38
844.139	3734.38
844.388	3685.38
844.636	3600.38
844.884	3714.38
845.133	3669.38
845.381	3659.38
845.629	3719.38
845.877	3633.38
846.125	3651.38
846.373	3696.38
846.621	3636.38
846.869	3684.38
847.117	3639.38
847.365	3627.38
847.613	3633.38
847.861	3628.38
848.108	3686.38
848.356	3593.38
848.604	3565.38
848.851	3604.38
849.099	3645.38
849.346	3653.38
849.594	3673.38
849.841	3693.38
850.089	3662.38
850.336	3653.38
850.583	3686.38
850.831	3686.38
851.078	3694.38
851.325	3789.38
851.572	3937.38
851.819	3825.38
852.066	3617.38
852.313	3519.38
852.56	3443.38
852.807	3392.38
853.054	3433.38
853.301	3498.38
853.548	3503.38
853.794	3628.38
854.041	3565.38
854.288	3546.38
854.534	3684.38
854.781	3562.38
855.028	3510.38
855.274	3571.38
855.52	3525.38
855.767	3453.38
856.013	3522.38
856.26	3766.38
856.506	3411.38
856.752	3476.38
856.998	3398.38
857.244	3394.38
857.49	3444.38
857.736	3470.38
857.982	3511.38
858.228	3437.38
858.474	3411.38
858.72	3411.38
858.966	3404.38
859.212	3352.38
859.458	3302.38
859.703	3334.38
859.949	3232.38
860.195	3274.38
860.44	3251.38
860.686	3188.38
860.931	3269.38
861.177	3206.38
861.422	3248.38
861.667	3171.38
861.913	3189.38
862.158	3197.38
862.403	3260.38
862.648	3247.38
862.893	3281.38
863.138	3223.38
863.384	3203.38
863.629	3275.38
863.873	3226.38
864.118	3176.38
864.363	3151.38
864.608	3227.38
864.853	3247.38
865.098	3203.38
865.342	3185.38
865.587	3155.38
865.832	3173.38
866.076	3184.38
866.321	3124.38
866.565	3127.38
866.81	3089.38
867.054	3113.38
867.298	3092.38
867.543	3056.38
867.787	3103.38
868.031	3106.38
868.275	3090.38
868.519	3055.38
868.764	3041.38
869.008	3080.38
869.252	3108.38
869.496	3042.38
869.739	3080.38
869.983	3097.38
870.227	3105.38
870.471	3059.38
870.715	3125.38
870.958	3076.38
871.202	3067.38
871.446	3067.38
871.689	3023.38
871.933	3023.38
872.176	3037.38
872.42	3034.38
872.663	3042.38
872.906	3085.38
873.15	3049.38
873.393	2966.38
873.636	3052.38
873.879	3039.38
874.122	3010.38
874.366	2951.38
874.609	2953.38
874.852	2893.38
875.095	2893.38
875.337	2903.38
875.58	2832.38
875.823	2850.38
876.066	2899.38
876.309	2965.38
876.551	2811.38
876.794	2770.38
877.037	2891.38
877.279	2798.38
877.522	2819.38
877.764	2861.38
878.007	2792.38
878.249	2906.38
878.491	2883.38
878.734	2826.38
878.976	2798.38
879.218	2751.38
879.46	2795.38
879.702	2793.38
879.945	2764.38
880.187	2677.38
880.429	2691.38
880.671	2687.38
880.912	2688.38
881.154	2678.38
881.396	2599.38
881.638	2655.38
881.88	2650.38
882.121	2606.38
882.363	2609.38
882.605	2668.38
882.846	2642.38
883.088	2663.38
883.329	2610.38
883.571	2589.38
883.812	2623.38
884.053	2712.38
884.295	2773.38
884.536	2878.38
884.777	2823.38
885.018	2791.38
885.259	2821.38
885.5	2731.38
885.742	3013.38
885.982	2780.38
886.223	2708.38
886.464	2643.38
886.705	2633.38
886.946	2595.38
887.187	2525.38
887.428	2585.38
887.668	2485.38
887.909	2455.38
888.15	2429.38
888.39	2451.38
888.631	2506.38
888.871	2456.38
889.111	2410.38
889.352	2410.38
889.592	2363.38
889.833	2356.38
890.073	2349.38
890.313	2413.38
890.553	2275.38
890.793	2313.38
891.033	2292.38
891.273	2273.38
891.513	2324.38
891.753	2334.38
891.993	2273.38
892.233	2313.38
892.473	2385.38
892.713	2319.38
892.952	2296.38
893.192	2311.38
893.432	2281.38
893.671	2387.38
893.911	2340.38
894.15	2312.38
894.39	2242.38
894.629	2251.38
894.869	2256.38
895.108	2279.38
895.347	2212.38
895.587	2228.38
895.826	2232.38
896.065	2205.38
896.304	2276.38
896.543	2273.38
896.782	2160.38
897.021	2239.38
897.26	2220.38
897.499	2294.38
897.738	2301.38
897.977	2247.38
898.216	2163.38
898.454	2161.38
898.693	2122.38
898.932	2182.38
899.17	2125.38
899.409	2113.38
899.647	2160.38
899.886	2079.38
900.124	2134.38
900.363	2096.38
900.601	2119.38
900.839	2149.38
901.078	2134.38
901.316	2129.38
901.554	2138.38
901.792	2159.38
902.03	2118.38
902.268	2174.38
902.506	2198.38
902.744	2124.38
902.982	2176.38
903.22	2077.38
903.458	2085.38
903.695	2055.38
903.933	2052.38
904.171	2011.38
904.409	1964.38
904.646	2008.38
904.884	1905.38
905.121	1973.38
905.359	1926.38
905.596	1903.38
905.833	1846.38
906.071	1854.38
906.308	1932.38
906.545	1893.38
906.783	1785.38
907.02	1862.38
907.257	1816.38
907.494	1840.38
907.731	1864.38
907.968	1859.38
908.205	1829.38
908.442	1806.38
908.679	1843.38
908.915	1800.38
909.152	1817.38
909.389	1758.38
909.626	1742.38
909.862	1743.38
910.099	1767.38
910.335	1787.38
910.572	1684.38
910.808	1746.38
911.045	1714.38
911.281	1699.38
911.518	1771.38
911.754	1701.38
911.99	1740.38
912.226	1706.38
912.463	1644.38
912.699	1643.38
912.935	1652.38
913.171	1658.38
913.407	1592.38
913.643	1691.38
913.879	1656.38
914.114	1610.38
914.35	1604.38
914.586	1593.38
914.822	1571.38
915.057	1637.38
915.293	1528.38
915.529	1525.38
915.764	1590.38
916	1564.38
916.235	1534.38
916.471	1577.38
916.706	1503.38
916.941	1511.38
917.177	1530.38
917.412	1565.38
917.647	1552.38
917.882	1514.38
918.117	1556.38
918.352	1541.38
918.588	1585.38
918.823	1494.38
919.057	1534.38
919.292	1431.38
919.527	1540.38
919.762	1491.38
919.997	1521.38
920.232	1454.38
920.466	1490.38
920.701	1407.38
920.935	1435.38
921.17	1424.38
921.405	1388.38
921.639	1440.38
921.873	1414.38
922.108	1422.38
922.342	1446.38
922.576	1359.38
922.811	1388.38
923.045	1432.38
923.279	1436.38
923.513	1341.38
923.747	1421.38
923.981	1414.38
924.215	1364.38
924.449	1347.38
924.683	1336.38
924.917	1337.38
925.151	1321.38
925.385	1410.38
925.618	1342.38
925.852	1358.38
926.086	1287.38
926.319	1360.38
926.553	1322.38
926.786	1337.38
927.02	1329.38
927.253	1367.38
927.486	1395.38
927.72	1295.38
927.953	1359.38
928.186	1308.38
928.42	1315.38
928.653	1287.38
928.886	1299.38
929.119	1334.38
929.352	1325.38
929.585	1302.38
929.818	1286.38
930.051	1297.38
930.284	1304.38
930.516	1238.38
930.749	1229.38
930.982	1287.38
931.215	1277.38
931.447	1221.38
931.68	1245.38
931.912	1238.38
932.145	1222.38
932.377	1271.38
932.61	1364.38
932.842	1207.38
933.074	1263.38
933.307	1214.38
933.539	1330.38
933.771	1307.38
934.003	1247.38
934.236	1348.38
934.468	1378.38
934.7	1317.38
934.932	1325.38
935.164	1260.38
935.395	1260.38
935.627	1251.38
935.859	1271.38
936.091	1200.38
936.323	1254.38
936.554	1281.38
936.786	1208.38
937.017	1181.38
937.249	1213.38
937.481	1157.38
937.712	1247.38
937.943	1214.38
938.175	1210.38
938.406	1227.38
938.637	1281.38
938.869	1172.38
939.1	1201.38
939.331	1189.38
939.562	1233.38
939.793	1199.38
940.024	1257.38
940.255	1229.38
940.486	1185.38
940.717	1189.38
940.948	1204.38
941.179	1130.38
941.409	1166.38
941.64	1162.38
941.871	1179.38
942.102	1167.38
942.332	1156.38
942.563	1215.38
942.793	1175.38
943.024	1134.38
943.254	1186.38
943.484	1211.38
943.715	1221.38
943.945	1179.38
944.175	1113.38
944.405	1116.38
944.636	1140.38
944.866	1176.38
945.096	1182.38
945.326	1113.38
945.556	1178.38
945.786	1200.38
946.016	1136.38
946.245	1124.38
946.475	1132.38
946.705	1125.38
946.935	1145.38
947.164	1143.38
947.394	1108.38
947.624	1120.38
947.853	1163.38
948.083	1138.38
948.312	1092.38
948.542	1082.38
948.771	1045.38
949	1069.38
949.23	1087.38
949.459	1118.38
949.688	1146.38
949.917	1107.38
950.146	1119.38
950.375	1179.38
950.604	1077.38
950.833	1138.38
951.062	1133.38
951.291	1113.38
951.52	1079.38
951.749	1113.38
951.978	1062.38
952.206	1081.38
952.435	1057.38
952.664	1116.38
952.892	1120.38
953.121	1109.38
953.349	1130.38
953.578	1116.38
953.806	1071.38
954.035	1072.38
954.263	1089.38
954.491	1057.38
954.719	1073.38
954.948	1032.38
955.176	1054.38
955.404	993.38
955.632	1071.38
955.86	1062.38
956.088	1046.38
956.316	1115.38
956.544	1097.38
956.772	1055.38
956.999	1044.38
957.227	1108.38
957.455	1040.38
957.683	1055.38
957.91	1014.38
958.138	1029.38
958.365	998.38
958.593	1010.38
958.82	951.38
959.048	1058.38
959.275	1037.38
959.502	1013.38
959.73	1005.38
959.957	1045.38
960.184	1093.38
960.411	1047.38
960.638	1111.38
960.865	1040.38
961.092	1058.38
961.319	957.38
961.546	1065.38
961.773	1069.38
962	1012.38
962.227	1065.38
962.454	1036.38
962.68	1016.38
962.907	1027.38
963.134	1000.38
963.36	1012.38
963.587	1072.38
963.813	992.38
964.04	1003.38
964.266	952.38
964.493	1063.38
964.719	1017.38
964.945	1065.38
965.171	948.38
965.398	1005.38
965.624	1022.38
965.85	980.38
966.076	979.38
966.302	1001.38
966.528	992.38
966.754	1032.38
966.98	1007.38
967.206	993.38
967.431	952.38
967.657	1012.38
967.883	1004.38
968.109	997.38
968.334	948.38
968.56	946.38
968.785	971.38
969.011	934.38
969.236	1002.38
969.462	946.38
969.687	959.38
969.912	1015.38
970.138	995.38
970.363	941.38
970.588	958.38
970.813	935.38
971.038	947.38
971.263	966.38
971.488	977.38
971.713	1012.38
971.938	995.38
972.163	906.38
972.388	921.38
972.613	932.38
972.838	953.38
973.062	931.38
973.287	932.38
973.512	849.38
973.736	931.38
973.961	924.38
974.185	915.38
974.41	947.38
974.634	845.38
974.858	892.38
975.083	937.38
975.307	958.38
975.531	875.38
975.755	851.38
975.98	865.38
976.204	818.38
976.428	829.38
976.652	849.38
976.876	835.38
977.1	857.38
977.324	839.38
977.547	886.38
977.771	912.38
977.995	883.38
978.219	816.38
978.442	915.38
978.666	879.38
978.89	876.38
979.113	873.38
979.337	857.38
979.56	827.38
979.783	927.38
980.007	808.38
980.23	857.38
980.453	829.38
980.677	865.38
980.9	868.38
981.123	757.38
981.346	879.38
981.569	873.38
981.792	876.38
982.015	852.38
982.238	813.38
982.461	861.38
982.684	810.38
982.907	817.38
983.129	797.38
983.352	865.38
983.575	831.38
983.797	843.38
984.02	781.38
984.242	819.38
984.465	810.38
984.687	850.38
984.91	879.38
985.132	860.38
985.354	865.38
985.577	854.38
985.799	841.38
986.021	768.38
986.243	808.38
986.465	822.38
986.687	874.38
986.909	890.38
987.131	856.38
987.353	816.38
987.575	846.38
987.797	813.38
988.019	758.38
988.241	829.38
988.462	794.38
988.684	855.38
988.906	874.38
989.127	914.38
989.349	780.38
989.57	828.38
989.792	870.38
990.013	876.38
990.234	864.38
990.456	900.38
990.677	888.38
990.898	821.38
991.119	825.38
991.341	877.38
991.562	798.38
991.783	852.38
992.004	787.38
992.225	768.38
992.446	848.38
992.667	749.38
992.887	857.38
993.108	759.38
993.329	877.38
993.55	845.38
993.77	775.38
993.991	801.38
994.212	820.38
994.432	802.38
994.653	827.38
994.873	837.38
995.093	722.38
995.314	769.38
995.534	841.38
995.754	871.38
995.975	878.38
996.195	769.38
996.415	843.38
996.635	821.38
996.855	829.38
997.075	811.38
997.295	792.38
997.515	813.38
997.735	851.38
997.955	820.38
998.174	799.38
998.394	783.38
998.614	833.38
998.834	800.38
999.053	853.38
999.273	822.38
999.492	884.38
999.712	837.38
999.931	776.38
1000.151	831.38
1000.37	835.38
1000.589	886.38
1000.809	798.38
1001.028	925.38
1001.247	867.38
1001.466	782.38
1001.685	927.38
1001.904	880.38
1002.123	874.38
1002.342	869.38
1002.561	814.38
1002.78	861.38
1002.999	935.38
1003.218	857.38
1003.436	870.38
1003.655	918.38
1003.874	829.38
1004.092	904.38
1004.311	922.38
1004.53	876.38
1004.748	943.38
1004.966	879.38
1005.185	927.38
1005.403	941.38
1005.622	908.38
1005.84	1001.38
1006.058	882.38
1006.276	914.38
1006.494	1423.38
1006.712	913.38
1006.931	970.38
1007.149	851.38
1007.367	879.38
1007.584	909.38
1007.802	931.38
1008.02	881.38
1008.238	977.38
1008.456	942.38
1008.673	830.38
1008.891	942.38
1009.109	866.38
1009.326	898.38
1009.544	991.38
1009.761	884.38
1009.979	962.38
1010.196	917.38
1010.413	996.38
1010.631	1050.38
1010.848	1049.38
1011.065	1040.38
1011.282	959.38
1011.5	924.38
1011.717	1047.38
1011.934	984.38
1012.151	1018.38
1012.368	987.38
1012.585	940.38
1012.801	1018.38
1013.018	966.38
1013.235	925.38
1013.452	926.38
1013.669	953.38
1013.885	927.38
1014.102	968.38
1014.318	924.38
1014.535	907.38
1014.751	936.38
1014.968	938.38
1015.184	971.38
1015.401	894.38
1015.617	945.38
1015.833	897.38
1016.049	896.38
1016.266	896.38
1016.482	908.38
1016.698	848.38
1016.914	881.38
1017.13	833.38
1017.346	857.38
1017.562	900.38
1017.778	840.38
1017.993	841.38
1018.209	887.38
1018.425	879.38
1018.641	825.38
1018.856	807.38
1019.072	851.38
1019.288	905.38
1019.503	812.38
1019.719	764.38
1019.934	776.38
1020.149	876.38
1020.365	811.38
1020.58	782.38
1020.795	838.38
1021.011	780.38
1021.226	770.38
1021.441	830.38
1021.656	720.38
1021.871	696.38
1022.086	695.38
1022.301	711.38
1022.516	699.38
1022.731	773.38
1022.946	682.38
1023.16	675.38
1023.375	653.38
1023.59	636.38
1023.804	628.38
1024.019	721.38
1024.234	610.38
1024.448	645.38
1024.663	581.38
1024.877	607.38
1025.092	641.38
1025.306	660.38
1025.52	557.38
1025.734	653.38
1025.949	602.38
1026.163	571.38
1026.377	519.38
1026.591	582.38
1026.805	511.38
1027.019	516.38
1027.233	491.38
1027.447	441.38
1027.661	547.38
1027.875	481.38
1028.088	516.38
1028.302	438.38
1028.516	430.38
1028.73	454.38
1028.943	447.38
1029.157	421.38
1029.37	393.38
1029.584	-3.62
1029.797	-4.62
1030.011	-1.62
1030.224	-2.62
