Data from QEP037381__101__10-20-12-733.txt Node

Date: Wed Dec 21 10:20:12 EST 2022
User: dcclab
Spectrometer: QEP03738
Trigger mode: 4
Integration Time (sec): 1.000000E1
Scans to average: 1
Electric dark correction enabled: true
Nonlinearity correction enabled: false
Boxcar width: 0
XAxis mode: Wavelengths
Number of Pixels in Spectrum: 1044
>>>>>Begin Spectral Data<<<<<
784.041	12.25
784.3	-1.75
784.558	0.25
784.817	-3.75
785.075	73190.25
785.334	12626.25
785.592	5900.25
785.851	4074.25
786.109	3099.25
786.368	2435.25
786.626	1930.25
786.884	1659.25
787.143	1368.25
787.401	1143.25
787.659	1036.25
787.917	898.25
788.175	842.25
788.433	741.25
788.691	682.25
788.949	644.25
789.207	613.25
789.465	543.25
789.723	513.25
789.98	476.25
790.238	501.25
790.496	511.25
790.753	484.25
791.011	526.25
791.268	464.25
791.526	455.25
791.783	469.25
792.041	455.25
792.298	358.25
792.556	432.25
792.813	416.25
793.07	409.25
793.327	392.25
793.584	475.25
793.841	382.25
794.099	403.25
794.356	476.25
794.613	358.25
794.869	414.25
795.126	373.25
795.383	358.25
795.64	387.25
795.897	330.25
796.153	396.25
796.41	375.25
796.667	352.25
796.923	361.25
797.18	350.25
797.436	387.25
797.693	356.25
797.949	386.25
798.206	428.25
798.462	337.25
798.718	396.25
798.974	371.25
799.231	395.25
799.487	375.25
799.743	383.25
799.999	401.25
800.255	403.25
800.511	363.25
800.767	393.25
801.023	376.25
801.279	384.25
801.534	393.25
801.79	420.25
802.046	394.25
802.302	444.25
802.557	457.25
802.813	515.25
803.068	513.25
803.324	649.25
803.579	750.25
803.835	894.25
804.09	1188.25
804.345	1419.25
804.601	1727.25
804.856	2095.25
805.111	2387.25
805.366	2584.25
805.621	2712.25
805.876	2801.25
806.131	2886.25
806.386	2863.25
806.641	2890.25
806.896	2942.25
807.151	3055.25
807.406	3033.25
807.661	3167.25
807.915	3137.25
808.17	3172.25
808.425	3193.25
808.679	3164.25
808.934	3304.25
809.188	3274.25
809.443	3328.25
809.697	3386.25
809.951	3351.25
810.206	3402.25
810.46	3471.25
810.714	3451.25
810.968	3514.25
811.223	3500.25
811.477	3541.25
811.731	3550.25
811.985	3514.25
812.239	3492.25
812.493	3548.25
812.747	3634.25
813	3574.25
813.254	3647.25
813.508	3624.25
813.762	3637.25
814.015	3639.25
814.269	3730.25
814.522	3735.25
814.776	3794.25
815.03	3830.25
815.283	3888.25
815.536	3910.25
815.79	4010.25
816.043	4049.25
816.296	4098.25
816.55	4097.25
816.803	4174.25
817.056	4268.25
817.309	4235.25
817.562	4302.25
817.815	4401.25
818.068	4304.25
818.321	4350.25
818.574	4399.25
818.827	4547.25
819.079	4571.25
819.332	4686.25
819.585	4708.25
819.838	4791.25
820.09	4829.25
820.343	4862.25
820.595	4794.25
820.848	4829.25
821.1	4843.25
821.353	4851.25
821.605	4906.25
821.857	4854.25
822.11	4825.25
822.362	4817.25
822.614	4837.25
822.866	4875.25
823.118	4862.25
823.37	4947.25
823.622	4940.25
823.874	4928.25
824.126	5035.25
824.378	4936.25
824.63	5000.25
824.882	5033.25
825.134	4994.25
825.385	5028.25
825.637	4910.25
825.888	4911.25
826.14	4924.25
826.392	4837.25
826.643	4834.25
826.895	4811.25
827.146	4813.25
827.397	4802.25
827.649	4849.25
827.9	4799.25
828.151	4751.25
828.402	4782.25
828.653	4831.25
828.905	4843.25
829.156	4846.25
829.407	4836.25
829.658	4843.25
829.909	4837.25
830.159	4916.25
830.41	4848.25
830.661	4826.25
830.912	4789.25
831.162	4728.25
831.413	4710.25
831.664	4824.25
831.914	4775.25
832.165	4757.25
832.415	4762.25
832.666	4793.25
832.916	4853.25
833.167	4796.25
833.417	4829.25
833.667	4788.25
833.917	4786.25
834.168	4795.25
834.418	4781.25
834.668	4767.25
834.918	4712.25
835.168	4744.25
835.418	4644.25
835.668	4656.25
835.918	4728.25
836.167	4694.25
836.417	4657.25
836.667	4722.25
836.917	4708.25
837.166	4624.25
837.416	4653.25
837.666	4667.25
837.915	4617.25
838.165	4638.25
838.414	4551.25
838.663	4493.25
838.913	4522.25
839.162	4523.25
839.411	4598.25
839.661	4514.25
839.91	4560.25
840.159	4516.25
840.408	4565.25
840.657	4528.25
840.906	4581.25
841.155	4617.25
841.404	4560.25
841.653	4536.25
841.902	4484.25
842.15	4531.25
842.399	4545.25
842.648	4550.25
842.897	4545.25
843.145	4444.25
843.394	4393.25
843.642	4422.25
843.891	4489.25
844.139	4475.25
844.388	4410.25
844.636	4363.25
844.884	4354.25
845.133	4353.25
845.381	4403.25
845.629	4393.25
845.877	4358.25
846.125	4334.25
846.373	4399.25
846.621	4300.25
846.869	4329.25
847.117	4333.25
847.365	4301.25
847.613	4283.25
847.861	4272.25
848.108	4265.25
848.356	4277.25
848.604	4243.25
848.851	4297.25
849.099	4268.25
849.346	4279.25
849.594	4355.25
849.841	4378.25
850.089	4317.25
850.336	4346.25
850.583	4327.25
850.831	4361.25
851.078	4364.25
851.325	4414.25
851.572	4526.25
851.819	4429.25
852.066	4254.25
852.313	4153.25
852.56	4066.25
852.807	4022.25
853.054	4074.25
853.301	4131.25
853.548	4101.25
853.794	4258.25
854.041	4219.25
854.288	4193.25
854.534	4267.25
854.781	4225.25
855.028	4163.25
855.274	4252.25
855.52	4175.25
855.767	4113.25
856.013	4104.25
856.26	4404.25
856.506	4032.25
856.752	4120.25
856.998	4090.25
857.244	4022.25
857.49	4089.25
857.736	4111.25
857.982	4119.25
858.228	4102.25
858.474	4053.25
858.72	4034.25
858.966	4014.25
859.212	3943.25
859.458	3966.25
859.703	3921.25
859.949	3801.25
860.195	3832.25
860.44	3847.25
860.686	3810.25
860.931	3814.25
861.177	3768.25
861.422	3824.25
861.667	3767.25
861.913	3782.25
862.158	3796.25
862.403	3847.25
862.648	3865.25
862.893	3845.25
863.138	3860.25
863.384	3768.25
863.629	3816.25
863.873	3800.25
864.118	3812.25
864.363	3709.25
864.608	3796.25
864.853	3784.25
865.098	3781.25
865.342	3739.25
865.587	3699.25
865.832	3734.25
866.076	3681.25
866.321	3678.25
866.565	3679.25
866.81	3619.25
867.054	3666.25
867.298	3630.25
867.543	3624.25
867.787	3647.25
868.031	3630.25
868.275	3639.25
868.519	3600.25
868.764	3648.25
869.008	3599.25
869.252	3633.25
869.496	3587.25
869.739	3580.25
869.983	3642.25
870.227	3607.25
870.471	3603.25
870.715	3627.25
870.958	3613.25
871.202	3592.25
871.446	3638.25
871.689	3598.25
871.933	3677.25
872.176	3607.25
872.42	3615.25
872.663	3598.25
872.906	3653.25
873.15	3568.25
873.393	3498.25
873.636	3607.25
873.879	3607.25
874.122	3575.25
874.366	3486.25
874.609	3497.25
874.852	3453.25
875.095	3458.25
875.337	3407.25
875.58	3353.25
875.823	3382.25
876.066	3403.25
876.309	3450.25
876.551	3318.25
876.794	3314.25
877.037	3348.25
877.279	3283.25
877.522	3311.25
877.764	3313.25
878.007	3294.25
878.249	3324.25
878.491	3266.25
878.734	3347.25
878.976	3326.25
879.218	3245.25
879.46	3282.25
879.702	3256.25
879.945	3218.25
880.187	3147.25
880.429	3138.25
880.671	3175.25
880.912	3149.25
881.154	3162.25
881.396	3072.25
881.638	3136.25
881.88	3138.25
882.121	3096.25
882.363	3112.25
882.605	3175.25
882.846	3143.25
883.088	3146.25
883.329	3095.25
883.571	3054.25
883.812	3093.25
884.053	3151.25
884.295	3249.25
884.536	3371.25
884.777	3319.25
885.018	3273.25
885.259	3297.25
885.5	3195.25
885.742	3503.25
885.982	3251.25
886.223	3191.25
886.464	3119.25
886.705	3084.25
886.946	3099.25
887.187	2988.25
887.428	3058.25
887.668	2977.25
887.909	2946.25
888.15	2860.25
888.39	2902.25
888.631	2920.25
888.871	2906.25
889.111	2881.25
889.352	2845.25
889.592	2836.25
889.833	2795.25
890.073	2759.25
890.313	2821.25
890.553	2686.25
890.793	2713.25
891.033	2680.25
891.273	2686.25
891.513	2699.25
891.753	2765.25
891.993	2703.25
892.233	2713.25
892.473	2791.25
892.713	2667.25
892.952	2674.25
893.192	2717.25
893.432	2706.25
893.671	2766.25
893.911	2693.25
894.15	2717.25
894.39	2633.25
894.629	2626.25
894.869	2662.25
895.108	2625.25
895.347	2571.25
895.587	2631.25
895.826	2631.25
896.065	2586.25
896.304	2594.25
896.543	2628.25
896.782	2542.25
897.021	2602.25
897.26	2615.25
897.499	2652.25
897.738	2687.25
897.977	2584.25
898.216	2525.25
898.454	2533.25
898.693	2478.25
898.932	2495.25
899.17	2495.25
899.409	2506.25
899.647	2488.25
899.886	2449.25
900.124	2461.25
900.363	2468.25
900.601	2504.25
900.839	2470.25
901.078	2502.25
901.316	2492.25
901.554	2506.25
901.792	2518.25
902.03	2468.25
902.268	2489.25
902.506	2544.25
902.744	2494.25
902.982	2506.25
903.22	2454.25
903.458	2366.25
903.695	2423.25
903.933	2395.25
904.171	2328.25
904.409	2286.25
904.646	2307.25
904.884	2242.25
905.121	2263.25
905.359	2228.25
905.596	2229.25
905.833	2192.25
906.071	2148.25
906.308	2221.25
906.545	2166.25
906.783	2119.25
907.02	2140.25
907.257	2118.25
907.494	2149.25
907.731	2176.25
907.968	2156.25
908.205	2133.25
908.442	2107.25
908.679	2151.25
908.915	2109.25
909.152	2083.25
909.389	2032.25
909.626	2005.25
909.862	2008.25
910.099	2029.25
910.335	2066.25
910.572	1950.25
910.808	2004.25
911.045	1999.25
911.281	1988.25
911.518	2057.25
911.754	1975.25
911.99	1994.25
912.226	1990.25
912.463	1922.25
912.699	1941.25
912.935	1964.25
913.171	1901.25
913.407	1880.25
913.643	1950.25
913.879	1892.25
914.114	1874.25
914.35	1844.25
914.586	1840.25
914.822	1804.25
915.057	1905.25
915.293	1764.25
915.529	1752.25
915.764	1843.25
916	1823.25
916.235	1821.25
916.471	1827.25
916.706	1723.25
916.941	1755.25
917.177	1768.25
917.412	1775.25
917.647	1837.25
917.882	1761.25
918.117	1808.25
918.352	1794.25
918.588	1827.25
918.823	1774.25
919.057	1752.25
919.292	1681.25
919.527	1746.25
919.762	1713.25
919.997	1740.25
920.232	1707.25
920.466	1727.25
920.701	1611.25
920.935	1636.25
921.17	1614.25
921.405	1619.25
921.639	1676.25
921.873	1609.25
922.108	1648.25
922.342	1649.25
922.576	1593.25
922.811	1580.25
923.045	1663.25
923.279	1664.25
923.513	1530.25
923.747	1635.25
923.981	1613.25
924.215	1565.25
924.449	1578.25
924.683	1498.25
924.917	1542.25
925.151	1552.25
925.385	1640.25
925.618	1565.25
925.852	1578.25
926.086	1488.25
926.319	1543.25
926.553	1566.25
926.786	1579.25
927.02	1523.25
927.253	1578.25
927.486	1572.25
927.72	1485.25
927.953	1591.25
928.186	1547.25
928.42	1551.25
928.653	1483.25
928.886	1489.25
929.119	1534.25
929.352	1491.25
929.585	1513.25
929.818	1457.25
930.051	1480.25
930.284	1498.25
930.516	1418.25
930.749	1438.25
930.982	1466.25
931.215	1488.25
931.447	1393.25
931.68	1425.25
931.912	1401.25
932.145	1409.25
932.377	1408.25
932.61	1581.25
932.842	1354.25
933.074	1437.25
933.307	1403.25
933.539	1505.25
933.771	1503.25
934.003	1500.25
934.236	1599.25
934.468	1646.25
934.7	1600.25
934.932	1609.25
935.164	1570.25
935.395	1538.25
935.627	1488.25
935.859	1460.25
936.091	1390.25
936.323	1449.25
936.554	1448.25
936.786	1397.25
937.017	1365.25
937.249	1408.25
937.481	1342.25
937.712	1418.25
937.943	1356.25
938.175	1358.25
938.406	1357.25
938.637	1445.25
938.869	1323.25
939.1	1410.25
939.331	1359.25
939.562	1389.25
939.793	1388.25
940.024	1417.25
940.255	1413.25
940.486	1363.25
940.717	1353.25
940.948	1347.25
941.179	1302.25
941.409	1347.25
941.64	1342.25
941.871	1322.25
942.102	1335.25
942.332	1327.25
942.563	1361.25
942.793	1327.25
943.024	1293.25
943.254	1334.25
943.484	1368.25
943.715	1366.25
943.945	1349.25
944.175	1270.25
944.405	1295.25
944.636	1290.25
944.866	1327.25
945.096	1346.25
945.326	1271.25
945.556	1321.25
945.786	1359.25
946.016	1304.25
946.245	1240.25
946.475	1279.25
946.705	1279.25
946.935	1293.25
947.164	1324.25
947.394	1240.25
947.624	1277.25
947.853	1325.25
948.083	1270.25
948.312	1261.25
948.542	1198.25
948.771	1211.25
949	1215.25
949.23	1241.25
949.459	1250.25
949.688	1317.25
949.917	1258.25
950.146	1279.25
950.375	1312.25
950.604	1212.25
950.833	1310.25
951.062	1303.25
951.291	1251.25
951.52	1237.25
951.749	1275.25
951.978	1214.25
952.206	1217.25
952.435	1208.25
952.664	1266.25
952.892	1243.25
953.121	1238.25
953.349	1280.25
953.578	1244.25
953.806	1223.25
954.035	1175.25
954.263	1243.25
954.491	1186.25
954.719	1241.25
954.948	1196.25
955.176	1183.25
955.404	1133.25
955.632	1183.25
955.86	1201.25
956.088	1182.25
956.316	1227.25
956.544	1253.25
956.772	1199.25
956.999	1121.25
957.227	1264.25
957.455	1164.25
957.683	1187.25
957.91	1138.25
958.138	1140.25
958.365	1157.25
958.593	1119.25
958.82	1121.25
959.048	1165.25
959.275	1150.25
959.502	1124.25
959.73	1110.25
959.957	1184.25
960.184	1208.25
960.411	1177.25
960.638	1240.25
960.865	1150.25
961.092	1171.25
961.319	1061.25
961.546	1165.25
961.773	1165.25
962	1137.25
962.227	1209.25
962.454	1153.25
962.68	1117.25
962.907	1150.25
963.134	1090.25
963.36	1121.25
963.587	1172.25
963.813	1116.25
964.04	1133.25
964.266	1065.25
964.493	1180.25
964.719	1134.25
964.945	1150.25
965.171	1050.25
965.398	1111.25
965.624	1117.25
965.85	1079.25
966.076	1072.25
966.302	1108.25
966.528	1089.25
966.754	1119.25
966.98	1110.25
967.206	1114.25
967.431	1031.25
967.657	1142.25
967.883	1097.25
968.109	1112.25
968.334	1051.25
968.56	1023.25
968.785	1065.25
969.011	1042.25
969.236	1098.25
969.462	1050.25
969.687	1064.25
969.912	1108.25
970.138	1125.25
970.363	1050.25
970.588	1076.25
970.813	1052.25
971.038	1038.25
971.263	1072.25
971.488	1091.25
971.713	1129.25
971.938	1084.25
972.163	977.25
972.388	1015.25
972.613	1028.25
972.838	1029.25
973.062	1026.25
973.287	1033.25
973.512	955.25
973.736	1027.25
973.961	1005.25
974.185	1008.25
974.41	1038.25
974.634	967.25
974.858	952.25
975.083	1005.25
975.307	1052.25
975.531	966.25
975.755	939.25
975.98	948.25
976.204	912.25
976.428	913.25
976.652	939.25
976.876	914.25
977.1	943.25
977.324	921.25
977.547	981.25
977.771	995.25
977.995	964.25
978.219	902.25
978.442	1013.25
978.666	947.25
978.89	943.25
979.113	964.25
979.337	951.25
979.56	904.25
979.783	1004.25
980.007	893.25
980.23	955.25
980.453	905.25
980.677	956.25
980.9	954.25
981.123	850.25
981.346	950.25
981.569	953.25
981.792	958.25
982.015	922.25
982.238	883.25
982.461	921.25
982.684	889.25
982.907	872.25
983.129	865.25
983.352	935.25
983.575	919.25
983.797	931.25
984.02	904.25
984.242	895.25
984.465	900.25
984.687	933.25
984.91	959.25
985.132	918.25
985.354	950.25
985.577	923.25
985.799	924.25
986.021	837.25
986.243	863.25
986.465	886.25
986.687	909.25
986.909	993.25
987.131	915.25
987.353	880.25
987.575	933.25
987.797	879.25
988.019	839.25
988.241	885.25
988.462	835.25
988.684	911.25
988.906	954.25
989.127	971.25
989.349	849.25
989.57	892.25
989.792	933.25
990.013	949.25
990.234	938.25
990.456	980.25
990.677	945.25
990.898	909.25
991.119	870.25
991.341	922.25
991.562	878.25
991.783	910.25
992.004	844.25
992.225	826.25
992.446	904.25
992.667	833.25
992.887	929.25
993.108	804.25
993.329	946.25
993.55	898.25
993.77	839.25
993.991	842.25
994.212	894.25
994.432	881.25
994.653	904.25
994.873	904.25
995.093	797.25
995.314	840.25
995.534	888.25
995.754	923.25
995.975	927.25
996.195	817.25
996.415	889.25
996.635	869.25
996.855	887.25
997.075	858.25
997.295	872.25
997.515	842.25
997.735	891.25
997.955	872.25
998.174	853.25
998.394	827.25
998.614	887.25
998.834	845.25
999.053	909.25
999.273	879.25
999.492	920.25
999.712	880.25
999.931	868.25
1000.151	880.25
1000.37	887.25
1000.589	922.25
1000.809	876.25
1001.028	985.25
1001.247	932.25
1001.466	810.25
1001.685	978.25
1001.904	931.25
1002.123	911.25
1002.342	926.25
1002.561	884.25
1002.78	908.25
1002.999	961.25
1003.218	940.25
1003.436	912.25
1003.655	949.25
1003.874	901.25
1004.092	938.25
1004.311	965.25
1004.53	910.25
1004.748	995.25
1004.966	916.25
1005.185	971.25
1005.403	973.25
1005.622	936.25
1005.84	1019.25
1006.058	911.25
1006.276	951.25
1006.494	1455.25
1006.712	927.25
1006.931	995.25
1007.149	922.25
1007.367	924.25
1007.584	957.25
1007.802	982.25
1008.02	909.25
1008.238	1004.25
1008.456	984.25
1008.673	879.25
1008.891	985.25
1009.109	933.25
1009.326	958.25
1009.544	1053.25
1009.761	913.25
1009.979	1010.25
1010.196	1008.25
1010.413	1057.25
1010.631	1069.25
1010.848	1090.25
1011.065	1096.25
1011.282	1045.25
1011.5	981.25
1011.717	1100.25
1011.934	1039.25
1012.151	1073.25
1012.368	1055.25
1012.585	1002.25
1012.801	1060.25
1013.018	1019.25
1013.235	994.25
1013.452	1003.25
1013.669	997.25
1013.885	1004.25
1014.102	1019.25
1014.318	970.25
1014.535	958.25
1014.751	990.25
1014.968	993.25
1015.184	1018.25
1015.401	960.25
1015.617	994.25
1015.833	932.25
1016.049	949.25
1016.266	938.25
1016.482	951.25
1016.698	897.25
1016.914	957.25
1017.13	901.25
1017.346	886.25
1017.562	966.25
1017.778	918.25
1017.993	886.25
1018.209	940.25
1018.425	936.25
1018.641	878.25
1018.856	857.25
1019.072	909.25
1019.288	939.25
1019.503	887.25
1019.719	799.25
1019.934	821.25
1020.149	916.25
1020.365	847.25
1020.58	813.25
1020.795	872.25
1021.011	828.25
1021.226	823.25
1021.441	839.25
1021.656	780.25
1021.871	732.25
1022.086	744.25
1022.301	729.25
1022.516	744.25
1022.731	840.25
1022.946	720.25
1023.16	726.25
1023.375	689.25
1023.59	684.25
1023.804	660.25
1024.019	777.25
1024.234	646.25
1024.448	676.25
1024.663	603.25
1024.877	641.25
1025.092	655.25
1025.306	689.25
1025.52	582.25
1025.734	705.25
1025.949	627.25
1026.163	614.25
1026.377	536.25
1026.591	612.25
1026.805	522.25
1027.019	552.25
1027.233	517.25
1027.447	459.25
1027.661	565.25
1027.875	514.25
1028.088	528.25
1028.302	458.25
1028.516	473.25
1028.73	473.25
1028.943	463.25
1029.157	437.25
1029.37	411.25
1029.584	-2.75
1029.797	-1.75
1030.011	-1.75
1030.224	-0.75
