Data from QEP037381__98__10-19-42-731.txt Node

Date: Wed Dec 21 10:19:42 EST 2022
User: dcclab
Spectrometer: QEP03738
Trigger mode: 4
Integration Time (sec): 1.000000E1
Scans to average: 1
Electric dark correction enabled: true
Nonlinearity correction enabled: false
Boxcar width: 0
XAxis mode: Wavelengths
Number of Pixels in Spectrum: 1044
>>>>>Begin Spectral Data<<<<<
784.041	14.5
784.3	2.5
784.558	0.5
784.817	-6.5
785.075	76198.5
785.334	13079.5
785.592	6106.5
785.851	4238.5
786.109	3228.5
786.368	2546.5
786.626	2041.5
786.884	1703.5
787.143	1425.5
787.401	1195.5
787.659	1097.5
787.917	944.5
788.175	896.5
788.433	789.5
788.691	705.5
788.949	654.5
789.207	625.5
789.465	546.5
789.723	521.5
789.98	501.5
790.238	528.5
790.496	499.5
790.753	481.5
791.011	523.5
791.268	467.5
791.526	457.5
791.783	459.5
792.041	454.5
792.298	381.5
792.556	448.5
792.813	431.5
793.07	402.5
793.327	379.5
793.584	473.5
793.841	386.5
794.099	409.5
794.356	468.5
794.613	377.5
794.869	408.5
795.126	380.5
795.383	372.5
795.64	378.5
795.897	331.5
796.153	373.5
796.41	367.5
796.667	356.5
796.923	364.5
797.18	381.5
797.436	390.5
797.693	349.5
797.949	396.5
798.206	416.5
798.462	334.5
798.718	389.5
798.974	372.5
799.231	394.5
799.487	373.5
799.743	382.5
799.999	427.5
800.255	407.5
800.511	376.5
800.767	406.5
801.023	373.5
801.279	401.5
801.534	407.5
801.79	415.5
802.046	408.5
802.302	481.5
802.557	477.5
802.813	527.5
803.068	532.5
803.324	686.5
803.579	791.5
803.835	959.5
804.09	1298.5
804.345	1531.5
804.601	1899.5
804.856	2240.5
805.111	2596.5
805.366	2802.5
805.621	2977.5
805.876	3035.5
806.131	3117.5
806.386	3131.5
806.641	3140.5
806.896	3253.5
807.151	3369.5
807.406	3342.5
807.661	3385.5
807.915	3459.5
808.17	3503.5
808.425	3533.5
808.679	3511.5
808.934	3613.5
809.188	3573.5
809.443	3633.5
809.697	3717.5
809.951	3727.5
810.206	3741.5
810.46	3798.5
810.714	3832.5
810.968	3848.5
811.223	3807.5
811.477	3868.5
811.731	3921.5
811.985	3871.5
812.239	3831.5
812.493	3945.5
812.747	3963.5
813	3960.5
813.254	3995.5
813.508	4064.5
813.762	4031.5
814.015	4031.5
814.269	4107.5
814.522	4152.5
814.776	4201.5
815.03	4228.5
815.283	4269.5
815.536	4311.5
815.79	4417.5
816.043	4487.5
816.296	4442.5
816.55	4523.5
816.803	4570.5
817.056	4661.5
817.309	4702.5
817.562	4696.5
817.815	4765.5
818.068	4772.5
818.321	4808.5
818.574	4842.5
818.827	5010.5
819.079	5000.5
819.332	5185.5
819.585	5152.5
819.838	5324.5
820.09	5214.5
820.343	5346.5
820.595	5265.5
820.848	5370.5
821.1	5415.5
821.353	5384.5
821.605	5389.5
821.857	5412.5
822.11	5316.5
822.362	5335.5
822.614	5318.5
822.866	5367.5
823.118	5378.5
823.37	5504.5
823.622	5413.5
823.874	5446.5
824.126	5511.5
824.378	5455.5
824.63	5565.5
824.882	5544.5
825.134	5512.5
825.385	5529.5
825.637	5461.5
825.888	5409.5
826.14	5420.5
826.392	5365.5
826.643	5291.5
826.895	5416.5
827.146	5315.5
827.397	5298.5
827.649	5404.5
827.9	5297.5
828.151	5261.5
828.402	5289.5
828.653	5321.5
828.905	5362.5
829.156	5367.5
829.407	5313.5
829.658	5360.5
829.909	5410.5
830.159	5418.5
830.41	5330.5
830.661	5315.5
830.912	5279.5
831.162	5229.5
831.413	5264.5
831.664	5303.5
831.914	5265.5
832.165	5284.5
832.415	5300.5
832.666	5300.5
832.916	5300.5
833.167	5248.5
833.417	5281.5
833.667	5309.5
833.917	5227.5
834.168	5317.5
834.418	5281.5
834.668	5237.5
834.918	5271.5
835.168	5234.5
835.418	5113.5
835.668	5242.5
835.918	5177.5
836.167	5189.5
836.417	5131.5
836.667	5190.5
836.917	5197.5
837.166	5105.5
837.416	5144.5
837.666	5167.5
837.915	5060.5
838.165	5141.5
838.414	5067.5
838.663	4978.5
838.913	5050.5
839.162	4968.5
839.411	5072.5
839.661	4978.5
839.91	5015.5
840.159	5014.5
840.408	5033.5
840.657	5000.5
840.906	5036.5
841.155	5052.5
841.404	4946.5
841.653	5032.5
841.902	4969.5
842.15	5006.5
842.399	4996.5
842.648	4946.5
842.897	4966.5
843.145	4901.5
843.394	4919.5
843.642	4901.5
843.891	4929.5
844.139	4878.5
844.388	4864.5
844.636	4794.5
844.884	4834.5
845.133	4754.5
845.381	4810.5
845.629	4863.5
845.877	4751.5
846.125	4794.5
846.373	4801.5
846.621	4746.5
846.869	4787.5
847.117	4775.5
847.365	4709.5
847.613	4746.5
847.861	4715.5
848.108	4737.5
848.356	4693.5
848.604	4670.5
848.851	4726.5
849.099	4748.5
849.346	4743.5
849.594	4765.5
849.841	4745.5
850.089	4751.5
850.336	4738.5
850.583	4769.5
850.831	4764.5
851.078	4802.5
851.325	4855.5
851.572	4969.5
851.819	4909.5
852.066	4724.5
852.313	4533.5
852.56	4476.5
852.807	4486.5
853.054	4489.5
853.301	4535.5
853.548	4545.5
853.794	4652.5
854.041	4630.5
854.288	4587.5
854.534	4691.5
854.781	4630.5
855.028	4601.5
855.274	4611.5
855.52	4544.5
855.767	4490.5
856.013	4559.5
856.26	4829.5
856.506	4470.5
856.752	4462.5
856.998	4454.5
857.244	4466.5
857.49	4520.5
857.736	4487.5
857.982	4514.5
858.228	4494.5
858.474	4442.5
858.72	4470.5
858.966	4411.5
859.212	4383.5
859.458	4308.5
859.703	4298.5
859.949	4210.5
860.195	4200.5
860.44	4220.5
860.686	4162.5
860.931	4199.5
861.177	4108.5
861.422	4188.5
861.667	4094.5
861.913	4145.5
862.158	4188.5
862.403	4191.5
862.648	4189.5
862.893	4256.5
863.138	4196.5
863.384	4157.5
863.629	4198.5
863.873	4194.5
864.118	4148.5
864.363	4097.5
864.608	4165.5
864.853	4176.5
865.098	4081.5
865.342	4102.5
865.587	4071.5
865.832	4132.5
866.076	4035.5
866.321	4046.5
866.565	4040.5
866.81	3932.5
867.054	3989.5
867.298	4054.5
867.543	3953.5
867.787	4022.5
868.031	3977.5
868.275	3969.5
868.519	3954.5
868.764	3965.5
869.008	3956.5
869.252	4022.5
869.496	3905.5
869.739	3955.5
869.983	4020.5
870.227	3960.5
870.471	3865.5
870.715	3943.5
870.958	3961.5
871.202	3910.5
871.446	4004.5
871.689	3889.5
871.933	3940.5
872.176	3950.5
872.42	3928.5
872.663	3948.5
872.906	3954.5
873.15	3891.5
873.393	3843.5
873.636	3875.5
873.879	3907.5
874.122	3840.5
874.366	3775.5
874.609	3778.5
874.852	3742.5
875.095	3765.5
875.337	3705.5
875.58	3640.5
875.823	3685.5
876.066	3716.5
876.309	3743.5
876.551	3605.5
876.794	3642.5
877.037	3688.5
877.279	3611.5
877.522	3582.5
877.764	3656.5
878.007	3568.5
878.249	3643.5
878.491	3571.5
878.734	3608.5
878.976	3602.5
879.218	3532.5
879.46	3630.5
879.702	3549.5
879.945	3486.5
880.187	3435.5
880.429	3461.5
880.671	3451.5
880.912	3427.5
881.154	3447.5
881.396	3347.5
881.638	3392.5
881.88	3408.5
882.121	3363.5
882.363	3415.5
882.605	3453.5
882.846	3424.5
883.088	3412.5
883.329	3352.5
883.571	3305.5
883.812	3376.5
884.053	3432.5
884.295	3486.5
884.536	3643.5
884.777	3566.5
885.018	3560.5
885.259	3573.5
885.5	3475.5
885.742	3752.5
885.982	3479.5
886.223	3440.5
886.464	3425.5
886.705	3326.5
886.946	3385.5
887.187	3246.5
887.428	3288.5
887.668	3222.5
887.909	3168.5
888.15	3130.5
888.39	3150.5
888.631	3192.5
888.871	3154.5
889.111	3092.5
889.352	3091.5
889.592	3026.5
889.833	3052.5
890.073	3012.5
890.313	3065.5
890.553	2966.5
890.793	2957.5
891.033	2962.5
891.273	2925.5
891.513	2967.5
891.753	2987.5
891.993	2937.5
892.233	2966.5
892.473	3014.5
892.713	2973.5
892.952	2932.5
893.192	2947.5
893.432	2940.5
893.671	3004.5
893.911	2970.5
894.15	2976.5
894.39	2862.5
894.629	2881.5
894.869	2891.5
895.108	2858.5
895.347	2836.5
895.587	2831.5
895.826	2829.5
896.065	2827.5
896.304	2846.5
896.543	2888.5
896.782	2752.5
897.021	2834.5
897.26	2834.5
897.499	2883.5
897.738	2861.5
897.977	2781.5
898.216	2730.5
898.454	2733.5
898.693	2704.5
898.932	2711.5
899.17	2702.5
899.409	2694.5
899.647	2661.5
899.886	2661.5
900.124	2715.5
900.363	2661.5
900.601	2705.5
900.839	2684.5
901.078	2682.5
901.316	2707.5
901.554	2723.5
901.792	2723.5
902.03	2673.5
902.268	2711.5
902.506	2775.5
902.744	2677.5
902.982	2711.5
903.22	2616.5
903.458	2622.5
903.695	2623.5
903.933	2604.5
904.171	2521.5
904.409	2503.5
904.646	2540.5
904.884	2453.5
905.121	2485.5
905.359	2441.5
905.596	2411.5
905.833	2357.5
906.071	2331.5
906.308	2382.5
906.545	2357.5
906.783	2319.5
907.02	2378.5
907.257	2309.5
907.494	2347.5
907.731	2353.5
907.968	2344.5
908.205	2287.5
908.442	2228.5
908.679	2321.5
908.915	2271.5
909.152	2269.5
909.389	2205.5
909.626	2213.5
909.862	2175.5
910.099	2178.5
910.335	2250.5
910.572	2151.5
910.808	2200.5
911.045	2196.5
911.281	2143.5
911.518	2194.5
911.754	2189.5
911.99	2129.5
912.226	2118.5
912.463	2077.5
912.699	2095.5
912.935	2098.5
913.171	2078.5
913.407	2044.5
913.643	2087.5
913.879	2089.5
914.114	2004.5
914.35	2001.5
914.586	2001.5
914.822	1959.5
915.057	2026.5
915.293	1930.5
915.529	1916.5
915.764	1997.5
916	1984.5
916.235	1965.5
916.471	1969.5
916.706	1873.5
916.941	1915.5
917.177	1898.5
917.412	1963.5
917.647	1939.5
917.882	1920.5
918.117	1962.5
918.352	1917.5
918.588	1964.5
918.823	1878.5
919.057	1869.5
919.292	1800.5
919.527	1916.5
919.762	1837.5
919.997	1893.5
920.232	1809.5
920.466	1888.5
920.701	1729.5
920.935	1809.5
921.17	1771.5
921.405	1738.5
921.639	1808.5
921.873	1735.5
922.108	1764.5
922.342	1774.5
922.576	1702.5
922.811	1703.5
923.045	1728.5
923.279	1789.5
923.513	1687.5
923.747	1749.5
923.981	1710.5
924.215	1697.5
924.449	1690.5
924.683	1627.5
924.917	1656.5
925.151	1635.5
925.385	1730.5
925.618	1683.5
925.852	1667.5
926.086	1606.5
926.319	1637.5
926.553	1638.5
926.786	1661.5
927.02	1646.5
927.253	1707.5
927.486	1675.5
927.72	1609.5
927.953	1664.5
928.186	1631.5
928.42	1674.5
928.653	1628.5
928.886	1613.5
929.119	1634.5
929.352	1624.5
929.585	1625.5
929.818	1589.5
930.051	1598.5
930.284	1598.5
930.516	1535.5
930.749	1513.5
930.982	1589.5
931.215	1578.5
931.447	1505.5
931.68	1519.5
931.912	1490.5
932.145	1499.5
932.377	1525.5
932.61	1634.5
932.842	1435.5
933.074	1553.5
933.307	1461.5
933.539	1585.5
933.771	1555.5
934.003	1500.5
934.236	1591.5
934.468	1606.5
934.7	1522.5
934.932	1546.5
935.164	1498.5
935.395	1488.5
935.627	1510.5
935.859	1525.5
936.091	1475.5
936.323	1531.5
936.554	1532.5
936.786	1514.5
937.017	1443.5
937.249	1521.5
937.481	1448.5
937.712	1516.5
937.943	1466.5
938.175	1479.5
938.406	1461.5
938.637	1501.5
938.869	1432.5
939.1	1513.5
939.331	1449.5
939.562	1483.5
939.793	1478.5
940.024	1487.5
940.255	1520.5
940.486	1440.5
940.717	1452.5
940.948	1432.5
941.179	1390.5
941.409	1449.5
941.64	1419.5
941.871	1422.5
942.102	1416.5
942.332	1412.5
942.563	1484.5
942.793	1427.5
943.024	1378.5
943.254	1420.5
943.484	1470.5
943.715	1449.5
943.945	1443.5
944.175	1415.5
944.405	1346.5
944.636	1358.5
944.866	1400.5
945.096	1447.5
945.326	1357.5
945.556	1418.5
945.786	1461.5
946.016	1368.5
946.245	1359.5
946.475	1344.5
946.705	1364.5
946.935	1376.5
947.164	1371.5
947.394	1315.5
947.624	1351.5
947.853	1411.5
948.083	1363.5
948.312	1346.5
948.542	1294.5
948.771	1279.5
949	1302.5
949.23	1322.5
949.459	1317.5
949.688	1357.5
949.917	1339.5
950.146	1360.5
950.375	1392.5
950.604	1297.5
950.833	1381.5
951.062	1380.5
951.291	1326.5
951.52	1286.5
951.749	1318.5
951.978	1294.5
952.206	1300.5
952.435	1282.5
952.664	1324.5
952.892	1354.5
953.121	1299.5
953.349	1331.5
953.578	1330.5
953.806	1281.5
954.035	1255.5
954.263	1319.5
954.491	1266.5
954.719	1341.5
954.948	1278.5
955.176	1257.5
955.404	1210.5
955.632	1280.5
955.86	1303.5
956.088	1261.5
956.316	1288.5
956.544	1288.5
956.772	1248.5
956.999	1247.5
957.227	1319.5
957.455	1222.5
957.683	1264.5
957.91	1215.5
958.138	1212.5
958.365	1213.5
958.593	1228.5
958.82	1165.5
959.048	1262.5
959.275	1219.5
959.502	1216.5
959.73	1188.5
959.957	1253.5
960.184	1293.5
960.411	1225.5
960.638	1296.5
960.865	1209.5
961.092	1244.5
961.319	1154.5
961.546	1235.5
961.773	1245.5
962	1202.5
962.227	1275.5
962.454	1186.5
962.68	1204.5
962.907	1210.5
963.134	1161.5
963.36	1199.5
963.587	1243.5
963.813	1147.5
964.04	1230.5
964.266	1122.5
964.493	1228.5
964.719	1208.5
964.945	1211.5
965.171	1122.5
965.398	1172.5
965.624	1174.5
965.85	1147.5
966.076	1150.5
966.302	1146.5
966.528	1133.5
966.754	1171.5
966.98	1169.5
967.206	1155.5
967.431	1096.5
967.657	1196.5
967.883	1171.5
968.109	1168.5
968.334	1123.5
968.56	1108.5
968.785	1131.5
969.011	1065.5
969.236	1167.5
969.462	1093.5
969.687	1119.5
969.912	1159.5
970.138	1199.5
970.363	1114.5
970.588	1134.5
970.813	1101.5
971.038	1096.5
971.263	1121.5
971.488	1107.5
971.713	1169.5
971.938	1144.5
972.163	1056.5
972.388	1093.5
972.613	1072.5
972.838	1093.5
973.062	1111.5
973.287	1072.5
973.512	1014.5
973.736	1069.5
973.961	1077.5
974.185	1044.5
974.41	1082.5
974.634	1009.5
974.858	1015.5
975.083	1060.5
975.307	1063.5
975.531	1040.5
975.755	986.5
975.98	1018.5
976.204	958.5
976.428	966.5
976.652	984.5
976.876	944.5
977.1	1019.5
977.324	966.5
977.547	1030.5
977.771	1017.5
977.995	1002.5
978.219	947.5
978.442	1035.5
978.666	1006.5
978.89	977.5
979.113	1004.5
979.337	986.5
979.56	948.5
979.783	1082.5
980.007	950.5
980.23	982.5
980.453	950.5
980.677	993.5
980.9	968.5
981.123	888.5
981.346	984.5
981.569	987.5
981.792	1020.5
982.015	969.5
982.238	944.5
982.461	963.5
982.684	943.5
982.907	929.5
983.129	901.5
983.352	986.5
983.575	946.5
983.797	973.5
984.02	931.5
984.242	932.5
984.465	923.5
984.687	993.5
984.91	992.5
985.132	954.5
985.354	993.5
985.577	962.5
985.799	939.5
986.021	887.5
986.243	918.5
986.465	923.5
986.687	984.5
986.909	1011.5
987.131	956.5
987.353	909.5
987.575	979.5
987.797	920.5
988.019	876.5
988.241	921.5
988.462	893.5
988.684	962.5
988.906	984.5
989.127	1018.5
989.349	891.5
989.57	934.5
989.792	972.5
990.013	955.5
990.234	973.5
990.456	1016.5
990.677	988.5
990.898	939.5
991.119	907.5
991.341	961.5
991.562	927.5
991.783	951.5
992.004	904.5
992.225	872.5
992.446	927.5
992.667	858.5
992.887	933.5
993.108	831.5
993.329	996.5
993.55	915.5
993.77	867.5
993.991	864.5
994.212	922.5
994.432	893.5
994.653	941.5
994.873	921.5
995.093	814.5
995.314	857.5
995.534	935.5
995.754	946.5
995.975	975.5
996.195	865.5
996.415	929.5
996.635	899.5
996.855	939.5
997.075	885.5
997.295	896.5
997.515	854.5
997.735	924.5
997.955	884.5
998.174	870.5
998.394	861.5
998.614	916.5
998.834	868.5
999.053	935.5
999.273	917.5
999.492	976.5
999.712	918.5
999.931	859.5
1000.151	916.5
1000.37	896.5
1000.589	962.5
1000.809	893.5
1001.028	1020.5
1001.247	968.5
1001.466	863.5
1001.685	1011.5
1001.904	950.5
1002.123	937.5
1002.342	947.5
1002.561	898.5
1002.78	936.5
1002.999	1008.5
1003.218	946.5
1003.436	923.5
1003.655	979.5
1003.874	894.5
1004.092	937.5
1004.311	988.5
1004.53	947.5
1004.748	999.5
1004.966	949.5
1005.185	1008.5
1005.403	995.5
1005.622	981.5
1005.84	1017.5
1006.058	936.5
1006.276	961.5
1006.494	1452.5
1006.712	961.5
1006.931	1026.5
1007.149	929.5
1007.367	919.5
1007.584	977.5
1007.802	1016.5
1008.02	973.5
1008.238	1047.5
1008.456	1024.5
1008.673	892.5
1008.891	995.5
1009.109	930.5
1009.326	991.5
1009.544	1053.5
1009.761	953.5
1009.979	1041.5
1010.196	1005.5
1010.413	1061.5
1010.631	1095.5
1010.848	1100.5
1011.065	1101.5
1011.282	1053.5
1011.5	995.5
1011.717	1092.5
1011.934	1046.5
1012.151	1088.5
1012.368	1083.5
1012.585	1007.5
1012.801	1064.5
1013.018	1026.5
1013.235	985.5
1013.452	1006.5
1013.669	1027.5
1013.885	1003.5
1014.102	1038.5
1014.318	1005.5
1014.535	955.5
1014.751	998.5
1014.968	1009.5
1015.184	1046.5
1015.401	966.5
1015.617	990.5
1015.833	962.5
1016.049	946.5
1016.266	941.5
1016.482	937.5
1016.698	888.5
1016.914	981.5
1017.13	932.5
1017.346	923.5
1017.562	986.5
1017.778	911.5
1017.993	901.5
1018.209	969.5
1018.425	910.5
1018.641	902.5
1018.856	866.5
1019.072	907.5
1019.288	936.5
1019.503	894.5
1019.719	822.5
1019.934	843.5
1020.149	914.5
1020.365	853.5
1020.58	824.5
1020.795	888.5
1021.011	827.5
1021.226	822.5
1021.441	861.5
1021.656	783.5
1021.871	738.5
1022.086	736.5
1022.301	756.5
1022.516	721.5
1022.731	841.5
1022.946	727.5
1023.16	722.5
1023.375	689.5
1023.59	691.5
1023.804	663.5
1024.019	765.5
1024.234	649.5
1024.448	689.5
1024.663	610.5
1024.877	638.5
1025.092	677.5
1025.306	683.5
1025.52	600.5
1025.734	683.5
1025.949	625.5
1026.163	608.5
1026.377	542.5
1026.591	607.5
1026.805	533.5
1027.019	559.5
1027.233	519.5
1027.447	472.5
1027.661	574.5
1027.875	513.5
1028.088	534.5
1028.302	471.5
1028.516	479.5
1028.73	473.5
1028.943	480.5
1029.157	455.5
1029.37	420.5
1029.584	1.5
1029.797	-4.5
1030.011	-3.5
1030.224	-4.5
