Data from QEP037381__150__10-28-22-735.txt Node

Date: Wed Dec 21 10:28:22 EST 2022
User: dcclab
Spectrometer: QEP03738
Trigger mode: 4
Integration Time (sec): 1.000000E1
Scans to average: 1
Electric dark correction enabled: true
Nonlinearity correction enabled: false
Boxcar width: 0
XAxis mode: Wavelengths
Number of Pixels in Spectrum: 1044
>>>>>Begin Spectral Data<<<<<
784.041	14.88
784.3	-1.12
784.558	-3.12
784.817	-5.12
785.075	76396.88
785.334	13488.88
785.592	6302.88
785.851	4367.88
786.109	3334.88
786.368	2595.88
786.626	2096.88
786.884	1743.88
787.143	1468.88
787.401	1220.88
787.659	1098.88
787.917	949.88
788.175	879.88
788.433	774.88
788.691	690.88
788.949	638.88
789.207	633.88
789.465	535.88
789.723	521.88
789.98	470.88
790.238	516.88
790.496	493.88
790.753	473.88
791.011	517.88
791.268	457.88
791.526	449.88
791.783	458.88
792.041	458.88
792.298	367.88
792.556	444.88
792.813	416.88
793.07	407.88
793.327	390.88
793.584	471.88
793.841	386.88
794.099	406.88
794.356	447.88
794.613	354.88
794.869	408.88
795.126	375.88
795.383	350.88
795.64	361.88
795.897	326.88
796.153	379.88
796.41	372.88
796.667	352.88
796.923	354.88
797.18	348.88
797.436	371.88
797.693	343.88
797.949	393.88
798.206	422.88
798.462	329.88
798.718	375.88
798.974	351.88
799.231	393.88
799.487	375.88
799.743	380.88
799.999	390.88
800.255	390.88
800.511	362.88
800.767	392.88
801.023	372.88
801.279	398.88
801.534	395.88
801.79	410.88
802.046	390.88
802.302	445.88
802.557	444.88
802.813	476.88
803.068	458.88
803.324	573.88
803.579	635.88
803.835	750.88
804.09	969.88
804.345	1135.88
804.601	1383.88
804.856	1633.88
805.111	1877.88
805.366	1988.88
805.621	2076.88
805.876	2148.88
806.131	2216.88
806.386	2205.88
806.641	2217.88
806.896	2264.88
807.151	2367.88
807.406	2331.88
807.661	2393.88
807.915	2416.88
808.17	2437.88
808.425	2490.88
808.679	2450.88
808.934	2569.88
809.188	2507.88
809.443	2568.88
809.697	2629.88
809.951	2586.88
810.206	2582.88
810.46	2666.88
810.714	2687.88
810.968	2711.88
811.223	2667.88
811.477	2741.88
811.731	2767.88
811.985	2716.88
812.239	2677.88
812.493	2712.88
812.747	2752.88
813	2753.88
813.254	2786.88
813.508	2827.88
813.762	2790.88
814.015	2786.88
814.269	2838.88
814.522	2878.88
814.776	2935.88
815.03	2952.88
815.283	3013.88
815.536	3010.88
815.79	3097.88
816.043	3110.88
816.296	3125.88
816.55	3156.88
816.803	3206.88
817.056	3322.88
817.309	3254.88
817.562	3276.88
817.815	3351.88
818.068	3308.88
818.321	3344.88
818.574	3373.88
818.827	3495.88
819.079	3452.88
819.332	3677.88
819.585	3587.88
819.838	3709.88
820.09	3628.88
820.343	3752.88
820.595	3637.88
820.848	3741.88
821.1	3742.88
821.353	3788.88
821.605	3717.88
821.857	3813.88
822.11	3689.88
822.362	3681.88
822.614	3724.88
822.866	3769.88
823.118	3721.88
823.37	3817.88
823.622	3770.88
823.874	3810.88
824.126	3890.88
824.378	3836.88
824.63	3872.88
824.882	3875.88
825.134	3909.88
825.385	3913.88
825.637	3862.88
825.888	3816.88
826.14	3745.88
826.392	3753.88
826.643	3673.88
826.895	3765.88
827.146	3723.88
827.397	3699.88
827.649	3735.88
827.9	3624.88
828.151	3648.88
828.402	3655.88
828.653	3683.88
828.905	3701.88
829.156	3773.88
829.407	3688.88
829.658	3679.88
829.909	3763.88
830.159	3740.88
830.41	3723.88
830.661	3715.88
830.912	3676.88
831.162	3631.88
831.413	3621.88
831.664	3688.88
831.914	3711.88
832.165	3691.88
832.415	3686.88
832.666	3699.88
832.916	3728.88
833.167	3686.88
833.417	3746.88
833.667	3673.88
833.917	3649.88
834.168	3785.88
834.418	3771.88
834.668	3712.88
834.918	3686.88
835.168	3682.88
835.418	3593.88
835.668	3650.88
835.918	3674.88
836.167	3648.88
836.417	3606.88
836.667	3655.88
836.917	3685.88
837.166	3574.88
837.416	3644.88
837.666	3638.88
837.915	3562.88
838.165	3573.88
838.414	3482.88
838.663	3450.88
838.913	3518.88
839.162	3474.88
839.411	3553.88
839.661	3495.88
839.91	3575.88
840.159	3510.88
840.408	3565.88
840.657	3523.88
840.906	3529.88
841.155	3537.88
841.404	3530.88
841.653	3524.88
841.902	3526.88
842.15	3536.88
842.399	3533.88
842.648	3476.88
842.897	3533.88
843.145	3456.88
843.394	3444.88
843.642	3377.88
843.891	3423.88
844.139	3408.88
844.388	3396.88
844.636	3355.88
844.884	3337.88
845.133	3361.88
845.381	3373.88
845.629	3462.88
845.877	3360.88
846.125	3346.88
846.373	3380.88
846.621	3346.88
846.869	3409.88
847.117	3365.88
847.365	3362.88
847.613	3320.88
847.861	3360.88
848.108	3388.88
848.356	3318.88
848.604	3292.88
848.851	3312.88
849.099	3317.88
849.346	3288.88
849.594	3383.88
849.841	3369.88
850.089	3345.88
850.336	3374.88
850.583	3380.88
850.831	3414.88
851.078	3413.88
851.325	3467.88
851.572	3639.88
851.819	3544.88
852.066	3365.88
852.313	3235.88
852.56	3165.88
852.807	3122.88
853.054	3158.88
853.301	3209.88
853.548	3248.88
853.794	3342.88
854.041	3299.88
854.288	3217.88
854.534	3342.88
854.781	3258.88
855.028	3217.88
855.274	3269.88
855.52	3252.88
855.767	3178.88
856.013	3237.88
856.26	3486.88
856.506	3136.88
856.752	3220.88
856.998	3173.88
857.244	3195.88
857.49	3228.88
857.736	3222.88
857.982	3239.88
858.228	3203.88
858.474	3151.88
858.72	3176.88
858.966	3112.88
859.212	3111.88
859.458	3085.88
859.703	3086.88
859.949	3011.88
860.195	3024.88
860.44	3031.88
860.686	2942.88
860.931	2993.88
861.177	2925.88
861.422	2981.88
861.667	2918.88
861.913	2921.88
862.158	2991.88
862.403	3016.88
862.648	3049.88
862.893	3065.88
863.138	2940.88
863.384	2925.88
863.629	3008.88
863.873	2947.88
864.118	2933.88
864.363	2922.88
864.608	2979.88
864.853	3008.88
865.098	2963.88
865.342	2918.88
865.587	2931.88
865.832	2956.88
866.076	2922.88
866.321	2890.88
866.565	2881.88
866.81	2815.88
867.054	2887.88
867.298	2853.88
867.543	2810.88
867.787	2860.88
868.031	2844.88
868.275	2834.88
868.519	2802.88
868.764	2840.88
869.008	2871.88
869.252	2867.88
869.496	2811.88
869.739	2822.88
869.983	2859.88
870.227	2846.88
870.471	2797.88
870.715	2856.88
870.958	2848.88
871.202	2844.88
871.446	2849.88
871.689	2842.88
871.933	2850.88
872.176	2826.88
872.42	2817.88
872.663	2822.88
872.906	2887.88
873.15	2848.88
873.393	2777.88
873.636	2854.88
873.879	2800.88
874.122	2817.88
874.366	2769.88
874.609	2757.88
874.852	2656.88
875.095	2712.88
875.337	2681.88
875.58	2627.88
875.823	2715.88
876.066	2687.88
876.309	2751.88
876.551	2601.88
876.794	2589.88
877.037	2661.88
877.279	2564.88
877.522	2580.88
877.764	2645.88
878.007	2541.88
878.249	2616.88
878.491	2564.88
878.734	2644.88
878.976	2584.88
879.218	2575.88
879.46	2579.88
879.702	2580.88
879.945	2551.88
880.187	2489.88
880.429	2506.88
880.671	2492.88
880.912	2522.88
881.154	2452.88
881.396	2385.88
881.638	2448.88
881.88	2442.88
882.121	2430.88
882.363	2412.88
882.605	2477.88
882.846	2438.88
883.088	2464.88
883.329	2398.88
883.571	2409.88
883.812	2472.88
884.053	2480.88
884.295	2569.88
884.536	2688.88
884.777	2611.88
885.018	2647.88
885.259	2655.88
885.5	2555.88
885.742	2843.88
885.982	2607.88
886.223	2477.88
886.464	2504.88
886.705	2427.88
886.946	2423.88
887.187	2367.88
887.428	2436.88
887.668	2311.88
887.909	2315.88
888.15	2270.88
888.39	2280.88
888.631	2314.88
888.871	2308.88
889.111	2263.88
889.352	2255.88
889.592	2205.88
889.833	2190.88
890.073	2142.88
890.313	2211.88
890.553	2121.88
890.793	2146.88
891.033	2118.88
891.273	2112.88
891.513	2147.88
891.753	2176.88
891.993	2146.88
892.233	2120.88
892.473	2215.88
892.713	2135.88
892.952	2101.88
893.192	2193.88
893.432	2143.88
893.671	2203.88
893.911	2150.88
894.15	2129.88
894.39	2059.88
894.629	2101.88
894.869	2083.88
895.108	2079.88
895.347	2053.88
895.587	2115.88
895.826	2044.88
896.065	2035.88
896.304	2099.88
896.543	2103.88
896.782	1981.88
897.021	2077.88
897.26	2061.88
897.499	2149.88
897.738	2125.88
897.977	2077.88
898.216	2041.88
898.454	1980.88
898.693	1966.88
898.932	1999.88
899.17	2027.88
899.409	2004.88
899.647	1970.88
899.886	1939.88
900.124	2001.88
900.363	1968.88
900.601	1962.88
900.839	1999.88
901.078	2017.88
901.316	1984.88
901.554	1998.88
901.792	2044.88
902.03	2001.88
902.268	2027.88
902.506	2068.88
902.744	1987.88
902.982	1999.88
903.22	1922.88
903.458	1961.88
903.695	1916.88
903.933	1895.88
904.171	1845.88
904.409	1853.88
904.646	1852.88
904.884	1793.88
905.121	1849.88
905.359	1807.88
905.596	1792.88
905.833	1737.88
906.071	1747.88
906.308	1778.88
906.545	1749.88
906.783	1701.88
907.02	1736.88
907.257	1663.88
907.494	1703.88
907.731	1722.88
907.968	1710.88
908.205	1681.88
908.442	1683.88
908.679	1694.88
908.915	1706.88
909.152	1679.88
909.389	1612.88
909.626	1620.88
909.862	1617.88
910.099	1635.88
910.335	1646.88
910.572	1559.88
910.808	1633.88
911.045	1623.88
911.281	1564.88
911.518	1646.88
911.754	1586.88
911.99	1614.88
912.226	1558.88
912.463	1540.88
912.699	1550.88
912.935	1555.88
913.171	1511.88
913.407	1511.88
913.643	1573.88
913.879	1534.88
914.114	1516.88
914.35	1477.88
914.586	1489.88
914.822	1434.88
915.057	1506.88
915.293	1419.88
915.529	1428.88
915.764	1490.88
916	1491.88
916.235	1479.88
916.471	1497.88
916.706	1385.88
916.941	1451.88
917.177	1409.88
917.412	1467.88
917.647	1463.88
917.882	1404.88
918.117	1498.88
918.352	1447.88
918.588	1491.88
918.823	1444.88
919.057	1417.88
919.292	1327.88
919.527	1440.88
919.762	1373.88
919.997	1421.88
920.232	1348.88
920.466	1431.88
920.701	1291.88
920.935	1349.88
921.17	1320.88
921.405	1296.88
921.639	1368.88
921.873	1305.88
922.108	1316.88
922.342	1345.88
922.576	1305.88
922.811	1280.88
923.045	1357.88
923.279	1353.88
923.513	1226.88
923.747	1331.88
923.981	1317.88
924.215	1270.88
924.449	1262.88
924.683	1226.88
924.917	1251.88
925.151	1245.88
925.385	1323.88
925.618	1276.88
925.852	1272.88
926.086	1223.88
926.319	1261.88
926.553	1259.88
926.786	1259.88
927.02	1239.88
927.253	1290.88
927.486	1291.88
927.72	1196.88
927.953	1295.88
928.186	1237.88
928.42	1279.88
928.653	1228.88
928.886	1199.88
929.119	1279.88
929.352	1231.88
929.585	1240.88
929.818	1210.88
930.051	1234.88
930.284	1226.88
930.516	1157.88
930.749	1161.88
930.982	1226.88
931.215	1203.88
931.447	1163.88
931.68	1174.88
931.912	1144.88
932.145	1149.88
932.377	1176.88
932.61	1295.88
932.842	1119.88
933.074	1189.88
933.307	1118.88
933.539	1237.88
933.771	1219.88
934.003	1145.88
934.236	1234.88
934.468	1250.88
934.7	1169.88
934.932	1196.88
935.164	1172.88
935.395	1141.88
935.627	1149.88
935.859	1174.88
936.091	1150.88
936.323	1207.88
936.554	1204.88
936.786	1143.88
937.017	1090.88
937.249	1154.88
937.481	1102.88
937.712	1184.88
937.943	1155.88
938.175	1127.88
938.406	1111.88
938.637	1195.88
938.869	1098.88
939.1	1151.88
939.331	1117.88
939.562	1141.88
939.793	1134.88
940.024	1186.88
940.255	1167.88
940.486	1117.88
940.717	1138.88
940.948	1103.88
941.179	1082.88
941.409	1095.88
941.64	1096.88
941.871	1129.88
942.102	1094.88
942.332	1082.88
942.563	1144.88
942.793	1103.88
943.024	1050.88
943.254	1107.88
943.484	1136.88
943.715	1150.88
943.945	1124.88
944.175	1047.88
944.405	1047.88
944.636	1049.88
944.866	1098.88
945.096	1107.88
945.326	1026.88
945.556	1125.88
945.786	1127.88
946.016	1086.88
946.245	1030.88
946.475	1052.88
946.705	1059.88
946.935	1088.88
947.164	1076.88
947.394	1051.88
947.624	1076.88
947.853	1078.88
948.083	1080.88
948.312	1042.88
948.542	990.88
948.771	1030.88
949	1020.88
949.23	1028.88
949.459	1025.88
949.688	1101.88
949.917	1063.88
950.146	1072.88
950.375	1107.88
950.604	1022.88
950.833	1111.88
951.062	1098.88
951.291	1025.88
951.52	1029.88
951.749	1035.88
951.978	1009.88
952.206	1027.88
952.435	1016.88
952.664	1050.88
952.892	1060.88
953.121	1048.88
953.349	1078.88
953.578	1062.88
953.806	1027.88
954.035	981.88
954.263	1021.88
954.491	985.88
954.719	1044.88
954.948	983.88
955.176	1010.88
955.404	924.88
955.632	1013.88
955.86	1011.88
956.088	1010.88
956.316	1031.88
956.544	1058.88
956.772	992.88
956.999	962.88
957.227	1081.88
957.455	968.88
957.683	1007.88
957.91	954.88
958.138	962.88
958.365	967.88
958.593	988.88
958.82	920.88
959.048	998.88
959.275	968.88
959.502	963.88
959.73	944.88
959.957	1003.88
960.184	1042.88
960.411	963.88
960.638	1064.88
960.865	1005.88
961.092	1008.88
961.319	914.88
961.546	975.88
961.773	1004.88
962	971.88
962.227	1031.88
962.454	966.88
962.68	961.88
962.907	973.88
963.134	950.88
963.36	975.88
963.587	998.88
963.813	959.88
964.04	981.88
964.266	923.88
964.493	1024.88
964.719	991.88
964.945	1013.88
965.171	913.88
965.398	973.88
965.624	989.88
965.85	928.88
966.076	958.88
966.302	960.88
966.528	950.88
966.754	978.88
966.98	981.88
967.206	962.88
967.431	888.88
967.657	979.88
967.883	973.88
968.109	959.88
968.334	925.88
968.56	895.88
968.785	910.88
969.011	887.88
969.236	946.88
969.462	905.88
969.687	932.88
969.912	954.88
970.138	993.88
970.363	897.88
970.588	939.88
970.813	905.88
971.038	890.88
971.263	927.88
971.488	935.88
971.713	962.88
971.938	967.88
972.163	858.88
972.388	899.88
972.613	863.88
972.838	901.88
973.062	889.88
973.287	894.88
973.512	831.88
973.736	881.88
973.961	872.88
974.185	866.88
974.41	906.88
974.634	812.88
974.858	847.88
975.083	875.88
975.307	927.88
975.531	854.88
975.755	804.88
975.98	839.88
976.204	798.88
976.428	795.88
976.652	801.88
976.876	804.88
977.1	835.88
977.324	803.88
977.547	871.88
977.771	868.88
977.995	835.88
978.219	778.88
978.442	899.88
978.666	848.88
978.89	829.88
979.113	841.88
979.337	821.88
979.56	804.88
979.783	882.88
980.007	782.88
980.23	827.88
980.453	804.88
980.677	833.88
980.9	809.88
981.123	760.88
981.346	838.88
981.569	826.88
981.792	848.88
982.015	819.88
982.238	779.88
982.461	822.88
982.684	798.88
982.907	764.88
983.129	790.88
983.352	826.88
983.575	811.88
983.797	828.88
984.02	784.88
984.242	780.88
984.465	800.88
984.687	808.88
984.91	839.88
985.132	827.88
985.354	856.88
985.577	824.88
985.799	819.88
986.021	748.88
986.243	759.88
986.465	813.88
986.687	856.88
986.909	873.88
987.131	800.88
987.353	788.88
987.575	815.88
987.797	802.88
988.019	749.88
988.241	816.88
988.462	767.88
988.684	830.88
988.906	845.88
989.127	860.88
989.349	766.88
989.57	813.88
989.792	827.88
990.013	860.88
990.234	866.88
990.456	892.88
990.677	882.88
990.898	797.88
991.119	815.88
991.341	842.88
991.562	773.88
991.783	831.88
992.004	781.88
992.225	766.88
992.446	813.88
992.667	738.88
992.887	826.88
993.108	712.88
993.329	862.88
993.55	799.88
993.77	758.88
993.991	764.88
994.212	825.88
994.432	796.88
994.653	806.88
994.873	810.88
995.093	707.88
995.314	756.88
995.534	822.88
995.754	821.88
995.975	863.88
996.195	765.88
996.415	816.88
996.635	788.88
996.855	801.88
997.075	792.88
997.295	794.88
997.515	778.88
997.735	810.88
997.955	800.88
998.174	796.88
998.394	752.88
998.614	806.88
998.834	769.88
999.053	845.88
999.273	811.88
999.492	876.88
999.712	819.88
999.931	784.88
1000.151	845.88
1000.37	815.88
1000.589	871.88
1000.809	803.88
1001.028	902.88
1001.247	866.88
1001.466	754.88
1001.685	918.88
1001.904	863.88
1002.123	859.88
1002.342	869.88
1002.561	806.88
1002.78	861.88
1002.999	921.88
1003.218	862.88
1003.436	835.88
1003.655	905.88
1003.874	846.88
1004.092	873.88
1004.311	896.88
1004.53	854.88
1004.748	944.88
1004.966	854.88
1005.185	931.88
1005.403	905.88
1005.622	893.88
1005.84	943.88
1006.058	883.88
1006.276	892.88
1006.494	1372.88
1006.712	882.88
1006.931	927.88
1007.149	851.88
1007.367	871.88
1007.584	888.88
1007.802	927.88
1008.02	855.88
1008.238	987.88
1008.456	947.88
1008.673	813.88
1008.891	932.88
1009.109	868.88
1009.326	897.88
1009.544	1006.88
1009.761	882.88
1009.979	962.88
1010.196	927.88
1010.413	1006.88
1010.631	1022.88
1010.848	1011.88
1011.065	1040.88
1011.282	981.88
1011.5	929.88
1011.717	1060.88
1011.934	999.88
1012.151	1021.88
1012.368	1005.88
1012.585	950.88
1012.801	989.88
1013.018	941.88
1013.235	940.88
1013.452	949.88
1013.669	951.88
1013.885	929.88
1014.102	966.88
1014.318	934.88
1014.535	894.88
1014.751	933.88
1014.968	930.88
1015.184	977.88
1015.401	912.88
1015.617	934.88
1015.833	890.88
1016.049	905.88
1016.266	873.88
1016.482	894.88
1016.698	834.88
1016.914	904.88
1017.13	852.88
1017.346	861.88
1017.562	927.88
1017.778	859.88
1017.993	841.88
1018.209	895.88
1018.425	899.88
1018.641	842.88
1018.856	814.88
1019.072	859.88
1019.288	905.88
1019.503	835.88
1019.719	758.88
1019.934	794.88
1020.149	847.88
1020.365	814.88
1020.58	765.88
1020.795	849.88
1021.011	787.88
1021.226	757.88
1021.441	798.88
1021.656	721.88
1021.871	693.88
1022.086	694.88
1022.301	709.88
1022.516	707.88
1022.731	769.88
1022.946	699.88
1023.16	684.88
1023.375	668.88
1023.59	649.88
1023.804	621.88
1024.019	721.88
1024.234	616.88
1024.448	659.88
1024.663	583.88
1024.877	607.88
1025.092	651.88
1025.306	662.88
1025.52	562.88
1025.734	662.88
1025.949	587.88
1026.163	550.88
1026.377	511.88
1026.591	579.88
1026.805	508.88
1027.019	522.88
1027.233	476.88
1027.447	444.88
1027.661	538.88
1027.875	489.88
1028.088	507.88
1028.302	437.88
1028.516	442.88
1028.73	463.88
1028.943	459.88
1029.157	414.88
1029.37	392.88
1029.584	-3.12
1029.797	-1.12
1030.011	0.88
1030.224	-2.12
