Data from QEP037381__157__10-29-32-735.txt Node

Date: Wed Dec 21 10:29:32 EST 2022
User: dcclab
Spectrometer: QEP03738
Trigger mode: 4
Integration Time (sec): 1.000000E1
Scans to average: 1
Electric dark correction enabled: true
Nonlinearity correction enabled: false
Boxcar width: 0
XAxis mode: Wavelengths
Number of Pixels in Spectrum: 1044
>>>>>Begin Spectral Data<<<<<
784.041	14.38
784.3	-1.62
784.558	-3.62
784.817	-1.62
785.075	80698.38
785.334	13622.38
785.592	6326.38
785.851	4335.38
786.109	3255.38
786.368	2564.38
786.626	2053.38
786.884	1737.38
787.143	1456.38
787.401	1171.38
787.659	1114.38
787.917	953.38
788.175	859.38
788.433	781.38
788.691	704.38
788.949	644.38
789.207	635.38
789.465	543.38
789.723	524.38
789.98	478.38
790.238	532.38
790.496	495.38
790.753	471.38
791.011	526.38
791.268	467.38
791.526	440.38
791.783	468.38
792.041	448.38
792.298	362.38
792.556	447.38
792.813	425.38
793.07	401.38
793.327	386.38
793.584	458.38
793.841	401.38
794.099	407.38
794.356	458.38
794.613	365.38
794.869	396.38
795.126	363.38
795.383	345.38
795.64	395.38
795.897	317.38
796.153	394.38
796.41	369.38
796.667	336.38
796.923	368.38
797.18	360.38
797.436	384.38
797.693	337.38
797.949	402.38
798.206	405.38
798.462	342.38
798.718	407.38
798.974	355.38
799.231	405.38
799.487	376.38
799.743	384.38
799.999	420.38
800.255	388.38
800.511	360.38
800.767	376.38
801.023	383.38
801.279	375.38
801.534	385.38
801.79	418.38
802.046	388.38
802.302	448.38
802.557	441.38
802.813	482.38
803.068	472.38
803.324	588.38
803.579	650.38
803.835	801.38
804.09	1022.38
804.345	1220.38
804.601	1455.38
804.856	1789.38
805.111	2040.38
805.366	2162.38
805.621	2309.38
805.876	2336.38
806.131	2379.38
806.386	2426.38
806.641	2427.38
806.896	2448.38
807.151	2609.38
807.406	2565.38
807.661	2618.38
807.915	2638.38
808.17	2667.38
808.425	2711.38
808.679	2718.38
808.934	2815.38
809.188	2755.38
809.443	2852.38
809.697	2924.38
809.951	2853.38
810.206	2888.38
810.46	2923.38
810.714	2911.38
810.968	3010.38
811.223	2953.38
811.477	3052.38
811.731	3055.38
811.985	2954.38
812.239	2956.38
812.493	2999.38
812.747	3052.38
813	3019.38
813.254	3099.38
813.508	3109.38
813.762	3098.38
814.015	3129.38
814.269	3162.38
814.522	3162.38
814.776	3232.38
815.03	3257.38
815.283	3279.38
815.536	3344.38
815.79	3421.38
816.043	3400.38
816.296	3445.38
816.55	3490.38
816.803	3516.38
817.056	3649.38
817.309	3641.38
817.562	3677.38
817.815	3732.38
818.068	3661.38
818.321	3719.38
818.574	3771.38
818.827	3833.38
819.079	3819.38
819.332	4016.38
819.585	4036.38
819.838	4056.38
820.09	4052.38
820.343	4104.38
820.595	4061.38
820.848	4121.38
821.1	4201.38
821.353	4165.38
821.605	4192.38
821.857	4224.38
822.11	4144.38
822.362	4116.38
822.614	4090.38
822.866	4171.38
823.118	4141.38
823.37	4278.38
823.622	4171.38
823.874	4228.38
824.126	4291.38
824.378	4260.38
824.63	4275.38
824.882	4306.38
825.134	4287.38
825.385	4258.38
825.637	4249.38
825.888	4208.38
826.14	4188.38
826.392	4123.38
826.643	4134.38
826.895	4172.38
827.146	4080.38
827.397	4089.38
827.649	4166.38
827.9	4061.38
828.151	4120.38
828.402	4122.38
828.653	4127.38
828.905	4138.38
829.156	4209.38
829.407	4140.38
829.658	4138.38
829.909	4191.38
830.159	4167.38
830.41	4139.38
830.661	4117.38
830.912	4085.38
831.162	4072.38
831.413	4079.38
831.664	4101.38
831.914	4101.38
832.165	4088.38
832.415	4102.38
832.666	4136.38
832.916	4150.38
833.167	4059.38
833.417	4161.38
833.667	4102.38
833.917	4117.38
834.168	4128.38
834.418	4134.38
834.668	4089.38
834.918	4090.38
835.168	4057.38
835.418	4065.38
835.668	4100.38
835.918	4085.38
836.167	4047.38
836.417	3995.38
836.667	4041.38
836.917	4092.38
837.166	4022.38
837.416	4027.38
837.666	4031.38
837.915	3994.38
838.165	3959.38
838.414	3919.38
838.663	3903.38
838.913	3902.38
839.162	3921.38
839.411	3992.38
839.661	3926.38
839.91	3964.38
840.159	3905.38
840.408	3903.38
840.657	3959.38
840.906	4019.38
841.155	3946.38
841.404	3946.38
841.653	3928.38
841.902	3888.38
842.15	3911.38
842.399	3949.38
842.648	3913.38
842.897	3910.38
843.145	3836.38
843.394	3851.38
843.642	3808.38
843.891	3838.38
844.139	3843.38
844.388	3764.38
844.636	3701.38
844.884	3801.38
845.133	3710.38
845.381	3719.38
845.629	3785.38
845.877	3711.38
846.125	3771.38
846.373	3806.38
846.621	3741.38
846.869	3755.38
847.117	3754.38
847.365	3741.38
847.613	3715.38
847.861	3715.38
848.108	3704.38
848.356	3719.38
848.604	3657.38
848.851	3745.38
849.099	3713.38
849.346	3720.38
849.594	3774.38
849.841	3788.38
850.089	3777.38
850.336	3774.38
850.583	3787.38
850.831	3783.38
851.078	3824.38
851.325	3801.38
851.572	3967.38
851.819	3896.38
852.066	3712.38
852.313	3617.38
852.56	3542.38
852.807	3571.38
853.054	3569.38
853.301	3552.38
853.548	3617.38
853.794	3690.38
854.041	3668.38
854.288	3670.38
854.534	3749.38
854.781	3665.38
855.028	3629.38
855.274	3674.38
855.52	3620.38
855.767	3551.38
856.013	3608.38
856.26	3891.38
856.506	3560.38
856.752	3570.38
856.998	3549.38
857.244	3514.38
857.49	3576.38
857.736	3632.38
857.982	3588.38
858.228	3603.38
858.474	3511.38
858.72	3516.38
858.966	3483.38
859.212	3492.38
859.458	3451.38
859.703	3440.38
859.949	3374.38
860.195	3399.38
860.44	3381.38
860.686	3281.38
860.931	3377.38
861.177	3299.38
861.422	3354.38
861.667	3289.38
861.913	3258.38
862.158	3329.38
862.403	3346.38
862.648	3408.38
862.893	3375.38
863.138	3342.38
863.384	3295.38
863.629	3319.38
863.873	3341.38
864.118	3263.38
864.363	3249.38
864.608	3352.38
864.853	3347.38
865.098	3307.38
865.342	3272.38
865.587	3232.38
865.832	3291.38
866.076	3275.38
866.321	3197.38
866.565	3208.38
866.81	3179.38
867.054	3213.38
867.298	3211.38
867.543	3170.38
867.787	3200.38
868.031	3166.38
868.275	3184.38
868.519	3195.38
868.764	3174.38
869.008	3125.38
869.252	3220.38
869.496	3145.38
869.739	3174.38
869.983	3217.38
870.227	3226.38
870.471	3130.38
870.715	3198.38
870.958	3225.38
871.202	3170.38
871.446	3192.38
871.689	3198.38
871.933	3184.38
872.176	3206.38
872.42	3179.38
872.663	3195.38
872.906	3195.38
873.15	3164.38
873.393	3108.38
873.636	3209.38
873.879	3134.38
874.122	3145.38
874.366	3064.38
874.609	3096.38
874.852	3025.38
875.095	3010.38
875.337	2990.38
875.58	2958.38
875.823	2997.38
876.066	3010.38
876.309	3045.38
876.551	2917.38
876.794	2892.38
877.037	2967.38
877.279	2895.38
877.522	2890.38
877.764	2950.38
878.007	2900.38
878.249	2931.38
878.491	2840.38
878.734	2925.38
878.976	2946.38
879.218	2838.38
879.46	2911.38
879.702	2861.38
879.945	2845.38
880.187	2791.38
880.429	2792.38
880.671	2779.38
880.912	2763.38
881.154	2766.38
881.396	2641.38
881.638	2725.38
881.88	2769.38
882.121	2743.38
882.363	2706.38
882.605	2813.38
882.846	2732.38
883.088	2757.38
883.329	2708.38
883.571	2709.38
883.812	2774.38
884.053	2787.38
884.295	2908.38
884.536	2993.38
884.777	2931.38
885.018	2980.38
885.259	2963.38
885.5	2867.38
885.742	3202.38
885.982	2874.38
886.223	2809.38
886.464	2768.38
886.705	2723.38
886.946	2747.38
887.187	2658.38
887.428	2726.38
887.668	2599.38
887.909	2569.38
888.15	2533.38
888.39	2567.38
888.631	2600.38
888.871	2546.38
889.111	2552.38
889.352	2493.38
889.592	2469.38
889.833	2453.38
890.073	2445.38
890.313	2500.38
890.553	2367.38
890.793	2398.38
891.033	2377.38
891.273	2364.38
891.513	2366.38
891.753	2420.38
891.993	2371.38
892.233	2418.38
892.473	2483.38
892.713	2382.38
892.952	2393.38
893.192	2409.38
893.432	2418.38
893.671	2466.38
893.911	2416.38
894.15	2409.38
894.39	2326.38
894.629	2347.38
894.869	2359.38
895.108	2315.38
895.347	2274.38
895.587	2320.38
895.826	2315.38
896.065	2283.38
896.304	2321.38
896.543	2327.38
896.782	2274.38
897.021	2290.38
897.26	2303.38
897.499	2399.38
897.738	2375.38
897.977	2313.38
898.216	2280.38
898.454	2254.38
898.693	2188.38
898.932	2212.38
899.17	2174.38
899.409	2226.38
899.647	2203.38
899.886	2170.38
900.124	2236.38
900.363	2163.38
900.601	2252.38
900.839	2226.38
901.078	2226.38
901.316	2240.38
901.554	2256.38
901.792	2259.38
902.03	2249.38
902.268	2258.38
902.506	2273.38
902.744	2252.38
902.982	2277.38
903.22	2184.38
903.458	2160.38
903.695	2156.38
903.933	2156.38
904.171	2083.38
904.409	2065.38
904.646	2089.38
904.884	1998.38
905.121	2060.38
905.359	1993.38
905.596	1993.38
905.833	1930.38
906.071	1950.38
906.308	2004.38
906.545	1966.38
906.783	1907.38
907.02	1941.38
907.257	1891.38
907.494	1914.38
907.731	1940.38
907.968	1959.38
908.205	1879.38
908.442	1888.38
908.679	1903.38
908.915	1877.38
909.152	1874.38
909.389	1804.38
909.626	1819.38
909.862	1788.38
910.099	1827.38
910.335	1874.38
910.572	1760.38
910.808	1784.38
911.045	1769.38
911.281	1748.38
911.518	1827.38
911.754	1767.38
911.99	1765.38
912.226	1767.38
912.463	1721.38
912.699	1709.38
912.935	1714.38
913.171	1699.38
913.407	1682.38
913.643	1715.38
913.879	1693.38
914.114	1692.38
914.35	1658.38
914.586	1640.38
914.822	1615.38
915.057	1728.38
915.293	1579.38
915.529	1580.38
915.764	1663.38
916	1615.38
916.235	1613.38
916.471	1631.38
916.706	1570.38
916.941	1591.38
917.177	1613.38
917.412	1608.38
917.647	1625.38
917.882	1585.38
918.117	1631.38
918.352	1622.38
918.588	1655.38
918.823	1593.38
919.057	1598.38
919.292	1492.38
919.527	1583.38
919.762	1525.38
919.997	1592.38
920.232	1514.38
920.466	1552.38
920.701	1429.38
920.935	1486.38
921.17	1439.38
921.405	1444.38
921.639	1507.38
921.873	1460.38
922.108	1472.38
922.342	1481.38
922.576	1434.38
922.811	1424.38
923.045	1463.38
923.279	1519.38
923.513	1391.38
923.747	1479.38
923.981	1453.38
924.215	1401.38
924.449	1423.38
924.683	1362.38
924.917	1388.38
925.151	1400.38
925.385	1497.38
925.618	1408.38
925.852	1404.38
926.086	1355.38
926.319	1397.38
926.553	1399.38
926.786	1397.38
927.02	1386.38
927.253	1420.38
927.486	1443.38
927.72	1384.38
927.953	1429.38
928.186	1363.38
928.42	1394.38
928.653	1340.38
928.886	1322.38
929.119	1383.38
929.352	1382.38
929.585	1367.38
929.818	1344.38
930.051	1334.38
930.284	1362.38
930.516	1292.38
930.749	1300.38
930.982	1329.38
931.215	1328.38
931.447	1273.38
931.68	1314.38
931.912	1259.38
932.145	1303.38
932.377	1311.38
932.61	1432.38
932.842	1244.38
933.074	1323.38
933.307	1262.38
933.539	1366.38
933.771	1346.38
934.003	1283.38
934.236	1333.38
934.468	1374.38
934.7	1308.38
934.932	1344.38
935.164	1273.38
935.395	1256.38
935.627	1291.38
935.859	1305.38
936.091	1247.38
936.323	1303.38
936.554	1314.38
936.786	1253.38
937.017	1213.38
937.249	1274.38
937.481	1207.38
937.712	1296.38
937.943	1249.38
938.175	1243.38
938.406	1222.38
938.637	1291.38
938.869	1213.38
939.1	1276.38
939.331	1229.38
939.562	1264.38
939.793	1258.38
940.024	1276.38
940.255	1292.38
940.486	1249.38
940.717	1237.38
940.948	1234.38
941.179	1201.38
941.409	1211.38
941.64	1213.38
941.871	1231.38
942.102	1187.38
942.332	1201.38
942.563	1252.38
942.793	1226.38
943.024	1177.38
943.254	1210.38
943.484	1230.38
943.715	1269.38
943.945	1239.38
944.175	1180.38
944.405	1149.38
944.636	1158.38
944.866	1210.38
945.096	1236.38
945.326	1163.38
945.556	1227.38
945.786	1250.38
946.016	1194.38
946.245	1162.38
946.475	1158.38
946.705	1180.38
946.935	1184.38
947.164	1187.38
947.394	1164.38
947.624	1182.38
947.853	1205.38
948.083	1192.38
948.312	1170.38
948.542	1130.38
948.771	1103.38
949	1139.38
949.23	1132.38
949.459	1170.38
949.688	1209.38
949.917	1164.38
950.146	1191.38
950.375	1215.38
950.604	1114.38
950.833	1198.38
951.062	1239.38
951.291	1170.38
951.52	1130.38
951.749	1141.38
951.978	1103.38
952.206	1128.38
952.435	1124.38
952.664	1161.38
952.892	1157.38
953.121	1129.38
953.349	1178.38
953.578	1131.38
953.806	1147.38
954.035	1088.38
954.263	1112.38
954.491	1081.38
954.719	1136.38
954.948	1102.38
955.176	1095.38
955.404	1034.38
955.632	1121.38
955.86	1105.38
956.088	1099.38
956.316	1139.38
956.544	1148.38
956.772	1093.38
956.999	1083.38
957.227	1127.38
957.455	1057.38
957.683	1082.38
957.91	1064.38
958.138	1054.38
958.365	1061.38
958.593	1076.38
958.82	1028.38
959.048	1087.38
959.275	1067.38
959.502	1062.38
959.73	1034.38
959.957	1084.38
960.184	1131.38
960.411	1043.38
960.638	1147.38
960.865	1072.38
961.092	1084.38
961.319	982.38
961.546	1105.38
961.773	1105.38
962	1050.38
962.227	1101.38
962.454	1062.38
962.68	1038.38
962.907	1081.38
963.134	1015.38
963.36	1069.38
963.587	1094.38
963.813	1032.38
964.04	1073.38
964.266	1025.38
964.493	1114.38
964.719	1076.38
964.945	1103.38
965.171	987.38
965.398	1027.38
965.624	1075.38
965.85	978.38
966.076	1015.38
966.302	1047.38
966.528	1021.38
966.754	1074.38
966.98	1048.38
967.206	1030.38
967.431	981.38
967.657	1075.38
967.883	1051.38
968.109	1042.38
968.334	984.38
968.56	985.38
968.785	1015.38
969.011	959.38
969.236	1035.38
969.462	973.38
969.687	1007.38
969.912	1042.38
970.138	1065.38
970.363	982.38
970.588	1010.38
970.813	988.38
971.038	960.38
971.263	1012.38
971.488	1014.38
971.713	1050.38
971.938	1047.38
972.163	943.38
972.388	976.38
972.613	960.38
972.838	975.38
973.062	971.38
973.287	975.38
973.512	904.38
973.736	964.38
973.961	956.38
974.185	954.38
974.41	995.38
974.634	878.38
974.858	895.38
975.083	963.38
975.307	961.38
975.531	922.38
975.755	889.38
975.98	895.38
976.204	855.38
976.428	856.38
976.652	877.38
976.876	845.38
977.1	902.38
977.324	859.38
977.547	943.38
977.771	924.38
977.995	887.38
978.219	833.38
978.442	965.38
978.666	904.38
978.89	890.38
979.113	913.38
979.337	902.38
979.56	848.38
979.783	973.38
980.007	864.38
980.23	904.38
980.453	848.38
980.677	915.38
980.9	898.38
981.123	809.38
981.346	895.38
981.569	907.38
981.792	933.38
982.015	878.38
982.238	853.38
982.461	884.38
982.684	863.38
982.907	850.38
983.129	817.38
983.352	900.38
983.575	881.38
983.797	897.38
984.02	849.38
984.242	862.38
984.465	857.38
984.687	892.38
984.91	911.38
985.132	868.38
985.354	899.38
985.577	872.38
985.799	875.38
986.021	784.38
986.243	823.38
986.465	849.38
986.687	919.38
986.909	938.38
987.131	879.38
987.353	837.38
987.575	889.38
987.797	854.38
988.019	795.38
988.241	867.38
988.462	805.38
988.684	861.38
988.906	905.38
989.127	938.38
989.349	808.38
989.57	853.38
989.792	901.38
990.013	874.38
990.234	929.38
990.456	929.38
990.677	905.38
990.898	857.38
991.119	859.38
991.341	891.38
991.562	825.38
991.783	873.38
992.004	818.38
992.225	805.38
992.446	861.38
992.667	797.38
992.887	899.38
993.108	776.38
993.329	915.38
993.55	860.38
993.77	794.38
993.991	839.38
994.212	861.38
994.432	850.38
994.653	870.38
994.873	864.38
995.093	741.38
995.314	801.38
995.534	888.38
995.754	903.38
995.975	920.38
996.195	792.38
996.415	869.38
996.635	834.38
996.855	883.38
997.075	833.38
997.295	835.38
997.515	809.38
997.735	855.38
997.955	826.38
998.174	835.38
998.394	825.38
998.614	868.38
998.834	808.38
999.053	895.38
999.273	846.38
999.492	900.38
999.712	854.38
999.931	833.38
1000.151	877.38
1000.37	861.38
1000.589	925.38
1000.809	829.38
1001.028	968.38
1001.247	921.38
1001.466	820.38
1001.685	945.38
1001.904	891.38
1002.123	878.38
1002.342	890.38
1002.561	856.38
1002.78	895.38
1002.999	946.38
1003.218	904.38
1003.436	858.38
1003.655	918.38
1003.874	872.38
1004.092	899.38
1004.311	944.38
1004.53	903.38
1004.748	981.38
1004.966	905.38
1005.185	959.38
1005.403	948.38
1005.622	930.38
1005.84	985.38
1006.058	893.38
1006.276	909.38
1006.494	1432.38
1006.712	938.38
1006.931	996.38
1007.149	901.38
1007.367	893.38
1007.584	951.38
1007.802	966.38
1008.02	916.38
1008.238	997.38
1008.456	976.38
1008.673	856.38
1008.891	951.38
1009.109	890.38
1009.326	948.38
1009.544	1022.38
1009.761	923.38
1009.979	1002.38
1010.196	988.38
1010.413	1034.38
1010.631	1052.38
1010.848	1082.38
1011.065	1075.38
1011.282	1019.38
1011.5	984.38
1011.717	1095.38
1011.934	1016.38
1012.151	1063.38
1012.368	1063.38
1012.585	1000.38
1012.801	1039.38
1013.018	1012.38
1013.235	967.38
1013.452	980.38
1013.669	1005.38
1013.885	985.38
1014.102	1019.38
1014.318	983.38
1014.535	952.38
1014.751	1001.38
1014.968	984.38
1015.184	1021.38
1015.401	934.38
1015.617	984.38
1015.833	953.38
1016.049	936.38
1016.266	917.38
1016.482	943.38
1016.698	881.38
1016.914	947.38
1017.13	895.38
1017.346	892.38
1017.562	966.38
1017.778	883.38
1017.993	887.38
1018.209	938.38
1018.425	889.38
1018.641	875.38
1018.856	859.38
1019.072	887.38
1019.288	936.38
1019.503	901.38
1019.719	804.38
1019.934	800.38
1020.149	917.38
1020.365	859.38
1020.58	814.38
1020.795	889.38
1021.011	807.38
1021.226	807.38
1021.441	838.38
1021.656	766.38
1021.871	720.38
1022.086	749.38
1022.301	730.38
1022.516	723.38
1022.731	791.38
1022.946	700.38
1023.16	687.38
1023.375	681.38
1023.59	680.38
1023.804	650.38
1024.019	736.38
1024.234	633.38
1024.448	678.38
1024.663	617.38
1024.877	630.38
1025.092	670.38
1025.306	684.38
1025.52	579.38
1025.734	683.38
1025.949	614.38
1026.163	602.38
1026.377	531.38
1026.591	601.38
1026.805	522.38
1027.019	523.38
1027.233	514.38
1027.447	450.38
1027.661	565.38
1027.875	505.38
1028.088	515.38
1028.302	449.38
1028.516	449.38
1028.73	480.38
1028.943	471.38
1029.157	435.38
1029.37	408.38
1029.584	-1.62
1029.797	-1.62
1030.011	-3.62
1030.224	-0.62
