Data from QEP037381__132__10-25-22-732.txt Node

Date: Wed Dec 21 10:25:22 EST 2022
User: dcclab
Spectrometer: QEP03738
Trigger mode: 4
Integration Time (sec): 1.000000E1
Scans to average: 1
Electric dark correction enabled: true
Nonlinearity correction enabled: false
Boxcar width: 0
XAxis mode: Wavelengths
Number of Pixels in Spectrum: 1044
>>>>>Begin Spectral Data<<<<<
784.041	12.62
784.3	-2.38
784.558	-3.38
784.817	-7.38
785.075	75961.62
785.334	13759.62
785.592	6661.62
785.851	4599.62
786.109	3500.62
786.368	2679.62
786.626	2194.62
786.884	1807.62
787.143	1543.62
787.401	1266.62
787.659	1149.62
787.917	956.62
788.175	913.62
788.433	810.62
788.691	710.62
788.949	671.62
789.207	626.62
789.465	549.62
789.723	538.62
789.98	486.62
790.238	542.62
790.496	499.62
790.753	480.62
791.011	526.62
791.268	455.62
791.526	456.62
791.783	482.62
792.041	452.62
792.298	383.62
792.556	435.62
792.813	420.62
793.07	394.62
793.327	374.62
793.584	470.62
793.841	385.62
794.099	403.62
794.356	481.62
794.613	364.62
794.869	407.62
795.126	378.62
795.383	346.62
795.64	378.62
795.897	335.62
796.153	381.62
796.41	375.62
796.667	349.62
796.923	372.62
797.18	358.62
797.436	394.62
797.693	343.62
797.949	392.62
798.206	407.62
798.462	335.62
798.718	379.62
798.974	362.62
799.231	392.62
799.487	376.62
799.743	375.62
799.999	401.62
800.255	386.62
800.511	360.62
800.767	409.62
801.023	384.62
801.279	392.62
801.534	397.62
801.79	397.62
802.046	390.62
802.302	462.62
802.557	459.62
802.813	511.62
803.068	503.62
803.324	609.62
803.579	692.62
803.835	847.62
804.09	1120.62
804.345	1332.62
804.601	1582.62
804.856	1886.62
805.111	2147.62
805.366	2270.62
805.621	2442.62
805.876	2511.62
806.131	2503.62
806.386	2550.62
806.641	2574.62
806.896	2616.62
807.151	2724.62
807.406	2712.62
807.661	2725.62
807.915	2802.62
808.17	2864.62
808.425	2869.62
808.679	2876.62
808.934	2966.62
809.188	2909.62
809.443	2971.62
809.697	3051.62
809.951	2996.62
810.206	3018.62
810.46	3123.62
810.714	3088.62
810.968	3167.62
811.223	3095.62
811.477	3144.62
811.731	3167.62
811.985	3148.62
812.239	3159.62
812.493	3215.62
812.747	3240.62
813	3215.62
813.254	3287.62
813.508	3331.62
813.762	3264.62
814.015	3280.62
814.269	3338.62
814.522	3352.62
814.776	3330.62
815.03	3444.62
815.283	3484.62
815.536	3538.62
815.79	3568.62
816.043	3609.62
816.296	3616.62
816.55	3681.62
816.803	3733.62
817.056	3806.62
817.309	3827.62
817.562	3853.62
817.815	3923.62
818.068	3889.62
818.321	3888.62
818.574	3957.62
818.827	4081.62
819.079	4043.62
819.332	4294.62
819.585	4267.62
819.838	4327.62
820.09	4267.62
820.343	4430.62
820.595	4256.62
820.848	4362.62
821.1	4393.62
821.353	4366.62
821.605	4357.62
821.857	4487.62
822.11	4283.62
822.362	4338.62
822.614	4342.62
822.866	4420.62
823.118	4355.62
823.37	4502.62
823.622	4435.62
823.874	4417.62
824.126	4525.62
824.378	4448.62
824.63	4503.62
824.882	4548.62
825.134	4511.62
825.385	4534.62
825.637	4487.62
825.888	4434.62
826.14	4448.62
826.392	4348.62
826.643	4329.62
826.895	4379.62
827.146	4311.62
827.397	4320.62
827.649	4408.62
827.9	4298.62
828.151	4302.62
828.402	4273.62
828.653	4283.62
828.905	4339.62
829.156	4427.62
829.407	4323.62
829.658	4336.62
829.909	4434.62
830.159	4408.62
830.41	4412.62
830.661	4340.62
830.912	4284.62
831.162	4251.62
831.413	4279.62
831.664	4306.62
831.914	4309.62
832.165	4347.62
832.415	4326.62
832.666	4307.62
832.916	4311.62
833.167	4279.62
833.417	4328.62
833.667	4283.62
833.917	4318.62
834.168	4331.62
834.418	4311.62
834.668	4270.62
834.918	4260.62
835.168	4306.62
835.418	4228.62
835.668	4271.62
835.918	4279.62
836.167	4241.62
836.417	4173.62
836.667	4207.62
836.917	4258.62
837.166	4195.62
837.416	4240.62
837.666	4180.62
837.915	4206.62
838.165	4153.62
838.414	4091.62
838.663	4062.62
838.913	4101.62
839.162	4050.62
839.411	4193.62
839.661	4086.62
839.91	4103.62
840.159	4114.62
840.408	4160.62
840.657	4094.62
840.906	4142.62
841.155	4115.62
841.404	4070.62
841.653	4088.62
841.902	4078.62
842.15	4138.62
842.399	4145.62
842.648	4104.62
842.897	4144.62
843.145	4046.62
843.394	4054.62
843.642	4044.62
843.891	4053.62
844.139	4045.62
844.388	3968.62
844.636	3938.62
844.884	4022.62
845.133	3934.62
845.381	3947.62
845.629	3959.62
845.877	3953.62
846.125	3951.62
846.373	3945.62
846.621	3927.62
846.869	3933.62
847.117	3934.62
847.365	3868.62
847.613	3866.62
847.861	3896.62
848.108	3928.62
848.356	3893.62
848.604	3862.62
848.851	3913.62
849.099	3913.62
849.346	3910.62
849.594	3939.62
849.841	3952.62
850.089	3864.62
850.336	3930.62
850.583	3937.62
850.831	3934.62
851.078	4024.62
851.325	4017.62
851.572	4132.62
851.819	4072.62
852.066	3895.62
852.313	3781.62
852.56	3675.62
852.807	3705.62
853.054	3659.62
853.301	3742.62
853.548	3732.62
853.794	3900.62
854.041	3806.62
854.288	3801.62
854.534	3943.62
854.781	3829.62
855.028	3781.62
855.274	3834.62
855.52	3730.62
855.767	3762.62
856.013	3741.62
856.26	4051.62
856.506	3688.62
856.752	3768.62
856.998	3716.62
857.244	3702.62
857.49	3717.62
857.736	3768.62
857.982	3772.62
858.228	3753.62
858.474	3670.62
858.72	3674.62
858.966	3667.62
859.212	3617.62
859.458	3561.62
859.703	3609.62
859.949	3491.62
860.195	3516.62
860.44	3532.62
860.686	3498.62
860.931	3495.62
861.177	3418.62
861.422	3512.62
861.667	3397.62
861.913	3435.62
862.158	3425.62
862.403	3499.62
862.648	3469.62
862.893	3510.62
863.138	3501.62
863.384	3457.62
863.629	3468.62
863.873	3449.62
864.118	3448.62
864.363	3411.62
864.608	3473.62
864.853	3485.62
865.098	3393.62
865.342	3403.62
865.587	3392.62
865.832	3403.62
866.076	3380.62
866.321	3344.62
866.565	3366.62
866.81	3294.62
867.054	3357.62
867.298	3334.62
867.543	3337.62
867.787	3348.62
868.031	3296.62
868.275	3312.62
868.519	3281.62
868.764	3301.62
869.008	3310.62
869.252	3337.62
869.496	3285.62
869.739	3282.62
869.983	3335.62
870.227	3308.62
870.471	3261.62
870.715	3304.62
870.958	3354.62
871.202	3311.62
871.446	3304.62
871.689	3283.62
871.933	3375.62
872.176	3309.62
872.42	3294.62
872.663	3281.62
872.906	3318.62
873.15	3285.62
873.393	3199.62
873.636	3310.62
873.879	3282.62
874.122	3275.62
874.366	3211.62
874.609	3199.62
874.852	3172.62
875.095	3166.62
875.337	3108.62
875.58	3040.62
875.823	3067.62
876.066	3139.62
876.309	3147.62
876.551	3012.62
876.794	3030.62
877.037	3081.62
877.279	3004.62
877.522	3010.62
877.764	3067.62
878.007	3012.62
878.249	3016.62
878.491	2997.62
878.734	3034.62
878.976	3039.62
879.218	2962.62
879.46	3010.62
879.702	2990.62
879.945	2950.62
880.187	2884.62
880.429	2916.62
880.671	2846.62
880.912	2915.62
881.154	2875.62
881.396	2766.62
881.638	2884.62
881.88	2889.62
882.121	2770.62
882.363	2810.62
882.605	2874.62
882.846	2838.62
883.088	2856.62
883.329	2822.62
883.571	2809.62
883.812	2845.62
884.053	2918.62
884.295	2989.62
884.536	3140.62
884.777	3050.62
885.018	3087.62
885.259	3053.62
885.5	2994.62
885.742	3227.62
885.982	2992.62
886.223	2912.62
886.464	2870.62
886.705	2862.62
886.946	2821.62
887.187	2733.62
887.428	2792.62
887.668	2691.62
887.909	2640.62
888.15	2596.62
888.39	2663.62
888.631	2706.62
888.871	2654.62
889.111	2601.62
889.352	2586.62
889.592	2545.62
889.833	2546.62
890.073	2569.62
890.313	2592.62
890.553	2446.62
890.793	2479.62
891.033	2462.62
891.273	2457.62
891.513	2483.62
891.753	2515.62
891.993	2456.62
892.233	2495.62
892.473	2567.62
892.713	2513.62
892.952	2435.62
893.192	2511.62
893.432	2455.62
893.671	2516.62
893.911	2520.62
894.15	2490.62
894.39	2353.62
894.629	2410.62
894.869	2430.62
895.108	2417.62
895.347	2349.62
895.587	2406.62
895.826	2380.62
896.065	2354.62
896.304	2433.62
896.543	2431.62
896.782	2323.62
897.021	2428.62
897.26	2369.62
897.499	2452.62
897.738	2472.62
897.977	2372.62
898.216	2355.62
898.454	2348.62
898.693	2292.62
898.932	2327.62
899.17	2272.62
899.409	2273.62
899.647	2262.62
899.886	2241.62
900.124	2293.62
900.363	2254.62
900.601	2282.62
900.839	2315.62
901.078	2315.62
901.316	2317.62
901.554	2331.62
901.792	2371.62
902.03	2319.62
902.268	2344.62
902.506	2354.62
902.744	2341.62
902.982	2331.62
903.22	2202.62
903.458	2211.62
903.695	2226.62
903.933	2189.62
904.171	2152.62
904.409	2080.62
904.646	2156.62
904.884	2068.62
905.121	2100.62
905.359	2057.62
905.596	2038.62
905.833	2021.62
906.071	1975.62
906.308	2054.62
906.545	1998.62
906.783	1977.62
907.02	1994.62
907.257	1920.62
907.494	1989.62
907.731	1997.62
907.968	1982.62
908.205	1931.62
908.442	1963.62
908.679	1966.62
908.915	1923.62
909.152	1948.62
909.389	1831.62
909.626	1860.62
909.862	1841.62
910.099	1864.62
910.335	1929.62
910.572	1794.62
910.808	1878.62
911.045	1840.62
911.281	1817.62
911.518	1925.62
911.754	1830.62
911.99	1807.62
912.226	1817.62
912.463	1776.62
912.699	1783.62
912.935	1763.62
913.171	1779.62
913.407	1749.62
913.643	1790.62
913.879	1745.62
914.114	1745.62
914.35	1712.62
914.586	1713.62
914.822	1659.62
915.057	1744.62
915.293	1624.62
915.529	1639.62
915.764	1699.62
916	1661.62
916.235	1666.62
916.471	1717.62
916.706	1616.62
916.941	1668.62
917.177	1652.62
917.412	1673.62
917.647	1658.62
917.882	1630.62
918.117	1688.62
918.352	1659.62
918.588	1691.62
918.823	1627.62
919.057	1598.62
919.292	1533.62
919.527	1644.62
919.762	1575.62
919.997	1630.62
920.232	1547.62
920.466	1598.62
920.701	1482.62
920.935	1557.62
921.17	1511.62
921.405	1488.62
921.639	1564.62
921.873	1494.62
922.108	1506.62
922.342	1535.62
922.576	1470.62
922.811	1496.62
923.045	1514.62
923.279	1540.62
923.513	1423.62
923.747	1516.62
923.981	1502.62
924.215	1461.62
924.449	1467.62
924.683	1411.62
924.917	1422.62
925.151	1416.62
925.385	1495.62
925.618	1443.62
925.852	1459.62
926.086	1385.62
926.319	1451.62
926.553	1410.62
926.786	1446.62
927.02	1444.62
927.253	1490.62
927.486	1454.62
927.72	1389.62
927.953	1471.62
928.186	1415.62
928.42	1431.62
928.653	1379.62
928.886	1378.62
929.119	1417.62
929.352	1400.62
929.585	1402.62
929.818	1374.62
930.051	1371.62
930.284	1402.62
930.516	1321.62
930.749	1328.62
930.982	1363.62
931.215	1350.62
931.447	1275.62
931.68	1339.62
931.912	1307.62
932.145	1324.62
932.377	1322.62
932.61	1439.62
932.842	1277.62
933.074	1337.62
933.307	1295.62
933.539	1416.62
933.771	1350.62
934.003	1296.62
934.236	1379.62
934.468	1412.62
934.7	1306.62
934.932	1350.62
935.164	1289.62
935.395	1287.62
935.627	1324.62
935.859	1336.62
936.091	1262.62
936.323	1320.62
936.554	1356.62
936.786	1307.62
937.017	1255.62
937.249	1297.62
937.481	1234.62
937.712	1317.62
937.943	1297.62
938.175	1276.62
938.406	1273.62
938.637	1362.62
938.869	1254.62
939.1	1304.62
939.331	1258.62
939.562	1297.62
939.793	1291.62
940.024	1301.62
940.255	1321.62
940.486	1261.62
940.717	1279.62
940.948	1254.62
941.179	1223.62
941.409	1265.62
941.64	1223.62
941.871	1258.62
942.102	1262.62
942.332	1244.62
942.563	1289.62
942.793	1237.62
943.024	1216.62
943.254	1219.62
943.484	1270.62
943.715	1291.62
943.945	1267.62
944.175	1195.62
944.405	1172.62
944.636	1216.62
944.866	1265.62
945.096	1208.62
945.326	1174.62
945.556	1254.62
945.786	1295.62
946.016	1216.62
946.245	1177.62
946.475	1202.62
946.705	1182.62
946.935	1205.62
947.164	1228.62
947.394	1172.62
947.624	1193.62
947.853	1219.62
948.083	1204.62
948.312	1195.62
948.542	1136.62
948.771	1113.62
949	1122.62
949.23	1165.62
949.459	1162.62
949.688	1234.62
949.917	1173.62
950.146	1211.62
950.375	1230.62
950.604	1128.62
950.833	1223.62
951.062	1207.62
951.291	1177.62
951.52	1156.62
951.749	1161.62
951.978	1131.62
952.206	1151.62
952.435	1133.62
952.664	1178.62
952.892	1177.62
953.121	1167.62
953.349	1173.62
953.578	1192.62
953.806	1155.62
954.035	1101.62
954.263	1155.62
954.491	1100.62
954.719	1169.62
954.948	1117.62
955.176	1122.62
955.404	1068.62
955.632	1151.62
955.86	1133.62
956.088	1130.62
956.316	1149.62
956.544	1178.62
956.772	1108.62
956.999	1082.62
957.227	1177.62
957.455	1063.62
957.683	1120.62
957.91	1071.62
958.138	1096.62
958.365	1067.62
958.593	1086.62
958.82	1023.62
959.048	1123.62
959.275	1097.62
959.502	1060.62
959.73	1064.62
959.957	1123.62
960.184	1162.62
960.411	1110.62
960.638	1154.62
960.865	1102.62
961.092	1096.62
961.319	1017.62
961.546	1119.62
961.773	1123.62
962	1061.62
962.227	1112.62
962.454	1088.62
962.68	1062.62
962.907	1100.62
963.134	1042.62
963.36	1089.62
963.587	1098.62
963.813	1029.62
964.04	1105.62
964.266	1038.62
964.493	1116.62
964.719	1106.62
964.945	1096.62
965.171	994.62
965.398	1063.62
965.624	1077.62
965.85	1030.62
966.076	1042.62
966.302	1069.62
966.528	1041.62
966.754	1072.62
966.98	1047.62
967.206	1044.62
967.431	996.62
967.657	1075.62
967.883	1061.62
968.109	1023.62
968.334	1003.62
968.56	1017.62
968.785	1021.62
969.011	968.62
969.236	1043.62
969.462	983.62
969.687	1017.62
969.912	1046.62
970.138	1083.62
970.363	990.62
970.588	1005.62
970.813	1001.62
971.038	994.62
971.263	1039.62
971.488	1049.62
971.713	1052.62
971.938	1028.62
972.163	981.62
972.388	1000.62
972.613	976.62
972.838	992.62
973.062	980.62
973.287	982.62
973.512	932.62
973.736	979.62
973.961	959.62
974.185	939.62
974.41	989.62
974.634	889.62
974.858	936.62
975.083	945.62
975.307	1006.62
975.531	920.62
975.755	883.62
975.98	925.62
976.204	883.62
976.428	877.62
976.652	904.62
976.876	882.62
977.1	926.62
977.324	903.62
977.547	919.62
977.771	950.62
977.995	931.62
978.219	863.62
978.442	963.62
978.666	908.62
978.89	899.62
979.113	913.62
979.337	921.62
979.56	885.62
979.783	967.62
980.007	867.62
980.23	881.62
980.453	866.62
980.677	903.62
980.9	893.62
981.123	823.62
981.346	911.62
981.569	903.62
981.792	913.62
982.015	876.62
982.238	848.62
982.461	889.62
982.684	855.62
982.907	839.62
983.129	829.62
983.352	907.62
983.575	879.62
983.797	892.62
984.02	848.62
984.242	859.62
984.465	855.62
984.687	883.62
984.91	937.62
985.132	909.62
985.354	913.62
985.577	889.62
985.799	879.62
986.021	816.62
986.243	835.62
986.465	855.62
986.687	885.62
986.909	952.62
987.131	873.62
987.353	853.62
987.575	891.62
987.797	855.62
988.019	786.62
988.241	880.62
988.462	836.62
988.684	875.62
988.906	919.62
989.127	934.62
989.349	818.62
989.57	868.62
989.792	890.62
990.013	919.62
990.234	922.62
990.456	937.62
990.677	931.62
990.898	869.62
991.119	870.62
991.341	918.62
991.562	846.62
991.783	892.62
992.004	843.62
992.225	816.62
992.446	884.62
992.667	803.62
992.887	887.62
993.108	788.62
993.329	910.62
993.55	861.62
993.77	812.62
993.991	819.62
994.212	869.62
994.432	861.62
994.653	888.62
994.873	862.62
995.093	769.62
995.314	811.62
995.534	881.62
995.754	901.62
995.975	917.62
996.195	821.62
996.415	874.62
996.635	831.62
996.855	861.62
997.075	829.62
997.295	838.62
997.515	829.62
997.735	892.62
997.955	851.62
998.174	843.62
998.394	809.62
998.614	858.62
998.834	836.62
999.053	916.62
999.273	850.62
999.492	920.62
999.712	848.62
999.931	849.62
1000.151	882.62
1000.37	846.62
1000.589	927.62
1000.809	848.62
1001.028	961.62
1001.247	899.62
1001.466	817.62
1001.685	944.62
1001.904	889.62
1002.123	874.62
1002.342	915.62
1002.561	858.62
1002.78	903.62
1002.999	960.62
1003.218	909.62
1003.436	891.62
1003.655	937.62
1003.874	883.62
1004.092	901.62
1004.311	964.62
1004.53	902.62
1004.748	971.62
1004.966	905.62
1005.185	969.62
1005.403	968.62
1005.622	935.62
1005.84	1024.62
1006.058	908.62
1006.276	947.62
1006.494	1415.62
1006.712	951.62
1006.931	974.62
1007.149	902.62
1007.367	904.62
1007.584	936.62
1007.802	970.62
1008.02	919.62
1008.238	995.62
1008.456	991.62
1008.673	852.62
1008.891	950.62
1009.109	915.62
1009.326	966.62
1009.544	1035.62
1009.761	911.62
1009.979	991.62
1010.196	994.62
1010.413	1041.62
1010.631	1069.62
1010.848	1074.62
1011.065	1100.62
1011.282	1045.62
1011.5	982.62
1011.717	1062.62
1011.934	1008.62
1012.151	1067.62
1012.368	1046.62
1012.585	1005.62
1012.801	1068.62
1013.018	1029.62
1013.235	996.62
1013.452	1006.62
1013.669	1002.62
1013.885	962.62
1014.102	1031.62
1014.318	967.62
1014.535	952.62
1014.751	980.62
1014.968	982.62
1015.184	1038.62
1015.401	934.62
1015.617	992.62
1015.833	926.62
1016.049	950.62
1016.266	941.62
1016.482	935.62
1016.698	882.62
1016.914	955.62
1017.13	899.62
1017.346	884.62
1017.562	958.62
1017.778	909.62
1017.993	880.62
1018.209	943.62
1018.425	911.62
1018.641	869.62
1018.856	852.62
1019.072	884.62
1019.288	940.62
1019.503	905.62
1019.719	799.62
1019.934	814.62
1020.149	915.62
1020.365	876.62
1020.58	812.62
1020.795	865.62
1021.011	826.62
1021.226	816.62
1021.441	833.62
1021.656	787.62
1021.871	738.62
1022.086	733.62
1022.301	731.62
1022.516	727.62
1022.731	811.62
1022.946	696.62
1023.16	700.62
1023.375	686.62
1023.59	687.62
1023.804	655.62
1024.019	750.62
1024.234	631.62
1024.448	661.62
1024.663	618.62
1024.877	625.62
1025.092	680.62
1025.306	665.62
1025.52	584.62
1025.734	670.62
1025.949	611.62
1026.163	595.62
1026.377	533.62
1026.591	594.62
1026.805	528.62
1027.019	541.62
1027.233	501.62
1027.447	449.62
1027.661	561.62
1027.875	500.62
1028.088	528.62
1028.302	458.62
1028.516	458.62
1028.73	471.62
1028.943	469.62
1029.157	431.62
1029.37	405.62
1029.584	1.62
1029.797	-0.38
1030.011	-0.38
1030.224	-0.38
