Data from QEP037381__99__10-19-52-733.txt Node

Date: Wed Dec 21 10:19:52 EST 2022
User: dcclab
Spectrometer: QEP03738
Trigger mode: 4
Integration Time (sec): 1.000000E1
Scans to average: 1
Electric dark correction enabled: true
Nonlinearity correction enabled: false
Boxcar width: 0
XAxis mode: Wavelengths
Number of Pixels in Spectrum: 1044
>>>>>Begin Spectral Data<<<<<
784.041	13.25
784.3	0.25
784.558	-2.75
784.817	-3.75
785.075	84208.25
785.334	14056.25
785.592	6378.25
785.851	4436.25
786.109	3343.25
786.368	2606.25
786.626	2121.25
786.884	1775.25
787.143	1474.25
787.401	1243.25
787.659	1131.25
787.917	959.25
788.175	913.25
788.433	784.25
788.691	727.25
788.949	659.25
789.207	638.25
789.465	564.25
789.723	545.25
789.98	501.25
790.238	529.25
790.496	506.25
790.753	479.25
791.011	532.25
791.268	466.25
791.526	463.25
791.783	465.25
792.041	443.25
792.298	373.25
792.556	453.25
792.813	422.25
793.07	401.25
793.327	394.25
793.584	461.25
793.841	399.25
794.099	416.25
794.356	459.25
794.613	375.25
794.869	416.25
795.126	372.25
795.383	354.25
795.64	389.25
795.897	333.25
796.153	389.25
796.41	373.25
796.667	362.25
796.923	359.25
797.18	353.25
797.436	399.25
797.693	353.25
797.949	378.25
798.206	421.25
798.462	339.25
798.718	395.25
798.974	370.25
799.231	397.25
799.487	374.25
799.743	379.25
799.999	416.25
800.255	384.25
800.511	374.25
800.767	404.25
801.023	383.25
801.279	396.25
801.534	410.25
801.79	427.25
802.046	403.25
802.302	461.25
802.557	463.25
802.813	520.25
803.068	528.25
803.324	667.25
803.579	760.25
803.835	944.25
804.09	1270.25
804.345	1541.25
804.601	1848.25
804.856	2202.25
805.111	2494.25
805.366	2687.25
805.621	2832.25
805.876	2946.25
806.131	3003.25
806.386	2975.25
806.641	3012.25
806.896	3076.25
807.151	3192.25
807.406	3173.25
807.661	3203.25
807.915	3298.25
808.17	3300.25
808.425	3357.25
808.679	3328.25
808.934	3441.25
809.188	3406.25
809.443	3494.25
809.697	3569.25
809.951	3530.25
810.206	3540.25
810.46	3590.25
810.714	3619.25
810.968	3667.25
811.223	3616.25
811.477	3689.25
811.731	3715.25
811.985	3685.25
812.239	3633.25
812.493	3689.25
812.747	3747.25
813	3766.25
813.254	3772.25
813.508	3820.25
813.762	3796.25
814.015	3843.25
814.269	3845.25
814.522	3848.25
814.776	3937.25
815.03	3964.25
815.283	3999.25
815.536	4100.25
815.79	4128.25
816.043	4158.25
816.296	4209.25
816.55	4250.25
816.803	4331.25
817.056	4413.25
817.309	4375.25
817.562	4390.25
817.815	4494.25
818.068	4430.25
818.321	4488.25
818.574	4533.25
818.827	4656.25
819.079	4670.25
819.332	4834.25
819.585	4902.25
819.838	4961.25
820.09	4836.25
820.343	5021.25
820.595	4928.25
820.848	4999.25
821.1	5003.25
821.353	4985.25
821.605	4981.25
821.857	5058.25
822.11	4967.25
822.362	4981.25
822.614	4966.25
822.866	5026.25
823.118	4993.25
823.37	5108.25
823.622	5064.25
823.874	5130.25
824.126	5125.25
824.378	5092.25
824.63	5153.25
824.882	5122.25
825.134	5083.25
825.385	5173.25
825.637	5086.25
825.888	5065.25
826.14	5073.25
826.392	4984.25
826.643	4901.25
826.895	5027.25
827.146	4946.25
827.397	4946.25
827.649	4984.25
827.9	4901.25
828.151	4880.25
828.402	4926.25
828.653	4916.25
828.905	4992.25
829.156	5023.25
829.407	4971.25
829.658	4967.25
829.909	4988.25
830.159	4987.25
830.41	4991.25
830.661	4960.25
830.912	4909.25
831.162	4889.25
831.413	4912.25
831.664	4916.25
831.914	4849.25
832.165	4883.25
832.415	4896.25
832.666	4925.25
832.916	4942.25
833.167	4867.25
833.417	4916.25
833.667	4900.25
833.917	4915.25
834.168	4910.25
834.418	4925.25
834.668	4871.25
834.918	4866.25
835.168	4843.25
835.418	4814.25
835.668	4787.25
835.918	4873.25
836.167	4793.25
836.417	4737.25
836.667	4782.25
836.917	4793.25
837.166	4787.25
837.416	4766.25
837.666	4777.25
837.915	4736.25
838.165	4732.25
838.414	4649.25
838.663	4620.25
838.913	4672.25
839.162	4623.25
839.411	4726.25
839.661	4623.25
839.91	4706.25
840.159	4646.25
840.408	4672.25
840.657	4644.25
840.906	4709.25
841.155	4667.25
841.404	4623.25
841.653	4605.25
841.902	4671.25
842.15	4680.25
842.399	4671.25
842.648	4633.25
842.897	4610.25
843.145	4553.25
843.394	4564.25
843.642	4562.25
843.891	4567.25
844.139	4509.25
844.388	4471.25
844.636	4455.25
844.884	4487.25
845.133	4437.25
845.381	4455.25
845.629	4499.25
845.877	4405.25
846.125	4427.25
846.373	4482.25
846.621	4419.25
846.869	4458.25
847.117	4433.25
847.365	4397.25
847.613	4364.25
847.861	4356.25
848.108	4394.25
848.356	4398.25
848.604	4350.25
848.851	4399.25
849.099	4349.25
849.346	4376.25
849.594	4430.25
849.841	4445.25
850.089	4382.25
850.336	4380.25
850.583	4394.25
850.831	4438.25
851.078	4461.25
851.325	4497.25
851.572	4568.25
851.819	4538.25
852.066	4360.25
852.313	4255.25
852.56	4161.25
852.807	4127.25
853.054	4149.25
853.301	4152.25
853.548	4194.25
853.794	4317.25
854.041	4291.25
854.288	4188.25
854.534	4337.25
854.781	4317.25
855.028	4265.25
855.274	4350.25
855.52	4267.25
855.767	4196.25
856.013	4226.25
856.26	4504.25
856.506	4138.25
856.752	4162.25
856.998	4181.25
857.244	4151.25
857.49	4173.25
857.736	4195.25
857.982	4197.25
858.228	4183.25
858.474	4128.25
858.72	4144.25
858.966	4135.25
859.212	4066.25
859.458	3963.25
859.703	3962.25
859.949	3909.25
860.195	3962.25
860.44	3913.25
860.686	3834.25
860.931	3900.25
861.177	3849.25
861.422	3862.25
861.667	3794.25
861.913	3800.25
862.158	3795.25
862.403	3903.25
862.648	3933.25
862.893	3954.25
863.138	3859.25
863.384	3871.25
863.629	3878.25
863.873	3912.25
864.118	3839.25
864.363	3748.25
864.608	3894.25
864.853	3887.25
865.098	3804.25
865.342	3846.25
865.587	3736.25
865.832	3784.25
866.076	3785.25
866.321	3738.25
866.565	3761.25
866.81	3659.25
867.054	3717.25
867.298	3758.25
867.543	3651.25
867.787	3737.25
868.031	3631.25
868.275	3666.25
868.519	3689.25
868.764	3684.25
869.008	3660.25
869.252	3704.25
869.496	3645.25
869.739	3651.25
869.983	3668.25
870.227	3647.25
870.471	3648.25
870.715	3693.25
870.958	3659.25
871.202	3650.25
871.446	3672.25
871.689	3662.25
871.933	3676.25
872.176	3653.25
872.42	3615.25
872.663	3631.25
872.906	3678.25
873.15	3641.25
873.393	3591.25
873.636	3651.25
873.879	3621.25
874.122	3629.25
874.366	3506.25
874.609	3507.25
874.852	3486.25
875.095	3463.25
875.337	3461.25
875.58	3394.25
875.823	3414.25
876.066	3437.25
876.309	3496.25
876.551	3363.25
876.794	3364.25
877.037	3406.25
877.279	3314.25
877.522	3329.25
877.764	3365.25
878.007	3344.25
878.249	3395.25
878.491	3291.25
878.734	3398.25
878.976	3333.25
879.218	3246.25
879.46	3337.25
879.702	3329.25
879.945	3257.25
880.187	3177.25
880.429	3248.25
880.671	3203.25
880.912	3157.25
881.154	3165.25
881.396	3085.25
881.638	3158.25
881.88	3121.25
882.121	3113.25
882.363	3137.25
882.605	3206.25
882.846	3142.25
883.088	3153.25
883.329	3113.25
883.571	3094.25
883.812	3148.25
884.053	3188.25
884.295	3272.25
884.536	3436.25
884.777	3345.25
885.018	3353.25
885.259	3340.25
885.5	3228.25
885.742	3544.25
885.982	3274.25
886.223	3195.25
886.464	3177.25
886.705	3073.25
886.946	3130.25
887.187	3015.25
887.428	3114.25
887.668	2989.25
887.909	2920.25
888.15	2853.25
888.39	2912.25
888.631	2924.25
888.871	2903.25
889.111	2914.25
889.352	2832.25
889.592	2817.25
889.833	2830.25
890.073	2776.25
890.313	2802.25
890.553	2729.25
890.793	2751.25
891.033	2708.25
891.273	2715.25
891.513	2696.25
891.753	2811.25
891.993	2699.25
892.233	2704.25
892.473	2783.25
892.713	2745.25
892.952	2730.25
893.192	2807.25
893.432	2732.25
893.671	2783.25
893.911	2755.25
894.15	2706.25
894.39	2613.25
894.629	2660.25
894.869	2682.25
895.108	2638.25
895.347	2613.25
895.587	2679.25
895.826	2580.25
896.065	2602.25
896.304	2639.25
896.543	2662.25
896.782	2575.25
897.021	2610.25
897.26	2598.25
897.499	2688.25
897.738	2654.25
897.977	2603.25
898.216	2573.25
898.454	2555.25
898.693	2481.25
898.932	2538.25
899.17	2471.25
899.409	2501.25
899.647	2491.25
899.886	2486.25
900.124	2479.25
900.363	2443.25
900.601	2493.25
900.839	2504.25
901.078	2510.25
901.316	2535.25
901.554	2506.25
901.792	2544.25
902.03	2492.25
902.268	2553.25
902.506	2543.25
902.744	2504.25
902.982	2521.25
903.22	2435.25
903.458	2410.25
903.695	2436.25
903.933	2391.25
904.171	2289.25
904.409	2323.25
904.646	2285.25
904.884	2270.25
905.121	2324.25
905.359	2223.25
905.596	2219.25
905.833	2169.25
906.071	2214.25
906.308	2230.25
906.545	2182.25
906.783	2149.25
907.02	2198.25
907.257	2139.25
907.494	2178.25
907.731	2152.25
907.968	2177.25
908.205	2137.25
908.442	2134.25
908.679	2106.25
908.915	2083.25
909.152	2110.25
909.389	2013.25
909.626	2043.25
909.862	1989.25
910.099	2052.25
910.335	2044.25
910.572	1941.25
910.808	2040.25
911.045	1998.25
911.281	1990.25
911.518	2069.25
911.754	1991.25
911.99	1989.25
912.226	1976.25
912.463	1911.25
912.699	1935.25
912.935	1924.25
913.171	1937.25
913.407	1875.25
913.643	1927.25
913.879	1896.25
914.114	1902.25
914.35	1851.25
914.586	1842.25
914.822	1798.25
915.057	1900.25
915.293	1775.25
915.529	1779.25
915.764	1869.25
916	1840.25
916.235	1803.25
916.471	1823.25
916.706	1765.25
916.941	1776.25
917.177	1762.25
917.412	1790.25
917.647	1813.25
917.882	1744.25
918.117	1815.25
918.352	1800.25
918.588	1829.25
918.823	1784.25
919.057	1757.25
919.292	1665.25
919.527	1767.25
919.762	1688.25
919.997	1711.25
920.232	1693.25
920.466	1728.25
920.701	1618.25
920.935	1653.25
921.17	1627.25
921.405	1589.25
921.639	1673.25
921.873	1617.25
922.108	1649.25
922.342	1611.25
922.576	1560.25
922.811	1592.25
923.045	1638.25
923.279	1658.25
923.513	1547.25
923.747	1660.25
923.981	1597.25
924.215	1539.25
924.449	1519.25
924.683	1510.25
924.917	1522.25
925.151	1541.25
925.385	1605.25
925.618	1555.25
925.852	1555.25
926.086	1487.25
926.319	1537.25
926.553	1533.25
926.786	1552.25
927.02	1522.25
927.253	1571.25
927.486	1584.25
927.72	1488.25
927.953	1541.25
928.186	1544.25
928.42	1571.25
928.653	1498.25
928.886	1478.25
929.119	1524.25
929.352	1498.25
929.585	1480.25
929.818	1460.25
930.051	1481.25
930.284	1481.25
930.516	1399.25
930.749	1421.25
930.982	1474.25
931.215	1466.25
931.447	1416.25
931.68	1446.25
931.912	1391.25
932.145	1395.25
932.377	1440.25
932.61	1542.25
932.842	1336.25
933.074	1427.25
933.307	1367.25
933.539	1477.25
933.771	1472.25
934.003	1404.25
934.236	1485.25
934.468	1485.25
934.7	1404.25
934.932	1434.25
935.164	1395.25
935.395	1355.25
935.627	1416.25
935.859	1412.25
936.091	1348.25
936.323	1417.25
936.554	1428.25
936.786	1396.25
937.017	1365.25
937.249	1381.25
937.481	1340.25
937.712	1394.25
937.943	1375.25
938.175	1350.25
938.406	1342.25
938.637	1438.25
938.869	1315.25
939.1	1365.25
939.331	1346.25
939.562	1364.25
939.793	1345.25
940.024	1379.25
940.255	1378.25
940.486	1374.25
940.717	1337.25
940.948	1328.25
941.179	1299.25
941.409	1323.25
941.64	1301.25
941.871	1341.25
942.102	1299.25
942.332	1340.25
942.563	1347.25
942.793	1340.25
943.024	1304.25
943.254	1329.25
943.484	1373.25
943.715	1366.25
943.945	1327.25
944.175	1281.25
944.405	1264.25
944.636	1277.25
944.866	1299.25
945.096	1323.25
945.326	1283.25
945.556	1323.25
945.786	1324.25
946.016	1284.25
946.245	1275.25
946.475	1269.25
946.705	1243.25
946.935	1295.25
947.164	1283.25
947.394	1241.25
947.624	1271.25
947.853	1281.25
948.083	1277.25
948.312	1264.25
948.542	1169.25
948.771	1189.25
949	1198.25
949.23	1215.25
949.459	1211.25
949.688	1265.25
949.917	1247.25
950.146	1238.25
950.375	1288.25
950.604	1186.25
950.833	1290.25
951.062	1295.25
951.291	1223.25
951.52	1205.25
951.749	1225.25
951.978	1196.25
952.206	1196.25
952.435	1188.25
952.664	1230.25
952.892	1268.25
953.121	1201.25
953.349	1255.25
953.578	1242.25
953.806	1227.25
954.035	1170.25
954.263	1220.25
954.491	1162.25
954.719	1220.25
954.948	1147.25
955.176	1158.25
955.404	1096.25
955.632	1171.25
955.86	1195.25
956.088	1180.25
956.316	1214.25
956.544	1214.25
956.772	1160.25
956.999	1133.25
957.227	1233.25
957.455	1159.25
957.683	1151.25
957.91	1130.25
958.138	1131.25
958.365	1147.25
958.593	1143.25
958.82	1094.25
959.048	1168.25
959.275	1141.25
959.502	1116.25
959.73	1112.25
959.957	1163.25
960.184	1227.25
960.411	1157.25
960.638	1211.25
960.865	1154.25
961.092	1178.25
961.319	1082.25
961.546	1173.25
961.773	1161.25
962	1112.25
962.227	1167.25
962.454	1146.25
962.68	1108.25
962.907	1154.25
963.134	1082.25
963.36	1116.25
963.587	1143.25
963.813	1087.25
964.04	1147.25
964.266	1065.25
964.493	1171.25
964.719	1123.25
964.945	1150.25
965.171	1052.25
965.398	1099.25
965.624	1118.25
965.85	1053.25
966.076	1101.25
966.302	1101.25
966.528	1073.25
966.754	1114.25
966.98	1103.25
967.206	1084.25
967.431	1057.25
967.657	1115.25
967.883	1100.25
968.109	1096.25
968.334	1047.25
968.56	1042.25
968.785	1054.25
969.011	1018.25
969.236	1079.25
969.462	1038.25
969.687	1061.25
969.912	1089.25
970.138	1114.25
970.363	1037.25
970.588	1067.25
970.813	1040.25
971.038	1010.25
971.263	1066.25
971.488	1055.25
971.713	1114.25
971.938	1093.25
972.163	1005.25
972.388	1032.25
972.613	1006.25
972.838	1036.25
973.062	1003.25
973.287	1038.25
973.512	960.25
973.736	1021.25
973.961	999.25
974.185	986.25
974.41	1041.25
974.634	943.25
974.858	956.25
975.083	1001.25
975.307	1037.25
975.531	958.25
975.755	925.25
975.98	966.25
976.204	887.25
976.428	920.25
976.652	940.25
976.876	903.25
977.1	950.25
977.324	925.25
977.547	956.25
977.771	964.25
977.995	928.25
978.219	877.25
978.442	1031.25
978.666	939.25
978.89	950.25
979.113	932.25
979.337	934.25
979.56	894.25
979.783	996.25
980.007	884.25
980.23	923.25
980.453	894.25
980.677	920.25
980.9	917.25
981.123	856.25
981.346	936.25
981.569	918.25
981.792	925.25
982.015	938.25
982.238	888.25
982.461	922.25
982.684	880.25
982.907	890.25
983.129	856.25
983.352	930.25
983.575	901.25
983.797	896.25
984.02	873.25
984.242	874.25
984.465	897.25
984.687	914.25
984.91	946.25
985.132	902.25
985.354	909.25
985.577	897.25
985.799	902.25
986.021	846.25
986.243	857.25
986.465	895.25
986.687	933.25
986.909	956.25
987.131	901.25
987.353	858.25
987.575	910.25
987.797	898.25
988.019	821.25
988.241	900.25
988.462	837.25
988.684	906.25
988.906	945.25
989.127	954.25
989.349	839.25
989.57	904.25
989.792	923.25
990.013	921.25
990.234	941.25
990.456	935.25
990.677	949.25
990.898	867.25
991.119	892.25
991.341	923.25
991.562	864.25
991.783	909.25
992.004	856.25
992.225	828.25
992.446	888.25
992.667	803.25
992.887	927.25
993.108	793.25
993.329	955.25
993.55	871.25
993.77	825.25
993.991	850.25
994.212	881.25
994.432	870.25
994.653	889.25
994.873	901.25
995.093	781.25
995.314	826.25
995.534	901.25
995.754	915.25
995.975	932.25
996.195	823.25
996.415	893.25
996.635	850.25
996.855	883.25
997.075	836.25
997.295	849.25
997.515	825.25
997.735	886.25
997.955	867.25
998.174	839.25
998.394	826.25
998.614	868.25
998.834	816.25
999.053	900.25
999.273	877.25
999.492	932.25
999.712	873.25
999.931	835.25
1000.151	908.25
1000.37	870.25
1000.589	936.25
1000.809	872.25
1001.028	974.25
1001.247	914.25
1001.466	821.25
1001.685	982.25
1001.904	901.25
1002.123	907.25
1002.342	921.25
1002.561	876.25
1002.78	892.25
1002.999	971.25
1003.218	905.25
1003.436	894.25
1003.655	936.25
1003.874	876.25
1004.092	918.25
1004.311	952.25
1004.53	927.25
1004.748	990.25
1004.966	924.25
1005.185	964.25
1005.403	959.25
1005.622	943.25
1005.84	1031.25
1006.058	930.25
1006.276	936.25
1006.494	1442.25
1006.712	946.25
1006.931	1004.25
1007.149	896.25
1007.367	922.25
1007.584	951.25
1007.802	992.25
1008.02	921.25
1008.238	1016.25
1008.456	984.25
1008.673	855.25
1008.891	967.25
1009.109	930.25
1009.326	968.25
1009.544	1035.25
1009.761	930.25
1009.979	1000.25
1010.196	988.25
1010.413	1048.25
1010.631	1095.25
1010.848	1097.25
1011.065	1080.25
1011.282	1041.25
1011.5	987.25
1011.717	1103.25
1011.934	1039.25
1012.151	1076.25
1012.368	1069.25
1012.585	1003.25
1012.801	1072.25
1013.018	1037.25
1013.235	1002.25
1013.452	1016.25
1013.669	1006.25
1013.885	975.25
1014.102	1023.25
1014.318	1003.25
1014.535	982.25
1014.751	1010.25
1014.968	992.25
1015.184	1019.25
1015.401	937.25
1015.617	1012.25
1015.833	943.25
1016.049	943.25
1016.266	936.25
1016.482	936.25
1016.698	884.25
1016.914	970.25
1017.13	893.25
1017.346	895.25
1017.562	996.25
1017.778	913.25
1017.993	870.25
1018.209	948.25
1018.425	922.25
1018.641	870.25
1018.856	849.25
1019.072	875.25
1019.288	929.25
1019.503	911.25
1019.719	808.25
1019.934	825.25
1020.149	910.25
1020.365	845.25
1020.58	817.25
1020.795	872.25
1021.011	827.25
1021.226	801.25
1021.441	842.25
1021.656	776.25
1021.871	735.25
1022.086	749.25
1022.301	743.25
1022.516	727.25
1022.731	817.25
1022.946	703.25
1023.16	683.25
1023.375	686.25
1023.59	665.25
1023.804	652.25
1024.019	757.25
1024.234	626.25
1024.448	669.25
1024.663	619.25
1024.877	626.25
1025.092	649.25
1025.306	677.25
1025.52	580.25
1025.734	689.25
1025.949	599.25
1026.163	584.25
1026.377	539.25
1026.591	593.25
1026.805	534.25
1027.019	536.25
1027.233	482.25
1027.447	444.25
1027.661	560.25
1027.875	484.25
1028.088	519.25
1028.302	470.25
1028.516	453.25
1028.73	465.25
1028.943	467.25
1029.157	436.25
1029.37	407.25
1029.584	-1.75
1029.797	0.25
1030.011	0.25
1030.224	-5.75
