Data from QEP037381__86__10-17-42-731.txt Node

Date: Wed Dec 21 10:17:42 EST 2022
User: dcclab
Spectrometer: QEP03738
Trigger mode: 4
Integration Time (sec): 1.000000E1
Scans to average: 1
Electric dark correction enabled: true
Nonlinearity correction enabled: false
Boxcar width: 0
XAxis mode: Wavelengths
Number of Pixels in Spectrum: 1044
>>>>>Begin Spectral Data<<<<<
784.041	9.5
784.3	-0.5
784.558	-3.5
784.817	-0.5
785.075	81287.5
785.334	13929.5
785.592	6460.5
785.851	4451.5
786.109	3359.5
786.368	2605.5
786.626	2118.5
786.884	1772.5
787.143	1500.5
787.401	1203.5
787.659	1113.5
787.917	972.5
788.175	902.5
788.433	806.5
788.691	700.5
788.949	678.5
789.207	645.5
789.465	552.5
789.723	526.5
789.98	509.5
790.238	532.5
790.496	515.5
790.753	482.5
791.011	531.5
791.268	474.5
791.526	440.5
791.783	482.5
792.041	466.5
792.298	378.5
792.556	433.5
792.813	433.5
793.07	418.5
793.327	395.5
793.584	450.5
793.841	390.5
794.099	423.5
794.356	469.5
794.613	378.5
794.869	407.5
795.126	377.5
795.383	366.5
795.64	367.5
795.897	328.5
796.153	394.5
796.41	375.5
796.667	364.5
796.923	382.5
797.18	381.5
797.436	396.5
797.693	350.5
797.949	408.5
798.206	432.5
798.462	342.5
798.718	404.5
798.974	371.5
799.231	419.5
799.487	389.5
799.743	399.5
799.999	402.5
800.255	398.5
800.511	383.5
800.767	427.5
801.023	389.5
801.279	400.5
801.534	417.5
801.79	439.5
802.046	429.5
802.302	490.5
802.557	492.5
802.813	560.5
803.068	580.5
803.324	728.5
803.579	856.5
803.835	1086.5
804.09	1461.5
804.345	1816.5
804.601	2198.5
804.856	2690.5
805.111	3093.5
805.366	3364.5
805.621	3549.5
805.876	3696.5
806.131	3790.5
806.386	3810.5
806.641	3818.5
806.896	3937.5
807.151	4029.5
807.406	4077.5
807.661	4115.5
807.915	4120.5
808.17	4201.5
808.425	4234.5
808.679	4285.5
808.934	4370.5
809.188	4408.5
809.443	4416.5
809.697	4499.5
809.951	4477.5
810.206	4557.5
810.46	4583.5
810.714	4624.5
810.968	4640.5
811.223	4640.5
811.477	4712.5
811.731	4749.5
811.985	4719.5
812.239	4722.5
812.493	4791.5
812.747	4812.5
813	4789.5
813.254	4832.5
813.508	4923.5
813.762	4868.5
814.015	4902.5
814.269	4917.5
814.522	4961.5
814.776	5069.5
815.03	5130.5
815.283	5238.5
815.536	5282.5
815.79	5352.5
816.043	5400.5
816.296	5424.5
816.55	5487.5
816.803	5573.5
817.056	5740.5
817.309	5650.5
817.562	5691.5
817.815	5844.5
818.068	5781.5
818.321	5827.5
818.574	5975.5
818.827	6078.5
819.079	6074.5
819.332	6319.5
819.585	6283.5
819.838	6426.5
820.09	6356.5
820.343	6465.5
820.595	6414.5
820.848	6522.5
821.1	6594.5
821.353	6548.5
821.605	6527.5
821.857	6603.5
822.11	6456.5
822.362	6517.5
822.614	6448.5
822.866	6558.5
823.118	6500.5
823.37	6594.5
823.622	6562.5
823.874	6619.5
824.126	6682.5
824.378	6662.5
824.63	6730.5
824.882	6655.5
825.134	6636.5
825.385	6623.5
825.637	6615.5
825.888	6631.5
826.14	6555.5
826.392	6511.5
826.643	6462.5
826.895	6564.5
827.146	6460.5
827.397	6533.5
827.649	6496.5
827.9	6384.5
828.151	6443.5
828.402	6450.5
828.653	6465.5
828.905	6498.5
829.156	6519.5
829.407	6518.5
829.658	6522.5
829.909	6496.5
830.159	6549.5
830.41	6509.5
830.661	6474.5
830.912	6446.5
831.162	6432.5
831.413	6375.5
831.664	6453.5
831.914	6387.5
832.165	6396.5
832.415	6425.5
832.666	6422.5
832.916	6464.5
833.167	6399.5
833.417	6457.5
833.667	6346.5
833.917	6367.5
834.168	6406.5
834.418	6391.5
834.668	6366.5
834.918	6370.5
835.168	6304.5
835.418	6303.5
835.668	6375.5
835.918	6301.5
836.167	6260.5
836.417	6244.5
836.667	6281.5
836.917	6272.5
837.166	6147.5
837.416	6216.5
837.666	6244.5
837.915	6154.5
838.165	6146.5
838.414	6135.5
838.663	6030.5
838.913	6093.5
839.162	6059.5
839.411	6092.5
839.661	6052.5
839.91	6106.5
840.159	6083.5
840.408	6089.5
840.657	6113.5
840.906	6117.5
841.155	6143.5
841.404	6034.5
841.653	6077.5
841.902	6024.5
842.15	6167.5
842.399	6091.5
842.648	6091.5
842.897	6088.5
843.145	6016.5
843.394	5984.5
843.642	5888.5
843.891	5976.5
844.139	5931.5
844.388	5880.5
844.636	5823.5
844.884	5873.5
845.133	5829.5
845.381	5873.5
845.629	5874.5
845.877	5802.5
846.125	5866.5
846.373	5892.5
846.621	5747.5
846.869	5775.5
847.117	5769.5
847.365	5660.5
847.613	5745.5
847.861	5744.5
848.108	5746.5
848.356	5687.5
848.604	5690.5
848.851	5694.5
849.099	5733.5
849.346	5768.5
849.594	5783.5
849.841	5816.5
850.089	5732.5
850.336	5776.5
850.583	5788.5
850.831	5771.5
851.078	5790.5
851.325	5798.5
851.572	5861.5
851.819	5848.5
852.066	5670.5
852.313	5524.5
852.56	5415.5
852.807	5478.5
853.054	5470.5
853.301	5389.5
853.548	5512.5
853.794	5611.5
854.041	5547.5
854.288	5558.5
854.534	5670.5
854.781	5544.5
855.028	5515.5
855.274	5603.5
855.52	5488.5
855.767	5468.5
856.013	5464.5
856.26	5804.5
856.506	5413.5
856.752	5472.5
856.998	5415.5
857.244	5397.5
857.49	5474.5
857.736	5478.5
857.982	5484.5
858.228	5456.5
858.474	5388.5
858.72	5343.5
858.966	5336.5
859.212	5321.5
859.458	5294.5
859.703	5235.5
859.949	5110.5
860.195	5168.5
860.44	5108.5
860.686	5042.5
860.931	5079.5
861.177	4997.5
861.422	4996.5
861.667	4994.5
861.913	4972.5
862.158	5028.5
862.403	5093.5
862.648	5100.5
862.893	5123.5
863.138	5088.5
863.384	5055.5
863.629	5061.5
863.873	5021.5
864.118	4979.5
864.363	4896.5
864.608	5021.5
864.853	5049.5
865.098	4970.5
865.342	4939.5
865.587	4872.5
865.832	4974.5
866.076	4930.5
866.321	4910.5
866.565	4889.5
866.81	4777.5
867.054	4833.5
867.298	4850.5
867.543	4779.5
867.787	4871.5
868.031	4797.5
868.275	4802.5
868.519	4806.5
868.764	4830.5
869.008	4772.5
869.252	4801.5
869.496	4755.5
869.739	4765.5
869.983	4776.5
870.227	4819.5
870.471	4708.5
870.715	4811.5
870.958	4792.5
871.202	4814.5
871.446	4767.5
871.689	4759.5
871.933	4744.5
872.176	4790.5
872.42	4766.5
872.663	4702.5
872.906	4696.5
873.15	4732.5
873.393	4682.5
873.636	4737.5
873.879	4694.5
874.122	4718.5
874.366	4603.5
874.609	4608.5
874.852	4503.5
875.095	4531.5
875.337	4482.5
875.58	4435.5
875.823	4488.5
876.066	4475.5
876.309	4534.5
876.551	4349.5
876.794	4352.5
877.037	4409.5
877.279	4314.5
877.522	4372.5
877.764	4371.5
878.007	4283.5
878.249	4356.5
878.491	4339.5
878.734	4435.5
878.976	4310.5
879.218	4270.5
879.46	4321.5
879.702	4266.5
879.945	4223.5
880.187	4171.5
880.429	4191.5
880.671	4101.5
880.912	4204.5
881.154	4167.5
881.396	4033.5
881.638	4133.5
881.88	4127.5
882.121	4105.5
882.363	4056.5
882.605	4133.5
882.846	4067.5
883.088	4093.5
883.329	4078.5
883.571	4017.5
883.812	4098.5
884.053	4180.5
884.295	4304.5
884.536	4379.5
884.777	4289.5
885.018	4293.5
885.259	4302.5
885.5	4226.5
885.742	4509.5
885.982	4219.5
886.223	4137.5
886.464	4117.5
886.705	4007.5
886.946	4073.5
887.187	3921.5
887.428	4015.5
887.668	3909.5
887.909	3816.5
888.15	3773.5
888.39	3793.5
888.631	3875.5
888.871	3821.5
889.111	3754.5
889.352	3729.5
889.592	3662.5
889.833	3652.5
890.073	3639.5
890.313	3700.5
890.553	3553.5
890.793	3568.5
891.033	3566.5
891.273	3491.5
891.513	3512.5
891.753	3575.5
891.993	3485.5
892.233	3552.5
892.473	3657.5
892.713	3558.5
892.952	3552.5
893.192	3553.5
893.432	3551.5
893.671	3621.5
893.911	3538.5
894.15	3498.5
894.39	3433.5
894.629	3443.5
894.869	3458.5
895.108	3459.5
895.347	3404.5
895.587	3401.5
895.826	3399.5
896.065	3399.5
896.304	3405.5
896.543	3444.5
896.782	3361.5
897.021	3367.5
897.26	3407.5
897.499	3465.5
897.738	3455.5
897.977	3356.5
898.216	3331.5
898.454	3293.5
898.693	3240.5
898.932	3264.5
899.17	3246.5
899.409	3215.5
899.647	3241.5
899.886	3245.5
900.124	3283.5
900.363	3209.5
900.601	3224.5
900.839	3250.5
901.078	3266.5
901.316	3257.5
901.554	3278.5
901.792	3301.5
902.03	3304.5
902.268	3297.5
902.506	3323.5
902.744	3261.5
902.982	3265.5
903.22	3173.5
903.458	3192.5
903.695	3177.5
903.933	3107.5
904.171	3048.5
904.409	2965.5
904.646	3044.5
904.884	2929.5
905.121	2972.5
905.359	2871.5
905.596	2876.5
905.833	2839.5
906.071	2783.5
906.308	2842.5
906.545	2820.5
906.783	2729.5
907.02	2780.5
907.257	2750.5
907.494	2801.5
907.731	2776.5
907.968	2780.5
908.205	2742.5
908.442	2736.5
908.679	2750.5
908.915	2730.5
909.152	2703.5
909.389	2619.5
909.626	2635.5
909.862	2602.5
910.099	2627.5
910.335	2596.5
910.572	2511.5
910.808	2591.5
911.045	2602.5
911.281	2549.5
911.518	2628.5
911.754	2546.5
911.99	2567.5
912.226	2539.5
912.463	2514.5
912.699	2483.5
912.935	2500.5
913.171	2489.5
913.407	2424.5
913.643	2486.5
913.879	2426.5
914.114	2407.5
914.35	2403.5
914.586	2380.5
914.822	2327.5
915.057	2418.5
915.293	2309.5
915.529	2288.5
915.764	2383.5
916	2333.5
916.235	2308.5
916.471	2327.5
916.706	2236.5
916.941	2284.5
917.177	2281.5
917.412	2319.5
917.647	2302.5
917.882	2269.5
918.117	2280.5
918.352	2302.5
918.588	2299.5
918.823	2221.5
919.057	2220.5
919.292	2138.5
919.527	2230.5
919.762	2165.5
919.997	2234.5
920.232	2146.5
920.466	2148.5
920.701	2071.5
920.935	2141.5
921.17	2090.5
921.405	2053.5
921.639	2121.5
921.873	2090.5
922.108	2083.5
922.342	2082.5
922.576	2038.5
922.811	2021.5
923.045	2093.5
923.279	2094.5
923.513	1966.5
923.747	2071.5
923.981	2032.5
924.215	1981.5
924.449	2002.5
924.683	1969.5
924.917	1945.5
925.151	1951.5
925.385	2016.5
925.618	1937.5
925.852	1948.5
926.086	1892.5
926.319	1928.5
926.553	1916.5
926.786	1930.5
927.02	1928.5
927.253	1968.5
927.486	1983.5
927.72	1900.5
927.953	1947.5
928.186	1895.5
928.42	1940.5
928.653	1880.5
928.886	1892.5
929.119	1916.5
929.352	1865.5
929.585	1879.5
929.818	1876.5
930.051	1890.5
930.284	1849.5
930.516	1787.5
930.749	1778.5
930.982	1846.5
931.215	1831.5
931.447	1747.5
931.68	1773.5
931.912	1777.5
932.145	1777.5
932.377	1792.5
932.61	1910.5
932.842	1715.5
933.074	1804.5
933.307	1772.5
933.539	1861.5
933.771	1822.5
934.003	1802.5
934.236	1829.5
934.468	1863.5
934.7	1774.5
934.932	1843.5
935.164	1774.5
935.395	1743.5
935.627	1783.5
935.859	1771.5
936.091	1714.5
936.323	1760.5
936.554	1786.5
936.786	1728.5
937.017	1682.5
937.249	1743.5
937.481	1666.5
937.712	1779.5
937.943	1729.5
938.175	1707.5
938.406	1691.5
938.637	1787.5
938.869	1681.5
939.1	1739.5
939.331	1682.5
939.562	1752.5
939.793	1718.5
940.024	1759.5
940.255	1738.5
940.486	1701.5
940.717	1674.5
940.948	1699.5
941.179	1630.5
941.409	1682.5
941.64	1645.5
941.871	1674.5
942.102	1649.5
942.332	1641.5
942.563	1709.5
942.793	1668.5
943.024	1617.5
943.254	1651.5
943.484	1683.5
943.715	1703.5
943.945	1651.5
944.175	1589.5
944.405	1611.5
944.636	1597.5
944.866	1658.5
945.096	1632.5
945.326	1571.5
945.556	1642.5
945.786	1677.5
946.016	1626.5
946.245	1591.5
946.475	1574.5
946.705	1587.5
946.935	1590.5
947.164	1603.5
947.394	1561.5
947.624	1585.5
947.853	1599.5
948.083	1577.5
948.312	1579.5
948.542	1475.5
948.771	1493.5
949	1528.5
949.23	1500.5
949.459	1541.5
949.688	1583.5
949.917	1517.5
950.146	1557.5
950.375	1578.5
950.604	1504.5
950.833	1610.5
951.062	1592.5
951.291	1536.5
951.52	1486.5
951.749	1535.5
951.978	1522.5
952.206	1491.5
952.435	1490.5
952.664	1558.5
952.892	1532.5
953.121	1532.5
953.349	1569.5
953.578	1529.5
953.806	1480.5
954.035	1463.5
954.263	1514.5
954.491	1443.5
954.719	1468.5
954.948	1462.5
955.176	1442.5
955.404	1391.5
955.632	1445.5
955.86	1479.5
956.088	1431.5
956.316	1471.5
956.544	1497.5
956.772	1447.5
956.999	1430.5
957.227	1496.5
957.455	1410.5
957.683	1435.5
957.91	1393.5
958.138	1355.5
958.365	1395.5
958.593	1376.5
958.82	1329.5
959.048	1418.5
959.275	1395.5
959.502	1391.5
959.73	1351.5
959.957	1426.5
960.184	1467.5
960.411	1390.5
960.638	1474.5
960.865	1394.5
961.092	1424.5
961.319	1332.5
961.546	1412.5
961.773	1412.5
962	1374.5
962.227	1412.5
962.454	1374.5
962.68	1370.5
962.907	1375.5
963.134	1356.5
963.36	1362.5
963.587	1414.5
963.813	1325.5
964.04	1401.5
964.266	1317.5
964.493	1406.5
964.719	1385.5
964.945	1385.5
965.171	1294.5
965.398	1323.5
965.624	1368.5
965.85	1299.5
966.076	1286.5
966.302	1343.5
966.528	1314.5
966.754	1318.5
966.98	1314.5
967.206	1308.5
967.431	1259.5
967.657	1334.5
967.883	1339.5
968.109	1305.5
968.334	1281.5
968.56	1252.5
968.785	1310.5
969.011	1242.5
969.236	1294.5
969.462	1265.5
969.687	1238.5
969.912	1316.5
970.138	1336.5
970.363	1240.5
970.588	1268.5
970.813	1243.5
971.038	1234.5
971.263	1273.5
971.488	1281.5
971.713	1272.5
971.938	1276.5
972.163	1200.5
972.388	1235.5
972.613	1226.5
972.838	1231.5
973.062	1205.5
973.287	1193.5
973.512	1153.5
973.736	1206.5
973.961	1193.5
974.185	1215.5
974.41	1222.5
974.634	1149.5
974.858	1118.5
975.083	1215.5
975.307	1206.5
975.531	1155.5
975.755	1108.5
975.98	1141.5
976.204	1098.5
976.428	1108.5
976.652	1115.5
976.876	1087.5
977.1	1118.5
977.324	1080.5
977.547	1157.5
977.771	1147.5
977.995	1124.5
978.219	1058.5
978.442	1212.5
978.666	1127.5
978.89	1126.5
979.113	1122.5
979.337	1135.5
979.56	1095.5
979.783	1167.5
980.007	1053.5
980.23	1090.5
980.453	1057.5
980.677	1114.5
980.9	1101.5
981.123	1028.5
981.346	1117.5
981.569	1068.5
981.792	1106.5
982.015	1081.5
982.238	1036.5
982.461	1068.5
982.684	1061.5
982.907	1039.5
983.129	1031.5
983.352	1082.5
983.575	1058.5
983.797	1071.5
984.02	1028.5
984.242	1031.5
984.465	1038.5
984.687	1074.5
984.91	1100.5
985.132	1072.5
985.354	1103.5
985.577	1049.5
985.799	1042.5
986.021	973.5
986.243	1002.5
986.465	1025.5
986.687	1074.5
986.909	1095.5
987.131	1048.5
987.353	1032.5
987.575	1062.5
987.797	1013.5
988.019	969.5
988.241	1023.5
988.462	1002.5
988.684	1074.5
988.906	1066.5
989.127	1110.5
989.349	990.5
989.57	1020.5
989.792	1062.5
990.013	1065.5
990.234	1082.5
990.456	1084.5
990.677	1078.5
990.898	1020.5
991.119	1012.5
991.341	1057.5
991.562	1017.5
991.783	1041.5
992.004	986.5
992.225	956.5
992.446	1036.5
992.667	946.5
992.887	1023.5
993.108	943.5
993.329	1052.5
993.55	1005.5
993.77	965.5
993.991	978.5
994.212	1019.5
994.432	991.5
994.653	1015.5
994.873	1007.5
995.093	903.5
995.314	962.5
995.534	1013.5
995.754	1047.5
995.975	1035.5
996.195	945.5
996.415	1002.5
996.635	972.5
996.855	998.5
997.075	964.5
997.295	956.5
997.515	933.5
997.735	1007.5
997.955	989.5
998.174	972.5
998.394	951.5
998.614	974.5
998.834	933.5
999.053	1020.5
999.273	982.5
999.492	1043.5
999.712	1001.5
999.931	938.5
1000.151	985.5
1000.37	993.5
1000.589	1036.5
1000.809	959.5
1001.028	1103.5
1001.247	1014.5
1001.466	927.5
1001.685	1070.5
1001.904	998.5
1002.123	988.5
1002.342	1010.5
1002.561	961.5
1002.78	999.5
1002.999	1055.5
1003.218	1008.5
1003.436	996.5
1003.655	1038.5
1003.874	973.5
1004.092	998.5
1004.311	1065.5
1004.53	1012.5
1004.748	1072.5
1004.966	992.5
1005.185	1062.5
1005.403	1063.5
1005.622	1034.5
1005.84	1111.5
1006.058	1017.5
1006.276	1018.5
1006.494	1524.5
1006.712	1017.5
1006.931	1085.5
1007.149	1017.5
1007.367	1029.5
1007.584	1034.5
1007.802	1065.5
1008.02	1013.5
1008.238	1106.5
1008.456	1095.5
1008.673	943.5
1008.891	1049.5
1009.109	1027.5
1009.326	1071.5
1009.544	1136.5
1009.761	1031.5
1009.979	1114.5
1010.196	1111.5
1010.413	1175.5
1010.631	1205.5
1010.848	1217.5
1011.065	1225.5
1011.282	1183.5
1011.5	1116.5
1011.717	1216.5
1011.934	1162.5
1012.151	1192.5
1012.368	1157.5
1012.585	1118.5
1012.801	1170.5
1013.018	1144.5
1013.235	1114.5
1013.452	1142.5
1013.669	1132.5
1013.885	1124.5
1014.102	1145.5
1014.318	1121.5
1014.535	1086.5
1014.751	1118.5
1014.968	1110.5
1015.184	1151.5
1015.401	1097.5
1015.617	1100.5
1015.833	1059.5
1016.049	1064.5
1016.266	1062.5
1016.482	1094.5
1016.698	1008.5
1016.914	1072.5
1017.13	1016.5
1017.346	1015.5
1017.562	1085.5
1017.778	1020.5
1017.993	975.5
1018.209	1040.5
1018.425	1026.5
1018.641	987.5
1018.856	960.5
1019.072	1004.5
1019.288	1046.5
1019.503	992.5
1019.719	910.5
1019.934	952.5
1020.149	999.5
1020.365	956.5
1020.58	900.5
1020.795	981.5
1021.011	913.5
1021.226	902.5
1021.441	928.5
1021.656	889.5
1021.871	821.5
1022.086	820.5
1022.301	820.5
1022.516	830.5
1022.731	916.5
1022.946	794.5
1023.16	794.5
1023.375	765.5
1023.59	752.5
1023.804	712.5
1024.019	837.5
1024.234	722.5
1024.448	755.5
1024.663	691.5
1024.877	691.5
1025.092	702.5
1025.306	748.5
1025.52	661.5
1025.734	737.5
1025.949	661.5
1026.163	649.5
1026.377	593.5
1026.591	648.5
1026.805	607.5
1027.019	591.5
1027.233	577.5
1027.447	515.5
1027.661	603.5
1027.875	566.5
1028.088	567.5
1028.302	508.5
1028.516	488.5
1028.73	512.5
1028.943	525.5
1029.157	472.5
1029.37	441.5
1029.584	-1.5
1029.797	0.5
1030.011	0.5
1030.224	-4.5
