Data from QEP037381__81__10-16-52-732.txt Node

Date: Wed Dec 21 10:16:52 EST 2022
User: dcclab
Spectrometer: QEP03738
Trigger mode: 4
Integration Time (sec): 1.000000E1
Scans to average: 1
Electric dark correction enabled: true
Nonlinearity correction enabled: false
Boxcar width: 0
XAxis mode: Wavelengths
Number of Pixels in Spectrum: 1044
>>>>>Begin Spectral Data<<<<<
784.041	13.12
784.3	1.12
784.558	-0.88
784.817	-2.88
785.075	79189.12
785.334	13210.12
785.592	6036.12
785.851	4169.12
786.109	3156.12
786.368	2472.12
786.626	1996.12
786.884	1649.12
787.143	1435.12
787.401	1165.12
787.659	1064.12
787.917	938.12
788.175	884.12
788.433	771.12
788.691	706.12
788.949	658.12
789.207	635.12
789.465	543.12
789.723	538.12
789.98	496.12
790.238	528.12
790.496	511.12
790.753	492.12
791.011	520.12
791.268	482.12
791.526	464.12
791.783	466.12
792.041	470.12
792.298	376.12
792.556	445.12
792.813	421.12
793.07	404.12
793.327	391.12
793.584	485.12
793.841	395.12
794.099	420.12
794.356	467.12
794.613	381.12
794.869	396.12
795.126	373.12
795.383	366.12
795.64	372.12
795.897	331.12
796.153	394.12
796.41	364.12
796.667	349.12
796.923	371.12
797.18	372.12
797.436	401.12
797.693	353.12
797.949	406.12
798.206	402.12
798.462	343.12
798.718	400.12
798.974	372.12
799.231	402.12
799.487	393.12
799.743	392.12
799.999	409.12
800.255	402.12
800.511	370.12
800.767	413.12
801.023	383.12
801.279	425.12
801.534	414.12
801.79	424.12
802.046	416.12
802.302	494.12
802.557	481.12
802.813	543.12
803.068	553.12
803.324	698.12
803.579	840.12
803.835	1033.12
804.09	1366.12
804.345	1668.12
804.601	2037.12
804.856	2442.12
805.111	2766.12
805.366	2982.12
805.621	3177.12
805.876	3251.12
806.131	3346.12
806.386	3369.12
806.641	3420.12
806.896	3432.12
807.151	3569.12
807.406	3554.12
807.661	3655.12
807.915	3699.12
808.17	3764.12
808.425	3785.12
808.679	3797.12
808.934	3904.12
809.188	3862.12
809.443	3973.12
809.697	3953.12
809.951	3955.12
810.206	3933.12
810.46	4037.12
810.714	4086.12
810.968	4131.12
811.223	4039.12
811.477	4130.12
811.731	4166.12
811.985	4120.12
812.239	4124.12
812.493	4244.12
812.747	4250.12
813	4236.12
813.254	4316.12
813.508	4312.12
813.762	4267.12
814.015	4274.12
814.269	4375.12
814.522	4393.12
814.776	4459.12
815.03	4479.12
815.283	4587.12
815.536	4599.12
815.79	4683.12
816.043	4713.12
816.296	4783.12
816.55	4798.12
816.803	4840.12
817.056	5018.12
817.309	4945.12
817.562	4997.12
817.815	5091.12
818.068	5081.12
818.321	5129.12
818.574	5127.12
818.827	5236.12
819.079	5307.12
819.332	5489.12
819.585	5477.12
819.838	5598.12
820.09	5542.12
820.343	5619.12
820.595	5568.12
820.848	5661.12
821.1	5684.12
821.353	5676.12
821.605	5625.12
821.857	5737.12
822.11	5640.12
822.362	5638.12
822.614	5575.12
822.866	5662.12
823.118	5624.12
823.37	5760.12
823.622	5719.12
823.874	5708.12
824.126	5762.12
824.378	5749.12
824.63	5824.12
824.882	5843.12
825.134	5770.12
825.385	5825.12
825.637	5741.12
825.888	5680.12
826.14	5697.12
826.392	5662.12
826.643	5635.12
826.895	5665.12
827.146	5575.12
827.397	5562.12
827.649	5580.12
827.9	5508.12
828.151	5489.12
828.402	5551.12
828.653	5589.12
828.905	5560.12
829.156	5673.12
829.407	5612.12
829.658	5527.12
829.909	5594.12
830.159	5611.12
830.41	5578.12
830.661	5582.12
830.912	5518.12
831.162	5534.12
831.413	5452.12
831.664	5556.12
831.914	5512.12
832.165	5512.12
832.415	5507.12
832.666	5553.12
832.916	5500.12
833.167	5457.12
833.417	5594.12
833.667	5487.12
833.917	5476.12
834.168	5556.12
834.418	5435.12
834.668	5515.12
834.918	5460.12
835.168	5501.12
835.418	5350.12
835.668	5411.12
835.918	5385.12
836.167	5376.12
836.417	5327.12
836.667	5359.12
836.917	5379.12
837.166	5305.12
837.416	5381.12
837.666	5324.12
837.915	5319.12
838.165	5260.12
838.414	5203.12
838.663	5208.12
838.913	5252.12
839.162	5244.12
839.411	5280.12
839.661	5146.12
839.91	5184.12
840.159	5190.12
840.408	5184.12
840.657	5185.12
840.906	5251.12
841.155	5183.12
841.404	5190.12
841.653	5212.12
841.902	5171.12
842.15	5222.12
842.399	5197.12
842.648	5163.12
842.897	5198.12
843.145	5081.12
843.394	5109.12
843.642	5060.12
843.891	5085.12
844.139	5104.12
844.388	5001.12
844.636	4942.12
844.884	5001.12
845.133	4960.12
845.381	5003.12
845.629	5026.12
845.877	4970.12
846.125	4991.12
846.373	4991.12
846.621	4893.12
846.869	4945.12
847.117	4966.12
847.365	4923.12
847.613	4880.12
847.861	4815.12
848.108	4940.12
848.356	4839.12
848.604	4826.12
848.851	4926.12
849.099	4881.12
849.346	4878.12
849.594	4940.12
849.841	4911.12
850.089	4902.12
850.336	4878.12
850.583	4947.12
850.831	4923.12
851.078	4952.12
851.325	4980.12
851.572	5125.12
851.819	5039.12
852.066	4840.12
852.313	4701.12
852.56	4627.12
852.807	4601.12
853.054	4601.12
853.301	4664.12
853.548	4649.12
853.794	4789.12
854.041	4748.12
854.288	4748.12
854.534	4876.12
854.781	4734.12
855.028	4717.12
855.274	4737.12
855.52	4667.12
855.767	4627.12
856.013	4618.12
856.26	4898.12
856.506	4613.12
856.752	4608.12
856.998	4548.12
857.244	4626.12
857.49	4611.12
857.736	4617.12
857.982	4642.12
858.228	4590.12
858.474	4600.12
858.72	4548.12
858.966	4552.12
859.212	4495.12
859.458	4431.12
859.703	4396.12
859.949	4329.12
860.195	4359.12
860.44	4343.12
860.686	4258.12
860.931	4334.12
861.177	4263.12
861.422	4302.12
861.667	4232.12
861.913	4256.12
862.158	4240.12
862.403	4295.12
862.648	4320.12
862.893	4353.12
863.138	4321.12
863.384	4255.12
863.629	4281.12
863.873	4322.12
864.118	4261.12
864.363	4209.12
864.608	4254.12
864.853	4253.12
865.098	4194.12
865.342	4239.12
865.587	4195.12
865.832	4189.12
866.076	4148.12
866.321	4169.12
866.565	4124.12
866.81	4074.12
867.054	4077.12
867.298	4093.12
867.543	4078.12
867.787	4156.12
868.031	4035.12
868.275	4035.12
868.519	4075.12
868.764	4074.12
869.008	4021.12
869.252	4074.12
869.496	4039.12
869.739	4013.12
869.983	4059.12
870.227	4035.12
870.471	3985.12
870.715	4013.12
870.958	4080.12
871.202	3987.12
871.446	4031.12
871.689	4010.12
871.933	4004.12
872.176	4047.12
872.42	4040.12
872.663	3986.12
872.906	4064.12
873.15	4011.12
873.393	3906.12
873.636	3968.12
873.879	3950.12
874.122	3963.12
874.366	3867.12
874.609	3867.12
874.852	3788.12
875.095	3780.12
875.337	3768.12
875.58	3716.12
875.823	3770.12
876.066	3811.12
876.309	3796.12
876.551	3678.12
876.794	3680.12
877.037	3719.12
877.279	3629.12
877.522	3685.12
877.764	3715.12
878.007	3671.12
878.249	3700.12
878.491	3651.12
878.734	3690.12
878.976	3655.12
879.218	3581.12
879.46	3649.12
879.702	3591.12
879.945	3564.12
880.187	3543.12
880.429	3514.12
880.671	3497.12
880.912	3532.12
881.154	3486.12
881.396	3403.12
881.638	3463.12
881.88	3450.12
882.121	3408.12
882.363	3460.12
882.605	3492.12
882.846	3462.12
883.088	3438.12
883.329	3416.12
883.571	3383.12
883.812	3403.12
884.053	3463.12
884.295	3524.12
884.536	3710.12
884.777	3630.12
885.018	3602.12
885.259	3615.12
885.5	3513.12
885.742	3774.12
885.982	3533.12
886.223	3456.12
886.464	3420.12
886.705	3399.12
886.946	3357.12
887.187	3251.12
887.428	3356.12
887.668	3228.12
887.909	3191.12
888.15	3161.12
888.39	3246.12
888.631	3222.12
888.871	3177.12
889.111	3138.12
889.352	3154.12
889.592	3110.12
889.833	3060.12
890.073	3034.12
890.313	3128.12
890.553	2966.12
890.793	3011.12
891.033	2967.12
891.273	2986.12
891.513	2960.12
891.753	3024.12
891.993	3008.12
892.233	3003.12
892.473	3081.12
892.713	3011.12
892.952	2965.12
893.192	2987.12
893.432	2949.12
893.671	3044.12
893.911	2975.12
894.15	2977.12
894.39	2870.12
894.629	2935.12
894.869	2903.12
895.108	2855.12
895.347	2885.12
895.587	2903.12
895.826	2854.12
896.065	2840.12
896.304	2883.12
896.543	2907.12
896.782	2812.12
897.021	2829.12
897.26	2847.12
897.499	2908.12
897.738	2911.12
897.977	2869.12
898.216	2815.12
898.454	2761.12
898.693	2739.12
898.932	2759.12
899.17	2751.12
899.409	2702.12
899.647	2704.12
899.886	2669.12
900.124	2709.12
900.363	2652.12
900.601	2719.12
900.839	2742.12
901.078	2693.12
901.316	2700.12
901.554	2710.12
901.792	2792.12
902.03	2725.12
902.268	2741.12
902.506	2764.12
902.744	2717.12
902.982	2746.12
903.22	2634.12
903.458	2616.12
903.695	2641.12
903.933	2630.12
904.171	2513.12
904.409	2497.12
904.646	2535.12
904.884	2465.12
905.121	2519.12
905.359	2451.12
905.596	2448.12
905.833	2336.12
906.071	2378.12
906.308	2410.12
906.545	2398.12
906.783	2313.12
907.02	2326.12
907.257	2293.12
907.494	2333.12
907.731	2344.12
907.968	2340.12
908.205	2305.12
908.442	2321.12
908.679	2294.12
908.915	2294.12
909.152	2293.12
909.389	2181.12
909.626	2209.12
909.862	2188.12
910.099	2233.12
910.335	2233.12
910.572	2176.12
910.808	2209.12
911.045	2168.12
911.281	2181.12
911.518	2219.12
911.754	2127.12
911.99	2170.12
912.226	2131.12
912.463	2105.12
912.699	2122.12
912.935	2107.12
913.171	2068.12
913.407	2054.12
913.643	2069.12
913.879	2046.12
914.114	2059.12
914.35	1989.12
914.586	1988.12
914.822	1988.12
915.057	2065.12
915.293	1918.12
915.529	1925.12
915.764	2024.12
916	1969.12
916.235	1951.12
916.471	1962.12
916.706	1902.12
916.941	1917.12
917.177	1929.12
917.412	1983.12
917.647	1935.12
917.882	1894.12
918.117	1956.12
918.352	1926.12
918.588	1964.12
918.823	1905.12
919.057	1911.12
919.292	1814.12
919.527	1932.12
919.762	1818.12
919.997	1888.12
920.232	1842.12
920.466	1876.12
920.701	1744.12
920.935	1785.12
921.17	1752.12
921.405	1742.12
921.639	1773.12
921.873	1759.12
922.108	1774.12
922.342	1774.12
922.576	1683.12
922.811	1693.12
923.045	1756.12
923.279	1811.12
923.513	1684.12
923.747	1768.12
923.981	1736.12
924.215	1700.12
924.449	1702.12
924.683	1643.12
924.917	1655.12
925.151	1654.12
925.385	1731.12
925.618	1676.12
925.852	1661.12
926.086	1623.12
926.319	1661.12
926.553	1660.12
926.786	1688.12
927.02	1651.12
927.253	1691.12
927.486	1649.12
927.72	1588.12
927.953	1650.12
928.186	1603.12
928.42	1638.12
928.653	1578.12
928.886	1585.12
929.119	1617.12
929.352	1588.12
929.585	1629.12
929.818	1592.12
930.051	1610.12
930.284	1609.12
930.516	1513.12
930.749	1525.12
930.982	1559.12
931.215	1573.12
931.447	1499.12
931.68	1536.12
931.912	1500.12
932.145	1527.12
932.377	1535.12
932.61	1629.12
932.842	1483.12
933.074	1521.12
933.307	1483.12
933.539	1558.12
933.771	1550.12
934.003	1504.12
934.236	1578.12
934.468	1592.12
934.7	1500.12
934.932	1528.12
935.164	1495.12
935.395	1464.12
935.627	1519.12
935.859	1518.12
936.091	1450.12
936.323	1523.12
936.554	1510.12
936.786	1478.12
937.017	1416.12
937.249	1482.12
937.481	1394.12
937.712	1495.12
937.943	1477.12
938.175	1454.12
938.406	1461.12
938.637	1542.12
938.869	1414.12
939.1	1477.12
939.331	1438.12
939.562	1491.12
939.793	1446.12
940.024	1488.12
940.255	1480.12
940.486	1469.12
940.717	1420.12
940.948	1423.12
941.179	1374.12
941.409	1390.12
941.64	1399.12
941.871	1433.12
942.102	1380.12
942.332	1392.12
942.563	1450.12
942.793	1404.12
943.024	1349.12
943.254	1384.12
943.484	1458.12
943.715	1445.12
943.945	1425.12
944.175	1340.12
944.405	1324.12
944.636	1357.12
944.866	1418.12
945.096	1382.12
945.326	1364.12
945.556	1406.12
945.786	1429.12
946.016	1383.12
946.245	1329.12
946.475	1358.12
946.705	1349.12
946.935	1390.12
947.164	1365.12
947.394	1324.12
947.624	1332.12
947.853	1369.12
948.083	1348.12
948.312	1314.12
948.542	1270.12
948.771	1252.12
949	1248.12
949.23	1322.12
949.459	1320.12
949.688	1356.12
949.917	1333.12
950.146	1325.12
950.375	1381.12
950.604	1288.12
950.833	1376.12
951.062	1370.12
951.291	1313.12
951.52	1297.12
951.749	1302.12
951.978	1273.12
952.206	1284.12
952.435	1279.12
952.664	1329.12
952.892	1318.12
953.121	1294.12
953.349	1307.12
953.578	1302.12
953.806	1277.12
954.035	1231.12
954.263	1283.12
954.491	1255.12
954.719	1290.12
954.948	1207.12
955.176	1233.12
955.404	1194.12
955.632	1258.12
955.86	1266.12
956.088	1251.12
956.316	1277.12
956.544	1292.12
956.772	1212.12
956.999	1223.12
957.227	1294.12
957.455	1215.12
957.683	1236.12
957.91	1198.12
958.138	1158.12
958.365	1209.12
958.593	1174.12
958.82	1165.12
959.048	1223.12
959.275	1237.12
959.502	1192.12
959.73	1179.12
959.957	1235.12
960.184	1262.12
960.411	1202.12
960.638	1264.12
960.865	1200.12
961.092	1216.12
961.319	1154.12
961.546	1236.12
961.773	1218.12
962	1188.12
962.227	1229.12
962.454	1207.12
962.68	1182.12
962.907	1203.12
963.134	1141.12
963.36	1180.12
963.587	1224.12
963.813	1132.12
964.04	1192.12
964.266	1127.12
964.493	1227.12
964.719	1205.12
964.945	1192.12
965.171	1105.12
965.398	1171.12
965.624	1165.12
965.85	1125.12
966.076	1133.12
966.302	1168.12
966.528	1166.12
966.754	1162.12
966.98	1164.12
967.206	1139.12
967.431	1076.12
967.657	1140.12
967.883	1165.12
968.109	1132.12
968.334	1115.12
968.56	1073.12
968.785	1103.12
969.011	1057.12
969.236	1135.12
969.462	1075.12
969.687	1095.12
969.912	1134.12
970.138	1150.12
970.363	1078.12
970.588	1091.12
970.813	1085.12
971.038	1064.12
971.263	1100.12
971.488	1093.12
971.713	1149.12
971.938	1128.12
972.163	1004.12
972.388	1074.12
972.613	1044.12
972.838	1073.12
973.062	1052.12
973.287	1051.12
973.512	1012.12
973.736	1030.12
973.961	1045.12
974.185	1038.12
974.41	1067.12
974.634	986.12
974.858	1000.12
975.083	1062.12
975.307	1076.12
975.531	1001.12
975.755	986.12
975.98	981.12
976.204	946.12
976.428	950.12
976.652	946.12
976.876	942.12
977.1	981.12
977.324	941.12
977.547	992.12
977.771	993.12
977.995	977.12
978.219	901.12
978.442	1035.12
978.666	986.12
978.89	968.12
979.113	950.12
979.337	976.12
979.56	938.12
979.783	1020.12
980.007	918.12
980.23	944.12
980.453	945.12
980.677	987.12
980.9	957.12
981.123	869.12
981.346	978.12
981.569	953.12
981.792	962.12
982.015	944.12
982.238	916.12
982.461	945.12
982.684	932.12
982.907	920.12
983.129	897.12
983.352	962.12
983.575	948.12
983.797	949.12
984.02	897.12
984.242	910.12
984.465	936.12
984.687	962.12
984.91	983.12
985.132	945.12
985.354	966.12
985.577	928.12
985.799	952.12
986.021	863.12
986.243	893.12
986.465	895.12
986.687	951.12
986.909	1005.12
987.131	929.12
987.353	897.12
987.575	941.12
987.797	903.12
988.019	836.12
988.241	907.12
988.462	867.12
988.684	922.12
988.906	979.12
989.127	980.12
989.349	860.12
989.57	910.12
989.792	961.12
990.013	947.12
990.234	948.12
990.456	994.12
990.677	968.12
990.898	886.12
991.119	903.12
991.341	947.12
991.562	868.12
991.783	941.12
992.004	861.12
992.225	853.12
992.446	897.12
992.667	856.12
992.887	907.12
993.108	838.12
993.329	952.12
993.55	905.12
993.77	867.12
993.991	852.12
994.212	888.12
994.432	894.12
994.653	888.12
994.873	899.12
995.093	800.12
995.314	849.12
995.534	921.12
995.754	948.12
995.975	933.12
996.195	842.12
996.415	910.12
996.635	890.12
996.855	894.12
997.075	873.12
997.295	854.12
997.515	851.12
997.735	912.12
997.955	883.12
998.174	859.12
998.394	843.12
998.614	902.12
998.834	852.12
999.053	910.12
999.273	901.12
999.492	952.12
999.712	895.12
999.931	868.12
1000.151	899.12
1000.37	864.12
1000.589	952.12
1000.809	890.12
1001.028	1003.12
1001.247	957.12
1001.466	853.12
1001.685	992.12
1001.904	942.12
1002.123	920.12
1002.342	941.12
1002.561	884.12
1002.78	926.12
1002.999	973.12
1003.218	933.12
1003.436	914.12
1003.655	960.12
1003.874	903.12
1004.092	939.12
1004.311	944.12
1004.53	950.12
1004.748	1018.12
1004.966	947.12
1005.185	981.12
1005.403	977.12
1005.622	963.12
1005.84	1027.12
1006.058	921.12
1006.276	936.12
1006.494	1418.12
1006.712	944.12
1006.931	1017.12
1007.149	930.12
1007.367	935.12
1007.584	956.12
1007.802	1006.12
1008.02	946.12
1008.238	1025.12
1008.456	1019.12
1008.673	878.12
1008.891	966.12
1009.109	914.12
1009.326	961.12
1009.544	1046.12
1009.761	932.12
1009.979	1000.12
1010.196	992.12
1010.413	1079.12
1010.631	1076.12
1010.848	1086.12
1011.065	1080.12
1011.282	1025.12
1011.5	969.12
1011.717	1087.12
1011.934	1045.12
1012.151	1066.12
1012.368	1055.12
1012.585	976.12
1012.801	1029.12
1013.018	994.12
1013.235	996.12
1013.452	991.12
1013.669	1003.12
1013.885	987.12
1014.102	1001.12
1014.318	987.12
1014.535	943.12
1014.751	1001.12
1014.968	985.12
1015.184	1038.12
1015.401	953.12
1015.617	976.12
1015.833	936.12
1016.049	945.12
1016.266	936.12
1016.482	932.12
1016.698	890.12
1016.914	948.12
1017.13	913.12
1017.346	895.12
1017.562	976.12
1017.778	913.12
1017.993	882.12
1018.209	929.12
1018.425	921.12
1018.641	859.12
1018.856	855.12
1019.072	874.12
1019.288	943.12
1019.503	907.12
1019.719	799.12
1019.934	841.12
1020.149	877.12
1020.365	857.12
1020.58	799.12
1020.795	863.12
1021.011	796.12
1021.226	802.12
1021.441	864.12
1021.656	766.12
1021.871	740.12
1022.086	740.12
1022.301	740.12
1022.516	721.12
1022.731	818.12
1022.946	711.12
1023.16	711.12
1023.375	667.12
1023.59	666.12
1023.804	651.12
1024.019	766.12
1024.234	643.12
1024.448	693.12
1024.663	610.12
1024.877	644.12
1025.092	666.12
1025.306	685.12
1025.52	589.12
1025.734	690.12
1025.949	609.12
1026.163	604.12
1026.377	553.12
1026.591	608.12
1026.805	546.12
1027.019	543.12
1027.233	499.12
1027.447	460.12
1027.661	584.12
1027.875	510.12
1028.088	524.12
1028.302	473.12
1028.516	459.12
1028.73	482.12
1028.943	459.12
1029.157	436.12
1029.37	412.12
1029.584	-0.88
1029.797	-4.88
1030.011	-3.88
1030.224	-0.88
