Data from QEP037381__118__10-23-02-733.txt Node

Date: Wed Dec 21 10:23:02 EST 2022
User: dcclab
Spectrometer: QEP03738
Trigger mode: 4
Integration Time (sec): 1.000000E1
Scans to average: 1
Electric dark correction enabled: true
Nonlinearity correction enabled: false
Boxcar width: 0
XAxis mode: Wavelengths
Number of Pixels in Spectrum: 1044
>>>>>Begin Spectral Data<<<<<
784.041	11.25
784.3	-0.75
784.558	-3.75
784.817	-0.75
785.075	80053.25
785.334	13630.25
785.592	6321.25
785.851	4332.25
786.109	3233.25
786.368	2543.25
786.626	2042.25
786.884	1723.25
787.143	1452.25
787.401	1219.25
787.659	1107.25
787.917	943.25
788.175	883.25
788.433	774.25
788.691	706.25
788.949	659.25
789.207	608.25
789.465	543.25
789.723	531.25
789.98	499.25
790.238	534.25
790.496	506.25
790.753	475.25
791.011	532.25
791.268	476.25
791.526	437.25
791.783	486.25
792.041	457.25
792.298	376.25
792.556	436.25
792.813	436.25
793.07	397.25
793.327	389.25
793.584	476.25
793.841	391.25
794.099	411.25
794.356	457.25
794.613	375.25
794.869	418.25
795.126	380.25
795.383	352.25
795.64	376.25
795.897	338.25
796.153	395.25
796.41	370.25
796.667	371.25
796.923	365.25
797.18	368.25
797.436	407.25
797.693	354.25
797.949	393.25
798.206	425.25
798.462	331.25
798.718	377.25
798.974	360.25
799.231	404.25
799.487	378.25
799.743	381.25
799.999	420.25
800.255	389.25
800.511	370.25
800.767	402.25
801.023	374.25
801.279	379.25
801.534	396.25
801.79	425.25
802.046	387.25
802.302	467.25
802.557	453.25
802.813	502.25
803.068	506.25
803.324	646.25
803.579	734.25
803.835	900.25
804.09	1163.25
804.345	1412.25
804.601	1667.25
804.856	1979.25
805.111	2224.25
805.366	2387.25
805.621	2500.25
805.876	2613.25
806.131	2604.25
806.386	2639.25
806.641	2651.25
806.896	2740.25
807.151	2824.25
807.406	2812.25
807.661	2853.25
807.915	2900.25
808.17	2929.25
808.425	2956.25
808.679	2943.25
808.934	3079.25
809.188	2992.25
809.443	3114.25
809.697	3126.25
809.951	3103.25
810.206	3149.25
810.46	3229.25
810.714	3182.25
810.968	3258.25
811.223	3155.25
811.477	3282.25
811.731	3280.25
811.985	3236.25
812.239	3245.25
812.493	3311.25
812.747	3320.25
813	3290.25
813.254	3360.25
813.508	3365.25
813.762	3347.25
814.015	3364.25
814.269	3408.25
814.522	3477.25
814.776	3476.25
815.03	3522.25
815.283	3594.25
815.536	3615.25
815.79	3665.25
816.043	3697.25
816.296	3750.25
816.55	3799.25
816.803	3783.25
817.056	3942.25
817.309	3877.25
817.562	3941.25
817.815	4005.25
818.068	3929.25
818.321	4024.25
818.574	4091.25
818.827	4125.25
819.079	4175.25
819.332	4342.25
819.585	4275.25
819.838	4448.25
820.09	4385.25
820.343	4411.25
820.595	4376.25
820.848	4461.25
821.1	4485.25
821.353	4537.25
821.605	4474.25
821.857	4573.25
822.11	4411.25
822.362	4419.25
822.614	4439.25
822.866	4422.25
823.118	4441.25
823.37	4581.25
823.622	4573.25
823.874	4519.25
824.126	4575.25
824.378	4595.25
824.63	4597.25
824.882	4664.25
825.134	4585.25
825.385	4576.25
825.637	4534.25
825.888	4525.25
826.14	4526.25
826.392	4479.25
826.643	4403.25
826.895	4520.25
827.146	4438.25
827.397	4360.25
827.649	4479.25
827.9	4360.25
828.151	4380.25
828.402	4373.25
828.653	4370.25
828.905	4445.25
829.156	4448.25
829.407	4460.25
829.658	4421.25
829.909	4471.25
830.159	4471.25
830.41	4451.25
830.661	4443.25
830.912	4379.25
831.162	4338.25
831.413	4367.25
831.664	4415.25
831.914	4364.25
832.165	4467.25
832.415	4422.25
832.666	4386.25
832.916	4476.25
833.167	4365.25
833.417	4460.25
833.667	4411.25
833.917	4400.25
834.168	4446.25
834.418	4440.25
834.668	4364.25
834.918	4366.25
835.168	4371.25
835.418	4324.25
835.668	4383.25
835.918	4330.25
836.167	4332.25
836.417	4277.25
836.667	4292.25
836.917	4303.25
837.166	4248.25
837.416	4299.25
837.666	4277.25
837.915	4262.25
838.165	4220.25
838.414	4122.25
838.663	4141.25
838.913	4189.25
839.162	4202.25
839.411	4240.25
839.661	4162.25
839.91	4195.25
840.159	4159.25
840.408	4203.25
840.657	4185.25
840.906	4192.25
841.155	4207.25
841.404	4199.25
841.653	4178.25
841.902	4180.25
842.15	4144.25
842.399	4212.25
842.648	4145.25
842.897	4174.25
843.145	4106.25
843.394	4116.25
843.642	4109.25
843.891	4133.25
844.139	4037.25
844.388	4009.25
844.636	3926.25
844.884	4037.25
845.133	3995.25
845.381	4025.25
845.629	4035.25
845.877	3949.25
846.125	4032.25
846.373	4037.25
846.621	3981.25
846.869	4025.25
847.117	3981.25
847.365	3946.25
847.613	3919.25
847.861	3931.25
848.108	3965.25
848.356	3959.25
848.604	3893.25
848.851	3939.25
849.099	3971.25
849.346	3972.25
849.594	3968.25
849.841	4000.25
850.089	3986.25
850.336	3975.25
850.583	4004.25
850.831	4042.25
851.078	4036.25
851.325	4121.25
851.572	4269.25
851.819	4119.25
852.066	3963.25
852.313	3841.25
852.56	3701.25
852.807	3764.25
853.054	3758.25
853.301	3801.25
853.548	3819.25
853.794	3955.25
854.041	3834.25
854.288	3821.25
854.534	3926.25
854.781	3900.25
855.028	3781.25
855.274	3898.25
855.52	3801.25
855.767	3800.25
856.013	3808.25
856.26	4101.25
856.506	3761.25
856.752	3782.25
856.998	3760.25
857.244	3720.25
857.49	3780.25
857.736	3801.25
857.982	3788.25
858.228	3784.25
858.474	3686.25
858.72	3720.25
858.966	3667.25
859.212	3640.25
859.458	3609.25
859.703	3581.25
859.949	3575.25
860.195	3525.25
860.44	3510.25
860.686	3467.25
860.931	3541.25
861.177	3490.25
861.422	3490.25
861.667	3482.25
861.913	3456.25
862.158	3465.25
862.403	3523.25
862.648	3549.25
862.893	3563.25
863.138	3518.25
863.384	3465.25
863.629	3513.25
863.873	3495.25
864.118	3417.25
864.363	3412.25
864.608	3494.25
864.853	3473.25
865.098	3405.25
865.342	3432.25
865.587	3398.25
865.832	3425.25
866.076	3450.25
866.321	3385.25
866.565	3427.25
866.81	3328.25
867.054	3381.25
867.298	3342.25
867.543	3288.25
867.787	3345.25
868.031	3306.25
868.275	3375.25
868.519	3289.25
868.764	3356.25
869.008	3319.25
869.252	3348.25
869.496	3365.25
869.739	3332.25
869.983	3337.25
870.227	3352.25
870.471	3288.25
870.715	3365.25
870.958	3364.25
871.202	3327.25
871.446	3334.25
871.689	3293.25
871.933	3308.25
872.176	3360.25
872.42	3304.25
872.663	3289.25
872.906	3373.25
873.15	3286.25
873.393	3261.25
873.636	3370.25
873.879	3319.25
874.122	3258.25
874.366	3159.25
874.609	3233.25
874.852	3138.25
875.095	3170.25
875.337	3131.25
875.58	3065.25
875.823	3133.25
876.066	3106.25
876.309	3157.25
876.551	3073.25
876.794	3048.25
877.037	3123.25
877.279	3039.25
877.522	3014.25
877.764	3076.25
878.007	3008.25
878.249	3058.25
878.491	2995.25
878.734	3064.25
878.976	3028.25
879.218	2988.25
879.46	3025.25
879.702	3005.25
879.945	2945.25
880.187	2908.25
880.429	2910.25
880.671	2924.25
880.912	2937.25
881.154	2891.25
881.396	2791.25
881.638	2883.25
881.88	2838.25
882.121	2822.25
882.363	2864.25
882.605	2872.25
882.846	2866.25
883.088	2861.25
883.329	2810.25
883.571	2803.25
883.812	2885.25
884.053	2947.25
884.295	2999.25
884.536	3141.25
884.777	3074.25
885.018	3085.25
885.259	3029.25
885.5	2996.25
885.742	3298.25
885.982	2965.25
886.223	2918.25
886.464	2892.25
886.705	2851.25
886.946	2844.25
887.187	2791.25
887.428	2813.25
887.668	2719.25
887.909	2673.25
888.15	2641.25
888.39	2695.25
888.631	2718.25
888.871	2662.25
889.111	2652.25
889.352	2616.25
889.592	2597.25
889.833	2583.25
890.073	2539.25
890.313	2621.25
890.553	2461.25
890.793	2510.25
891.033	2499.25
891.273	2486.25
891.513	2472.25
891.753	2551.25
891.993	2467.25
892.233	2510.25
892.473	2530.25
892.713	2486.25
892.952	2442.25
893.192	2488.25
893.432	2479.25
893.671	2575.25
893.911	2495.25
894.15	2481.25
894.39	2392.25
894.629	2426.25
894.869	2441.25
895.108	2405.25
895.347	2358.25
895.587	2406.25
895.826	2376.25
896.065	2380.25
896.304	2468.25
896.543	2447.25
896.782	2337.25
897.021	2376.25
897.26	2397.25
897.499	2435.25
897.738	2432.25
897.977	2379.25
898.216	2352.25
898.454	2346.25
898.693	2295.25
898.932	2299.25
899.17	2325.25
899.409	2276.25
899.647	2286.25
899.886	2271.25
900.124	2322.25
900.363	2275.25
900.601	2304.25
900.839	2308.25
901.078	2281.25
901.316	2288.25
901.554	2323.25
901.792	2340.25
902.03	2290.25
902.268	2326.25
902.506	2367.25
902.744	2288.25
902.982	2334.25
903.22	2214.25
903.458	2200.25
903.695	2230.25
903.933	2239.25
904.171	2127.25
904.409	2122.25
904.646	2100.25
904.884	2059.25
905.121	2091.25
905.359	2074.25
905.596	2048.25
905.833	2008.25
906.071	1988.25
906.308	2050.25
906.545	2010.25
906.783	1952.25
907.02	1990.25
907.257	1943.25
907.494	1958.25
907.731	1985.25
907.968	1973.25
908.205	1941.25
908.442	1964.25
908.679	1946.25
908.915	1916.25
909.152	1910.25
909.389	1863.25
909.626	1875.25
909.862	1839.25
910.099	1877.25
910.335	1913.25
910.572	1807.25
910.808	1841.25
911.045	1856.25
911.281	1810.25
911.518	1916.25
911.754	1818.25
911.99	1838.25
912.226	1812.25
912.463	1759.25
912.699	1767.25
912.935	1760.25
913.171	1791.25
913.407	1733.25
913.643	1783.25
913.879	1748.25
914.114	1725.25
914.35	1689.25
914.586	1710.25
914.822	1665.25
915.057	1767.25
915.293	1611.25
915.529	1642.25
915.764	1715.25
916	1691.25
916.235	1667.25
916.471	1708.25
916.706	1606.25
916.941	1620.25
917.177	1635.25
917.412	1660.25
917.647	1674.25
917.882	1613.25
918.117	1663.25
918.352	1653.25
918.588	1690.25
918.823	1628.25
919.057	1595.25
919.292	1514.25
919.527	1626.25
919.762	1585.25
919.997	1619.25
920.232	1567.25
920.466	1583.25
920.701	1494.25
920.935	1557.25
921.17	1490.25
921.405	1469.25
921.639	1558.25
921.873	1511.25
922.108	1520.25
922.342	1512.25
922.576	1471.25
922.811	1464.25
923.045	1519.25
923.279	1560.25
923.513	1412.25
923.747	1503.25
923.981	1497.25
924.215	1467.25
924.449	1463.25
924.683	1424.25
924.917	1425.25
925.151	1433.25
925.385	1478.25
925.618	1468.25
925.852	1451.25
926.086	1356.25
926.319	1448.25
926.553	1430.25
926.786	1447.25
927.02	1407.25
927.253	1456.25
927.486	1486.25
927.72	1363.25
927.953	1439.25
928.186	1397.25
928.42	1430.25
928.653	1366.25
928.886	1357.25
929.119	1406.25
929.352	1397.25
929.585	1378.25
929.818	1349.25
930.051	1372.25
930.284	1377.25
930.516	1318.25
930.749	1320.25
930.982	1386.25
931.215	1359.25
931.447	1291.25
931.68	1333.25
931.912	1313.25
932.145	1311.25
932.377	1353.25
932.61	1449.25
932.842	1260.25
933.074	1338.25
933.307	1300.25
933.539	1374.25
933.771	1376.25
934.003	1329.25
934.236	1408.25
934.468	1386.25
934.7	1306.25
934.932	1325.25
935.164	1284.25
935.395	1288.25
935.627	1317.25
935.859	1323.25
936.091	1271.25
936.323	1316.25
936.554	1343.25
936.786	1286.25
937.017	1242.25
937.249	1308.25
937.481	1215.25
937.712	1275.25
937.943	1274.25
938.175	1244.25
938.406	1264.25
938.637	1343.25
938.869	1226.25
939.1	1256.25
939.331	1238.25
939.562	1293.25
939.793	1280.25
940.024	1290.25
940.255	1304.25
940.486	1248.25
940.717	1272.25
940.948	1265.25
941.179	1199.25
941.409	1251.25
941.64	1231.25
941.871	1264.25
942.102	1222.25
942.332	1196.25
942.563	1289.25
942.793	1237.25
943.024	1181.25
943.254	1231.25
943.484	1282.25
943.715	1298.25
943.945	1238.25
944.175	1198.25
944.405	1175.25
944.636	1183.25
944.866	1241.25
945.096	1253.25
945.326	1178.25
945.556	1239.25
945.786	1266.25
946.016	1196.25
946.245	1174.25
946.475	1210.25
946.705	1211.25
946.935	1182.25
947.164	1198.25
947.394	1171.25
947.624	1172.25
947.853	1213.25
948.083	1189.25
948.312	1162.25
948.542	1113.25
948.771	1112.25
949	1132.25
949.23	1133.25
949.459	1137.25
949.688	1195.25
949.917	1175.25
950.146	1181.25
950.375	1242.25
950.604	1128.25
950.833	1222.25
951.062	1225.25
951.291	1162.25
951.52	1149.25
951.749	1166.25
951.978	1122.25
952.206	1133.25
952.435	1129.25
952.664	1182.25
952.892	1179.25
953.121	1157.25
953.349	1196.25
953.578	1174.25
953.806	1134.25
954.035	1098.25
954.263	1146.25
954.491	1092.25
954.719	1147.25
954.948	1112.25
955.176	1089.25
955.404	1050.25
955.632	1139.25
955.86	1117.25
956.088	1117.25
956.316	1129.25
956.544	1184.25
956.772	1085.25
956.999	1078.25
957.227	1175.25
957.455	1076.25
957.683	1127.25
957.91	1077.25
958.138	1056.25
958.365	1076.25
958.593	1091.25
958.82	1015.25
959.048	1091.25
959.275	1064.25
959.502	1081.25
959.73	1073.25
959.957	1105.25
960.184	1135.25
960.411	1113.25
960.638	1160.25
960.865	1078.25
961.092	1105.25
961.319	1028.25
961.546	1094.25
961.773	1100.25
962	1052.25
962.227	1102.25
962.454	1063.25
962.68	1076.25
962.907	1076.25
963.134	1032.25
963.36	1066.25
963.587	1077.25
963.813	1012.25
964.04	1089.25
964.266	1027.25
964.493	1124.25
964.719	1105.25
964.945	1111.25
965.171	985.25
965.398	1074.25
965.624	1063.25
965.85	983.25
966.076	1001.25
966.302	1063.25
966.528	1041.25
966.754	1061.25
966.98	1040.25
967.206	1054.25
967.431	978.25
967.657	1067.25
967.883	1037.25
968.109	1055.25
968.334	981.25
968.56	978.25
968.785	1014.25
969.011	964.25
969.236	1054.25
969.462	991.25
969.687	1008.25
969.912	1048.25
970.138	1064.25
970.363	967.25
970.588	1023.25
970.813	969.25
971.038	971.25
971.263	983.25
971.488	1027.25
971.713	1058.25
971.938	1042.25
972.163	947.25
972.388	974.25
972.613	969.25
972.838	976.25
973.062	967.25
973.287	976.25
973.512	899.25
973.736	960.25
973.961	949.25
974.185	954.25
974.41	997.25
974.634	895.25
974.858	917.25
975.083	953.25
975.307	1005.25
975.531	932.25
975.755	883.25
975.98	906.25
976.204	829.25
976.428	861.25
976.652	898.25
976.876	856.25
977.1	904.25
977.324	859.25
977.547	918.25
977.771	943.25
977.995	901.25
978.219	855.25
978.442	955.25
978.666	908.25
978.89	876.25
979.113	903.25
979.337	881.25
979.56	863.25
979.783	960.25
980.007	848.25
980.23	902.25
980.453	858.25
980.677	888.25
980.9	885.25
981.123	818.25
981.346	915.25
981.569	892.25
981.792	916.25
982.015	880.25
982.238	823.25
982.461	882.25
982.684	858.25
982.907	836.25
983.129	826.25
983.352	895.25
983.575	880.25
983.797	893.25
984.02	844.25
984.242	844.25
984.465	858.25
984.687	904.25
984.91	892.25
985.132	891.25
985.354	904.25
985.577	881.25
985.799	862.25
986.021	799.25
986.243	827.25
986.465	858.25
986.687	916.25
986.909	927.25
987.131	885.25
987.353	829.25
987.575	882.25
987.797	844.25
988.019	805.25
988.241	859.25
988.462	817.25
988.684	866.25
988.906	896.25
989.127	931.25
989.349	815.25
989.57	851.25
989.792	885.25
990.013	901.25
990.234	904.25
990.456	932.25
990.677	925.25
990.898	842.25
991.119	873.25
991.341	881.25
991.562	853.25
991.783	870.25
992.004	820.25
992.225	814.25
992.446	873.25
992.667	806.25
992.887	885.25
993.108	765.25
993.329	924.25
993.55	861.25
993.77	808.25
993.991	795.25
994.212	876.25
994.432	845.25
994.653	871.25
994.873	855.25
995.093	756.25
995.314	805.25
995.534	882.25
995.754	892.25
995.975	903.25
996.195	788.25
996.415	870.25
996.635	820.25
996.855	878.25
997.075	833.25
997.295	834.25
997.515	806.25
997.735	864.25
997.955	838.25
998.174	829.25
998.394	811.25
998.614	871.25
998.834	796.25
999.053	871.25
999.273	850.25
999.492	901.25
999.712	862.25
999.931	819.25
1000.151	871.25
1000.37	859.25
1000.589	908.25
1000.809	836.25
1001.028	968.25
1001.247	921.25
1001.466	803.25
1001.685	958.25
1001.904	905.25
1002.123	886.25
1002.342	893.25
1002.561	873.25
1002.78	878.25
1002.999	939.25
1003.218	898.25
1003.436	875.25
1003.655	930.25
1003.874	857.25
1004.092	903.25
1004.311	940.25
1004.53	903.25
1004.748	960.25
1004.966	895.25
1005.185	949.25
1005.403	960.25
1005.622	929.25
1005.84	1004.25
1006.058	888.25
1006.276	934.25
1006.494	1406.25
1006.712	906.25
1006.931	965.25
1007.149	901.25
1007.367	899.25
1007.584	928.25
1007.802	949.25
1008.02	896.25
1008.238	991.25
1008.456	984.25
1008.673	835.25
1008.891	974.25
1009.109	902.25
1009.326	950.25
1009.544	1020.25
1009.761	905.25
1009.979	1015.25
1010.196	970.25
1010.413	1043.25
1010.631	1062.25
1010.848	1065.25
1011.065	1058.25
1011.282	1008.25
1011.5	961.25
1011.717	1097.25
1011.934	1017.25
1012.151	1047.25
1012.368	1059.25
1012.585	985.25
1012.801	1033.25
1013.018	1002.25
1013.235	960.25
1013.452	995.25
1013.669	995.25
1013.885	988.25
1014.102	996.25
1014.318	963.25
1014.535	935.25
1014.751	971.25
1014.968	981.25
1015.184	1000.25
1015.401	920.25
1015.617	964.25
1015.833	944.25
1016.049	940.25
1016.266	931.25
1016.482	933.25
1016.698	887.25
1016.914	931.25
1017.13	894.25
1017.346	894.25
1017.562	964.25
1017.778	902.25
1017.993	865.25
1018.209	902.25
1018.425	919.25
1018.641	873.25
1018.856	835.25
1019.072	899.25
1019.288	916.25
1019.503	878.25
1019.719	799.25
1019.934	827.25
1020.149	904.25
1020.365	828.25
1020.58	801.25
1020.795	859.25
1021.011	795.25
1021.226	795.25
1021.441	846.25
1021.656	781.25
1021.871	725.25
1022.086	721.25
1022.301	728.25
1022.516	737.25
1022.731	804.25
1022.946	716.25
1023.16	700.25
1023.375	675.25
1023.59	680.25
1023.804	656.25
1024.019	745.25
1024.234	632.25
1024.448	675.25
1024.663	614.25
1024.877	630.25
1025.092	655.25
1025.306	665.25
1025.52	569.25
1025.734	669.25
1025.949	606.25
1026.163	587.25
1026.377	551.25
1026.591	594.25
1026.805	524.25
1027.019	527.25
1027.233	484.25
1027.447	444.25
1027.661	568.25
1027.875	506.25
1028.088	535.25
1028.302	462.25
1028.516	459.25
1028.73	470.25
1028.943	458.25
1029.157	423.25
1029.37	401.25
1029.584	2.25
1029.797	-0.75
1030.011	-3.75
1030.224	-3.75
