Data from QEP037381__92__10-18-42-730.txt Node

Date: Wed Dec 21 10:18:42 EST 2022
User: dcclab
Spectrometer: QEP03738
Trigger mode: 4
Integration Time (sec): 1.000000E1
Scans to average: 1
Electric dark correction enabled: true
Nonlinearity correction enabled: false
Boxcar width: 0
XAxis mode: Wavelengths
Number of Pixels in Spectrum: 1044
>>>>>Begin Spectral Data<<<<<
784.041	12.88
784.3	0.88
784.558	-2.12
784.817	-3.12
785.075	77751.88
785.334	13253.88
785.592	6115.88
785.851	4216.88
786.109	3238.88
786.368	2515.88
786.626	2041.88
786.884	1700.88
787.143	1434.88
787.401	1196.88
787.659	1106.88
787.917	960.88
788.175	878.88
788.433	763.88
788.691	700.88
788.949	662.88
789.207	655.88
789.465	531.88
789.723	529.88
789.98	493.88
790.238	538.88
790.496	501.88
790.753	471.88
791.011	522.88
791.268	475.88
791.526	458.88
791.783	461.88
792.041	460.88
792.298	383.88
792.556	441.88
792.813	427.88
793.07	397.88
793.327	388.88
793.584	473.88
793.841	393.88
794.099	412.88
794.356	474.88
794.613	371.88
794.869	415.88
795.126	379.88
795.383	351.88
795.64	377.88
795.897	334.88
796.153	384.88
796.41	377.88
796.667	366.88
796.923	354.88
797.18	360.88
797.436	391.88
797.693	352.88
797.949	407.88
798.206	416.88
798.462	337.88
798.718	390.88
798.974	364.88
799.231	403.88
799.487	395.88
799.743	390.88
799.999	412.88
800.255	398.88
800.511	382.88
800.767	416.88
801.023	379.88
801.279	396.88
801.534	416.88
801.79	433.88
802.046	415.88
802.302	491.88
802.557	469.88
802.813	552.88
803.068	556.88
803.324	703.88
803.579	822.88
803.835	1045.88
804.09	1375.88
804.345	1655.88
804.601	2015.88
804.856	2410.88
805.111	2748.88
805.366	2993.88
805.621	3122.88
805.876	3250.88
806.131	3346.88
806.386	3354.88
806.641	3353.88
806.896	3439.88
807.151	3549.88
807.406	3581.88
807.661	3616.88
807.915	3647.88
808.17	3722.88
808.425	3802.88
808.679	3723.88
808.934	3877.88
809.188	3817.88
809.443	3920.88
809.697	3951.88
809.951	3926.88
810.206	3944.88
810.46	4019.88
810.714	4070.88
810.968	4135.88
811.223	4074.88
811.477	4145.88
811.731	4155.88
811.985	4164.88
812.239	4136.88
812.493	4157.88
812.747	4202.88
813	4170.88
813.254	4252.88
813.508	4302.88
813.762	4260.88
814.015	4242.88
814.269	4346.88
814.522	4366.88
814.776	4439.88
815.03	4445.88
815.283	4544.88
815.536	4601.88
815.79	4691.88
816.043	4715.88
816.296	4707.88
816.55	4805.88
816.803	4875.88
817.056	4994.88
817.309	4875.88
817.562	5010.88
817.815	5127.88
818.068	5057.88
818.321	5120.88
818.574	5151.88
818.827	5277.88
819.079	5320.88
819.332	5537.88
819.585	5477.88
819.838	5610.88
820.09	5533.88
820.343	5699.88
820.595	5604.88
820.848	5698.88
821.1	5720.88
821.353	5693.88
821.605	5667.88
821.857	5706.88
822.11	5636.88
822.362	5656.88
822.614	5631.88
822.866	5654.88
823.118	5619.88
823.37	5764.88
823.622	5759.88
823.874	5758.88
824.126	5869.88
824.378	5816.88
824.63	5816.88
824.882	5826.88
825.134	5819.88
825.385	5776.88
825.637	5762.88
825.888	5715.88
826.14	5691.88
826.392	5663.88
826.643	5623.88
826.895	5673.88
827.146	5621.88
827.397	5549.88
827.649	5635.88
827.9	5585.88
828.151	5538.88
828.402	5575.88
828.653	5568.88
828.905	5675.88
829.156	5694.88
829.407	5593.88
829.658	5659.88
829.909	5656.88
830.159	5696.88
830.41	5655.88
830.661	5628.88
830.912	5579.88
831.162	5582.88
831.413	5597.88
831.664	5581.88
831.914	5599.88
832.165	5583.88
832.415	5563.88
832.666	5593.88
832.916	5603.88
833.167	5590.88
833.417	5560.88
833.667	5566.88
833.917	5517.88
834.168	5584.88
834.418	5564.88
834.668	5499.88
834.918	5480.88
835.168	5493.88
835.418	5455.88
835.668	5476.88
835.918	5543.88
836.167	5457.88
836.417	5390.88
836.667	5473.88
836.917	5491.88
837.166	5407.88
837.416	5466.88
837.666	5454.88
837.915	5413.88
838.165	5354.88
838.414	5284.88
838.663	5287.88
838.913	5352.88
839.162	5325.88
839.411	5395.88
839.661	5304.88
839.91	5354.88
840.159	5305.88
840.408	5351.88
840.657	5354.88
840.906	5361.88
841.155	5335.88
841.404	5313.88
841.653	5371.88
841.902	5283.88
842.15	5314.88
842.399	5358.88
842.648	5283.88
842.897	5325.88
843.145	5264.88
843.394	5195.88
843.642	5204.88
843.891	5210.88
844.139	5156.88
844.388	5155.88
844.636	5060.88
844.884	5141.88
845.133	5082.88
845.381	5129.88
845.629	5139.88
845.877	5061.88
846.125	5113.88
846.373	5103.88
846.621	5103.88
846.869	5090.88
847.117	5097.88
847.365	4993.88
847.613	5010.88
847.861	5001.88
848.108	5017.88
848.356	4989.88
848.604	4981.88
848.851	4997.88
849.099	4985.88
849.346	5034.88
849.594	5029.88
849.841	5063.88
850.089	5023.88
850.336	5005.88
850.583	5112.88
850.831	5052.88
851.078	5077.88
851.325	5148.88
851.572	5242.88
851.819	5114.88
852.066	4935.88
852.313	4819.88
852.56	4800.88
852.807	4715.88
853.054	4793.88
853.301	4767.88
853.548	4865.88
853.794	4910.88
854.041	4823.88
854.288	4827.88
854.534	4979.88
854.781	4916.88
855.028	4854.88
855.274	4903.88
855.52	4833.88
855.767	4802.88
856.013	4862.88
856.26	5161.88
856.506	4777.88
856.752	4765.88
856.998	4791.88
857.244	4814.88
857.49	4856.88
857.736	4809.88
857.982	4853.88
858.228	4835.88
858.474	4726.88
858.72	4735.88
858.966	4722.88
859.212	4643.88
859.458	4569.88
859.703	4548.88
859.949	4487.88
860.195	4551.88
860.44	4455.88
860.686	4451.88
860.931	4522.88
861.177	4435.88
861.422	4457.88
861.667	4415.88
861.913	4395.88
862.158	4404.88
862.403	4455.88
862.648	4475.88
862.893	4510.88
863.138	4454.88
863.384	4399.88
863.629	4437.88
863.873	4467.88
864.118	4355.88
864.363	4358.88
864.608	4398.88
864.853	4402.88
865.098	4365.88
865.342	4373.88
865.587	4279.88
865.832	4351.88
866.076	4315.88
866.321	4306.88
866.565	4277.88
866.81	4203.88
867.054	4264.88
867.298	4228.88
867.543	4214.88
867.787	4233.88
868.031	4187.88
868.275	4266.88
868.519	4221.88
868.764	4214.88
869.008	4193.88
869.252	4227.88
869.496	4216.88
869.739	4194.88
869.983	4264.88
870.227	4280.88
870.471	4200.88
870.715	4250.88
870.958	4257.88
871.202	4249.88
871.446	4208.88
871.689	4231.88
871.933	4257.88
872.176	4251.88
872.42	4203.88
872.663	4203.88
872.906	4255.88
873.15	4198.88
873.393	4167.88
873.636	4236.88
873.879	4181.88
874.122	4180.88
874.366	4100.88
874.609	4117.88
874.852	3993.88
875.095	4026.88
875.337	3969.88
875.58	3903.88
875.823	3955.88
876.066	3973.88
876.309	4026.88
876.551	3925.88
876.794	3855.88
877.037	3880.88
877.279	3856.88
877.522	3864.88
877.764	3885.88
878.007	3824.88
878.249	3867.88
878.491	3788.88
878.734	3812.88
878.976	3824.88
879.218	3790.88
879.46	3821.88
879.702	3831.88
879.945	3750.88
880.187	3690.88
880.429	3716.88
880.671	3692.88
880.912	3686.88
881.154	3658.88
881.396	3556.88
881.638	3641.88
881.88	3600.88
882.121	3597.88
882.363	3608.88
882.605	3669.88
882.846	3615.88
883.088	3634.88
883.329	3601.88
883.571	3600.88
883.812	3677.88
884.053	3721.88
884.295	3813.88
884.536	3960.88
884.777	3908.88
885.018	3912.88
885.259	3851.88
885.5	3839.88
885.742	4096.88
885.982	3801.88
886.223	3764.88
886.464	3723.88
886.705	3602.88
886.946	3658.88
887.187	3495.88
887.428	3546.88
887.668	3461.88
887.909	3418.88
888.15	3335.88
888.39	3421.88
888.631	3398.88
888.871	3379.88
889.111	3341.88
889.352	3262.88
889.592	3241.88
889.833	3236.88
890.073	3191.88
890.313	3266.88
890.553	3139.88
890.793	3163.88
891.033	3144.88
891.273	3069.88
891.513	3125.88
891.753	3188.88
891.993	3123.88
892.233	3134.88
892.473	3210.88
892.713	3154.88
892.952	3098.88
893.192	3171.88
893.432	3139.88
893.671	3182.88
893.911	3136.88
894.15	3138.88
894.39	3063.88
894.629	3051.88
894.869	3080.88
895.108	3039.88
895.347	2999.88
895.587	3052.88
895.826	2998.88
896.065	2992.88
896.304	3014.88
896.543	3061.88
896.782	2946.88
897.021	3007.88
897.26	3000.88
897.499	3101.88
897.738	3049.88
897.977	3020.88
898.216	2937.88
898.454	2914.88
898.693	2876.88
898.932	2934.88
899.17	2893.88
899.409	2880.88
899.647	2880.88
899.886	2852.88
900.124	2870.88
900.363	2843.88
900.601	2939.88
900.839	2900.88
901.078	2905.88
901.316	2892.88
901.554	2945.88
901.792	2945.88
902.03	2949.88
902.268	2942.88
902.506	3006.88
902.744	2960.88
902.982	2907.88
903.22	2833.88
903.458	2838.88
903.695	2830.88
903.933	2771.88
904.171	2710.88
904.409	2677.88
904.646	2668.88
904.884	2620.88
905.121	2646.88
905.359	2595.88
905.596	2554.88
905.833	2498.88
906.071	2502.88
906.308	2587.88
906.545	2509.88
906.783	2469.88
907.02	2492.88
907.257	2444.88
907.494	2478.88
907.731	2484.88
907.968	2509.88
908.205	2415.88
908.442	2449.88
908.679	2436.88
908.915	2422.88
909.152	2404.88
909.389	2379.88
909.626	2364.88
909.862	2339.88
910.099	2331.88
910.335	2439.88
910.572	2249.88
910.808	2326.88
911.045	2318.88
911.281	2270.88
911.518	2298.88
911.754	2267.88
911.99	2306.88
912.226	2246.88
912.463	2245.88
912.699	2214.88
912.935	2213.88
913.171	2184.88
913.407	2164.88
913.643	2200.88
913.879	2180.88
914.114	2177.88
914.35	2116.88
914.586	2135.88
914.822	2124.88
915.057	2181.88
915.293	2046.88
915.529	2055.88
915.764	2098.88
916	2104.88
916.235	2059.88
916.471	2105.88
916.706	2017.88
916.941	2027.88
917.177	2035.88
917.412	2065.88
917.647	2109.88
917.882	2039.88
918.117	2076.88
918.352	2046.88
918.588	2092.88
918.823	2025.88
919.057	2011.88
919.292	1899.88
919.527	2001.88
919.762	1970.88
919.997	1990.88
920.232	1938.88
920.466	1950.88
920.701	1833.88
920.935	1912.88
921.17	1865.88
921.405	1839.88
921.639	1889.88
921.873	1859.88
922.108	1892.88
922.342	1873.88
922.576	1813.88
922.811	1827.88
923.045	1865.88
923.279	1867.88
923.513	1755.88
923.747	1853.88
923.981	1847.88
924.215	1784.88
924.449	1770.88
924.683	1738.88
924.917	1750.88
925.151	1760.88
925.385	1823.88
925.618	1788.88
925.852	1743.88
926.086	1704.88
926.319	1775.88
926.553	1769.88
926.786	1743.88
927.02	1729.88
927.253	1780.88
927.486	1761.88
927.72	1737.88
927.953	1762.88
928.186	1735.88
928.42	1768.88
928.653	1693.88
928.886	1682.88
929.119	1739.88
929.352	1655.88
929.585	1704.88
929.818	1656.88
930.051	1698.88
930.284	1697.88
930.516	1615.88
930.749	1635.88
930.982	1665.88
931.215	1676.88
931.447	1587.88
931.68	1623.88
931.912	1602.88
932.145	1597.88
932.377	1615.88
932.61	1735.88
932.842	1564.88
933.074	1618.88
933.307	1599.88
933.539	1696.88
933.771	1667.88
934.003	1572.88
934.236	1672.88
934.468	1710.88
934.7	1618.88
934.932	1638.88
935.164	1605.88
935.395	1577.88
935.627	1591.88
935.859	1597.88
936.091	1533.88
936.323	1608.88
936.554	1638.88
936.786	1587.88
937.017	1531.88
937.249	1584.88
937.481	1506.88
937.712	1574.88
937.943	1571.88
938.175	1561.88
938.406	1549.88
938.637	1609.88
938.869	1479.88
939.1	1577.88
939.331	1513.88
939.562	1575.88
939.793	1576.88
940.024	1591.88
940.255	1597.88
940.486	1530.88
940.717	1534.88
940.948	1503.88
941.179	1482.88
941.409	1519.88
941.64	1490.88
941.871	1491.88
942.102	1483.88
942.332	1501.88
942.563	1536.88
942.793	1522.88
943.024	1457.88
943.254	1487.88
943.484	1530.88
943.715	1556.88
943.945	1506.88
944.175	1436.88
944.405	1448.88
944.636	1442.88
944.866	1488.88
945.096	1500.88
945.326	1451.88
945.556	1490.88
945.786	1527.88
946.016	1497.88
946.245	1414.88
946.475	1453.88
946.705	1437.88
946.935	1457.88
947.164	1497.88
947.394	1444.88
947.624	1423.88
947.853	1455.88
948.083	1427.88
948.312	1410.88
948.542	1404.88
948.771	1370.88
949	1381.88
949.23	1387.88
949.459	1401.88
949.688	1466.88
949.917	1411.88
950.146	1397.88
950.375	1462.88
950.604	1379.88
950.833	1445.88
951.062	1453.88
951.291	1376.88
951.52	1382.88
951.749	1391.88
951.978	1345.88
952.206	1379.88
952.435	1373.88
952.664	1424.88
952.892	1388.88
953.121	1384.88
953.349	1433.88
953.578	1397.88
953.806	1348.88
954.035	1328.88
954.263	1375.88
954.491	1332.88
954.719	1360.88
954.948	1325.88
955.176	1318.88
955.404	1259.88
955.632	1336.88
955.86	1330.88
956.088	1326.88
956.316	1343.88
956.544	1351.88
956.772	1309.88
956.999	1303.88
957.227	1375.88
957.455	1294.88
957.683	1313.88
957.91	1279.88
958.138	1284.88
958.365	1300.88
958.593	1277.88
958.82	1230.88
959.048	1283.88
959.275	1273.88
959.502	1276.88
959.73	1252.88
959.957	1307.88
960.184	1347.88
960.411	1260.88
960.638	1353.88
960.865	1281.88
961.092	1288.88
961.319	1206.88
961.546	1292.88
961.773	1292.88
962	1264.88
962.227	1305.88
962.454	1249.88
962.68	1265.88
962.907	1278.88
963.134	1229.88
963.36	1268.88
963.587	1292.88
963.813	1238.88
964.04	1287.88
964.266	1203.88
964.493	1294.88
964.719	1247.88
964.945	1244.88
965.171	1173.88
965.398	1229.88
965.624	1256.88
965.85	1196.88
966.076	1192.88
966.302	1247.88
966.528	1214.88
966.754	1246.88
966.98	1212.88
967.206	1241.88
967.431	1153.88
967.657	1254.88
967.883	1223.88
968.109	1206.88
968.334	1169.88
968.56	1142.88
968.785	1181.88
969.011	1139.88
969.236	1199.88
969.462	1140.88
969.687	1185.88
969.912	1226.88
970.138	1212.88
970.363	1141.88
970.588	1189.88
970.813	1160.88
971.038	1143.88
971.263	1200.88
971.488	1173.88
971.713	1213.88
971.938	1192.88
972.163	1126.88
972.388	1151.88
972.613	1117.88
972.838	1150.88
973.062	1118.88
973.287	1128.88
973.512	1063.88
973.736	1122.88
973.961	1116.88
974.185	1107.88
974.41	1128.88
974.634	1072.88
974.858	1076.88
975.083	1097.88
975.307	1128.88
975.531	1071.88
975.755	1038.88
975.98	1065.88
976.204	1027.88
976.428	1020.88
976.652	1021.88
976.876	1009.88
977.1	1056.88
977.324	990.88
977.547	1073.88
977.771	1071.88
977.995	1053.88
978.219	1005.88
978.442	1126.88
978.666	1047.88
978.89	1044.88
979.113	1031.88
979.337	1048.88
979.56	1007.88
979.783	1104.88
980.007	999.88
980.23	1015.88
980.453	1013.88
980.677	1038.88
980.9	1014.88
981.123	947.88
981.346	1037.88
981.569	1046.88
981.792	1054.88
982.015	998.88
982.238	993.88
982.461	1002.88
982.684	979.88
982.907	978.88
983.129	971.88
983.352	1009.88
983.575	1004.88
983.797	980.88
984.02	954.88
984.242	951.88
984.465	978.88
984.687	997.88
984.91	1034.88
985.132	1017.88
985.354	1023.88
985.577	987.88
985.799	983.88
986.021	929.88
986.243	958.88
986.465	978.88
986.687	1027.88
986.909	1047.88
987.131	1011.88
987.353	961.88
987.575	999.88
987.797	986.88
988.019	912.88
988.241	980.88
988.462	946.88
988.684	997.88
988.906	1008.88
989.127	1055.88
989.349	919.88
989.57	954.88
989.792	1006.88
990.013	989.88
990.234	1007.88
990.456	1045.88
990.677	1015.88
990.898	979.88
991.119	964.88
991.341	995.88
991.562	925.88
991.783	985.88
992.004	959.88
992.225	898.88
992.446	955.88
992.667	891.88
992.887	979.88
993.108	884.88
993.329	1007.88
993.55	948.88
993.77	895.88
993.991	928.88
994.212	949.88
994.432	940.88
994.653	974.88
994.873	943.88
995.093	855.88
995.314	923.88
995.534	970.88
995.754	988.88
995.975	1011.88
996.195	894.88
996.415	962.88
996.635	937.88
996.855	958.88
997.075	916.88
997.295	924.88
997.515	909.88
997.735	951.88
997.955	948.88
998.174	923.88
998.394	904.88
998.614	950.88
998.834	913.88
999.053	967.88
999.273	937.88
999.492	986.88
999.712	940.88
999.931	918.88
1000.151	950.88
1000.37	958.88
1000.589	996.88
1000.809	918.88
1001.028	1062.88
1001.247	998.88
1001.466	874.88
1001.685	1031.88
1001.904	965.88
1002.123	980.88
1002.342	976.88
1002.561	930.88
1002.78	990.88
1002.999	1024.88
1003.218	987.88
1003.436	958.88
1003.655	1013.88
1003.874	941.88
1004.092	955.88
1004.311	1016.88
1004.53	982.88
1004.748	1043.88
1004.966	977.88
1005.185	1037.88
1005.403	989.88
1005.622	986.88
1005.84	1059.88
1006.058	962.88
1006.276	1007.88
1006.494	1486.88
1006.712	1002.88
1006.931	1068.88
1007.149	972.88
1007.367	988.88
1007.584	1007.88
1007.802	1037.88
1008.02	1006.88
1008.238	1086.88
1008.456	1046.88
1008.673	925.88
1008.891	1058.88
1009.109	1008.88
1009.326	1030.88
1009.544	1126.88
1009.761	1033.88
1009.979	1115.88
1010.196	1099.88
1010.413	1173.88
1010.631	1189.88
1010.848	1222.88
1011.065	1205.88
1011.282	1166.88
1011.5	1092.88
1011.717	1240.88
1011.934	1166.88
1012.151	1191.88
1012.368	1182.88
1012.585	1137.88
1012.801	1182.88
1013.018	1140.88
1013.235	1111.88
1013.452	1121.88
1013.669	1136.88
1013.885	1128.88
1014.102	1145.88
1014.318	1131.88
1014.535	1096.88
1014.751	1129.88
1014.968	1120.88
1015.184	1148.88
1015.401	1068.88
1015.617	1126.88
1015.833	1078.88
1016.049	1072.88
1016.266	1074.88
1016.482	1072.88
1016.698	1016.88
1016.914	1076.88
1017.13	1018.88
1017.346	1015.88
1017.562	1074.88
1017.778	1013.88
1017.993	1003.88
1018.209	1059.88
1018.425	1030.88
1018.641	1002.88
1018.856	978.88
1019.072	1012.88
1019.288	1083.88
1019.503	997.88
1019.719	906.88
1019.934	937.88
1020.149	1018.88
1020.365	962.88
1020.58	919.88
1020.795	972.88
1021.011	940.88
1021.226	907.88
1021.441	953.88
1021.656	893.88
1021.871	831.88
1022.086	829.88
1022.301	830.88
1022.516	824.88
1022.731	927.88
1022.946	793.88
1023.16	793.88
1023.375	754.88
1023.59	745.88
1023.804	721.88
1024.019	822.88
1024.234	692.88
1024.448	729.88
1024.663	698.88
1024.877	690.88
1025.092	715.88
1025.306	739.88
1025.52	642.88
1025.734	743.88
1025.949	668.88
1026.163	657.88
1026.377	601.88
1026.591	645.88
1026.805	566.88
1027.019	563.88
1027.233	546.88
1027.447	507.88
1027.661	606.88
1027.875	547.88
1028.088	559.88
1028.302	502.88
1028.516	502.88
1028.73	501.88
1028.943	507.88
1029.157	469.88
1029.37	441.88
1029.584	1.88
1029.797	-3.12
1030.011	-3.12
1030.224	-4.12
