Data from QEP037381__146__10-27-42-734.txt Node

Date: Wed Dec 21 10:27:42 EST 2022
User: dcclab
Spectrometer: QEP03738
Trigger mode: 4
Integration Time (sec): 1.000000E1
Scans to average: 1
Electric dark correction enabled: true
Nonlinearity correction enabled: false
Boxcar width: 0
XAxis mode: Wavelengths
Number of Pixels in Spectrum: 1044
>>>>>Begin Spectral Data<<<<<
784.041	11.75
784.3	-1.25
784.558	0.75
784.817	-2.25
785.075	76625.75
785.334	13548.75
785.592	6483.75
785.851	4477.75
786.109	3412.75
786.368	2670.75
786.626	2147.75
786.884	1806.75
787.143	1509.75
787.401	1209.75
787.659	1124.75
787.917	969.75
788.175	905.75
788.433	794.75
788.691	724.75
788.949	651.75
789.207	654.75
789.465	558.75
789.723	537.75
789.98	501.75
790.238	534.75
790.496	503.75
790.753	492.75
791.011	546.75
791.268	467.75
791.526	479.75
791.783	468.75
792.041	462.75
792.298	379.75
792.556	442.75
792.813	409.75
793.07	412.75
793.327	388.75
793.584	469.75
793.841	403.75
794.099	405.75
794.356	471.75
794.613	389.75
794.869	393.75
795.126	376.75
795.383	359.75
795.64	379.75
795.897	329.75
796.153	389.75
796.41	379.75
796.667	356.75
796.923	373.75
797.18	357.75
797.436	386.75
797.693	346.75
797.949	401.75
798.206	425.75
798.462	339.75
798.718	393.75
798.974	362.75
799.231	401.75
799.487	375.75
799.743	385.75
799.999	393.75
800.255	391.75
800.511	376.75
800.767	393.75
801.023	367.75
801.279	379.75
801.534	388.75
801.79	412.75
802.046	388.75
802.302	453.75
802.557	461.75
802.813	492.75
803.068	501.75
803.324	620.75
803.579	690.75
803.835	870.75
804.09	1143.75
804.345	1311.75
804.601	1602.75
804.856	1909.75
805.111	2169.75
805.366	2330.75
805.621	2458.75
805.876	2528.75
806.131	2558.75
806.386	2594.75
806.641	2640.75
806.896	2680.75
807.151	2792.75
807.406	2779.75
807.661	2821.75
807.915	2842.75
808.17	2940.75
808.425	2939.75
808.679	2901.75
808.934	3022.75
809.188	3013.75
809.443	3045.75
809.697	3142.75
809.951	3056.75
810.206	3101.75
810.46	3129.75
810.714	3169.75
810.968	3200.75
811.223	3157.75
811.477	3213.75
811.731	3277.75
811.985	3212.75
812.239	3212.75
812.493	3274.75
812.747	3293.75
813	3257.75
813.254	3301.75
813.508	3364.75
813.762	3353.75
814.015	3340.75
814.269	3417.75
814.522	3423.75
814.776	3475.75
815.03	3554.75
815.283	3573.75
815.536	3601.75
815.79	3675.75
816.043	3703.75
816.296	3678.75
816.55	3746.75
816.803	3808.75
817.056	3937.75
817.309	3912.75
817.562	3900.75
817.815	3990.75
818.068	3946.75
818.321	3997.75
818.574	4025.75
818.827	4164.75
819.079	4169.75
819.332	4286.75
819.585	4281.75
819.838	4403.75
820.09	4353.75
820.343	4423.75
820.595	4369.75
820.848	4452.75
821.1	4473.75
821.353	4467.75
821.605	4475.75
821.857	4543.75
822.11	4435.75
822.362	4436.75
822.614	4420.75
822.866	4488.75
823.118	4476.75
823.37	4494.75
823.622	4539.75
823.874	4571.75
824.126	4594.75
824.378	4583.75
824.63	4592.75
824.882	4617.75
825.134	4578.75
825.385	4556.75
825.637	4546.75
825.888	4486.75
826.14	4471.75
826.392	4507.75
826.643	4448.75
826.895	4474.75
827.146	4423.75
827.397	4372.75
827.649	4481.75
827.9	4353.75
828.151	4353.75
828.402	4379.75
828.653	4427.75
828.905	4420.75
829.156	4484.75
829.407	4429.75
829.658	4446.75
829.909	4476.75
830.159	4505.75
830.41	4460.75
830.661	4459.75
830.912	4389.75
831.162	4386.75
831.413	4324.75
831.664	4400.75
831.914	4364.75
832.165	4426.75
832.415	4389.75
832.666	4399.75
832.916	4461.75
833.167	4423.75
833.417	4475.75
833.667	4426.75
833.917	4393.75
834.168	4471.75
834.418	4414.75
834.668	4414.75
834.918	4397.75
835.168	4348.75
835.418	4330.75
835.668	4323.75
835.918	4360.75
836.167	4342.75
836.417	4267.75
836.667	4304.75
836.917	4325.75
837.166	4290.75
837.416	4281.75
837.666	4253.75
837.915	4258.75
838.165	4226.75
838.414	4174.75
838.663	4178.75
838.913	4207.75
839.162	4188.75
839.411	4270.75
839.661	4206.75
839.91	4228.75
840.159	4219.75
840.408	4208.75
840.657	4258.75
840.906	4275.75
841.155	4285.75
841.404	4223.75
841.653	4218.75
841.902	4204.75
842.15	4217.75
842.399	4260.75
842.648	4199.75
842.897	4234.75
843.145	4123.75
843.394	4144.75
843.642	4118.75
843.891	4188.75
844.139	4075.75
844.388	4012.75
844.636	4055.75
844.884	4040.75
845.133	4029.75
845.381	4042.75
845.629	4090.75
845.877	4038.75
846.125	4035.75
846.373	4044.75
846.621	4001.75
846.869	4034.75
847.117	3999.75
847.365	3982.75
847.613	3998.75
847.861	3956.75
848.108	3982.75
848.356	4040.75
848.604	3978.75
848.851	4011.75
849.099	3976.75
849.346	3999.75
849.594	4013.75
849.841	4026.75
850.089	3996.75
850.336	4051.75
850.583	4071.75
850.831	4059.75
851.078	4067.75
851.325	4124.75
851.572	4196.75
851.819	4160.75
852.066	3994.75
852.313	3860.75
852.56	3825.75
852.807	3760.75
853.054	3798.75
853.301	3827.75
853.548	3851.75
853.794	3963.75
854.041	3948.75
854.288	3858.75
854.534	3993.75
854.781	3914.75
855.028	3867.75
855.274	3930.75
855.52	3870.75
855.767	3846.75
856.013	3889.75
856.26	4162.75
856.506	3819.75
856.752	3839.75
856.998	3838.75
857.244	3793.75
857.49	3890.75
857.736	3849.75
857.982	3899.75
858.228	3894.75
858.474	3776.75
858.72	3799.75
858.966	3766.75
859.212	3736.75
859.458	3695.75
859.703	3658.75
859.949	3610.75
860.195	3635.75
860.44	3596.75
860.686	3552.75
860.931	3618.75
861.177	3540.75
861.422	3538.75
861.667	3537.75
861.913	3517.75
862.158	3534.75
862.403	3564.75
862.648	3588.75
862.893	3622.75
863.138	3599.75
863.384	3533.75
863.629	3551.75
863.873	3594.75
864.118	3505.75
864.363	3470.75
864.608	3577.75
864.853	3578.75
865.098	3507.75
865.342	3539.75
865.587	3484.75
865.832	3499.75
866.076	3453.75
866.321	3401.75
866.565	3440.75
866.81	3367.75
867.054	3392.75
867.298	3428.75
867.543	3365.75
867.787	3415.75
868.031	3414.75
868.275	3427.75
868.519	3411.75
868.764	3426.75
869.008	3382.75
869.252	3442.75
869.496	3413.75
869.739	3360.75
869.983	3429.75
870.227	3445.75
870.471	3386.75
870.715	3435.75
870.958	3430.75
871.202	3385.75
871.446	3430.75
871.689	3405.75
871.933	3426.75
872.176	3414.75
872.42	3387.75
872.663	3392.75
872.906	3493.75
873.15	3364.75
873.393	3364.75
873.636	3451.75
873.879	3422.75
874.122	3370.75
874.366	3314.75
874.609	3291.75
874.852	3254.75
875.095	3274.75
875.337	3234.75
875.58	3152.75
875.823	3221.75
876.066	3233.75
876.309	3236.75
876.551	3125.75
876.794	3118.75
877.037	3200.75
877.279	3096.75
877.522	3115.75
877.764	3122.75
878.007	3135.75
878.249	3127.75
878.491	3074.75
878.734	3138.75
878.976	3122.75
879.218	3051.75
879.46	3099.75
879.702	3099.75
879.945	3007.75
880.187	2961.75
880.429	2974.75
880.671	2954.75
880.912	2946.75
881.154	2963.75
881.396	2867.75
881.638	2957.75
881.88	2930.75
882.121	2891.75
882.363	2934.75
882.605	3002.75
882.846	2943.75
883.088	2979.75
883.329	2937.75
883.571	2924.75
883.812	2969.75
884.053	3018.75
884.295	3103.75
884.536	3278.75
884.777	3197.75
885.018	3210.75
885.259	3222.75
885.5	3107.75
885.742	3397.75
885.982	3118.75
886.223	2999.75
886.464	3002.75
886.705	2935.75
886.946	2923.75
887.187	2866.75
887.428	2863.75
887.668	2815.75
887.909	2725.75
888.15	2702.75
888.39	2781.75
888.631	2792.75
888.871	2729.75
889.111	2673.75
889.352	2682.75
889.592	2649.75
889.833	2646.75
890.073	2600.75
890.313	2659.75
890.553	2543.75
890.793	2551.75
891.033	2525.75
891.273	2543.75
891.513	2554.75
891.753	2618.75
891.993	2502.75
892.233	2565.75
892.473	2643.75
892.713	2605.75
892.952	2527.75
893.192	2592.75
893.432	2576.75
893.671	2623.75
893.911	2574.75
894.15	2554.75
894.39	2464.75
894.629	2493.75
894.869	2534.75
895.108	2451.75
895.347	2421.75
895.587	2497.75
895.826	2480.75
896.065	2425.75
896.304	2509.75
896.543	2522.75
896.782	2410.75
897.021	2461.75
897.26	2439.75
897.499	2529.75
897.738	2525.75
897.977	2452.75
898.216	2400.75
898.454	2408.75
898.693	2353.75
898.932	2413.75
899.17	2343.75
899.409	2367.75
899.647	2390.75
899.886	2353.75
900.124	2364.75
900.363	2351.75
900.601	2389.75
900.839	2374.75
901.078	2413.75
901.316	2395.75
901.554	2395.75
901.792	2410.75
902.03	2401.75
902.268	2424.75
902.506	2456.75
902.744	2408.75
902.982	2461.75
903.22	2329.75
903.458	2314.75
903.695	2308.75
903.933	2262.75
904.171	2208.75
904.409	2173.75
904.646	2221.75
904.884	2123.75
905.121	2196.75
905.359	2151.75
905.596	2115.75
905.833	2057.75
906.071	2040.75
906.308	2110.75
906.545	2076.75
906.783	2012.75
907.02	2036.75
907.257	2030.75
907.494	2048.75
907.731	2052.75
907.968	2070.75
908.205	2001.75
908.442	2018.75
908.679	2010.75
908.915	1975.75
909.152	1987.75
909.389	1893.75
909.626	1931.75
909.862	1915.75
910.099	1941.75
910.335	1991.75
910.572	1879.75
910.808	1911.75
911.045	1908.75
911.281	1849.75
911.518	1937.75
911.754	1904.75
911.99	1869.75
912.226	1854.75
912.463	1828.75
912.699	1834.75
912.935	1855.75
913.171	1817.75
913.407	1782.75
913.643	1862.75
913.879	1799.75
914.114	1755.75
914.35	1746.75
914.586	1753.75
914.822	1694.75
915.057	1827.75
915.293	1673.75
915.529	1667.75
915.764	1742.75
916	1732.75
916.235	1730.75
916.471	1738.75
916.706	1634.75
916.941	1706.75
917.177	1683.75
917.412	1703.75
917.647	1725.75
917.882	1657.75
918.117	1733.75
918.352	1694.75
918.588	1750.75
918.823	1655.75
919.057	1667.75
919.292	1582.75
919.527	1696.75
919.762	1634.75
919.997	1658.75
920.232	1613.75
920.466	1639.75
920.701	1520.75
920.935	1570.75
921.17	1579.75
921.405	1529.75
921.639	1618.75
921.873	1573.75
922.108	1578.75
922.342	1562.75
922.576	1516.75
922.811	1538.75
923.045	1555.75
923.279	1589.75
923.513	1464.75
923.747	1550.75
923.981	1555.75
924.215	1492.75
924.449	1480.75
924.683	1454.75
924.917	1478.75
925.151	1471.75
925.385	1563.75
925.618	1479.75
925.852	1496.75
926.086	1427.75
926.319	1474.75
926.553	1456.75
926.786	1483.75
927.02	1433.75
927.253	1506.75
927.486	1515.75
927.72	1437.75
927.953	1483.75
928.186	1440.75
928.42	1487.75
928.653	1420.75
928.886	1394.75
929.119	1460.75
929.352	1453.75
929.585	1450.75
929.818	1384.75
930.051	1414.75
930.284	1426.75
930.516	1365.75
930.749	1383.75
930.982	1401.75
931.215	1394.75
931.447	1334.75
931.68	1344.75
931.912	1364.75
932.145	1347.75
932.377	1353.75
932.61	1476.75
932.842	1338.75
933.074	1397.75
933.307	1337.75
933.539	1431.75
933.771	1405.75
934.003	1373.75
934.236	1422.75
934.468	1443.75
934.7	1362.75
934.932	1415.75
935.164	1346.75
935.395	1354.75
935.627	1381.75
935.859	1342.75
936.091	1316.75
936.323	1369.75
936.554	1397.75
936.786	1346.75
937.017	1304.75
937.249	1342.75
937.481	1283.75
937.712	1355.75
937.943	1317.75
938.175	1308.75
938.406	1307.75
938.637	1372.75
938.869	1274.75
939.1	1360.75
939.331	1290.75
939.562	1342.75
939.793	1323.75
940.024	1363.75
940.255	1344.75
940.486	1317.75
940.717	1304.75
940.948	1303.75
941.179	1251.75
941.409	1284.75
941.64	1289.75
941.871	1294.75
942.102	1291.75
942.332	1284.75
942.563	1325.75
942.793	1300.75
943.024	1247.75
943.254	1292.75
943.484	1316.75
943.715	1336.75
943.945	1314.75
944.175	1233.75
944.405	1225.75
944.636	1225.75
944.866	1292.75
945.096	1294.75
945.326	1241.75
945.556	1292.75
945.786	1306.75
946.016	1262.75
946.245	1218.75
946.475	1232.75
946.705	1236.75
946.935	1254.75
947.164	1243.75
947.394	1198.75
947.624	1242.75
947.853	1261.75
948.083	1239.75
948.312	1218.75
948.542	1171.75
948.771	1157.75
949	1154.75
949.23	1189.75
949.459	1191.75
949.688	1277.75
949.917	1200.75
950.146	1210.75
950.375	1278.75
950.604	1144.75
950.833	1271.75
951.062	1246.75
951.291	1195.75
951.52	1182.75
951.749	1207.75
951.978	1184.75
952.206	1192.75
952.435	1162.75
952.664	1224.75
952.892	1250.75
953.121	1198.75
953.349	1248.75
953.578	1216.75
953.806	1185.75
954.035	1170.75
954.263	1185.75
954.491	1131.75
954.719	1201.75
954.948	1137.75
955.176	1153.75
955.404	1073.75
955.632	1145.75
955.86	1146.75
956.088	1156.75
956.316	1167.75
956.544	1194.75
956.772	1138.75
956.999	1105.75
957.227	1207.75
957.455	1126.75
957.683	1163.75
957.91	1109.75
958.138	1104.75
958.365	1103.75
958.593	1107.75
958.82	1063.75
959.048	1123.75
959.275	1121.75
959.502	1119.75
959.73	1100.75
959.957	1145.75
960.184	1189.75
960.411	1127.75
960.638	1197.75
960.865	1127.75
961.092	1140.75
961.319	1069.75
961.546	1167.75
961.773	1127.75
962	1093.75
962.227	1140.75
962.454	1099.75
962.68	1068.75
962.907	1135.75
963.134	1073.75
963.36	1091.75
963.587	1156.75
963.813	1078.75
964.04	1117.75
964.266	1083.75
964.493	1150.75
964.719	1117.75
964.945	1120.75
965.171	1016.75
965.398	1097.75
965.624	1104.75
965.85	1075.75
966.076	1048.75
966.302	1110.75
966.528	1068.75
966.754	1102.75
966.98	1091.75
967.206	1102.75
967.431	1027.75
967.657	1091.75
967.883	1074.75
968.109	1089.75
968.334	1039.75
968.56	1047.75
968.785	1055.75
969.011	1013.75
969.236	1071.75
969.462	1012.75
969.687	1052.75
969.912	1105.75
970.138	1083.75
970.363	1003.75
970.588	1059.75
970.813	1027.75
971.038	998.75
971.263	1027.75
971.488	1051.75
971.713	1083.75
971.938	1070.75
972.163	970.75
972.388	1015.75
972.613	981.75
972.838	1007.75
973.062	1011.75
973.287	1046.75
973.512	951.75
973.736	991.75
973.961	980.75
974.185	974.75
974.41	1030.75
974.634	913.75
974.858	940.75
975.083	1010.75
975.307	1040.75
975.531	961.75
975.755	913.75
975.98	978.75
976.204	905.75
976.428	904.75
976.652	900.75
976.876	906.75
977.1	951.75
977.324	925.75
977.547	945.75
977.771	976.75
977.995	951.75
978.219	884.75
978.442	999.75
978.666	937.75
978.89	930.75
979.113	934.75
979.337	908.75
979.56	885.75
979.783	999.75
980.007	902.75
980.23	922.75
980.453	885.75
980.677	943.75
980.9	920.75
981.123	840.75
981.346	929.75
981.569	926.75
981.792	964.75
982.015	898.75
982.238	864.75
982.461	897.75
982.684	868.75
982.907	853.75
983.129	862.75
983.352	913.75
983.575	936.75
983.797	913.75
984.02	871.75
984.242	888.75
984.465	868.75
984.687	904.75
984.91	930.75
985.132	918.75
985.354	936.75
985.577	904.75
985.799	902.75
986.021	840.75
986.243	871.75
986.465	891.75
986.687	927.75
986.909	950.75
987.131	904.75
987.353	884.75
987.575	916.75
987.797	879.75
988.019	821.75
988.241	892.75
988.462	839.75
988.684	898.75
988.906	936.75
989.127	959.75
989.349	829.75
989.57	889.75
989.792	920.75
990.013	933.75
990.234	920.75
990.456	980.75
990.677	956.75
990.898	901.75
991.119	885.75
991.341	916.75
991.562	864.75
991.783	914.75
992.004	841.75
992.225	814.75
992.446	896.75
992.667	805.75
992.887	906.75
993.108	805.75
993.329	954.75
993.55	873.75
993.77	840.75
993.991	852.75
994.212	892.75
994.432	874.75
994.653	879.75
994.873	881.75
995.093	768.75
995.314	830.75
995.534	902.75
995.754	921.75
995.975	935.75
996.195	828.75
996.415	874.75
996.635	874.75
996.855	881.75
997.075	875.75
997.295	860.75
997.515	842.75
997.735	894.75
997.955	859.75
998.174	881.75
998.394	841.75
998.614	886.75
998.834	852.75
999.053	931.75
999.273	881.75
999.492	942.75
999.712	896.75
999.931	851.75
1000.151	896.75
1000.37	877.75
1000.589	943.75
1000.809	853.75
1001.028	959.75
1001.247	911.75
1001.466	823.75
1001.685	957.75
1001.904	916.75
1002.123	911.75
1002.342	940.75
1002.561	874.75
1002.78	920.75
1002.999	965.75
1003.218	924.75
1003.436	875.75
1003.655	951.75
1003.874	890.75
1004.092	917.75
1004.311	962.75
1004.53	928.75
1004.748	994.75
1004.966	912.75
1005.185	974.75
1005.403	945.75
1005.622	966.75
1005.84	1001.75
1006.058	923.75
1006.276	944.75
1006.494	1421.75
1006.712	950.75
1006.931	995.75
1007.149	932.75
1007.367	918.75
1007.584	958.75
1007.802	991.75
1008.02	941.75
1008.238	1026.75
1008.456	1020.75
1008.673	890.75
1008.891	986.75
1009.109	945.75
1009.326	975.75
1009.544	1046.75
1009.761	949.75
1009.979	1033.75
1010.196	1026.75
1010.413	1079.75
1010.631	1141.75
1010.848	1120.75
1011.065	1124.75
1011.282	1098.75
1011.5	1029.75
1011.717	1155.75
1011.934	1086.75
1012.151	1119.75
1012.368	1083.75
1012.585	1025.75
1012.801	1093.75
1013.018	1050.75
1013.235	1024.75
1013.452	1028.75
1013.669	1049.75
1013.885	1041.75
1014.102	1068.75
1014.318	1027.75
1014.535	1018.75
1014.751	1037.75
1014.968	1039.75
1015.184	1068.75
1015.401	1001.75
1015.617	1051.75
1015.833	1002.75
1016.049	1009.75
1016.266	989.75
1016.482	1003.75
1016.698	943.75
1016.914	996.75
1017.13	951.75
1017.346	961.75
1017.562	1005.75
1017.778	952.75
1017.993	912.75
1018.209	980.75
1018.425	946.75
1018.641	929.75
1018.856	895.75
1019.072	946.75
1019.288	993.75
1019.503	921.75
1019.719	848.75
1019.934	875.75
1020.149	934.75
1020.365	891.75
1020.58	862.75
1020.795	909.75
1021.011	863.75
1021.226	850.75
1021.441	884.75
1021.656	814.75
1021.871	761.75
1022.086	776.75
1022.301	778.75
1022.516	754.75
1022.731	824.75
1022.946	747.75
1023.16	735.75
1023.375	700.75
1023.59	703.75
1023.804	672.75
1024.019	775.75
1024.234	666.75
1024.448	694.75
1024.663	626.75
1024.877	672.75
1025.092	676.75
1025.306	693.75
1025.52	609.75
1025.734	702.75
1025.949	625.75
1026.163	616.75
1026.377	562.75
1026.591	617.75
1026.805	539.75
1027.019	551.75
1027.233	519.75
1027.447	466.75
1027.661	573.75
1027.875	530.75
1028.088	528.75
1028.302	469.75
1028.516	469.75
1028.73	462.75
1028.943	488.75
1029.157	443.75
1029.37	405.75
1029.584	-3.25
1029.797	-4.25
1030.011	-3.25
1030.224	1.75
