Data from QEP037381__88__10-18-02-731.txt Node

Date: Wed Dec 21 10:18:02 EST 2022
User: dcclab
Spectrometer: QEP03738
Trigger mode: 4
Integration Time (sec): 1.000000E1
Scans to average: 1
Electric dark correction enabled: true
Nonlinearity correction enabled: false
Boxcar width: 0
XAxis mode: Wavelengths
Number of Pixels in Spectrum: 1044
>>>>>Begin Spectral Data<<<<<
784.041	15.5
784.3	1.5
784.558	-1.5
784.817	-6.5
785.075	76810.5
785.334	13264.5
785.592	6231.5
785.851	4340.5
786.109	3251.5
786.368	2533.5
786.626	2078.5
786.884	1772.5
787.143	1476.5
787.401	1191.5
787.659	1098.5
787.917	936.5
788.175	886.5
788.433	795.5
788.691	686.5
788.949	655.5
789.207	634.5
789.465	552.5
789.723	542.5
789.98	481.5
790.238	527.5
790.496	513.5
790.753	489.5
791.011	533.5
791.268	472.5
791.526	443.5
791.783	488.5
792.041	464.5
792.298	375.5
792.556	442.5
792.813	425.5
793.07	401.5
793.327	395.5
793.584	482.5
793.841	396.5
794.099	413.5
794.356	464.5
794.613	371.5
794.869	419.5
795.126	382.5
795.383	349.5
795.64	384.5
795.897	338.5
796.153	390.5
796.41	376.5
796.667	361.5
796.923	367.5
797.18	362.5
797.436	390.5
797.693	353.5
797.949	399.5
798.206	424.5
798.462	326.5
798.718	389.5
798.974	381.5
799.231	406.5
799.487	394.5
799.743	402.5
799.999	413.5
800.255	409.5
800.511	369.5
800.767	427.5
801.023	403.5
801.279	397.5
801.534	430.5
801.79	433.5
802.046	421.5
802.302	486.5
802.557	514.5
802.813	564.5
803.068	592.5
803.324	748.5
803.579	885.5
803.835	1152.5
804.09	1522.5
804.345	1870.5
804.601	2377.5
804.856	2896.5
805.111	3367.5
805.366	3658.5
805.621	3829.5
805.876	3973.5
806.131	4087.5
806.386	4152.5
806.641	4205.5
806.896	4243.5
807.151	4388.5
807.406	4392.5
807.661	4448.5
807.915	4561.5
808.17	4633.5
808.425	4669.5
808.679	4669.5
808.934	4801.5
809.188	4819.5
809.443	4852.5
809.697	4865.5
809.951	4886.5
810.206	4944.5
810.46	5031.5
810.714	5064.5
810.968	5120.5
811.223	5127.5
811.477	5178.5
811.731	5222.5
811.985	5186.5
812.239	5190.5
812.493	5246.5
812.747	5332.5
813	5276.5
813.254	5300.5
813.508	5402.5
813.762	5357.5
814.015	5399.5
814.269	5437.5
814.522	5507.5
814.776	5600.5
815.03	5640.5
815.283	5752.5
815.536	5855.5
815.79	5901.5
816.043	5959.5
816.296	6034.5
816.55	6127.5
816.803	6124.5
817.056	6261.5
817.309	6340.5
817.562	6355.5
817.815	6420.5
818.068	6396.5
818.321	6486.5
818.574	6593.5
818.827	6725.5
819.079	6783.5
819.332	6975.5
819.585	6976.5
819.838	7122.5
820.09	7042.5
820.343	7230.5
820.595	7187.5
820.848	7266.5
821.1	7301.5
821.353	7286.5
821.605	7287.5
821.857	7284.5
822.11	7220.5
822.362	7258.5
822.614	7250.5
822.866	7270.5
823.118	7228.5
823.37	7369.5
823.622	7317.5
823.874	7378.5
824.126	7436.5
824.378	7370.5
824.63	7412.5
824.882	7468.5
825.134	7401.5
825.385	7453.5
825.637	7418.5
825.888	7346.5
826.14	7355.5
826.392	7311.5
826.643	7299.5
826.895	7268.5
827.146	7186.5
827.397	7207.5
827.649	7193.5
827.9	7213.5
828.151	7213.5
828.402	7185.5
828.653	7222.5
828.905	7286.5
829.156	7320.5
829.407	7285.5
829.658	7296.5
829.909	7317.5
830.159	7257.5
830.41	7241.5
830.661	7186.5
830.912	7154.5
831.162	7119.5
831.413	7150.5
831.664	7149.5
831.914	7140.5
832.165	7182.5
832.415	7148.5
832.666	7191.5
832.916	7165.5
833.167	7138.5
833.417	7198.5
833.667	7122.5
833.917	7151.5
834.168	7176.5
834.418	7096.5
834.668	7158.5
834.918	6976.5
835.168	7074.5
835.418	7000.5
835.668	7079.5
835.918	7039.5
836.167	6995.5
836.417	6923.5
836.667	7069.5
836.917	7010.5
837.166	6912.5
837.416	6973.5
837.666	6983.5
837.915	6867.5
838.165	6882.5
838.414	6812.5
838.663	6793.5
838.913	6900.5
839.162	6809.5
839.411	6884.5
839.661	6844.5
839.91	6920.5
840.159	6836.5
840.408	6837.5
840.657	6852.5
840.906	6835.5
841.155	6853.5
841.404	6851.5
841.653	6848.5
841.902	6742.5
842.15	6809.5
842.399	6881.5
842.648	6773.5
842.897	6775.5
843.145	6730.5
843.394	6716.5
843.642	6661.5
843.891	6714.5
844.139	6663.5
844.388	6571.5
844.636	6524.5
844.884	6586.5
845.133	6578.5
845.381	6558.5
845.629	6514.5
845.877	6497.5
846.125	6551.5
846.373	6551.5
846.621	6467.5
846.869	6519.5
847.117	6473.5
847.365	6456.5
847.613	6419.5
847.861	6411.5
848.108	6401.5
848.356	6410.5
848.604	6396.5
848.851	6386.5
849.099	6431.5
849.346	6438.5
849.594	6507.5
849.841	6563.5
850.089	6515.5
850.336	6502.5
850.583	6511.5
850.831	6520.5
851.078	6527.5
851.325	6482.5
851.572	6657.5
851.819	6562.5
852.066	6357.5
852.313	6180.5
852.56	6140.5
852.807	6089.5
853.054	6080.5
853.301	6108.5
853.548	6176.5
853.794	6308.5
854.041	6215.5
854.288	6254.5
854.534	6389.5
854.781	6287.5
855.028	6172.5
855.274	6287.5
855.52	6202.5
855.767	6148.5
856.013	6198.5
856.26	6415.5
856.506	6044.5
856.752	6099.5
856.998	6063.5
857.244	6100.5
857.49	6104.5
857.736	6192.5
857.982	6141.5
858.228	6173.5
858.474	6094.5
858.72	6122.5
858.966	6033.5
859.212	5993.5
859.458	5880.5
859.703	5869.5
859.949	5796.5
860.195	5810.5
860.44	5757.5
860.686	5760.5
860.931	5705.5
861.177	5658.5
861.422	5696.5
861.667	5601.5
861.913	5633.5
862.158	5612.5
862.403	5682.5
862.648	5751.5
862.893	5726.5
863.138	5721.5
863.384	5642.5
863.629	5713.5
863.873	5660.5
864.118	5672.5
864.363	5664.5
864.608	5670.5
864.853	5638.5
865.098	5594.5
865.342	5562.5
865.587	5544.5
865.832	5573.5
866.076	5577.5
866.321	5513.5
866.565	5474.5
866.81	5392.5
867.054	5453.5
867.298	5485.5
867.543	5407.5
867.787	5442.5
868.031	5426.5
868.275	5448.5
868.519	5473.5
868.764	5402.5
869.008	5429.5
869.252	5401.5
869.496	5424.5
869.739	5375.5
869.983	5414.5
870.227	5408.5
870.471	5367.5
870.715	5381.5
870.958	5435.5
871.202	5366.5
871.446	5402.5
871.689	5413.5
871.933	5455.5
872.176	5411.5
872.42	5385.5
872.663	5374.5
872.906	5393.5
873.15	5347.5
873.393	5271.5
873.636	5351.5
873.879	5315.5
874.122	5291.5
874.366	5180.5
874.609	5170.5
874.852	5152.5
875.095	5130.5
875.337	5079.5
875.58	4976.5
875.823	5028.5
876.066	5043.5
876.309	5105.5
876.551	5003.5
876.794	4953.5
877.037	4965.5
877.279	4960.5
877.522	4938.5
877.764	4956.5
878.007	4917.5
878.249	4925.5
878.491	4905.5
878.734	4983.5
878.976	4896.5
879.218	4860.5
879.46	4901.5
879.702	4856.5
879.945	4806.5
880.187	4798.5
880.429	4739.5
880.671	4711.5
880.912	4695.5
881.154	4677.5
881.396	4597.5
881.638	4663.5
881.88	4692.5
882.121	4591.5
882.363	4633.5
882.605	4687.5
882.846	4675.5
883.088	4599.5
883.329	4641.5
883.571	4626.5
883.812	4648.5
884.053	4691.5
884.295	4834.5
884.536	4946.5
884.777	4823.5
885.018	4877.5
885.259	4858.5
885.5	4776.5
885.742	5081.5
885.982	4789.5
886.223	4671.5
886.464	4673.5
886.705	4603.5
886.946	4584.5
887.187	4490.5
887.428	4561.5
887.668	4437.5
887.909	4398.5
888.15	4317.5
888.39	4386.5
888.631	4398.5
888.871	4318.5
889.111	4264.5
889.352	4254.5
889.592	4175.5
889.833	4147.5
890.073	4120.5
890.313	4194.5
890.553	4045.5
890.793	4074.5
891.033	4052.5
891.273	4018.5
891.513	4046.5
891.753	4085.5
891.993	4025.5
892.233	4034.5
892.473	4082.5
892.713	4062.5
892.952	4053.5
893.192	4079.5
893.432	4025.5
893.671	4130.5
893.911	4088.5
894.15	4006.5
894.39	3931.5
894.629	3943.5
894.869	3970.5
895.108	3911.5
895.347	3877.5
895.587	3879.5
895.826	3846.5
896.065	3840.5
896.304	3909.5
896.543	3899.5
896.782	3837.5
897.021	3899.5
897.26	3865.5
897.499	3886.5
897.738	3948.5
897.977	3879.5
898.216	3802.5
898.454	3794.5
898.693	3664.5
898.932	3740.5
899.17	3695.5
899.409	3667.5
899.647	3643.5
899.886	3694.5
900.124	3724.5
900.363	3639.5
900.601	3726.5
900.839	3728.5
901.078	3713.5
901.316	3714.5
901.554	3715.5
901.792	3767.5
902.03	3719.5
902.268	3738.5
902.506	3736.5
902.744	3665.5
902.982	3708.5
903.22	3634.5
903.458	3579.5
903.695	3596.5
903.933	3537.5
904.171	3439.5
904.409	3414.5
904.646	3401.5
904.884	3334.5
905.121	3383.5
905.359	3306.5
905.596	3281.5
905.833	3233.5
906.071	3206.5
906.308	3317.5
906.545	3225.5
906.783	3158.5
907.02	3212.5
907.257	3166.5
907.494	3170.5
907.731	3226.5
907.968	3227.5
908.205	3160.5
908.442	3096.5
908.679	3144.5
908.915	3107.5
909.152	3126.5
909.389	3000.5
909.626	3041.5
909.862	2995.5
910.099	3012.5
910.335	3024.5
910.572	2941.5
910.808	2954.5
911.045	2946.5
911.281	2924.5
911.518	3004.5
911.754	2936.5
911.99	2950.5
912.226	2861.5
912.463	2867.5
912.699	2834.5
912.935	2850.5
913.171	2822.5
913.407	2737.5
913.643	2838.5
913.879	2762.5
914.114	2742.5
914.35	2727.5
914.586	2709.5
914.822	2626.5
915.057	2741.5
915.293	2597.5
915.529	2590.5
915.764	2673.5
916	2638.5
916.235	2652.5
916.471	2657.5
916.706	2576.5
916.941	2562.5
917.177	2619.5
917.412	2640.5
917.647	2615.5
917.882	2578.5
918.117	2608.5
918.352	2610.5
918.588	2645.5
918.823	2582.5
919.057	2539.5
919.292	2436.5
919.527	2539.5
919.762	2474.5
919.997	2525.5
920.232	2451.5
920.466	2461.5
920.701	2333.5
920.935	2411.5
921.17	2340.5
921.405	2326.5
921.639	2378.5
921.873	2389.5
922.108	2392.5
922.342	2406.5
922.576	2316.5
922.811	2314.5
923.045	2390.5
923.279	2371.5
923.513	2263.5
923.747	2359.5
923.981	2295.5
924.215	2246.5
924.449	2285.5
924.683	2203.5
924.917	2255.5
925.151	2241.5
925.385	2307.5
925.618	2225.5
925.852	2207.5
926.086	2127.5
926.319	2207.5
926.553	2205.5
926.786	2234.5
927.02	2175.5
927.253	2207.5
927.486	2245.5
927.72	2200.5
927.953	2229.5
928.186	2190.5
928.42	2218.5
928.653	2156.5
928.886	2146.5
929.119	2157.5
929.352	2159.5
929.585	2147.5
929.818	2111.5
930.051	2131.5
930.284	2100.5
930.516	2055.5
930.749	2063.5
930.982	2119.5
931.215	2077.5
931.447	2007.5
931.68	2054.5
931.912	2018.5
932.145	1996.5
932.377	2062.5
932.61	2160.5
932.842	1986.5
933.074	2030.5
933.307	1995.5
933.539	2075.5
933.771	2056.5
934.003	2033.5
934.236	2106.5
934.468	2114.5
934.7	2021.5
934.932	2081.5
935.164	2005.5
935.395	1990.5
935.627	2027.5
935.859	2027.5
936.091	1951.5
936.323	2004.5
936.554	2033.5
936.786	1992.5
937.017	1922.5
937.249	1979.5
937.481	1894.5
937.712	1983.5
937.943	1950.5
938.175	1942.5
938.406	1970.5
938.637	1998.5
938.869	1936.5
939.1	1967.5
939.331	1938.5
939.562	1966.5
939.793	1959.5
940.024	1968.5
940.255	1975.5
940.486	1909.5
940.717	1908.5
940.948	1932.5
941.179	1866.5
941.409	1892.5
941.64	1886.5
941.871	1917.5
942.102	1888.5
942.332	1859.5
942.563	1919.5
942.793	1896.5
943.024	1853.5
943.254	1877.5
943.484	1919.5
943.715	1928.5
943.945	1905.5
944.175	1825.5
944.405	1822.5
944.636	1824.5
944.866	1888.5
945.096	1907.5
945.326	1819.5
945.556	1884.5
945.786	1890.5
946.016	1881.5
946.245	1775.5
946.475	1800.5
946.705	1794.5
946.935	1821.5
947.164	1825.5
947.394	1787.5
947.624	1800.5
947.853	1831.5
948.083	1818.5
948.312	1779.5
948.542	1729.5
948.771	1706.5
949	1740.5
949.23	1710.5
949.459	1776.5
949.688	1796.5
949.917	1774.5
950.146	1785.5
950.375	1805.5
950.604	1714.5
950.833	1807.5
951.062	1787.5
951.291	1759.5
951.52	1713.5
951.749	1711.5
951.978	1694.5
952.206	1696.5
952.435	1700.5
952.664	1740.5
952.892	1745.5
953.121	1749.5
953.349	1736.5
953.578	1760.5
953.806	1678.5
954.035	1702.5
954.263	1707.5
954.491	1633.5
954.719	1711.5
954.948	1646.5
955.176	1650.5
955.404	1598.5
955.632	1665.5
955.86	1657.5
956.088	1642.5
956.316	1691.5
956.544	1705.5
956.772	1621.5
956.999	1594.5
957.227	1673.5
957.455	1607.5
957.683	1640.5
957.91	1599.5
958.138	1573.5
958.365	1583.5
958.593	1595.5
958.82	1556.5
959.048	1606.5
959.275	1589.5
959.502	1591.5
959.73	1573.5
959.957	1591.5
960.184	1642.5
960.411	1585.5
960.638	1658.5
960.865	1599.5
961.092	1594.5
961.319	1510.5
961.546	1579.5
961.773	1586.5
962	1542.5
962.227	1625.5
962.454	1563.5
962.68	1543.5
962.907	1574.5
963.134	1531.5
963.36	1543.5
963.587	1574.5
963.813	1496.5
964.04	1533.5
964.266	1504.5
964.493	1575.5
964.719	1534.5
964.945	1569.5
965.171	1447.5
965.398	1503.5
965.624	1517.5
965.85	1437.5
966.076	1466.5
966.302	1521.5
966.528	1486.5
966.754	1505.5
966.98	1471.5
967.206	1480.5
967.431	1443.5
967.657	1515.5
967.883	1504.5
968.109	1504.5
968.334	1446.5
968.56	1389.5
968.785	1441.5
969.011	1405.5
969.236	1468.5
969.462	1420.5
969.687	1421.5
969.912	1466.5
970.138	1477.5
970.363	1436.5
970.588	1443.5
970.813	1406.5
971.038	1391.5
971.263	1416.5
971.488	1432.5
971.713	1452.5
971.938	1438.5
972.163	1343.5
972.388	1389.5
972.613	1361.5
972.838	1378.5
973.062	1390.5
973.287	1349.5
973.512	1313.5
973.736	1356.5
973.961	1365.5
974.185	1342.5
974.41	1375.5
974.634	1275.5
974.858	1299.5
975.083	1335.5
975.307	1356.5
975.531	1287.5
975.755	1262.5
975.98	1308.5
976.204	1216.5
976.428	1227.5
976.652	1258.5
976.876	1226.5
977.1	1267.5
977.324	1235.5
977.547	1300.5
977.771	1302.5
977.995	1273.5
978.219	1212.5
978.442	1332.5
978.666	1266.5
978.89	1252.5
979.113	1249.5
979.337	1246.5
979.56	1203.5
979.783	1282.5
980.007	1200.5
980.23	1223.5
980.453	1215.5
980.677	1221.5
980.9	1218.5
981.123	1161.5
981.346	1260.5
981.569	1220.5
981.792	1246.5
982.015	1213.5
982.238	1166.5
982.461	1220.5
982.684	1182.5
982.907	1144.5
983.129	1151.5
983.352	1232.5
983.575	1217.5
983.797	1198.5
984.02	1154.5
984.242	1152.5
984.465	1159.5
984.687	1212.5
984.91	1218.5
985.132	1175.5
985.354	1199.5
985.577	1181.5
985.799	1169.5
986.021	1113.5
986.243	1142.5
986.465	1140.5
986.687	1190.5
986.909	1235.5
987.131	1164.5
987.353	1140.5
987.575	1166.5
987.797	1128.5
988.019	1074.5
988.241	1130.5
988.462	1109.5
988.684	1158.5
988.906	1210.5
989.127	1202.5
989.349	1079.5
989.57	1106.5
989.792	1148.5
990.013	1181.5
990.234	1188.5
990.456	1211.5
990.677	1188.5
990.898	1132.5
991.119	1129.5
991.341	1177.5
991.562	1095.5
991.783	1145.5
992.004	1095.5
992.225	1063.5
992.446	1127.5
992.667	1046.5
992.887	1125.5
993.108	1027.5
993.329	1171.5
993.55	1106.5
993.77	1042.5
993.991	1076.5
994.212	1088.5
994.432	1084.5
994.653	1103.5
994.873	1100.5
995.093	1002.5
995.314	1033.5
995.534	1121.5
995.754	1143.5
995.975	1131.5
996.195	1037.5
996.415	1104.5
996.635	1069.5
996.855	1090.5
997.075	1069.5
997.295	1082.5
997.515	1040.5
997.735	1090.5
997.955	1074.5
998.174	1036.5
998.394	1048.5
998.614	1087.5
998.834	1040.5
999.053	1111.5
999.273	1068.5
999.492	1115.5
999.712	1087.5
999.931	1013.5
1000.151	1096.5
1000.37	1067.5
1000.589	1109.5
1000.809	1058.5
1001.028	1168.5
1001.247	1116.5
1001.466	1016.5
1001.685	1150.5
1001.904	1094.5
1002.123	1063.5
1002.342	1075.5
1002.561	1026.5
1002.78	1068.5
1002.999	1152.5
1003.218	1096.5
1003.436	1062.5
1003.655	1109.5
1003.874	1071.5
1004.092	1086.5
1004.311	1116.5
1004.53	1077.5
1004.748	1165.5
1004.966	1093.5
1005.185	1143.5
1005.403	1131.5
1005.622	1122.5
1005.84	1170.5
1006.058	1069.5
1006.276	1102.5
1006.494	1588.5
1006.712	1117.5
1006.931	1153.5
1007.149	1041.5
1007.367	1078.5
1007.584	1108.5
1007.802	1130.5
1008.02	1068.5
1008.238	1167.5
1008.456	1140.5
1008.673	1029.5
1008.891	1137.5
1009.109	1066.5
1009.326	1136.5
1009.544	1205.5
1009.761	1108.5
1009.979	1164.5
1010.196	1186.5
1010.413	1258.5
1010.631	1272.5
1010.848	1296.5
1011.065	1275.5
1011.282	1234.5
1011.5	1203.5
1011.717	1304.5
1011.934	1240.5
1012.151	1272.5
1012.368	1252.5
1012.585	1204.5
1012.801	1256.5
1013.018	1231.5
1013.235	1155.5
1013.452	1203.5
1013.669	1212.5
1013.885	1187.5
1014.102	1239.5
1014.318	1185.5
1014.535	1161.5
1014.751	1195.5
1014.968	1210.5
1015.184	1221.5
1015.401	1166.5
1015.617	1177.5
1015.833	1144.5
1016.049	1149.5
1016.266	1127.5
1016.482	1119.5
1016.698	1089.5
1016.914	1135.5
1017.13	1078.5
1017.346	1091.5
1017.562	1156.5
1017.778	1102.5
1017.993	1061.5
1018.209	1124.5
1018.425	1095.5
1018.641	1045.5
1018.856	1045.5
1019.072	1092.5
1019.288	1128.5
1019.503	1082.5
1019.719	983.5
1019.934	996.5
1020.149	1088.5
1020.365	1040.5
1020.58	1018.5
1020.795	1040.5
1021.011	1006.5
1021.226	987.5
1021.441	996.5
1021.656	937.5
1021.871	890.5
1022.086	902.5
1022.301	883.5
1022.516	872.5
1022.731	988.5
1022.946	849.5
1023.16	855.5
1023.375	812.5
1023.59	817.5
1023.804	796.5
1024.019	890.5
1024.234	760.5
1024.448	801.5
1024.663	736.5
1024.877	742.5
1025.092	775.5
1025.306	786.5
1025.52	693.5
1025.734	772.5
1025.949	714.5
1026.163	682.5
1026.377	622.5
1026.591	697.5
1026.805	606.5
1027.019	625.5
1027.233	586.5
1027.447	533.5
1027.661	650.5
1027.875	593.5
1028.088	607.5
1028.302	547.5
1028.516	524.5
1028.73	546.5
1028.943	541.5
1029.157	494.5
1029.37	469.5
1029.584	-4.5
1029.797	-1.5
1030.011	0.5
1030.224	-3.5
