Data from QEP037381__148__10-28-02-733.txt Node

Date: Wed Dec 21 10:28:02 EST 2022
User: dcclab
Spectrometer: QEP03738
Trigger mode: 4
Integration Time (sec): 1.000000E1
Scans to average: 1
Electric dark correction enabled: true
Nonlinearity correction enabled: false
Boxcar width: 0
XAxis mode: Wavelengths
Number of Pixels in Spectrum: 1044
>>>>>Begin Spectral Data<<<<<
784.041	11.88
784.3	-0.12
784.558	-5.12
784.817	-5.12
785.075	74700.88
785.334	12636.88
785.592	5715.88
785.851	4014.88
786.109	3004.88
786.368	2353.88
786.626	1944.88
786.884	1613.88
787.143	1355.88
787.401	1116.88
787.659	1047.88
787.917	879.88
788.175	825.88
788.433	716.88
788.691	673.88
788.949	635.88
789.207	613.88
789.465	535.88
789.723	530.88
789.98	472.88
790.238	533.88
790.496	477.88
790.753	457.88
791.011	519.88
791.268	450.88
791.526	441.88
791.783	466.88
792.041	433.88
792.298	368.88
792.556	418.88
792.813	409.88
793.07	399.88
793.327	375.88
793.584	467.88
793.841	389.88
794.099	400.88
794.356	470.88
794.613	364.88
794.869	395.88
795.126	361.88
795.383	353.88
795.64	374.88
795.897	339.88
796.153	389.88
796.41	360.88
796.667	338.88
796.923	345.88
797.18	359.88
797.436	369.88
797.693	354.88
797.949	388.88
798.206	421.88
798.462	319.88
798.718	395.88
798.974	349.88
799.231	403.88
799.487	373.88
799.743	380.88
799.999	387.88
800.255	373.88
800.511	350.88
800.767	404.88
801.023	380.88
801.279	380.88
801.534	394.88
801.79	417.88
802.046	385.88
802.302	450.88
802.557	441.88
802.813	488.88
803.068	475.88
803.324	591.88
803.579	684.88
803.835	832.88
804.09	1081.88
804.345	1269.88
804.601	1548.88
804.856	1878.88
805.111	2164.88
805.366	2341.88
805.621	2420.88
805.876	2538.88
806.131	2554.88
806.386	2577.88
806.641	2614.88
806.896	2620.88
807.151	2751.88
807.406	2759.88
807.661	2796.88
807.915	2847.88
808.17	2908.88
808.425	2922.88
808.679	2909.88
808.934	3054.88
809.188	2966.88
809.443	3049.88
809.697	3150.88
809.951	3040.88
810.206	3081.88
810.46	3176.88
810.714	3156.88
810.968	3239.88
811.223	3147.88
811.477	3229.88
811.731	3301.88
811.985	3256.88
812.239	3213.88
812.493	3297.88
812.747	3320.88
813	3249.88
813.254	3353.88
813.508	3354.88
813.762	3318.88
814.015	3346.88
814.269	3405.88
814.522	3453.88
814.776	3478.88
815.03	3498.88
815.283	3565.88
815.536	3584.88
815.79	3637.88
816.043	3715.88
816.296	3719.88
816.55	3753.88
816.803	3845.88
817.056	3943.88
817.309	3864.88
817.562	3875.88
817.815	4039.88
818.068	3954.88
818.321	3970.88
818.574	4058.88
818.827	4194.88
819.079	4167.88
819.332	4351.88
819.585	4349.88
819.838	4437.88
820.09	4388.88
820.343	4505.88
820.595	4429.88
820.848	4556.88
821.1	4521.88
821.353	4527.88
821.605	4562.88
821.857	4531.88
822.11	4457.88
822.362	4518.88
822.614	4469.88
822.866	4574.88
823.118	4473.88
823.37	4600.88
823.622	4569.88
823.874	4572.88
824.126	4673.88
824.378	4622.88
824.63	4693.88
824.882	4681.88
825.134	4665.88
825.385	4611.88
825.637	4612.88
825.888	4564.88
826.14	4560.88
826.392	4530.88
826.643	4474.88
826.895	4578.88
827.146	4436.88
827.397	4428.88
827.649	4460.88
827.9	4439.88
828.151	4388.88
828.402	4440.88
828.653	4446.88
828.905	4530.88
829.156	4495.88
829.407	4473.88
829.658	4465.88
829.909	4554.88
830.159	4548.88
830.41	4559.88
830.661	4529.88
830.912	4455.88
831.162	4466.88
831.413	4417.88
831.664	4477.88
831.914	4430.88
832.165	4468.88
832.415	4459.88
832.666	4439.88
832.916	4507.88
833.167	4450.88
833.417	4504.88
833.667	4443.88
833.917	4424.88
834.168	4471.88
834.418	4529.88
834.668	4448.88
834.918	4412.88
835.168	4451.88
835.418	4356.88
835.668	4388.88
835.918	4435.88
836.167	4369.88
836.417	4331.88
836.667	4422.88
836.917	4425.88
837.166	4350.88
837.416	4373.88
837.666	4338.88
837.915	4325.88
838.165	4331.88
838.414	4284.88
838.663	4242.88
838.913	4289.88
839.162	4216.88
839.411	4349.88
839.661	4232.88
839.91	4280.88
840.159	4210.88
840.408	4274.88
840.657	4272.88
840.906	4310.88
841.155	4321.88
841.404	4235.88
841.653	4325.88
841.902	4241.88
842.15	4272.88
842.399	4310.88
842.648	4248.88
842.897	4272.88
843.145	4171.88
843.394	4159.88
843.642	4152.88
843.891	4236.88
844.139	4180.88
844.388	4089.88
844.636	4081.88
844.884	4091.88
845.133	4098.88
845.381	4065.88
845.629	4128.88
845.877	4076.88
846.125	4086.88
846.373	4083.88
846.621	4118.88
846.869	4090.88
847.117	4071.88
847.365	4031.88
847.613	4058.88
847.861	4048.88
848.108	4072.88
848.356	4043.88
848.604	4029.88
848.851	4037.88
849.099	4057.88
849.346	4030.88
849.594	4045.88
849.841	4109.88
850.089	4092.88
850.336	4094.88
850.583	4142.88
850.831	4124.88
851.078	4168.88
851.325	4211.88
851.572	4305.88
851.819	4267.88
852.066	4025.88
852.313	3909.88
852.56	3879.88
852.807	3835.88
853.054	3867.88
853.301	3846.88
853.548	3922.88
853.794	4030.88
854.041	4000.88
854.288	3985.88
854.534	4062.88
854.781	3977.88
855.028	3905.88
855.274	3972.88
855.52	3950.88
855.767	3852.88
856.013	3926.88
856.26	4219.88
856.506	3838.88
856.752	3924.88
856.998	3857.88
857.244	3836.88
857.49	3885.88
857.736	3897.88
857.982	3895.88
858.228	3945.88
858.474	3856.88
858.72	3821.88
858.966	3821.88
859.212	3773.88
859.458	3710.88
859.703	3665.88
859.949	3646.88
860.195	3660.88
860.44	3683.88
860.686	3530.88
860.931	3682.88
861.177	3555.88
861.422	3585.88
861.667	3583.88
861.913	3616.88
862.158	3600.88
862.403	3611.88
862.648	3613.88
862.893	3740.88
863.138	3636.88
863.384	3584.88
863.629	3611.88
863.873	3611.88
864.118	3612.88
864.363	3555.88
864.608	3600.88
864.853	3599.88
865.098	3577.88
865.342	3543.88
865.587	3517.88
865.832	3564.88
866.076	3516.88
866.321	3522.88
866.565	3481.88
866.81	3453.88
867.054	3474.88
867.298	3470.88
867.543	3456.88
867.787	3477.88
868.031	3455.88
868.275	3470.88
868.519	3468.88
868.764	3444.88
869.008	3478.88
869.252	3492.88
869.496	3458.88
869.739	3420.88
869.983	3448.88
870.227	3455.88
870.471	3434.88
870.715	3484.88
870.958	3475.88
871.202	3446.88
871.446	3451.88
871.689	3423.88
871.933	3466.88
872.176	3482.88
872.42	3423.88
872.663	3425.88
872.906	3506.88
873.15	3423.88
873.393	3367.88
873.636	3432.88
873.879	3402.88
874.122	3398.88
874.366	3319.88
874.609	3350.88
874.852	3253.88
875.095	3299.88
875.337	3256.88
875.58	3192.88
875.823	3245.88
876.066	3265.88
876.309	3299.88
876.551	3197.88
876.794	3126.88
877.037	3229.88
877.279	3110.88
877.522	3149.88
877.764	3220.88
878.007	3137.88
878.249	3173.88
878.491	3135.88
878.734	3199.88
878.976	3160.88
879.218	3140.88
879.46	3146.88
879.702	3104.88
879.945	3064.88
880.187	3034.88
880.429	3021.88
880.671	2988.88
880.912	3008.88
881.154	2984.88
881.396	2932.88
881.638	2982.88
881.88	2990.88
882.121	2956.88
882.363	2966.88
882.605	2968.88
882.846	2994.88
883.088	2997.88
883.329	2979.88
883.571	2905.88
883.812	2964.88
884.053	3028.88
884.295	3143.88
884.536	3248.88
884.777	3199.88
885.018	3183.88
885.259	3178.88
885.5	3085.88
885.742	3396.88
885.982	3097.88
886.223	3043.88
886.464	3023.88
886.705	2944.88
886.946	2977.88
887.187	2852.88
887.428	2919.88
887.668	2820.88
887.909	2793.88
888.15	2758.88
888.39	2796.88
888.631	2805.88
888.871	2761.88
889.111	2738.88
889.352	2714.88
889.592	2687.88
889.833	2675.88
890.073	2637.88
890.313	2751.88
890.553	2590.88
890.793	2613.88
891.033	2566.88
891.273	2596.88
891.513	2590.88
891.753	2632.88
891.993	2606.88
892.233	2609.88
892.473	2666.88
892.713	2620.88
892.952	2593.88
893.192	2629.88
893.432	2623.88
893.671	2666.88
893.911	2638.88
894.15	2589.88
894.39	2499.88
894.629	2549.88
894.869	2551.88
895.108	2508.88
895.347	2501.88
895.587	2525.88
895.826	2486.88
896.065	2481.88
896.304	2546.88
896.543	2508.88
896.782	2433.88
897.021	2491.88
897.26	2491.88
897.499	2545.88
897.738	2569.88
897.977	2523.88
898.216	2455.88
898.454	2445.88
898.693	2404.88
898.932	2446.88
899.17	2414.88
899.409	2407.88
899.647	2429.88
899.886	2393.88
900.124	2424.88
900.363	2372.88
900.601	2407.88
900.839	2408.88
901.078	2431.88
901.316	2467.88
901.554	2461.88
901.792	2438.88
902.03	2425.88
902.268	2453.88
902.506	2480.88
902.744	2405.88
902.982	2465.88
903.22	2348.88
903.458	2336.88
903.695	2324.88
903.933	2318.88
904.171	2229.88
904.409	2212.88
904.646	2219.88
904.884	2187.88
905.121	2202.88
905.359	2158.88
905.596	2143.88
905.833	2109.88
906.071	2112.88
906.308	2133.88
906.545	2126.88
906.783	2061.88
907.02	2110.88
907.257	2032.88
907.494	2082.88
907.731	2098.88
907.968	2100.88
908.205	2047.88
908.442	2011.88
908.679	2041.88
908.915	2044.88
909.152	2041.88
909.389	1975.88
909.626	1967.88
909.862	1940.88
910.099	1977.88
910.335	1992.88
910.572	1934.88
910.808	1965.88
911.045	1962.88
911.281	1909.88
911.518	1986.88
911.754	1941.88
911.99	1942.88
912.226	1914.88
912.463	1859.88
912.699	1871.88
912.935	1846.88
913.171	1833.88
913.407	1829.88
913.643	1906.88
913.879	1822.88
914.114	1835.88
914.35	1798.88
914.586	1806.88
914.822	1751.88
915.057	1845.88
915.293	1712.88
915.529	1677.88
915.764	1795.88
916	1786.88
916.235	1759.88
916.471	1773.88
916.706	1723.88
916.941	1689.88
917.177	1722.88
917.412	1773.88
917.647	1779.88
917.882	1716.88
918.117	1769.88
918.352	1752.88
918.588	1781.88
918.823	1708.88
919.057	1672.88
919.292	1600.88
919.527	1715.88
919.762	1637.88
919.997	1667.88
920.232	1631.88
920.466	1657.88
920.701	1534.88
920.935	1593.88
921.17	1590.88
921.405	1534.88
921.639	1611.88
921.873	1559.88
922.108	1620.88
922.342	1593.88
922.576	1541.88
922.811	1565.88
923.045	1636.88
923.279	1622.88
923.513	1495.88
923.747	1595.88
923.981	1590.88
924.215	1539.88
924.449	1494.88
924.683	1497.88
924.917	1499.88
925.151	1517.88
925.385	1561.88
925.618	1518.88
925.852	1525.88
926.086	1466.88
926.319	1494.88
926.553	1469.88
926.786	1483.88
927.02	1484.88
927.253	1535.88
927.486	1530.88
927.72	1456.88
927.953	1516.88
928.186	1471.88
928.42	1471.88
928.653	1463.88
928.886	1448.88
929.119	1509.88
929.352	1469.88
929.585	1476.88
929.818	1428.88
930.051	1466.88
930.284	1478.88
930.516	1387.88
930.749	1398.88
930.982	1428.88
931.215	1443.88
931.447	1369.88
931.68	1395.88
931.912	1390.88
932.145	1394.88
932.377	1363.88
932.61	1524.88
932.842	1343.88
933.074	1417.88
933.307	1342.88
933.539	1478.88
933.771	1450.88
934.003	1366.88
934.236	1475.88
934.468	1468.88
934.7	1394.88
934.932	1427.88
935.164	1366.88
935.395	1367.88
935.627	1382.88
935.859	1406.88
936.091	1336.88
936.323	1382.88
936.554	1429.88
936.786	1388.88
937.017	1307.88
937.249	1380.88
937.481	1274.88
937.712	1397.88
937.943	1374.88
938.175	1341.88
938.406	1316.88
938.637	1399.88
938.869	1314.88
939.1	1372.88
939.331	1330.88
939.562	1364.88
939.793	1342.88
940.024	1380.88
940.255	1388.88
940.486	1340.88
940.717	1340.88
940.948	1322.88
941.179	1293.88
941.409	1315.88
941.64	1294.88
941.871	1310.88
942.102	1285.88
942.332	1332.88
942.563	1339.88
942.793	1309.88
943.024	1267.88
943.254	1301.88
943.484	1325.88
943.715	1354.88
943.945	1317.88
944.175	1264.88
944.405	1257.88
944.636	1273.88
944.866	1317.88
945.096	1313.88
945.326	1242.88
945.556	1324.88
945.786	1334.88
946.016	1279.88
946.245	1248.88
946.475	1258.88
946.705	1271.88
946.935	1236.88
947.164	1252.88
947.394	1235.88
947.624	1259.88
947.853	1273.88
948.083	1270.88
948.312	1235.88
948.542	1183.88
948.771	1194.88
949	1228.88
949.23	1235.88
949.459	1202.88
949.688	1277.88
949.917	1261.88
950.146	1274.88
950.375	1308.88
950.604	1197.88
950.833	1301.88
951.062	1283.88
951.291	1217.88
951.52	1216.88
951.749	1209.88
951.978	1178.88
952.206	1212.88
952.435	1186.88
952.664	1242.88
952.892	1268.88
953.121	1205.88
953.349	1251.88
953.578	1255.88
953.806	1195.88
954.035	1164.88
954.263	1187.88
954.491	1155.88
954.719	1211.88
954.948	1166.88
955.176	1191.88
955.404	1105.88
955.632	1195.88
955.86	1196.88
956.088	1196.88
956.316	1210.88
956.544	1217.88
956.772	1188.88
956.999	1157.88
957.227	1235.88
957.455	1149.88
957.683	1168.88
957.91	1126.88
958.138	1138.88
958.365	1130.88
958.593	1141.88
958.82	1065.88
959.048	1163.88
959.275	1132.88
959.502	1114.88
959.73	1084.88
959.957	1149.88
960.184	1204.88
960.411	1140.88
960.638	1207.88
960.865	1141.88
961.092	1148.88
961.319	1084.88
961.546	1161.88
961.773	1164.88
962	1131.88
962.227	1197.88
962.454	1151.88
962.68	1123.88
962.907	1142.88
963.134	1109.88
963.36	1112.88
963.587	1148.88
963.813	1083.88
964.04	1141.88
964.266	1075.88
964.493	1166.88
964.719	1143.88
964.945	1153.88
965.171	1045.88
965.398	1124.88
965.624	1144.88
965.85	1071.88
966.076	1063.88
966.302	1138.88
966.528	1089.88
966.754	1112.88
966.98	1121.88
967.206	1097.88
967.431	1040.88
967.657	1114.88
967.883	1097.88
968.109	1105.88
968.334	1059.88
968.56	1036.88
968.785	1068.88
969.011	1047.88
969.236	1089.88
969.462	1047.88
969.687	1044.88
969.912	1101.88
970.138	1139.88
970.363	1041.88
970.588	1064.88
970.813	1050.88
971.038	1041.88
971.263	1062.88
971.488	1066.88
971.713	1112.88
971.938	1079.88
972.163	1002.88
972.388	1035.88
972.613	1023.88
972.838	1049.88
973.062	1029.88
973.287	1039.88
973.512	960.88
973.736	995.88
973.961	1004.88
974.185	1004.88
974.41	1043.88
974.634	947.88
974.858	971.88
975.083	1005.88
975.307	1029.88
975.531	965.88
975.755	938.88
975.98	953.88
976.204	919.88
976.428	943.88
976.652	926.88
976.876	928.88
977.1	959.88
977.324	924.88
977.547	983.88
977.771	982.88
977.995	953.88
978.219	906.88
978.442	1041.88
978.666	949.88
978.89	957.88
979.113	956.88
979.337	944.88
979.56	918.88
979.783	1017.88
980.007	891.88
980.23	942.88
980.453	900.88
980.677	948.88
980.9	961.88
981.123	865.88
981.346	988.88
981.569	936.88
981.792	972.88
982.015	929.88
982.238	912.88
982.461	930.88
982.684	912.88
982.907	894.88
983.129	893.88
983.352	963.88
983.575	932.88
983.797	935.88
984.02	884.88
984.242	883.88
984.465	892.88
984.687	908.88
984.91	960.88
985.132	927.88
985.354	942.88
985.577	925.88
985.799	920.88
986.021	846.88
986.243	872.88
986.465	900.88
986.687	936.88
986.909	990.88
987.131	908.88
987.353	876.88
987.575	930.88
987.797	885.88
988.019	835.88
988.241	903.88
988.462	856.88
988.684	920.88
988.906	947.88
989.127	991.88
989.349	846.88
989.57	887.88
989.792	925.88
990.013	942.88
990.234	957.88
990.456	972.88
990.677	957.88
990.898	889.88
991.119	892.88
991.341	927.88
991.562	864.88
991.783	935.88
992.004	858.88
992.225	833.88
992.446	920.88
992.667	837.88
992.887	907.88
993.108	808.88
993.329	944.88
993.55	891.88
993.77	865.88
993.991	868.88
994.212	900.88
994.432	900.88
994.653	911.88
994.873	901.88
995.093	793.88
995.314	834.88
995.534	919.88
995.754	914.88
995.975	943.88
996.195	840.88
996.415	908.88
996.635	864.88
996.855	891.88
997.075	863.88
997.295	887.88
997.515	843.88
997.735	903.88
997.955	871.88
998.174	864.88
998.394	826.88
998.614	896.88
998.834	828.88
999.053	935.88
999.273	890.88
999.492	946.88
999.712	891.88
999.931	862.88
1000.151	919.88
1000.37	881.88
1000.589	942.88
1000.809	876.88
1001.028	1017.88
1001.247	936.88
1001.466	846.88
1001.685	982.88
1001.904	935.88
1002.123	935.88
1002.342	932.88
1002.561	885.88
1002.78	916.88
1002.999	991.88
1003.218	953.88
1003.436	912.88
1003.655	976.88
1003.874	901.88
1004.092	914.88
1004.311	981.88
1004.53	933.88
1004.748	1022.88
1004.966	934.88
1005.185	979.88
1005.403	961.88
1005.622	963.88
1005.84	1035.88
1006.058	931.88
1006.276	954.88
1006.494	1469.88
1006.712	962.88
1006.931	1015.88
1007.149	911.88
1007.367	929.88
1007.584	954.88
1007.802	1000.88
1008.02	939.88
1008.238	1027.88
1008.456	1003.88
1008.673	884.88
1008.891	1006.88
1009.109	927.88
1009.326	982.88
1009.544	1055.88
1009.761	951.88
1009.979	1023.88
1010.196	1013.88
1010.413	1082.88
1010.631	1089.88
1010.848	1110.88
1011.065	1108.88
1011.282	1050.88
1011.5	986.88
1011.717	1116.88
1011.934	1048.88
1012.151	1095.88
1012.368	1068.88
1012.585	1008.88
1012.801	1071.88
1013.018	1030.88
1013.235	999.88
1013.452	999.88
1013.669	1028.88
1013.885	1002.88
1014.102	1032.88
1014.318	1023.88
1014.535	976.88
1014.751	1014.88
1014.968	1003.88
1015.184	1030.88
1015.401	973.88
1015.617	990.88
1015.833	957.88
1016.049	966.88
1016.266	973.88
1016.482	955.88
1016.698	895.88
1016.914	973.88
1017.13	930.88
1017.346	916.88
1017.562	981.88
1017.778	926.88
1017.993	878.88
1018.209	956.88
1018.425	930.88
1018.641	901.88
1018.856	877.88
1019.072	893.88
1019.288	941.88
1019.503	909.88
1019.719	832.88
1019.934	845.88
1020.149	919.88
1020.365	876.88
1020.58	849.88
1020.795	907.88
1021.011	861.88
1021.226	830.88
1021.441	882.88
1021.656	783.88
1021.871	736.88
1022.086	753.88
1022.301	758.88
1022.516	755.88
1022.731	810.88
1022.946	729.88
1023.16	710.88
1023.375	707.88
1023.59	676.88
1023.804	650.88
1024.019	788.88
1024.234	657.88
1024.448	700.88
1024.663	631.88
1024.877	664.88
1025.092	692.88
1025.306	700.88
1025.52	613.88
1025.734	694.88
1025.949	627.88
1026.163	609.88
1026.377	539.88
1026.591	599.88
1026.805	541.88
1027.019	544.88
1027.233	527.88
1027.447	477.88
1027.661	568.88
1027.875	533.88
1028.088	536.88
1028.302	462.88
1028.516	488.88
1028.73	478.88
1028.943	466.88
1029.157	451.88
1029.37	404.88
1029.584	0.88
1029.797	0.88
1030.011	-0.12
1030.224	-3.12
