Data from QEP037381__155__10-29-12-735.txt Node

Date: Wed Dec 21 10:29:12 EST 2022
User: dcclab
Spectrometer: QEP03738
Trigger mode: 4
Integration Time (sec): 1.000000E1
Scans to average: 1
Electric dark correction enabled: true
Nonlinearity correction enabled: false
Boxcar width: 0
XAxis mode: Wavelengths
Number of Pixels in Spectrum: 1044
>>>>>Begin Spectral Data<<<<<
784.041	11.88
784.3	-1.12
784.558	-2.12
784.817	0.88
785.075	76064.88
785.334	13164.88
785.592	6137.88
785.851	4294.88
786.109	3189.88
786.368	2547.88
786.626	2039.88
786.884	1711.88
787.143	1427.88
787.401	1186.88
787.659	1103.88
787.917	943.88
788.175	864.88
788.433	776.88
788.691	701.88
788.949	666.88
789.207	627.88
789.465	548.88
789.723	535.88
789.98	486.88
790.238	521.88
790.496	495.88
790.753	475.88
791.011	521.88
791.268	466.88
791.526	453.88
791.783	457.88
792.041	454.88
792.298	379.88
792.556	435.88
792.813	426.88
793.07	395.88
793.327	387.88
793.584	454.88
793.841	397.88
794.099	389.88
794.356	474.88
794.613	373.88
794.869	408.88
795.126	368.88
795.383	356.88
795.64	375.88
795.897	335.88
796.153	387.88
796.41	379.88
796.667	355.88
796.923	359.88
797.18	355.88
797.436	402.88
797.693	340.88
797.949	393.88
798.206	420.88
798.462	341.88
798.718	388.88
798.974	353.88
799.231	388.88
799.487	376.88
799.743	385.88
799.999	396.88
800.255	397.88
800.511	375.88
800.767	392.88
801.023	370.88
801.279	388.88
801.534	403.88
801.79	413.88
802.046	377.88
802.302	441.88
802.557	436.88
802.813	488.88
803.068	468.88
803.324	581.88
803.579	643.88
803.835	761.88
804.09	986.88
804.345	1180.88
804.601	1384.88
804.856	1646.88
805.111	1863.88
805.366	2030.88
805.621	2093.88
805.876	2201.88
806.131	2205.88
806.386	2223.88
806.641	2182.88
806.896	2294.88
807.151	2372.88
807.406	2363.88
807.661	2425.88
807.915	2439.88
808.17	2529.88
808.425	2513.88
808.679	2464.88
808.934	2596.88
809.188	2533.88
809.443	2602.88
809.697	2622.88
809.951	2590.88
810.206	2622.88
810.46	2706.88
810.714	2686.88
810.968	2756.88
811.223	2671.88
811.477	2760.88
811.731	2830.88
811.985	2743.88
812.239	2730.88
812.493	2754.88
812.747	2806.88
813	2764.88
813.254	2806.88
813.508	2832.88
813.762	2831.88
814.015	2849.88
814.269	2859.88
814.522	2933.88
814.776	2942.88
815.03	2947.88
815.283	3006.88
815.536	3033.88
815.79	3040.88
816.043	3109.88
816.296	3152.88
816.55	3164.88
816.803	3200.88
817.056	3314.88
817.309	3255.88
817.562	3295.88
817.815	3334.88
818.068	3304.88
818.321	3360.88
818.574	3404.88
818.827	3453.88
819.079	3515.88
819.332	3651.88
819.585	3638.88
819.838	3719.88
820.09	3669.88
820.343	3726.88
820.595	3742.88
820.848	3746.88
821.1	3780.88
821.353	3788.88
821.605	3758.88
821.857	3827.88
822.11	3690.88
822.362	3719.88
822.614	3714.88
822.866	3725.88
823.118	3706.88
823.37	3831.88
823.622	3781.88
823.874	3801.88
824.126	3877.88
824.378	3823.88
824.63	3893.88
824.882	3919.88
825.134	3821.88
825.385	3861.88
825.637	3829.88
825.888	3786.88
826.14	3787.88
826.392	3773.88
826.643	3690.88
826.895	3757.88
827.146	3722.88
827.397	3687.88
827.649	3779.88
827.9	3666.88
828.151	3635.88
828.402	3639.88
828.653	3731.88
828.905	3742.88
829.156	3747.88
829.407	3671.88
829.658	3735.88
829.909	3726.88
830.159	3758.88
830.41	3706.88
830.661	3692.88
830.912	3663.88
831.162	3692.88
831.413	3685.88
831.664	3678.88
831.914	3712.88
832.165	3662.88
832.415	3693.88
832.666	3682.88
832.916	3727.88
833.167	3648.88
833.417	3756.88
833.667	3684.88
833.917	3686.88
834.168	3722.88
834.418	3677.88
834.668	3731.88
834.918	3646.88
835.168	3690.88
835.418	3630.88
835.668	3647.88
835.918	3647.88
836.167	3622.88
836.417	3563.88
836.667	3621.88
836.917	3685.88
837.166	3595.88
837.416	3574.88
837.666	3581.88
837.915	3556.88
838.165	3535.88
838.414	3493.88
838.663	3494.88
838.913	3561.88
839.162	3482.88
839.411	3572.88
839.661	3463.88
839.91	3538.88
840.159	3471.88
840.408	3527.88
840.657	3549.88
840.906	3555.88
841.155	3563.88
841.404	3524.88
841.653	3507.88
841.902	3502.88
842.15	3556.88
842.399	3559.88
842.648	3517.88
842.897	3530.88
843.145	3454.88
843.394	3406.88
843.642	3460.88
843.891	3465.88
844.139	3415.88
844.388	3352.88
844.636	3326.88
844.884	3424.88
845.133	3328.88
845.381	3411.88
845.629	3454.88
845.877	3354.88
846.125	3382.88
846.373	3353.88
846.621	3317.88
846.869	3392.88
847.117	3372.88
847.365	3339.88
847.613	3315.88
847.861	3323.88
848.108	3365.88
848.356	3320.88
848.604	3291.88
848.851	3315.88
849.099	3355.88
849.346	3330.88
849.594	3328.88
849.841	3398.88
850.089	3359.88
850.336	3340.88
850.583	3425.88
850.831	3414.88
851.078	3430.88
851.325	3520.88
851.572	3608.88
851.819	3534.88
852.066	3357.88
852.313	3234.88
852.56	3168.88
852.807	3159.88
853.054	3179.88
853.301	3173.88
853.548	3267.88
853.794	3363.88
854.041	3290.88
854.288	3249.88
854.534	3367.88
854.781	3323.88
855.028	3279.88
855.274	3329.88
855.52	3233.88
855.767	3218.88
856.013	3192.88
856.26	3491.88
856.506	3161.88
856.752	3207.88
856.998	3195.88
857.244	3172.88
857.49	3190.88
857.736	3207.88
857.982	3208.88
858.228	3258.88
858.474	3142.88
858.72	3194.88
858.966	3104.88
859.212	3128.88
859.458	3101.88
859.703	3038.88
859.949	2970.88
860.195	3050.88
860.44	2999.88
860.686	2981.88
860.931	3010.88
861.177	2949.88
861.422	3026.88
861.667	2942.88
861.913	2984.88
862.158	2917.88
862.403	2959.88
862.648	2971.88
862.893	3008.88
863.138	2994.88
863.384	2914.88
863.629	3006.88
863.873	2973.88
864.118	2949.88
864.363	2859.88
864.608	2947.88
864.853	3002.88
865.098	2948.88
865.342	2968.88
865.587	2882.88
865.832	2943.88
866.076	2899.88
866.321	2880.88
866.565	2878.88
866.81	2821.88
867.054	2842.88
867.298	2859.88
867.543	2831.88
867.787	2887.88
868.031	2834.88
868.275	2865.88
868.519	2798.88
868.764	2823.88
869.008	2832.88
869.252	2887.88
869.496	2814.88
869.739	2813.88
869.983	2869.88
870.227	2851.88
870.471	2798.88
870.715	2859.88
870.958	2864.88
871.202	2823.88
871.446	2853.88
871.689	2854.88
871.933	2842.88
872.176	2873.88
872.42	2845.88
872.663	2841.88
872.906	2880.88
873.15	2796.88
873.393	2780.88
873.636	2864.88
873.879	2792.88
874.122	2819.88
874.366	2719.88
874.609	2775.88
874.852	2730.88
875.095	2733.88
875.337	2681.88
875.58	2628.88
875.823	2665.88
876.066	2694.88
876.309	2746.88
876.551	2624.88
876.794	2616.88
877.037	2698.88
877.279	2580.88
877.522	2561.88
877.764	2659.88
878.007	2569.88
878.249	2614.88
878.491	2570.88
878.734	2646.88
878.976	2565.88
879.218	2522.88
879.46	2593.88
879.702	2569.88
879.945	2538.88
880.187	2493.88
880.429	2499.88
880.671	2495.88
880.912	2499.88
881.154	2484.88
881.396	2394.88
881.638	2488.88
881.88	2456.88
882.121	2393.88
882.363	2434.88
882.605	2449.88
882.846	2477.88
883.088	2459.88
883.329	2421.88
883.571	2425.88
883.812	2465.88
884.053	2519.88
884.295	2606.88
884.536	2690.88
884.777	2693.88
885.018	2654.88
885.259	2655.88
885.5	2570.88
885.742	2852.88
885.982	2547.88
886.223	2516.88
886.464	2512.88
886.705	2444.88
886.946	2440.88
887.187	2349.88
887.428	2428.88
887.668	2342.88
887.909	2307.88
888.15	2273.88
888.39	2292.88
888.631	2330.88
888.871	2250.88
889.111	2266.88
889.352	2262.88
889.592	2200.88
889.833	2167.88
890.073	2189.88
890.313	2222.88
890.553	2119.88
890.793	2142.88
891.033	2126.88
891.273	2126.88
891.513	2127.88
891.753	2218.88
891.993	2146.88
892.233	2110.88
892.473	2234.88
892.713	2150.88
892.952	2085.88
893.192	2184.88
893.432	2144.88
893.671	2190.88
893.911	2174.88
894.15	2183.88
894.39	2081.88
894.629	2090.88
894.869	2084.88
895.108	2096.88
895.347	2033.88
895.587	2093.88
895.826	2077.88
896.065	2057.88
896.304	2085.88
896.543	2068.88
896.782	1990.88
897.021	2060.88
897.26	2048.88
897.499	2139.88
897.738	2136.88
897.977	2069.88
898.216	2036.88
898.454	1997.88
898.693	1976.88
898.932	2032.88
899.17	1954.88
899.409	1983.88
899.647	1984.88
899.886	1928.88
900.124	1979.88
900.363	1958.88
900.601	1978.88
900.839	2005.88
901.078	1982.88
901.316	2016.88
901.554	1994.88
901.792	2040.88
902.03	2019.88
902.268	2025.88
902.506	2057.88
902.744	2004.88
902.982	2010.88
903.22	1907.88
903.458	1928.88
903.695	1928.88
903.933	1910.88
904.171	1851.88
904.409	1858.88
904.646	1845.88
904.884	1803.88
905.121	1858.88
905.359	1784.88
905.596	1766.88
905.833	1754.88
906.071	1732.88
906.308	1779.88
906.545	1758.88
906.783	1705.88
907.02	1742.88
907.257	1662.88
907.494	1693.88
907.731	1733.88
907.968	1709.88
908.205	1672.88
908.442	1676.88
908.679	1681.88
908.915	1668.88
909.152	1648.88
909.389	1604.88
909.626	1642.88
909.862	1611.88
910.099	1621.88
910.335	1670.88
910.572	1565.88
910.808	1612.88
911.045	1582.88
911.281	1578.88
911.518	1640.88
911.754	1582.88
911.99	1571.88
912.226	1568.88
912.463	1532.88
912.699	1516.88
912.935	1551.88
913.171	1540.88
913.407	1511.88
913.643	1587.88
913.879	1542.88
914.114	1490.88
914.35	1477.88
914.586	1473.88
914.822	1454.88
915.057	1531.88
915.293	1411.88
915.529	1418.88
915.764	1471.88
916	1472.88
916.235	1456.88
916.471	1489.88
916.706	1393.88
916.941	1464.88
917.177	1399.88
917.412	1470.88
917.647	1459.88
917.882	1401.88
918.117	1467.88
918.352	1439.88
918.588	1516.88
918.823	1414.88
919.057	1407.88
919.292	1321.88
919.527	1453.88
919.762	1354.88
919.997	1443.88
920.232	1343.88
920.466	1396.88
920.701	1295.88
920.935	1357.88
921.17	1348.88
921.405	1311.88
921.639	1371.88
921.873	1341.88
922.108	1363.88
922.342	1356.88
922.576	1291.88
922.811	1271.88
923.045	1359.88
923.279	1349.88
923.513	1229.88
923.747	1319.88
923.981	1285.88
924.215	1278.88
924.449	1293.88
924.683	1223.88
924.917	1253.88
925.151	1249.88
925.385	1327.88
925.618	1306.88
925.852	1282.88
926.086	1185.88
926.319	1275.88
926.553	1236.88
926.786	1259.88
927.02	1260.88
927.253	1308.88
927.486	1276.88
927.72	1210.88
927.953	1266.88
928.186	1222.88
928.42	1298.88
928.653	1197.88
928.886	1240.88
929.119	1244.88
929.352	1228.88
929.585	1229.88
929.818	1202.88
930.051	1239.88
930.284	1261.88
930.516	1150.88
930.749	1167.88
930.982	1221.88
931.215	1197.88
931.447	1146.88
931.68	1165.88
931.912	1147.88
932.145	1169.88
932.377	1200.88
932.61	1310.88
932.842	1116.88
933.074	1198.88
933.307	1153.88
933.539	1271.88
933.771	1252.88
934.003	1240.88
934.236	1352.88
934.468	1403.88
934.7	1349.88
934.932	1452.88
935.164	1364.88
935.395	1328.88
935.627	1283.88
935.859	1264.88
936.091	1156.88
936.323	1195.88
936.554	1229.88
936.786	1165.88
937.017	1108.88
937.249	1164.88
937.481	1090.88
937.712	1179.88
937.943	1132.88
938.175	1126.88
938.406	1114.88
938.637	1197.88
938.869	1088.88
939.1	1157.88
939.331	1118.88
939.562	1152.88
939.793	1153.88
940.024	1170.88
940.255	1179.88
940.486	1142.88
940.717	1129.88
940.948	1122.88
941.179	1064.88
941.409	1114.88
941.64	1117.88
941.871	1119.88
942.102	1102.88
942.332	1097.88
942.563	1137.88
942.793	1112.88
943.024	1076.88
943.254	1111.88
943.484	1136.88
943.715	1127.88
943.945	1156.88
944.175	1069.88
944.405	1037.88
944.636	1041.88
944.866	1103.88
945.096	1100.88
945.326	1043.88
945.556	1109.88
945.786	1120.88
946.016	1084.88
946.245	1047.88
946.475	1072.88
946.705	1073.88
946.935	1098.88
947.164	1069.88
947.394	1061.88
947.624	1087.88
947.853	1112.88
948.083	1066.88
948.312	1047.88
948.542	984.88
948.771	986.88
949	1027.88
949.23	1026.88
949.459	1030.88
949.688	1109.88
949.917	1038.88
950.146	1078.88
950.375	1138.88
950.604	1002.88
950.833	1098.88
951.062	1103.88
951.291	1036.88
951.52	1024.88
951.749	1041.88
951.978	999.88
952.206	1012.88
952.435	1007.88
952.664	1068.88
952.892	1066.88
953.121	1030.88
953.349	1077.88
953.578	1071.88
953.806	1042.88
954.035	995.88
954.263	1032.88
954.491	979.88
954.719	1036.88
954.948	995.88
955.176	979.88
955.404	941.88
955.632	997.88
955.86	1017.88
956.088	996.88
956.316	1047.88
956.544	1053.88
956.772	986.88
956.999	989.88
957.227	1058.88
957.455	979.88
957.683	1000.88
957.91	974.88
958.138	962.88
958.365	977.88
958.593	975.88
958.82	902.88
959.048	994.88
959.275	980.88
959.502	978.88
959.73	972.88
959.957	991.88
960.184	1055.88
960.411	1004.88
960.638	1068.88
960.865	988.88
961.092	1014.88
961.319	925.88
961.546	1013.88
961.773	1011.88
962	960.88
962.227	1014.88
962.454	980.88
962.68	977.88
962.907	998.88
963.134	944.88
963.36	981.88
963.587	1028.88
963.813	946.88
964.04	988.88
964.266	926.88
964.493	1030.88
964.719	996.88
964.945	1001.88
965.171	915.88
965.398	971.88
965.624	980.88
965.85	924.88
966.076	925.88
966.302	978.88
966.528	956.88
966.754	972.88
966.98	963.88
967.206	988.88
967.431	909.88
967.657	1005.88
967.883	983.88
968.109	932.88
968.334	911.88
968.56	898.88
968.785	930.88
969.011	888.88
969.236	963.88
969.462	897.88
969.687	930.88
969.912	950.88
970.138	971.88
970.363	910.88
970.588	939.88
970.813	915.88
971.038	884.88
971.263	937.88
971.488	953.88
971.713	983.88
971.938	956.88
972.163	877.88
972.388	908.88
972.613	887.88
972.838	898.88
973.062	882.88
973.287	919.88
973.512	838.88
973.736	885.88
973.961	882.88
974.185	875.88
974.41	936.88
974.634	828.88
974.858	844.88
975.083	892.88
975.307	923.88
975.531	848.88
975.755	801.88
975.98	840.88
976.204	796.88
976.428	814.88
976.652	800.88
976.876	791.88
977.1	838.88
977.324	817.88
977.547	860.88
977.771	853.88
977.995	841.88
978.219	772.88
978.442	909.88
978.666	848.88
978.89	830.88
979.113	833.88
979.337	822.88
979.56	808.88
979.783	887.88
980.007	776.88
980.23	802.88
980.453	793.88
980.677	842.88
980.9	824.88
981.123	757.88
981.346	840.88
981.569	830.88
981.792	850.88
982.015	830.88
982.238	793.88
982.461	823.88
982.684	794.88
982.907	775.88
983.129	774.88
983.352	823.88
983.575	809.88
983.797	823.88
984.02	772.88
984.242	794.88
984.465	785.88
984.687	826.88
984.91	854.88
985.132	832.88
985.354	845.88
985.577	816.88
985.799	818.88
986.021	743.88
986.243	796.88
986.465	778.88
986.687	858.88
986.909	859.88
987.131	833.88
987.353	795.88
987.575	820.88
987.797	782.88
988.019	747.88
988.241	803.88
988.462	766.88
988.684	831.88
988.906	849.88
989.127	896.88
989.349	763.88
989.57	805.88
989.792	847.88
990.013	856.88
990.234	872.88
990.456	878.88
990.677	866.88
990.898	797.88
991.119	812.88
991.341	849.88
991.562	777.88
991.783	830.88
992.004	783.88
992.225	754.88
992.446	824.88
992.667	738.88
992.887	819.88
993.108	746.88
993.329	879.88
993.55	808.88
993.77	744.88
993.991	776.88
994.212	798.88
994.432	782.88
994.653	821.88
994.873	818.88
995.093	718.88
995.314	751.88
995.534	826.88
995.754	841.88
995.975	867.88
996.195	757.88
996.415	821.88
996.635	773.88
996.855	820.88
997.075	788.88
997.295	784.88
997.515	772.88
997.735	831.88
997.955	781.88
998.174	794.88
998.394	765.88
998.614	798.88
998.834	772.88
999.053	852.88
999.273	826.88
999.492	855.88
999.712	828.88
999.931	779.88
1000.151	837.88
1000.37	828.88
1000.589	885.88
1000.809	802.88
1001.028	929.88
1001.247	897.88
1001.466	777.88
1001.685	918.88
1001.904	867.88
1002.123	834.88
1002.342	856.88
1002.561	811.88
1002.78	828.88
1002.999	928.88
1003.218	854.88
1003.436	846.88
1003.655	918.88
1003.874	837.88
1004.092	887.88
1004.311	911.88
1004.53	835.88
1004.748	934.88
1004.966	860.88
1005.185	926.88
1005.403	924.88
1005.622	888.88
1005.84	966.88
1006.058	871.88
1006.276	883.88
1006.494	1380.88
1006.712	896.88
1006.931	955.88
1007.149	839.88
1007.367	854.88
1007.584	887.88
1007.802	925.88
1008.02	870.88
1008.238	973.88
1008.456	969.88
1008.673	822.88
1008.891	932.88
1009.109	879.88
1009.326	911.88
1009.544	991.88
1009.761	859.88
1009.979	966.88
1010.196	947.88
1010.413	1009.88
1010.631	1025.88
1010.848	1027.88
1011.065	1035.88
1011.282	977.88
1011.5	926.88
1011.717	1050.88
1011.934	1010.88
1012.151	1006.88
1012.368	1007.88
1012.585	958.88
1012.801	1000.88
1013.018	996.88
1013.235	949.88
1013.452	972.88
1013.669	962.88
1013.885	916.88
1014.102	976.88
1014.318	942.88
1014.535	892.88
1014.751	950.88
1014.968	949.88
1015.184	986.88
1015.401	899.88
1015.617	955.88
1015.833	888.88
1016.049	896.88
1016.266	880.88
1016.482	902.88
1016.698	868.88
1016.914	911.88
1017.13	861.88
1017.346	871.88
1017.562	919.88
1017.778	871.88
1017.993	812.88
1018.209	891.88
1018.425	858.88
1018.641	849.88
1018.856	823.88
1019.072	844.88
1019.288	876.88
1019.503	836.88
1019.719	758.88
1019.934	788.88
1020.149	890.88
1020.365	827.88
1020.58	780.88
1020.795	841.88
1021.011	781.88
1021.226	761.88
1021.441	815.88
1021.656	746.88
1021.871	688.88
1022.086	697.88
1022.301	707.88
1022.516	698.88
1022.731	762.88
1022.946	686.88
1023.16	680.88
1023.375	660.88
1023.59	631.88
1023.804	623.88
1024.019	725.88
1024.234	600.88
1024.448	637.88
1024.663	578.88
1024.877	607.88
1025.092	633.88
1025.306	652.88
1025.52	574.88
1025.734	654.88
1025.949	599.88
1026.163	565.88
1026.377	514.88
1026.591	575.88
1026.805	513.88
1027.019	502.88
1027.233	477.88
1027.447	456.88
1027.661	544.88
1027.875	496.88
1028.088	495.88
1028.302	442.88
1028.516	450.88
1028.73	440.88
1028.943	444.88
1029.157	414.88
1029.37	388.88
1029.584	-4.12
1029.797	-1.12
1030.011	-1.12
1030.224	-3.12
