Data from QEP037381__87__10-17-52-731.txt Node

Date: Wed Dec 21 10:17:52 EST 2022
User: dcclab
Spectrometer: QEP03738
Trigger mode: 4
Integration Time (sec): 1.000000E1
Scans to average: 1
Electric dark correction enabled: true
Nonlinearity correction enabled: false
Boxcar width: 0
XAxis mode: Wavelengths
Number of Pixels in Spectrum: 1044
>>>>>Begin Spectral Data<<<<<
784.041	9.25
784.3	0.25
784.558	-1.75
784.817	-1.75
785.075	77198.25
785.334	13474.25
785.592	6399.25
785.851	4379.25
786.109	3317.25
786.368	2569.25
786.626	2100.25
786.884	1780.25
787.143	1491.25
787.401	1217.25
787.659	1113.25
787.917	980.25
788.175	916.25
788.433	795.25
788.691	723.25
788.949	662.25
789.207	641.25
789.465	570.25
789.723	549.25
789.98	502.25
790.238	532.25
790.496	504.25
790.753	497.25
791.011	537.25
791.268	476.25
791.526	456.25
791.783	485.25
792.041	469.25
792.298	381.25
792.556	447.25
792.813	430.25
793.07	416.25
793.327	401.25
793.584	461.25
793.841	391.25
794.099	422.25
794.356	475.25
794.613	375.25
794.869	415.25
795.126	369.25
795.383	360.25
795.64	378.25
795.897	336.25
796.153	391.25
796.41	373.25
796.667	367.25
796.923	380.25
797.18	367.25
797.436	390.25
797.693	343.25
797.949	411.25
798.206	432.25
798.462	334.25
798.718	391.25
798.974	358.25
799.231	404.25
799.487	394.25
799.743	403.25
799.999	415.25
800.255	391.25
800.511	371.25
800.767	408.25
801.023	387.25
801.279	414.25
801.534	416.25
801.79	443.25
802.046	432.25
802.302	494.25
802.557	506.25
802.813	566.25
803.068	586.25
803.324	744.25
803.579	901.25
803.835	1134.25
804.09	1499.25
804.345	1855.25
804.601	2299.25
804.856	2820.25
805.111	3269.25
805.366	3571.25
805.621	3782.25
805.876	3905.25
806.131	3977.25
806.386	4021.25
806.641	4076.25
806.896	4175.25
807.151	4270.25
807.406	4296.25
807.661	4394.25
807.915	4416.25
808.17	4506.25
808.425	4603.25
808.679	4581.25
808.934	4679.25
809.188	4683.25
809.443	4753.25
809.697	4808.25
809.951	4818.25
810.206	4831.25
810.46	4886.25
810.714	4955.25
810.968	4968.25
811.223	4915.25
811.477	5066.25
811.731	5104.25
811.985	5044.25
812.239	5052.25
812.493	5114.25
812.747	5151.25
813	5136.25
813.254	5224.25
813.508	5238.25
813.762	5215.25
814.015	5231.25
814.269	5299.25
814.522	5387.25
814.776	5420.25
815.03	5492.25
815.283	5594.25
815.536	5641.25
815.79	5725.25
816.043	5809.25
816.296	5933.25
816.55	5945.25
816.803	6016.25
817.056	6117.25
817.309	6174.25
817.562	6195.25
817.815	6258.25
818.068	6232.25
818.321	6342.25
818.574	6427.25
818.827	6549.25
819.079	6546.25
819.332	6699.25
819.585	6774.25
819.838	6960.25
820.09	6829.25
820.343	6994.25
820.595	6980.25
820.848	7078.25
821.1	7141.25
821.353	7075.25
821.605	7026.25
821.857	7091.25
822.11	7042.25
822.362	7047.25
822.614	7054.25
822.866	7056.25
823.118	7035.25
823.37	7151.25
823.622	7126.25
823.874	7121.25
824.126	7212.25
824.378	7179.25
824.63	7263.25
824.882	7237.25
825.134	7168.25
825.385	7228.25
825.637	7172.25
825.888	7088.25
826.14	7102.25
826.392	7038.25
826.643	7074.25
826.895	7130.25
827.146	6957.25
827.397	6984.25
827.649	7048.25
827.9	7028.25
828.151	6945.25
828.402	6940.25
828.653	7017.25
828.905	7059.25
829.156	7106.25
829.407	7005.25
829.658	7041.25
829.909	7128.25
830.159	7068.25
830.41	7043.25
830.661	7042.25
830.912	6951.25
831.162	6895.25
831.413	6858.25
831.664	6984.25
831.914	6977.25
832.165	6950.25
832.415	6962.25
832.666	6909.25
832.916	6954.25
833.167	6930.25
833.417	6946.25
833.667	6904.25
833.917	6930.25
834.168	6960.25
834.418	6876.25
834.668	6915.25
834.918	6893.25
835.168	6823.25
835.418	6764.25
835.668	6854.25
835.918	6819.25
836.167	6839.25
836.417	6737.25
836.667	6823.25
836.917	6791.25
837.166	6771.25
837.416	6761.25
837.666	6760.25
837.915	6701.25
838.165	6678.25
838.414	6666.25
838.663	6576.25
838.913	6636.25
839.162	6590.25
839.411	6698.25
839.661	6598.25
839.91	6564.25
840.159	6592.25
840.408	6598.25
840.657	6569.25
840.906	6646.25
841.155	6628.25
841.404	6633.25
841.653	6654.25
841.902	6637.25
842.15	6625.25
842.399	6555.25
842.648	6613.25
842.897	6622.25
843.145	6493.25
843.394	6454.25
843.642	6466.25
843.891	6452.25
844.139	6412.25
844.388	6384.25
844.636	6276.25
844.884	6347.25
845.133	6321.25
845.381	6331.25
845.629	6303.25
845.877	6311.25
846.125	6331.25
846.373	6308.25
846.621	6273.25
846.869	6293.25
847.117	6270.25
847.365	6208.25
847.613	6204.25
847.861	6179.25
848.108	6277.25
848.356	6217.25
848.604	6165.25
848.851	6250.25
849.099	6252.25
849.346	6202.25
849.594	6304.25
849.841	6351.25
850.089	6272.25
850.336	6289.25
850.583	6313.25
850.831	6262.25
851.078	6281.25
851.325	6324.25
851.572	6468.25
851.819	6377.25
852.066	6136.25
852.313	6008.25
852.56	5939.25
852.807	5917.25
853.054	5951.25
853.301	5894.25
853.548	5943.25
853.794	6105.25
854.041	5996.25
854.288	6008.25
854.534	6151.25
854.781	6058.25
855.028	6039.25
855.274	6101.25
855.52	6016.25
855.767	5858.25
856.013	5985.25
856.26	6246.25
856.506	5859.25
856.752	5906.25
856.998	5912.25
857.244	5878.25
857.49	5983.25
857.736	5943.25
857.982	5984.25
858.228	5972.25
858.474	5897.25
858.72	5882.25
858.966	5819.25
859.212	5807.25
859.458	5701.25
859.703	5666.25
859.949	5568.25
860.195	5602.25
860.44	5522.25
860.686	5546.25
860.931	5549.25
861.177	5468.25
861.422	5517.25
861.667	5420.25
861.913	5459.25
862.158	5464.25
862.403	5505.25
862.648	5497.25
862.893	5578.25
863.138	5541.25
863.384	5437.25
863.629	5507.25
863.873	5514.25
864.118	5508.25
864.363	5339.25
864.608	5465.25
864.853	5471.25
865.098	5374.25
865.342	5373.25
865.587	5379.25
865.832	5371.25
866.076	5415.25
866.321	5346.25
866.565	5366.25
866.81	5262.25
867.054	5269.25
867.298	5289.25
867.543	5240.25
867.787	5254.25
868.031	5243.25
868.275	5219.25
868.519	5204.25
868.764	5235.25
869.008	5178.25
869.252	5230.25
869.496	5173.25
869.739	5245.25
869.983	5231.25
870.227	5201.25
870.471	5162.25
870.715	5254.25
870.958	5226.25
871.202	5243.25
871.446	5229.25
871.689	5161.25
871.933	5215.25
872.176	5213.25
872.42	5223.25
872.663	5212.25
872.906	5172.25
873.15	5165.25
873.393	5093.25
873.636	5216.25
873.879	5083.25
874.122	5063.25
874.366	5048.25
874.609	4944.25
874.852	4965.25
875.095	4910.25
875.337	4895.25
875.58	4796.25
875.823	4874.25
876.066	4858.25
876.309	4883.25
876.551	4773.25
876.794	4741.25
877.037	4844.25
877.279	4737.25
877.522	4763.25
877.764	4809.25
878.007	4721.25
878.249	4738.25
878.491	4758.25
878.734	4805.25
878.976	4812.25
879.218	4665.25
879.46	4751.25
879.702	4679.25
879.945	4667.25
880.187	4578.25
880.429	4562.25
880.671	4529.25
880.912	4539.25
881.154	4516.25
881.396	4433.25
881.638	4484.25
881.88	4470.25
882.121	4430.25
882.363	4481.25
882.605	4487.25
882.846	4511.25
883.088	4470.25
883.329	4426.25
883.571	4398.25
883.812	4443.25
884.053	4548.25
884.295	4656.25
884.536	4746.25
884.777	4711.25
885.018	4684.25
885.259	4688.25
885.5	4535.25
885.742	4829.25
885.982	4573.25
886.223	4542.25
886.464	4536.25
886.705	4427.25
886.946	4412.25
887.187	4281.25
887.428	4383.25
887.668	4273.25
887.909	4198.25
888.15	4173.25
888.39	4193.25
888.631	4198.25
888.871	4159.25
889.111	4055.25
889.352	4073.25
889.592	4035.25
889.833	4014.25
890.073	3943.25
890.313	4061.25
890.553	3931.25
890.793	3924.25
891.033	3873.25
891.273	3865.25
891.513	3871.25
891.753	3910.25
891.993	3867.25
892.233	3914.25
892.473	3951.25
892.713	3898.25
892.952	3844.25
893.192	3889.25
893.432	3878.25
893.671	3954.25
893.911	3899.25
894.15	3860.25
894.39	3761.25
894.629	3820.25
894.869	3786.25
895.108	3752.25
895.347	3655.25
895.587	3732.25
895.826	3734.25
896.065	3693.25
896.304	3687.25
896.543	3745.25
896.782	3637.25
897.021	3724.25
897.26	3690.25
897.499	3772.25
897.738	3739.25
897.977	3648.25
898.216	3602.25
898.454	3603.25
898.693	3593.25
898.932	3574.25
899.17	3516.25
899.409	3513.25
899.647	3498.25
899.886	3465.25
900.124	3529.25
900.363	3481.25
900.601	3561.25
900.839	3569.25
901.078	3563.25
901.316	3563.25
901.554	3625.25
901.792	3622.25
902.03	3538.25
902.268	3593.25
902.506	3668.25
902.744	3593.25
902.982	3580.25
903.22	3486.25
903.458	3436.25
903.695	3430.25
903.933	3425.25
904.171	3324.25
904.409	3279.25
904.646	3235.25
904.884	3166.25
905.121	3242.25
905.359	3181.25
905.596	3133.25
905.833	3077.25
906.071	3069.25
906.308	3154.25
906.545	3114.25
906.783	3057.25
907.02	3059.25
907.257	2999.25
907.494	3022.25
907.731	3065.25
907.968	3044.25
908.205	2998.25
908.442	2993.25
908.679	2977.25
908.915	2957.25
909.152	2960.25
909.389	2838.25
909.626	2919.25
909.862	2854.25
910.099	2891.25
910.335	2897.25
910.572	2817.25
910.808	2848.25
911.045	2804.25
911.281	2788.25
911.518	2917.25
911.754	2815.25
911.99	2795.25
912.226	2785.25
912.463	2715.25
912.699	2737.25
912.935	2742.25
913.171	2703.25
913.407	2688.25
913.643	2672.25
913.879	2668.25
914.114	2640.25
914.35	2566.25
914.586	2566.25
914.822	2548.25
915.057	2668.25
915.293	2505.25
915.529	2491.25
915.764	2576.25
916	2534.25
916.235	2578.25
916.471	2530.25
916.706	2456.25
916.941	2498.25
917.177	2503.25
917.412	2517.25
917.647	2514.25
917.882	2466.25
918.117	2514.25
918.352	2499.25
918.588	2556.25
918.823	2472.25
919.057	2461.25
919.292	2314.25
919.527	2445.25
919.762	2387.25
919.997	2415.25
920.232	2349.25
920.466	2378.25
920.701	2255.25
920.935	2307.25
921.17	2282.25
921.405	2255.25
921.639	2322.25
921.873	2230.25
922.108	2285.25
922.342	2255.25
922.576	2199.25
922.811	2240.25
923.045	2255.25
923.279	2289.25
923.513	2143.25
923.747	2288.25
923.981	2262.25
924.215	2151.25
924.449	2167.25
924.683	2146.25
924.917	2151.25
925.151	2120.25
925.385	2186.25
925.618	2165.25
925.852	2152.25
926.086	2070.25
926.319	2116.25
926.553	2105.25
926.786	2126.25
927.02	2095.25
927.253	2156.25
927.486	2148.25
927.72	2095.25
927.953	2151.25
928.186	2078.25
928.42	2156.25
928.653	2052.25
928.886	2040.25
929.119	2100.25
929.352	2061.25
929.585	2081.25
929.818	2027.25
930.051	2056.25
930.284	2033.25
930.516	1952.25
930.749	1931.25
930.982	2037.25
931.215	1968.25
931.447	1941.25
931.68	1969.25
931.912	1944.25
932.145	1952.25
932.377	1933.25
932.61	2100.25
932.842	1883.25
933.074	1986.25
933.307	1913.25
933.539	2001.25
933.771	1991.25
934.003	1962.25
934.236	2032.25
934.468	2023.25
934.7	1933.25
934.932	1982.25
935.164	1911.25
935.395	1917.25
935.627	1907.25
935.859	1940.25
936.091	1909.25
936.323	1965.25
936.554	1944.25
936.786	1913.25
937.017	1857.25
937.249	1888.25
937.481	1848.25
937.712	1910.25
937.943	1903.25
938.175	1860.25
938.406	1872.25
938.637	1928.25
938.869	1834.25
939.1	1904.25
939.331	1842.25
939.562	1886.25
939.793	1908.25
940.024	1895.25
940.255	1880.25
940.486	1870.25
940.717	1847.25
940.948	1828.25
941.179	1763.25
941.409	1801.25
941.64	1795.25
941.871	1816.25
942.102	1772.25
942.332	1807.25
942.563	1821.25
942.793	1785.25
943.024	1749.25
943.254	1816.25
943.484	1854.25
943.715	1856.25
943.945	1831.25
944.175	1773.25
944.405	1744.25
944.636	1795.25
944.866	1785.25
945.096	1796.25
945.326	1752.25
945.556	1792.25
945.786	1805.25
946.016	1776.25
946.245	1734.25
946.475	1753.25
946.705	1744.25
946.935	1751.25
947.164	1736.25
947.394	1671.25
947.624	1724.25
947.853	1733.25
948.083	1730.25
948.312	1687.25
948.542	1630.25
948.771	1632.25
949	1659.25
949.23	1671.25
949.459	1658.25
949.688	1766.25
949.917	1670.25
950.146	1679.25
950.375	1755.25
950.604	1631.25
950.833	1739.25
951.062	1701.25
951.291	1686.25
951.52	1654.25
951.749	1663.25
951.978	1613.25
952.206	1626.25
952.435	1638.25
952.664	1670.25
952.892	1672.25
953.121	1637.25
953.349	1696.25
953.578	1685.25
953.806	1655.25
954.035	1595.25
954.263	1628.25
954.491	1598.25
954.719	1620.25
954.948	1572.25
955.176	1575.25
955.404	1508.25
955.632	1585.25
955.86	1594.25
956.088	1613.25
956.316	1608.25
956.544	1635.25
956.772	1571.25
956.999	1531.25
957.227	1653.25
957.455	1522.25
957.683	1560.25
957.91	1511.25
958.138	1501.25
958.365	1520.25
958.593	1505.25
958.82	1462.25
959.048	1536.25
959.275	1523.25
959.502	1529.25
959.73	1489.25
959.957	1550.25
960.184	1590.25
960.411	1538.25
960.638	1588.25
960.865	1521.25
961.092	1532.25
961.319	1451.25
961.546	1540.25
961.773	1532.25
962	1477.25
962.227	1576.25
962.454	1506.25
962.68	1467.25
962.907	1501.25
963.134	1475.25
963.36	1488.25
963.587	1498.25
963.813	1428.25
964.04	1504.25
964.266	1413.25
964.493	1522.25
964.719	1472.25
964.945	1494.25
965.171	1414.25
965.398	1437.25
965.624	1465.25
965.85	1422.25
966.076	1416.25
966.302	1442.25
966.528	1392.25
966.754	1426.25
966.98	1428.25
967.206	1454.25
967.431	1370.25
967.657	1455.25
967.883	1423.25
968.109	1420.25
968.334	1386.25
968.56	1364.25
968.785	1382.25
969.011	1340.25
969.236	1411.25
969.462	1359.25
969.687	1369.25
969.912	1407.25
970.138	1428.25
970.363	1343.25
970.588	1352.25
970.813	1338.25
971.038	1332.25
971.263	1376.25
971.488	1372.25
971.713	1413.25
971.938	1407.25
972.163	1299.25
972.388	1324.25
972.613	1310.25
972.838	1348.25
973.062	1304.25
973.287	1278.25
973.512	1250.25
973.736	1291.25
973.961	1297.25
974.185	1292.25
974.41	1300.25
974.634	1241.25
974.858	1240.25
975.083	1303.25
975.307	1313.25
975.531	1278.25
975.755	1200.25
975.98	1220.25
976.204	1168.25
976.428	1181.25
976.652	1192.25
976.876	1158.25
977.1	1204.25
977.324	1169.25
977.547	1242.25
977.771	1243.25
977.995	1218.25
978.219	1168.25
978.442	1243.25
978.666	1208.25
978.89	1221.25
979.113	1224.25
979.337	1218.25
979.56	1159.25
979.783	1279.25
980.007	1154.25
980.23	1206.25
980.453	1168.25
980.677	1202.25
980.9	1201.25
981.123	1102.25
981.346	1203.25
981.569	1186.25
981.792	1212.25
982.015	1170.25
982.238	1112.25
982.461	1139.25
982.684	1137.25
982.907	1118.25
983.129	1110.25
983.352	1158.25
983.575	1129.25
983.797	1145.25
984.02	1115.25
984.242	1101.25
984.465	1155.25
984.687	1156.25
984.91	1181.25
985.132	1142.25
985.354	1146.25
985.577	1122.25
985.799	1126.25
986.021	1055.25
986.243	1089.25
986.465	1110.25
986.687	1151.25
986.909	1205.25
987.131	1120.25
987.353	1077.25
987.575	1134.25
987.797	1082.25
988.019	1044.25
988.241	1104.25
988.462	1052.25
988.684	1133.25
988.906	1139.25
989.127	1155.25
989.349	1057.25
989.57	1081.25
989.792	1133.25
990.013	1142.25
990.234	1144.25
990.456	1177.25
990.677	1159.25
990.898	1096.25
991.119	1077.25
991.341	1122.25
991.562	1056.25
991.783	1112.25
992.004	1046.25
992.225	1027.25
992.446	1102.25
992.667	1021.25
992.887	1101.25
993.108	976.25
993.329	1133.25
993.55	1063.25
993.77	1017.25
993.991	1009.25
994.212	1074.25
994.432	1070.25
994.653	1065.25
994.873	1072.25
995.093	958.25
995.314	998.25
995.534	1096.25
995.754	1094.25
995.975	1100.25
996.195	997.25
996.415	1068.25
996.635	1062.25
996.855	1063.25
997.075	1036.25
997.295	1039.25
997.515	1012.25
997.735	1045.25
997.955	1035.25
998.174	1027.25
998.394	994.25
998.614	1048.25
998.834	995.25
999.053	1074.25
999.273	1027.25
999.492	1106.25
999.712	1035.25
999.931	1026.25
1000.151	1063.25
1000.37	1024.25
1000.589	1097.25
1000.809	1023.25
1001.028	1141.25
1001.247	1074.25
1001.466	998.25
1001.685	1132.25
1001.904	1069.25
1002.123	1084.25
1002.342	1068.25
1002.561	1014.25
1002.78	1058.25
1002.999	1109.25
1003.218	1064.25
1003.436	1027.25
1003.655	1088.25
1003.874	1042.25
1004.092	1058.25
1004.311	1113.25
1004.53	1075.25
1004.748	1152.25
1004.966	1058.25
1005.185	1126.25
1005.403	1092.25
1005.622	1098.25
1005.84	1168.25
1006.058	1045.25
1006.276	1076.25
1006.494	1561.25
1006.712	1080.25
1006.931	1148.25
1007.149	1064.25
1007.367	1050.25
1007.584	1091.25
1007.802	1084.25
1008.02	1057.25
1008.238	1144.25
1008.456	1151.25
1008.673	1013.25
1008.891	1125.25
1009.109	1049.25
1009.326	1131.25
1009.544	1211.25
1009.761	1081.25
1009.979	1165.25
1010.196	1133.25
1010.413	1221.25
1010.631	1244.25
1010.848	1287.25
1011.065	1273.25
1011.282	1219.25
1011.5	1136.25
1011.717	1257.25
1011.934	1236.25
1012.151	1252.25
1012.368	1247.25
1012.585	1160.25
1012.801	1234.25
1013.018	1213.25
1013.235	1169.25
1013.452	1190.25
1013.669	1174.25
1013.885	1149.25
1014.102	1196.25
1014.318	1159.25
1014.535	1153.25
1014.751	1166.25
1014.968	1176.25
1015.184	1197.25
1015.401	1108.25
1015.617	1152.25
1015.833	1115.25
1016.049	1104.25
1016.266	1111.25
1016.482	1134.25
1016.698	1056.25
1016.914	1111.25
1017.13	1056.25
1017.346	1052.25
1017.562	1122.25
1017.778	1075.25
1017.993	1041.25
1018.209	1089.25
1018.425	1081.25
1018.641	1028.25
1018.856	1005.25
1019.072	1041.25
1019.288	1099.25
1019.503	1049.25
1019.719	979.25
1019.934	968.25
1020.149	1056.25
1020.365	977.25
1020.58	981.25
1020.795	1020.25
1021.011	967.25
1021.226	942.25
1021.441	975.25
1021.656	906.25
1021.871	868.25
1022.086	848.25
1022.301	875.25
1022.516	875.25
1022.731	959.25
1022.946	836.25
1023.16	823.25
1023.375	783.25
1023.59	794.25
1023.804	750.25
1024.019	867.25
1024.234	740.25
1024.448	773.25
1024.663	721.25
1024.877	725.25
1025.092	756.25
1025.306	774.25
1025.52	668.25
1025.734	792.25
1025.949	685.25
1026.163	678.25
1026.377	636.25
1026.591	680.25
1026.805	607.25
1027.019	611.25
1027.233	564.25
1027.447	529.25
1027.661	636.25
1027.875	571.25
1028.088	585.25
1028.302	525.25
1028.516	532.25
1028.73	530.25
1028.943	520.25
1029.157	474.25
1029.37	464.25
1029.584	-1.75
1029.797	0.25
1030.011	-0.75
1030.224	-3.75
