Data from QEP037381__135__10-25-52-734.txt Node

Date: Wed Dec 21 10:25:52 EST 2022
User: dcclab
Spectrometer: QEP03738
Trigger mode: 4
Integration Time (sec): 1.000000E1
Scans to average: 1
Electric dark correction enabled: true
Nonlinearity correction enabled: false
Boxcar width: 0
XAxis mode: Wavelengths
Number of Pixels in Spectrum: 1044
>>>>>Begin Spectral Data<<<<<
784.041	10.62
784.3	2.62
784.558	-5.38
784.817	-5.38
785.075	76371.62
785.334	13289.62
785.592	6238.62
785.851	4331.62
786.109	3287.62
786.368	2594.62
786.626	2078.62
786.884	1724.62
787.143	1458.62
787.401	1222.62
787.659	1094.62
787.917	962.62
788.175	877.62
788.433	781.62
788.691	712.62
788.949	662.62
789.207	629.62
789.465	548.62
789.723	530.62
789.98	496.62
790.238	525.62
790.496	486.62
790.753	484.62
791.011	515.62
791.268	466.62
791.526	443.62
791.783	473.62
792.041	463.62
792.298	364.62
792.556	442.62
792.813	434.62
793.07	395.62
793.327	394.62
793.584	473.62
793.841	392.62
794.099	403.62
794.356	472.62
794.613	376.62
794.869	412.62
795.126	368.62
795.383	352.62
795.64	386.62
795.897	335.62
796.153	380.62
796.41	382.62
796.667	357.62
796.923	353.62
797.18	371.62
797.436	390.62
797.693	360.62
797.949	387.62
798.206	406.62
798.462	329.62
798.718	398.62
798.974	344.62
799.231	401.62
799.487	388.62
799.743	387.62
799.999	403.62
800.255	384.62
800.511	355.62
800.767	401.62
801.023	373.62
801.279	398.62
801.534	396.62
801.79	421.62
802.046	379.62
802.302	445.62
802.557	454.62
802.813	493.62
803.068	488.62
803.324	606.62
803.579	682.62
803.835	808.62
804.09	1038.62
804.345	1282.62
804.601	1479.62
804.856	1783.62
805.111	2030.62
805.366	2161.62
805.621	2272.62
805.876	2352.62
806.131	2403.62
806.386	2399.62
806.641	2422.62
806.896	2446.62
807.151	2564.62
807.406	2552.62
807.661	2600.62
807.915	2632.62
808.17	2694.62
808.425	2697.62
808.679	2669.62
808.934	2766.62
809.188	2725.62
809.443	2791.62
809.697	2866.62
809.951	2821.62
810.206	2836.62
810.46	2898.62
810.714	2882.62
810.968	2941.62
811.223	2896.62
811.477	2941.62
811.731	2992.62
811.985	2912.62
812.239	2957.62
812.493	2988.62
812.747	3011.62
813	2971.62
813.254	3018.62
813.508	3059.62
813.762	3013.62
814.015	3071.62
814.269	3095.62
814.522	3136.62
814.776	3161.62
815.03	3187.62
815.283	3199.62
815.536	3287.62
815.79	3337.62
816.043	3352.62
816.296	3407.62
816.55	3413.62
816.803	3435.62
817.056	3564.62
817.309	3551.62
817.562	3567.62
817.815	3626.62
818.068	3574.62
818.321	3611.62
818.574	3713.62
818.827	3738.62
819.079	3775.62
819.332	3926.62
819.585	3921.62
819.838	3996.62
820.09	3925.62
820.343	4042.62
820.595	3962.62
820.848	4032.62
821.1	4067.62
821.353	4062.62
821.605	4036.62
821.857	4076.62
822.11	3980.62
822.362	4047.62
822.614	4005.62
822.866	4055.62
823.118	4012.62
823.37	4123.62
823.622	4100.62
823.874	4129.62
824.126	4183.62
824.378	4101.62
824.63	4180.62
824.882	4208.62
825.134	4100.62
825.385	4138.62
825.637	4118.62
825.888	4068.62
826.14	4048.62
826.392	4050.62
826.643	3997.62
826.895	4046.62
827.146	4030.62
827.397	4003.62
827.649	3988.62
827.9	3979.62
828.151	3991.62
828.402	3939.62
828.653	4008.62
828.905	3993.62
829.156	4099.62
829.407	3967.62
829.658	3971.62
829.909	4053.62
830.159	4012.62
830.41	4010.62
830.661	4000.62
830.912	3977.62
831.162	3966.62
831.413	3940.62
831.664	3927.62
831.914	3972.62
832.165	3982.62
832.415	3985.62
832.666	3938.62
832.916	4023.62
833.167	3998.62
833.417	3999.62
833.667	3985.62
833.917	3919.62
834.168	4010.62
834.418	3967.62
834.668	3969.62
834.918	3918.62
835.168	3962.62
835.418	3893.62
835.668	3951.62
835.918	3920.62
836.167	3888.62
836.417	3842.62
836.667	3956.62
836.917	3920.62
837.166	3856.62
837.416	3864.62
837.666	3876.62
837.915	3796.62
838.165	3827.62
838.414	3720.62
838.663	3777.62
838.913	3785.62
839.162	3746.62
839.411	3834.62
839.661	3735.62
839.91	3756.62
840.159	3771.62
840.408	3796.62
840.657	3774.62
840.906	3775.62
841.155	3784.62
841.404	3801.62
841.653	3799.62
841.902	3762.62
842.15	3784.62
842.399	3798.62
842.648	3771.62
842.897	3752.62
843.145	3663.62
843.394	3672.62
843.642	3704.62
843.891	3725.62
844.139	3687.62
844.388	3641.62
844.636	3609.62
844.884	3632.62
845.133	3573.62
845.381	3620.62
845.629	3629.62
845.877	3599.62
846.125	3600.62
846.373	3633.62
846.621	3562.62
846.869	3621.62
847.117	3565.62
847.365	3578.62
847.613	3552.62
847.861	3557.62
848.108	3563.62
848.356	3567.62
848.604	3516.62
848.851	3550.62
849.099	3577.62
849.346	3541.62
849.594	3560.62
849.841	3590.62
850.089	3597.62
850.336	3545.62
850.583	3594.62
850.831	3655.62
851.078	3660.62
851.325	3748.62
851.572	3855.62
851.819	3765.62
852.066	3554.62
852.313	3440.62
852.56	3357.62
852.807	3328.62
853.054	3368.62
853.301	3436.62
853.548	3444.62
853.794	3567.62
854.041	3494.62
854.288	3467.62
854.534	3611.62
854.781	3498.62
855.028	3440.62
855.274	3518.62
855.52	3456.62
855.767	3385.62
856.013	3428.62
856.26	3664.62
856.506	3340.62
856.752	3411.62
856.998	3396.62
857.244	3381.62
857.49	3423.62
857.736	3398.62
857.982	3431.62
858.228	3409.62
858.474	3342.62
858.72	3339.62
858.966	3355.62
859.212	3347.62
859.458	3272.62
859.703	3249.62
859.949	3206.62
860.195	3222.62
860.44	3214.62
860.686	3146.62
860.931	3205.62
861.177	3095.62
861.422	3168.62
861.667	3076.62
861.913	3155.62
862.158	3137.62
862.403	3185.62
862.648	3210.62
862.893	3211.62
863.138	3179.62
863.384	3115.62
863.629	3191.62
863.873	3161.62
864.118	3132.62
864.363	3100.62
864.608	3150.62
864.853	3171.62
865.098	3170.62
865.342	3102.62
865.587	3105.62
865.832	3148.62
866.076	3126.62
866.321	3032.62
866.565	3031.62
866.81	2970.62
867.054	3063.62
867.298	3037.62
867.543	3001.62
867.787	3040.62
868.031	3000.62
868.275	2995.62
868.519	2999.62
868.764	3039.62
869.008	2953.62
869.252	3022.62
869.496	2993.62
869.739	2969.62
869.983	3051.62
870.227	3029.62
870.471	2954.62
870.715	3032.62
870.958	3018.62
871.202	2968.62
871.446	2976.62
871.689	2977.62
871.933	3031.62
872.176	3003.62
872.42	2974.62
872.663	3007.62
872.906	3027.62
873.15	2946.62
873.393	2903.62
873.636	2962.62
873.879	2956.62
874.122	2999.62
874.366	2888.62
874.609	2911.62
874.852	2857.62
875.095	2844.62
875.337	2823.62
875.58	2749.62
875.823	2867.62
876.066	2850.62
876.309	2877.62
876.551	2767.62
876.794	2713.62
877.037	2816.62
877.279	2739.62
877.522	2742.62
877.764	2790.62
878.007	2716.62
878.249	2739.62
878.491	2735.62
878.734	2769.62
878.976	2752.62
879.218	2699.62
879.46	2759.62
879.702	2722.62
879.945	2669.62
880.187	2599.62
880.429	2668.62
880.671	2645.62
880.912	2618.62
881.154	2590.62
881.396	2546.62
881.638	2591.62
881.88	2560.62
882.121	2529.62
882.363	2543.62
882.605	2649.62
882.846	2583.62
883.088	2583.62
883.329	2538.62
883.571	2510.62
883.812	2566.62
884.053	2675.62
884.295	2702.62
884.536	2820.62
884.777	2747.62
885.018	2744.62
885.259	2740.62
885.5	2687.62
885.742	3010.62
885.982	2699.62
886.223	2644.62
886.464	2595.62
886.705	2542.62
886.946	2591.62
887.187	2474.62
887.428	2542.62
887.668	2441.62
887.909	2375.62
888.15	2340.62
888.39	2411.62
888.631	2442.62
888.871	2416.62
889.111	2364.62
889.352	2397.62
889.592	2295.62
889.833	2308.62
890.073	2293.62
890.313	2385.62
890.553	2257.62
890.793	2254.62
891.033	2237.62
891.273	2234.62
891.513	2262.62
891.753	2301.62
891.993	2231.62
892.233	2264.62
892.473	2312.62
892.713	2274.62
892.952	2187.62
893.192	2221.62
893.432	2229.62
893.671	2299.62
893.911	2259.62
894.15	2236.62
894.39	2154.62
894.629	2225.62
894.869	2229.62
895.108	2156.62
895.347	2127.62
895.587	2154.62
895.826	2138.62
896.065	2114.62
896.304	2173.62
896.543	2200.62
896.782	2126.62
897.021	2180.62
897.26	2191.62
897.499	2246.62
897.738	2229.62
897.977	2165.62
898.216	2141.62
898.454	2115.62
898.693	2071.62
898.932	2089.62
899.17	2064.62
899.409	2096.62
899.647	2092.62
899.886	2049.62
900.124	2080.62
900.363	2041.62
900.601	2102.62
900.839	2091.62
901.078	2094.62
901.316	2080.62
901.554	2081.62
901.792	2118.62
902.03	2051.62
902.268	2085.62
902.506	2147.62
902.744	2066.62
902.982	2119.62
903.22	1999.62
903.458	1997.62
903.695	2027.62
903.933	2035.62
904.171	1941.62
904.409	1897.62
904.646	1945.62
904.884	1865.62
905.121	1912.62
905.359	1872.62
905.596	1860.62
905.833	1810.62
906.071	1810.62
906.308	1853.62
906.545	1832.62
906.783	1760.62
907.02	1800.62
907.257	1792.62
907.494	1782.62
907.731	1815.62
907.968	1795.62
908.205	1776.62
908.442	1739.62
908.679	1796.62
908.915	1739.62
909.152	1728.62
909.389	1690.62
909.626	1681.62
909.862	1671.62
910.099	1717.62
910.335	1744.62
910.572	1629.62
910.808	1690.62
911.045	1650.62
911.281	1654.62
911.518	1727.62
911.754	1641.62
911.99	1652.62
912.226	1645.62
912.463	1605.62
912.699	1601.62
912.935	1631.62
913.171	1609.62
913.407	1537.62
913.643	1624.62
913.879	1611.62
914.114	1600.62
914.35	1563.62
914.586	1554.62
914.822	1501.62
915.057	1603.62
915.293	1503.62
915.529	1488.62
915.764	1536.62
916	1517.62
916.235	1544.62
916.471	1524.62
916.706	1444.62
916.941	1491.62
917.177	1479.62
917.412	1547.62
917.647	1527.62
917.882	1462.62
918.117	1542.62
918.352	1489.62
918.588	1552.62
918.823	1462.62
919.057	1470.62
919.292	1415.62
919.527	1507.62
919.762	1431.62
919.997	1504.62
920.232	1439.62
920.466	1448.62
920.701	1353.62
920.935	1385.62
921.17	1377.62
921.405	1338.62
921.639	1402.62
921.873	1368.62
922.108	1392.62
922.342	1410.62
922.576	1342.62
922.811	1342.62
923.045	1392.62
923.279	1404.62
923.513	1288.62
923.747	1403.62
923.981	1358.62
924.215	1330.62
924.449	1328.62
924.683	1322.62
924.917	1295.62
925.151	1313.62
925.385	1389.62
925.618	1311.62
925.852	1307.62
926.086	1274.62
926.319	1307.62
926.553	1298.62
926.786	1311.62
927.02	1312.62
927.253	1327.62
927.486	1336.62
927.72	1269.62
927.953	1326.62
928.186	1277.62
928.42	1302.62
928.653	1252.62
928.886	1247.62
929.119	1302.62
929.352	1276.62
929.585	1281.62
929.818	1235.62
930.051	1283.62
930.284	1258.62
930.516	1192.62
930.749	1223.62
930.982	1270.62
931.215	1259.62
931.447	1173.62
931.68	1212.62
931.912	1198.62
932.145	1198.62
932.377	1201.62
932.61	1342.62
932.842	1172.62
933.074	1251.62
933.307	1181.62
933.539	1307.62
933.771	1325.62
934.003	1301.62
934.236	1413.62
934.468	1471.62
934.7	1434.62
934.932	1465.62
935.164	1391.62
935.395	1341.62
935.627	1285.62
935.859	1253.62
936.091	1186.62
936.323	1219.62
936.554	1237.62
936.786	1176.62
937.017	1152.62
937.249	1180.62
937.481	1142.62
937.712	1198.62
937.943	1182.62
938.175	1172.62
938.406	1159.62
938.637	1236.62
938.869	1115.62
939.1	1201.62
939.331	1161.62
939.562	1199.62
939.793	1176.62
940.024	1203.62
940.255	1223.62
940.486	1167.62
940.717	1171.62
940.948	1139.62
941.179	1089.62
941.409	1138.62
941.64	1146.62
941.871	1147.62
942.102	1131.62
942.332	1117.62
942.563	1153.62
942.793	1124.62
943.024	1124.62
943.254	1139.62
943.484	1181.62
943.715	1185.62
943.945	1128.62
944.175	1077.62
944.405	1092.62
944.636	1087.62
944.866	1129.62
945.096	1122.62
945.326	1066.62
945.556	1132.62
945.786	1145.62
946.016	1099.62
946.245	1078.62
946.475	1096.62
946.705	1097.62
946.935	1106.62
947.164	1097.62
947.394	1099.62
947.624	1086.62
947.853	1139.62
948.083	1119.62
948.312	1081.62
948.542	1025.62
948.771	996.62
949	1020.62
949.23	1049.62
949.459	1064.62
949.688	1119.62
949.917	1068.62
950.146	1074.62
950.375	1131.62
950.604	1035.62
950.833	1147.62
951.062	1137.62
951.291	1049.62
951.52	1055.62
951.749	1070.62
951.978	1016.62
952.206	1045.62
952.435	1037.62
952.664	1092.62
952.892	1092.62
953.121	1064.62
953.349	1115.62
953.578	1089.62
953.806	1072.62
954.035	1023.62
954.263	1049.62
954.491	998.62
954.719	1073.62
954.948	1036.62
955.176	1011.62
955.404	966.62
955.632	1028.62
955.86	1041.62
956.088	1020.62
956.316	1052.62
956.544	1070.62
956.772	1025.62
956.999	990.62
957.227	1087.62
957.455	987.62
957.683	1027.62
957.91	966.62
958.138	974.62
958.365	1000.62
958.593	991.62
958.82	953.62
959.048	991.62
959.275	996.62
959.502	1013.62
959.73	968.62
959.957	1021.62
960.184	1065.62
960.411	1014.62
960.638	1068.62
960.865	1019.62
961.092	1033.62
961.319	934.62
961.546	1024.62
961.773	1037.62
962	984.62
962.227	1035.62
962.454	1016.62
962.68	968.62
962.907	1026.62
963.134	968.62
963.36	982.62
963.587	1034.62
963.813	943.62
964.04	1015.62
964.266	971.62
964.493	1043.62
964.719	1016.62
964.945	1000.62
965.171	918.62
965.398	1005.62
965.624	1023.62
965.85	943.62
966.076	953.62
966.302	986.62
966.528	941.62
966.754	969.62
966.98	989.62
967.206	966.62
967.431	935.62
967.657	1017.62
967.883	1000.62
968.109	964.62
968.334	944.62
968.56	930.62
968.785	937.62
969.011	906.62
969.236	964.62
969.462	907.62
969.687	908.62
969.912	968.62
970.138	1001.62
970.363	895.62
970.588	959.62
970.813	943.62
971.038	900.62
971.263	934.62
971.488	962.62
971.713	982.62
971.938	976.62
972.163	890.62
972.388	889.62
972.613	900.62
972.838	913.62
973.062	892.62
973.287	919.62
973.512	860.62
973.736	904.62
973.961	895.62
974.185	880.62
974.41	908.62
974.634	826.62
974.858	849.62
975.083	915.62
975.307	910.62
975.531	875.62
975.755	841.62
975.98	840.62
976.204	810.62
976.428	805.62
976.652	812.62
976.876	804.62
977.1	848.62
977.324	803.62
977.547	865.62
977.771	885.62
977.995	847.62
978.219	802.62
978.442	908.62
978.666	833.62
978.89	842.62
979.113	837.62
979.337	825.62
979.56	794.62
979.783	894.62
980.007	801.62
980.23	835.62
980.453	808.62
980.677	842.62
980.9	821.62
981.123	737.62
981.346	851.62
981.569	836.62
981.792	859.62
982.015	840.62
982.238	803.62
982.461	830.62
982.684	807.62
982.907	781.62
983.129	776.62
983.352	844.62
983.575	819.62
983.797	817.62
984.02	805.62
984.242	801.62
984.465	797.62
984.687	845.62
984.91	873.62
985.132	857.62
985.354	856.62
985.577	842.62
985.799	822.62
986.021	754.62
986.243	793.62
986.465	800.62
986.687	833.62
986.909	895.62
987.131	832.62
987.353	799.62
987.575	813.62
987.797	796.62
988.019	741.62
988.241	808.62
988.462	763.62
988.684	822.62
988.906	857.62
989.127	871.62
989.349	748.62
989.57	819.62
989.792	838.62
990.013	858.62
990.234	858.62
990.456	879.62
990.677	866.62
990.898	811.62
991.119	799.62
991.341	856.62
991.562	803.62
991.783	832.62
992.004	778.62
992.225	756.62
992.446	846.62
992.667	751.62
992.887	826.62
993.108	721.62
993.329	883.62
993.55	818.62
993.77	764.62
993.991	778.62
994.212	820.62
994.432	803.62
994.653	848.62
994.873	806.62
995.093	718.62
995.314	758.62
995.534	845.62
995.754	854.62
995.975	881.62
996.195	781.62
996.415	822.62
996.635	784.62
996.855	813.62
997.075	802.62
997.295	797.62
997.515	783.62
997.735	814.62
997.955	803.62
998.174	802.62
998.394	769.62
998.614	823.62
998.834	763.62
999.053	848.62
999.273	821.62
999.492	878.62
999.712	809.62
999.931	794.62
1000.151	840.62
1000.37	814.62
1000.589	866.62
1000.809	815.62
1001.028	925.62
1001.247	875.62
1001.466	782.62
1001.685	915.62
1001.904	859.62
1002.123	854.62
1002.342	854.62
1002.561	812.62
1002.78	854.62
1002.999	904.62
1003.218	865.62
1003.436	845.62
1003.655	885.62
1003.874	839.62
1004.092	851.62
1004.311	915.62
1004.53	870.62
1004.748	975.62
1004.966	857.62
1005.185	911.62
1005.403	922.62
1005.622	900.62
1005.84	975.62
1006.058	849.62
1006.276	892.62
1006.494	1395.62
1006.712	883.62
1006.931	965.62
1007.149	866.62
1007.367	1073.62
1007.584	1022.62
1007.802	940.62
1008.02	859.62
1008.238	976.62
1008.456	943.62
1008.673	821.62
1008.891	933.62
1009.109	887.62
1009.326	933.62
1009.544	1336.62
1009.761	2392.62
1009.979	1029.62
1010.196	929.62
1010.413	1013.62
1010.631	998.62
1010.848	1035.62
1011.065	1040.62
1011.282	970.62
1011.5	932.62
1011.717	1035.62
1011.934	972.62
1012.151	1030.62
1012.368	1003.62
1012.585	942.62
1012.801	999.62
1013.018	943.62
1013.235	927.62
1013.452	922.62
1013.669	962.62
1013.885	927.62
1014.102	969.62
1014.318	920.62
1014.535	891.62
1014.751	927.62
1014.968	945.62
1015.184	972.62
1015.401	894.62
1015.617	940.62
1015.833	862.62
1016.049	901.62
1016.266	897.62
1016.482	919.62
1016.698	855.62
1016.914	891.62
1017.13	858.62
1017.346	852.62
1017.562	920.62
1017.778	863.62
1017.993	810.62
1018.209	889.62
1018.425	853.62
1018.641	855.62
1018.856	788.62
1019.072	821.62
1019.288	857.62
1019.503	820.62
1019.719	756.62
1019.934	793.62
1020.149	852.62
1020.365	768.62
1020.58	764.62
1020.795	848.62
1021.011	779.62
1021.226	759.62
1021.441	813.62
1021.656	713.62
1021.871	690.62
1022.086	680.62
1022.301	693.62
1022.516	694.62
1022.731	758.62
1022.946	676.62
1023.16	683.62
1023.375	630.62
1023.59	633.62
1023.804	614.62
1024.019	717.62
1024.234	611.62
1024.448	655.62
1024.663	585.62
1024.877	618.62
1025.092	647.62
1025.306	643.62
1025.52	555.62
1025.734	659.62
1025.949	584.62
1026.163	575.62
1026.377	523.62
1026.591	562.62
1026.805	519.62
1027.019	509.62
1027.233	491.62
1027.447	444.62
1027.661	535.62
1027.875	481.62
1028.088	505.62
1028.302	454.62
1028.516	457.62
1028.73	440.62
1028.943	444.62
1029.157	422.62
1029.37	384.62
1029.584	0.62
1029.797	0.62
1030.011	-2.38
1030.224	-1.38
