Data from QEP037381__105__10-20-52-733.txt Node

Date: Wed Dec 21 10:20:52 EST 2022
User: dcclab
Spectrometer: QEP03738
Trigger mode: 4
Integration Time (sec): 1.000000E1
Scans to average: 1
Electric dark correction enabled: true
Nonlinearity correction enabled: false
Boxcar width: 0
XAxis mode: Wavelengths
Number of Pixels in Spectrum: 1044
>>>>>Begin Spectral Data<<<<<
784.041	13.38
784.3	-0.62
784.558	0.38
784.817	-5.62
785.075	77144.38
785.334	13192.38
785.592	6124.38
785.851	4234.38
786.109	3210.38
786.368	2488.38
786.626	2028.38
786.884	1697.38
787.143	1433.38
787.401	1173.38
787.659	1091.38
787.917	954.38
788.175	862.38
788.433	777.38
788.691	689.38
788.949	655.38
789.207	628.38
789.465	551.38
789.723	530.38
789.98	482.38
790.238	546.38
790.496	495.38
790.753	480.38
791.011	526.38
791.268	455.38
791.526	454.38
791.783	462.38
792.041	459.38
792.298	369.38
792.556	452.38
792.813	431.38
793.07	407.38
793.327	395.38
793.584	476.38
793.841	387.38
794.099	408.38
794.356	455.38
794.613	372.38
794.869	417.38
795.126	375.38
795.383	354.38
795.64	380.38
795.897	331.38
796.153	396.38
796.41	375.38
796.667	361.38
796.923	364.38
797.18	367.38
797.436	399.38
797.693	341.38
797.949	394.38
798.206	424.38
798.462	336.38
798.718	398.38
798.974	366.38
799.231	400.38
799.487	388.38
799.743	379.38
799.999	410.38
800.255	400.38
800.511	353.38
800.767	413.38
801.023	372.38
801.279	395.38
801.534	414.38
801.79	420.38
802.046	417.38
802.302	466.38
802.557	478.38
802.813	527.38
803.068	528.38
803.324	660.38
803.579	769.38
803.835	948.38
804.09	1254.38
804.345	1533.38
804.601	1864.38
804.856	2219.38
805.111	2568.38
805.366	2755.38
805.621	2893.38
805.876	3003.38
806.131	3063.38
806.386	3070.38
806.641	3097.38
806.896	3176.38
807.151	3304.38
807.406	3247.38
807.661	3357.38
807.915	3365.38
808.17	3434.38
808.425	3476.38
808.679	3481.38
808.934	3585.38
809.188	3557.38
809.443	3633.38
809.697	3657.38
809.951	3645.38
810.206	3633.38
810.46	3717.38
810.714	3762.38
810.968	3796.38
811.223	3750.38
811.477	3821.38
811.731	3911.38
811.985	3817.38
812.239	3835.38
812.493	3879.38
812.747	3929.38
813	3876.38
813.254	3939.38
813.508	3972.38
813.762	3941.38
814.015	3975.38
814.269	4041.38
814.522	4075.38
814.776	4095.38
815.03	4160.38
815.283	4168.38
815.536	4265.38
815.79	4375.38
816.043	4355.38
816.296	4452.38
816.55	4461.38
816.803	4502.38
817.056	4659.38
817.309	4630.38
817.562	4676.38
817.815	4745.38
818.068	4691.38
818.321	4761.38
818.574	4808.38
818.827	4932.38
819.079	4949.38
819.332	5125.38
819.585	5111.38
819.838	5225.38
820.09	5166.38
820.343	5241.38
820.595	5172.38
820.848	5301.38
821.1	5304.38
821.353	5325.38
821.605	5272.38
821.857	5357.38
822.11	5251.38
822.362	5267.38
822.614	5217.38
822.866	5314.38
823.118	5256.38
823.37	5369.38
823.622	5381.38
823.874	5368.38
824.126	5416.38
824.378	5410.38
824.63	5449.38
824.882	5500.38
825.134	5433.38
825.385	5421.38
825.637	5429.38
825.888	5383.38
826.14	5333.38
826.392	5313.38
826.643	5264.38
826.895	5377.38
827.146	5226.38
827.397	5200.38
827.649	5287.38
827.9	5186.38
828.151	5200.38
828.402	5205.38
828.653	5250.38
828.905	5281.38
829.156	5276.38
829.407	5224.38
829.658	5237.38
829.909	5347.38
830.159	5319.38
830.41	5267.38
830.661	5276.38
830.912	5194.38
831.162	5186.38
831.413	5186.38
831.664	5278.38
831.914	5264.38
832.165	5255.38
832.415	5274.38
832.666	5260.38
832.916	5259.38
833.167	5212.38
833.417	5282.38
833.667	5199.38
833.917	5240.38
834.168	5290.38
834.418	5263.38
834.668	5213.38
834.918	5156.38
835.168	5186.38
835.418	5117.38
835.668	5178.38
835.918	5174.38
836.167	5123.38
836.417	5078.38
836.667	5138.38
836.917	5153.38
837.166	5126.38
837.416	5137.38
837.666	5096.38
837.915	5042.38
838.165	5024.38
838.414	5011.38
838.663	4953.38
838.913	5011.38
839.162	4985.38
839.411	5032.38
839.661	4915.38
839.91	5012.38
840.159	5030.38
840.408	4967.38
840.657	5009.38
840.906	5037.38
841.155	5032.38
841.404	4989.38
841.653	5019.38
841.902	4977.38
842.15	4965.38
842.399	5054.38
842.648	5018.38
842.897	5044.38
843.145	4912.38
843.394	4894.38
843.642	4886.38
843.891	4959.38
844.139	4893.38
844.388	4798.38
844.636	4801.38
844.884	4799.38
845.133	4832.38
845.381	4847.38
845.629	4831.38
845.877	4818.38
846.125	4840.38
846.373	4815.38
846.621	4815.38
846.869	4851.38
847.117	4804.38
847.365	4718.38
847.613	4762.38
847.861	4732.38
848.108	4772.38
848.356	4720.38
848.604	4714.38
848.851	4754.38
849.099	4724.38
849.346	4748.38
849.594	4819.38
849.841	4820.38
850.089	4802.38
850.336	4798.38
850.583	4841.38
850.831	4846.38
851.078	4810.38
851.325	4868.38
851.572	4957.38
851.819	4884.38
852.066	4709.38
852.313	4593.38
852.56	4480.38
852.807	4503.38
853.054	4496.38
853.301	4588.38
853.548	4573.38
853.794	4706.38
854.041	4642.38
854.288	4648.38
854.534	4745.38
854.781	4657.38
855.028	4639.38
855.274	4692.38
855.52	4607.38
855.767	4526.38
856.013	4615.38
856.26	4940.38
856.506	4566.38
856.752	4564.38
856.998	4547.38
857.244	4507.38
857.49	4607.38
857.736	4597.38
857.982	4607.38
858.228	4588.38
858.474	4523.38
858.72	4507.38
858.966	4446.38
859.212	4400.38
859.458	4360.38
859.703	4363.38
859.949	4273.38
860.195	4293.38
860.44	4310.38
860.686	4217.38
860.931	4307.38
861.177	4179.38
861.422	4230.38
861.667	4189.38
861.913	4170.38
862.158	4177.38
862.403	4231.38
862.648	4268.38
862.893	4293.38
863.138	4223.38
863.384	4236.38
863.629	4234.38
863.873	4252.38
864.118	4160.38
864.363	4196.38
864.608	4222.38
864.853	4246.38
865.098	4193.38
865.342	4132.38
865.587	4082.38
865.832	4123.38
866.076	4161.38
866.321	4067.38
866.565	4132.38
866.81	4049.38
867.054	4064.38
867.298	4099.38
867.543	4037.38
867.787	4069.38
868.031	4045.38
868.275	4051.38
868.519	4009.38
868.764	3998.38
869.008	4031.38
869.252	4054.38
869.496	4025.38
869.739	4024.38
869.983	4083.38
870.227	4075.38
870.471	4044.38
870.715	4106.38
870.958	4075.38
871.202	4089.38
871.446	4068.38
871.689	4032.38
871.933	4060.38
872.176	4084.38
872.42	4069.38
872.663	4054.38
872.906	4063.38
873.15	4019.38
873.393	4024.38
873.636	4077.38
873.879	4025.38
874.122	4055.38
874.366	3910.38
874.609	3918.38
874.852	3838.38
875.095	3864.38
875.337	3806.38
875.58	3763.38
875.823	3747.38
876.066	3801.38
876.309	3882.38
876.551	3703.38
876.794	3724.38
877.037	3780.38
877.279	3690.38
877.522	3691.38
877.764	3772.38
878.007	3683.38
878.249	3691.38
878.491	3661.38
878.734	3744.38
878.976	3679.38
879.218	3609.38
879.46	3673.38
879.702	3675.38
879.945	3570.38
880.187	3544.38
880.429	3536.38
880.671	3518.38
880.912	3550.38
881.154	3540.38
881.396	3414.38
881.638	3499.38
881.88	3501.38
882.121	3445.38
882.363	3462.38
882.605	3532.38
882.846	3473.38
883.088	3541.38
883.329	3487.38
883.571	3465.38
883.812	3496.38
884.053	3617.38
884.295	3730.38
884.536	3873.38
884.777	3773.38
885.018	3746.38
885.259	3782.38
885.5	3686.38
885.742	3952.38
885.982	3667.38
886.223	3563.38
886.464	3587.38
886.705	3567.38
886.946	3497.38
887.187	3407.38
887.428	3442.38
887.668	3327.38
887.909	3272.38
888.15	3236.38
888.39	3251.38
888.631	3296.38
888.871	3239.38
889.111	3166.38
889.352	3172.38
889.592	3151.38
889.833	3128.38
890.073	3112.38
890.313	3130.38
890.553	3006.38
890.793	3047.38
891.033	3023.38
891.273	3039.38
891.513	3027.38
891.753	3079.38
891.993	3023.38
892.233	3035.38
892.473	3126.38
892.713	3048.38
892.952	3025.38
893.192	3071.38
893.432	3037.38
893.671	3068.38
893.911	3036.38
894.15	3064.38
894.39	2946.38
894.629	2968.38
894.869	2988.38
895.108	2931.38
895.347	2903.38
895.587	2962.38
895.826	2914.38
896.065	2898.38
896.304	2960.38
896.543	2935.38
896.782	2848.38
897.021	2953.38
897.26	2909.38
897.499	2954.38
897.738	2975.38
897.977	2856.38
898.216	2856.38
898.454	2868.38
898.693	2767.38
898.932	2856.38
899.17	2791.38
899.409	2799.38
899.647	2788.38
899.886	2732.38
900.124	2797.38
900.363	2749.38
900.601	2812.38
900.839	2824.38
901.078	2840.38
901.316	2870.38
901.554	2860.38
901.792	2898.38
902.03	2821.38
902.268	2872.38
902.506	2925.38
902.744	2859.38
902.982	2877.38
903.22	2786.38
903.458	2701.38
903.695	2721.38
903.933	2711.38
904.171	2620.38
904.409	2596.38
904.646	2633.38
904.884	2530.38
905.121	2563.38
905.359	2520.38
905.596	2470.38
905.833	2412.38
906.071	2422.38
906.308	2464.38
906.545	2401.38
906.783	2419.38
907.02	2454.38
907.257	2395.38
907.494	2379.38
907.731	2393.38
907.968	2417.38
908.205	2398.38
908.442	2356.38
908.679	2348.38
908.915	2331.38
909.152	2352.38
909.389	2241.38
909.626	2296.38
909.862	2282.38
910.099	2303.38
910.335	2308.38
910.572	2208.38
910.808	2243.38
911.045	2237.38
911.281	2239.38
911.518	2288.38
911.754	2226.38
911.99	2222.38
912.226	2165.38
912.463	2146.38
912.699	2142.38
912.935	2166.38
913.171	2137.38
913.407	2081.38
913.643	2163.38
913.879	2125.38
914.114	2086.38
914.35	2046.38
914.586	2065.38
914.822	2020.38
915.057	2133.38
915.293	1960.38
915.529	1982.38
915.764	2085.38
916	2042.38
916.235	2012.38
916.471	2019.38
916.706	1945.38
916.941	1965.38
917.177	1980.38
917.412	2024.38
917.647	2028.38
917.882	1959.38
918.117	2038.38
918.352	2007.38
918.588	2038.38
918.823	1975.38
919.057	1929.38
919.292	1854.38
919.527	1994.38
919.762	1897.38
919.997	1968.38
920.232	1913.38
920.466	1917.38
920.701	1785.38
920.935	1866.38
921.17	1859.38
921.405	1786.38
921.639	1831.38
921.873	1827.38
922.108	1814.38
922.342	1852.38
922.576	1778.38
922.811	1759.38
923.045	1802.38
923.279	1843.38
923.513	1714.38
923.747	1817.38
923.981	1761.38
924.215	1750.38
924.449	1758.38
924.683	1701.38
924.917	1702.38
925.151	1723.38
925.385	1796.38
925.618	1742.38
925.852	1738.38
926.086	1652.38
926.319	1708.38
926.553	1694.38
926.786	1700.38
927.02	1716.38
927.253	1726.38
927.486	1774.38
927.72	1680.38
927.953	1718.38
928.186	1690.38
928.42	1734.38
928.653	1644.38
928.886	1655.38
929.119	1684.38
929.352	1678.38
929.585	1676.38
929.818	1638.38
930.051	1660.38
930.284	1644.38
930.516	1583.38
930.749	1564.38
930.982	1636.38
931.215	1605.38
931.447	1592.38
931.68	1586.38
931.912	1568.38
932.145	1574.38
932.377	1592.38
932.61	1736.38
932.842	1527.38
933.074	1600.38
933.307	1547.38
933.539	1690.38
933.771	1665.38
934.003	1641.38
934.236	1712.38
934.468	1781.38
934.7	1724.38
934.932	1795.38
935.164	1724.38
935.395	1701.38
935.627	1668.38
935.859	1641.38
936.091	1552.38
936.323	1588.38
936.554	1625.38
936.786	1539.38
937.017	1507.38
937.249	1536.38
937.481	1498.38
937.712	1564.38
937.943	1540.38
938.175	1543.38
938.406	1541.38
938.637	1606.38
938.869	1494.38
939.1	1538.38
939.331	1522.38
939.562	1537.38
939.793	1521.38
940.024	1546.38
940.255	1577.38
940.486	1527.38
940.717	1506.38
940.948	1496.38
941.179	1484.38
941.409	1478.38
941.64	1493.38
941.871	1497.38
942.102	1474.38
942.332	1505.38
942.563	1512.38
942.793	1508.38
943.024	1456.38
943.254	1470.38
943.484	1545.38
943.715	1532.38
943.945	1493.38
944.175	1429.38
944.405	1406.38
944.636	1439.38
944.866	1487.38
945.096	1464.38
945.326	1400.38
945.556	1496.38
945.786	1528.38
946.016	1463.38
946.245	1402.38
946.475	1403.38
946.705	1428.38
946.935	1426.38
947.164	1453.38
947.394	1403.38
947.624	1427.38
947.853	1470.38
948.083	1427.38
948.312	1394.38
948.542	1382.38
948.771	1351.38
949	1355.38
949.23	1380.38
949.459	1381.38
949.688	1461.38
949.917	1382.38
950.146	1406.38
950.375	1437.38
950.604	1347.38
950.833	1464.38
951.062	1470.38
951.291	1399.38
951.52	1345.38
951.749	1405.38
951.978	1330.38
952.206	1368.38
952.435	1342.38
952.664	1391.38
952.892	1415.38
953.121	1379.38
953.349	1400.38
953.578	1390.38
953.806	1347.38
954.035	1319.38
954.263	1346.38
954.491	1303.38
954.719	1360.38
954.948	1316.38
955.176	1323.38
955.404	1241.38
955.632	1323.38
955.86	1331.38
956.088	1345.38
956.316	1339.38
956.544	1370.38
956.772	1324.38
956.999	1268.38
957.227	1377.38
957.455	1280.38
957.683	1309.38
957.91	1250.38
958.138	1258.38
958.365	1283.38
958.593	1251.38
958.82	1222.38
959.048	1306.38
959.275	1274.38
959.502	1242.38
959.73	1241.38
959.957	1297.38
960.184	1339.38
960.411	1302.38
960.638	1350.38
960.865	1264.38
961.092	1300.38
961.319	1222.38
961.546	1318.38
961.773	1324.38
962	1261.38
962.227	1296.38
962.454	1270.38
962.68	1254.38
962.907	1267.38
963.134	1228.38
963.36	1278.38
963.587	1293.38
963.813	1211.38
964.04	1255.38
964.266	1194.38
964.493	1308.38
964.719	1265.38
964.945	1270.38
965.171	1182.38
965.398	1260.38
965.624	1234.38
965.85	1193.38
966.076	1190.38
966.302	1226.38
966.528	1195.38
966.754	1224.38
966.98	1228.38
967.206	1207.38
967.431	1119.38
967.657	1248.38
967.883	1229.38
968.109	1233.38
968.334	1190.38
968.56	1158.38
968.785	1170.38
969.011	1140.38
969.236	1215.38
969.462	1155.38
969.687	1164.38
969.912	1227.38
970.138	1234.38
970.363	1153.38
970.588	1185.38
970.813	1166.38
971.038	1127.38
971.263	1177.38
971.488	1184.38
971.713	1197.38
971.938	1167.38
972.163	1101.38
972.388	1153.38
972.613	1133.38
972.838	1140.38
973.062	1136.38
973.287	1121.38
973.512	1058.38
973.736	1121.38
973.961	1118.38
974.185	1083.38
974.41	1150.38
974.634	1042.38
974.858	1093.38
975.083	1107.38
975.307	1138.38
975.531	1108.38
975.755	1044.38
975.98	1052.38
976.204	1013.38
976.428	1018.38
976.652	1007.38
976.876	1018.38
977.1	1037.38
977.324	1037.38
977.547	1063.38
977.771	1061.38
977.995	1053.38
978.219	1006.38
978.442	1122.38
978.666	1044.38
978.89	1054.38
979.113	1061.38
979.337	1034.38
979.56	1030.38
979.783	1087.38
980.007	1004.38
980.23	1026.38
980.453	996.38
980.677	1038.38
980.9	1042.38
981.123	949.38
981.346	1024.38
981.569	1024.38
981.792	1042.38
982.015	991.38
982.238	968.38
982.461	993.38
982.684	966.38
982.907	971.38
983.129	972.38
983.352	1025.38
983.575	1005.38
983.797	1005.38
984.02	971.38
984.242	972.38
984.465	997.38
984.687	1014.38
984.91	1013.38
985.132	1030.38
985.354	1024.38
985.577	1008.38
985.799	989.38
986.021	917.38
986.243	952.38
986.465	970.38
986.687	1032.38
986.909	1068.38
987.131	991.38
987.353	950.38
987.575	984.38
987.797	982.38
988.019	900.38
988.241	982.38
988.462	944.38
988.684	982.38
988.906	1015.38
989.127	1038.38
989.349	933.38
989.57	984.38
989.792	998.38
990.013	1026.38
990.234	1021.38
990.456	1066.38
990.677	1025.38
990.898	988.38
991.119	988.38
991.341	1005.38
991.562	932.38
991.783	986.38
992.004	937.38
992.225	903.38
992.446	985.38
992.667	895.38
992.887	991.38
993.108	861.38
993.329	1016.38
993.55	942.38
993.77	905.38
993.991	913.38
994.212	977.38
994.432	941.38
994.653	976.38
994.873	948.38
995.093	860.38
995.314	926.38
995.534	976.38
995.754	979.38
995.975	1021.38
996.195	885.38
996.415	972.38
996.635	955.38
996.855	964.38
997.075	917.38
997.295	930.38
997.515	911.38
997.735	974.38
997.955	938.38
998.174	928.38
998.394	905.38
998.614	951.38
998.834	923.38
999.053	979.38
999.273	959.38
999.492	1022.38
999.712	962.38
999.931	927.38
1000.151	960.38
1000.37	942.38
1000.589	1017.38
1000.809	942.38
1001.028	1064.38
1001.247	976.38
1001.466	897.38
1001.685	1048.38
1001.904	978.38
1002.123	980.38
1002.342	1005.38
1002.561	929.38
1002.78	972.38
1002.999	1045.38
1003.218	985.38
1003.436	960.38
1003.655	1003.38
1003.874	935.38
1004.092	970.38
1004.311	1017.38
1004.53	982.38
1004.748	1043.38
1004.966	961.38
1005.185	1040.38
1005.403	1023.38
1005.622	1003.38
1005.84	1064.38
1006.058	995.38
1006.276	1002.38
1006.494	1496.38
1006.712	1013.38
1006.931	1080.38
1007.149	980.38
1007.367	987.38
1007.584	1024.38
1007.802	1068.38
1008.02	994.38
1008.238	1082.38
1008.456	1089.38
1008.673	966.38
1008.891	1041.38
1009.109	985.38
1009.326	1060.38
1009.544	1141.38
1009.761	1044.38
1009.979	1102.38
1010.196	1100.38
1010.413	1162.38
1010.631	1212.38
1010.848	1250.38
1011.065	1217.38
1011.282	1182.38
1011.5	1128.38
1011.717	1213.38
1011.934	1214.38
1012.151	1212.38
1012.368	1195.38
1012.585	1160.38
1012.801	1189.38
1013.018	1176.38
1013.235	1123.38
1013.452	1133.38
1013.669	1149.38
1013.885	1132.38
1014.102	1153.38
1014.318	1123.38
1014.535	1095.38
1014.751	1140.38
1014.968	1149.38
1015.184	1174.38
1015.401	1094.38
1015.617	1121.38
1015.833	1065.38
1016.049	1088.38
1016.266	1082.38
1016.482	1091.38
1016.698	1024.38
1016.914	1082.38
1017.13	1025.38
1017.346	1004.38
1017.562	1119.38
1017.778	1048.38
1017.993	1009.38
1018.209	1083.38
1018.425	1066.38
1018.641	1016.38
1018.856	1008.38
1019.072	1028.38
1019.288	1071.38
1019.503	1030.38
1019.719	944.38
1019.934	951.38
1020.149	1034.38
1020.365	999.38
1020.58	953.38
1020.795	992.38
1021.011	943.38
1021.226	941.38
1021.441	950.38
1021.656	888.38
1021.871	826.38
1022.086	842.38
1022.301	836.38
1022.516	831.38
1022.731	932.38
1022.946	802.38
1023.16	804.38
1023.375	770.38
1023.59	756.38
1023.804	731.38
1024.019	844.38
1024.234	726.38
1024.448	743.38
1024.663	702.38
1024.877	712.38
1025.092	734.38
1025.306	735.38
1025.52	652.38
1025.734	730.38
1025.949	679.38
1026.163	646.38
1026.377	608.38
1026.591	629.38
1026.805	574.38
1027.019	590.38
1027.233	559.38
1027.447	517.38
1027.661	618.38
1027.875	561.38
1028.088	564.38
1028.302	496.38
1028.516	491.38
1028.73	511.38
1028.943	502.38
1029.157	461.38
1029.37	419.38
1029.584	-0.62
1029.797	-4.62
1030.011	-0.62
1030.224	-1.62
