Data from QEP037381__108__10-21-22-732.txt Node

Date: Wed Dec 21 10:21:22 EST 2022
User: dcclab
Spectrometer: QEP03738
Trigger mode: 4
Integration Time (sec): 1.000000E1
Scans to average: 1
Electric dark correction enabled: true
Nonlinearity correction enabled: false
Boxcar width: 0
XAxis mode: Wavelengths
Number of Pixels in Spectrum: 1044
>>>>>Begin Spectral Data<<<<<
784.041	13.62
784.3	0.62
784.558	-2.38
784.817	-8.38
785.075	82770.62
785.334	13959.62
785.592	6384.62
785.851	4407.62
786.109	3304.62
786.368	2607.62
786.626	2075.62
786.884	1723.62
787.143	1462.62
787.401	1211.62
787.659	1103.62
787.917	956.62
788.175	890.62
788.433	767.62
788.691	713.62
788.949	654.62
789.207	637.62
789.465	547.62
789.723	540.62
789.98	502.62
790.238	553.62
790.496	495.62
790.753	473.62
791.011	528.62
791.268	477.62
791.526	457.62
791.783	473.62
792.041	458.62
792.298	382.62
792.556	445.62
792.813	430.62
793.07	412.62
793.327	400.62
793.584	468.62
793.841	389.62
794.099	406.62
794.356	476.62
794.613	375.62
794.869	405.62
795.126	387.62
795.383	351.62
795.64	385.62
795.897	332.62
796.153	392.62
796.41	381.62
796.667	356.62
796.923	370.62
797.18	370.62
797.436	401.62
797.693	350.62
797.949	412.62
798.206	424.62
798.462	340.62
798.718	405.62
798.974	366.62
799.231	386.62
799.487	397.62
799.743	401.62
799.999	426.62
800.255	398.62
800.511	368.62
800.767	411.62
801.023	394.62
801.279	405.62
801.534	425.62
801.79	450.62
802.046	429.62
802.302	490.62
802.557	482.62
802.813	562.62
803.068	580.62
803.324	729.62
803.579	877.62
803.835	1101.62
804.09	1486.62
804.345	1812.62
804.601	2235.62
804.856	2706.62
805.111	3189.62
805.366	3434.62
805.621	3598.62
805.876	3763.62
806.131	3790.62
806.386	3840.62
806.641	3887.62
806.896	3986.62
807.151	4104.62
807.406	4057.62
807.661	4183.62
807.915	4229.62
808.17	4356.62
808.425	4371.62
808.679	4356.62
808.934	4495.62
809.188	4497.62
809.443	4579.62
809.697	4609.62
809.951	4571.62
810.206	4635.62
810.46	4728.62
810.714	4694.62
810.968	4805.62
811.223	4780.62
811.477	4828.62
811.731	4877.62
811.985	4837.62
812.239	4842.62
812.493	4904.62
812.747	4965.62
813	4934.62
813.254	4998.62
813.508	5074.62
813.762	5062.62
814.015	5068.62
814.269	5047.62
814.522	5158.62
814.776	5252.62
815.03	5313.62
815.283	5391.62
815.536	5394.62
815.79	5534.62
816.043	5607.62
816.296	5658.62
816.55	5723.62
816.803	5780.62
817.056	5828.62
817.309	5892.62
817.562	5935.62
817.815	6071.62
818.068	6038.62
818.321	6071.62
818.574	6166.62
818.827	6322.62
819.079	6326.62
819.332	6556.62
819.585	6598.62
819.838	6736.62
820.09	6698.62
820.343	6748.62
820.595	6768.62
820.848	6844.62
821.1	6869.62
821.353	6823.62
821.605	6832.62
821.857	6872.62
822.11	6854.62
822.362	6760.62
822.614	6804.62
822.866	6831.62
823.118	6798.62
823.37	6896.62
823.622	6902.62
823.874	6939.62
824.126	7009.62
824.378	6950.62
824.63	7008.62
824.882	7038.62
825.134	7057.62
825.385	7056.62
825.637	6949.62
825.888	6971.62
826.14	6975.62
826.392	6850.62
826.643	6787.62
826.895	6902.62
827.146	6830.62
827.397	6774.62
827.649	6828.62
827.9	6761.62
828.151	6779.62
828.402	6807.62
828.653	6858.62
828.905	6866.62
829.156	6908.62
829.407	6892.62
829.658	6848.62
829.909	6898.62
830.159	6883.62
830.41	6866.62
830.661	6820.62
830.912	6739.62
831.162	6766.62
831.413	6718.62
831.664	6748.62
831.914	6682.62
832.165	6781.62
832.415	6885.62
832.666	6799.62
832.916	6825.62
833.167	6764.62
833.417	6810.62
833.667	6756.62
833.917	6738.62
834.168	6745.62
834.418	6759.62
834.668	6709.62
834.918	6677.62
835.168	6691.62
835.418	6626.62
835.668	6652.62
835.918	6687.62
836.167	6661.62
836.417	6568.62
836.667	6718.62
836.917	6647.62
837.166	6565.62
837.416	6618.62
837.666	6592.62
837.915	6519.62
838.165	6539.62
838.414	6509.62
838.663	6450.62
838.913	6525.62
839.162	6493.62
839.411	6559.62
839.661	6444.62
839.91	6475.62
840.159	6465.62
840.408	6458.62
840.657	6508.62
840.906	6525.62
841.155	6551.62
841.404	6438.62
841.653	6498.62
841.902	6438.62
842.15	6504.62
842.399	6532.62
842.648	6454.62
842.897	6484.62
843.145	6448.62
843.394	6375.62
843.642	6366.62
843.891	6382.62
844.139	6348.62
844.388	6259.62
844.636	6243.62
844.884	6306.62
845.133	6248.62
845.381	6272.62
845.629	6280.62
845.877	6230.62
846.125	6256.62
846.373	6233.62
846.621	6177.62
846.869	6226.62
847.117	6192.62
847.365	6155.62
847.613	6164.62
847.861	6129.62
848.108	6187.62
848.356	6117.62
848.604	6095.62
848.851	6165.62
849.099	6122.62
849.346	6154.62
849.594	6186.62
849.841	6260.62
850.089	6202.62
850.336	6192.62
850.583	6209.62
850.831	6211.62
851.078	6191.62
851.325	6186.62
851.572	6322.62
851.819	6251.62
852.066	6066.62
852.313	5949.62
852.56	5828.62
852.807	5812.62
853.054	5826.62
853.301	5865.62
853.548	5931.62
853.794	6047.62
854.041	5980.62
854.288	5980.62
854.534	6138.62
854.781	6022.62
855.028	5974.62
855.274	6058.62
855.52	5968.62
855.767	5871.62
856.013	5950.62
856.26	6207.62
856.506	5840.62
856.752	5883.62
856.998	5843.62
857.244	5829.62
857.49	5919.62
857.736	5936.62
857.982	5917.62
858.228	5897.62
858.474	5831.62
858.72	5827.62
858.966	5759.62
859.212	5733.62
859.458	5677.62
859.703	5626.62
859.949	5515.62
860.195	5577.62
860.44	5495.62
860.686	5438.62
860.931	5549.62
861.177	5484.62
861.422	5488.62
861.667	5422.62
861.913	5421.62
862.158	5427.62
862.403	5506.62
862.648	5509.62
862.893	5533.62
863.138	5451.62
863.384	5403.62
863.629	5506.62
863.873	5447.62
864.118	5451.62
864.363	5341.62
864.608	5424.62
864.853	5416.62
865.098	5413.62
865.342	5396.62
865.587	5344.62
865.832	5323.62
866.076	5331.62
866.321	5309.62
866.565	5257.62
866.81	5192.62
867.054	5267.62
867.298	5289.62
867.543	5227.62
867.787	5248.62
868.031	5277.62
868.275	5228.62
868.519	5236.62
868.764	5237.62
869.008	5198.62
869.252	5210.62
869.496	5175.62
869.739	5177.62
869.983	5177.62
870.227	5227.62
870.471	5167.62
870.715	5209.62
870.958	5286.62
871.202	5238.62
871.446	5207.62
871.689	5204.62
871.933	5239.62
872.176	5180.62
872.42	5181.62
872.663	5207.62
872.906	5277.62
873.15	5230.62
873.393	5145.62
873.636	5271.62
873.879	5189.62
874.122	5119.62
874.366	5023.62
874.609	5035.62
874.852	4964.62
875.095	4941.62
875.337	4874.62
875.58	4822.62
875.823	4849.62
876.066	4916.62
876.309	4921.62
876.551	4823.62
876.794	4790.62
877.037	4810.62
877.279	4749.62
877.522	4779.62
877.764	4825.62
878.007	4758.62
878.249	4788.62
878.491	4746.62
878.734	4783.62
878.976	4726.62
879.218	4672.62
879.46	4765.62
879.702	4681.62
879.945	4637.62
880.187	4578.62
880.429	4547.62
880.671	4559.62
880.912	4554.62
881.154	4530.62
881.396	4437.62
881.638	4518.62
881.88	4489.62
882.121	4456.62
882.363	4494.62
882.605	4564.62
882.846	4533.62
883.088	4522.62
883.329	4479.62
883.571	4492.62
883.812	4536.62
884.053	4570.62
884.295	4722.62
884.536	4788.62
884.777	4737.62
885.018	4759.62
885.259	4736.62
885.5	4716.62
885.742	4960.62
885.982	4675.62
886.223	4584.62
886.464	4553.62
886.705	4487.62
886.946	4508.62
887.187	4392.62
887.428	4416.62
887.668	4340.62
887.909	4239.62
888.15	4191.62
888.39	4198.62
888.631	4255.62
888.871	4158.62
889.111	4144.62
889.352	4096.62
889.592	4059.62
889.833	4047.62
890.073	3994.62
890.313	4027.62
890.553	3881.62
890.793	3927.62
891.033	3862.62
891.273	3893.62
891.513	3896.62
891.753	3982.62
891.993	3907.62
892.233	3883.62
892.473	4013.62
892.713	3938.62
892.952	3887.62
893.192	3917.62
893.432	3907.62
893.671	3961.62
893.911	3924.62
894.15	3920.62
894.39	3777.62
894.629	3833.62
894.869	3836.62
895.108	3788.62
895.347	3770.62
895.587	3778.62
895.826	3747.62
896.065	3696.62
896.304	3782.62
896.543	3776.62
896.782	3641.62
897.021	3752.62
897.26	3734.62
897.499	3793.62
897.738	3789.62
897.977	3694.62
898.216	3688.62
898.454	3606.62
898.693	3603.62
898.932	3635.62
899.17	3573.62
899.409	3625.62
899.647	3569.62
899.886	3558.62
900.124	3660.62
900.363	3558.62
900.601	3608.62
900.839	3662.62
901.078	3612.62
901.316	3616.62
901.554	3616.62
901.792	3648.62
902.03	3648.62
902.268	3657.62
902.506	3686.62
902.744	3636.62
902.982	3652.62
903.22	3527.62
903.458	3506.62
903.695	3540.62
903.933	3466.62
904.171	3349.62
904.409	3269.62
904.646	3334.62
904.884	3230.62
905.121	3250.62
905.359	3229.62
905.596	3192.62
905.833	3136.62
906.071	3097.62
906.308	3160.62
906.545	3128.62
906.783	3082.62
907.02	3135.62
907.257	3067.62
907.494	3088.62
907.731	3091.62
907.968	3131.62
908.205	3062.62
908.442	3029.62
908.679	2988.62
908.915	3010.62
909.152	3006.62
909.389	2919.62
909.626	2942.62
909.862	2941.62
910.099	2925.62
910.335	2975.62
910.572	2837.62
910.808	2924.62
911.045	2853.62
911.281	2807.62
911.518	2934.62
911.754	2849.62
911.99	2852.62
912.226	2814.62
912.463	2770.62
912.699	2783.62
912.935	2801.62
913.171	2772.62
913.407	2706.62
913.643	2752.62
913.879	2689.62
914.114	2673.62
914.35	2644.62
914.586	2631.62
914.822	2597.62
915.057	2704.62
915.293	2563.62
915.529	2535.62
915.764	2584.62
916	2617.62
916.235	2558.62
916.471	2593.62
916.706	2524.62
916.941	2550.62
917.177	2510.62
917.412	2581.62
917.647	2555.62
917.882	2518.62
918.117	2573.62
918.352	2532.62
918.588	2603.62
918.823	2498.62
919.057	2467.62
919.292	2390.62
919.527	2507.62
919.762	2449.62
919.997	2447.62
920.232	2392.62
920.466	2428.62
920.701	2303.62
920.935	2347.62
921.17	2332.62
921.405	2273.62
921.639	2348.62
921.873	2282.62
922.108	2314.62
922.342	2355.62
922.576	2247.62
922.811	2257.62
923.045	2289.62
923.279	2329.62
923.513	2208.62
923.747	2305.62
923.981	2273.62
924.215	2195.62
924.449	2182.62
924.683	2172.62
924.917	2216.62
925.151	2157.62
925.385	2279.62
925.618	2194.62
925.852	2188.62
926.086	2107.62
926.319	2205.62
926.553	2180.62
926.786	2181.62
927.02	2165.62
927.253	2205.62
927.486	2228.62
927.72	2123.62
927.953	2222.62
928.186	2113.62
928.42	2200.62
928.653	2097.62
928.886	2079.62
929.119	2137.62
929.352	2130.62
929.585	2104.62
929.818	2084.62
930.051	2111.62
930.284	2086.62
930.516	1993.62
930.749	1999.62
930.982	2052.62
931.215	2046.62
931.447	1976.62
931.68	2014.62
931.912	1983.62
932.145	1972.62
932.377	2015.62
932.61	2116.62
932.842	1947.62
933.074	1994.62
933.307	1983.62
933.539	2054.62
933.771	2028.62
934.003	1987.62
934.236	2077.62
934.468	2098.62
934.7	2020.62
934.932	2018.62
935.164	1961.62
935.395	1959.62
935.627	1982.62
935.859	2010.62
936.091	1933.62
936.323	1989.62
936.554	1981.62
936.786	1940.62
937.017	1882.62
937.249	1952.62
937.481	1870.62
937.712	1943.62
937.943	1937.62
938.175	1912.62
938.406	1904.62
938.637	1979.62
938.869	1878.62
939.1	1923.62
939.331	1891.62
939.562	1933.62
939.793	1937.62
940.024	1940.62
940.255	1946.62
940.486	1891.62
940.717	1896.62
940.948	1897.62
941.179	1865.62
941.409	1859.62
941.64	1867.62
941.871	1867.62
942.102	1883.62
942.332	1876.62
942.563	1928.62
942.793	1884.62
943.024	1810.62
943.254	1847.62
943.484	1927.62
943.715	1927.62
943.945	1877.62
944.175	1795.62
944.405	1809.62
944.636	1793.62
944.866	1875.62
945.096	1870.62
945.326	1810.62
945.556	1854.62
945.786	1860.62
946.016	1826.62
946.245	1785.62
946.475	1791.62
946.705	1784.62
946.935	1794.62
947.164	1830.62
947.394	1770.62
947.624	1763.62
947.853	1817.62
948.083	1761.62
948.312	1746.62
948.542	1669.62
948.771	1699.62
949	1712.62
949.23	1714.62
949.459	1749.62
949.688	1811.62
949.917	1714.62
950.146	1732.62
950.375	1787.62
950.604	1725.62
950.833	1812.62
951.062	1816.62
951.291	1733.62
951.52	1733.62
951.749	1729.62
951.978	1672.62
952.206	1700.62
952.435	1692.62
952.664	1722.62
952.892	1749.62
953.121	1706.62
953.349	1745.62
953.578	1720.62
953.806	1689.62
954.035	1656.62
954.263	1687.62
954.491	1653.62
954.719	1688.62
954.948	1651.62
955.176	1620.62
955.404	1578.62
955.632	1678.62
955.86	1681.62
956.088	1659.62
956.316	1657.62
956.544	1706.62
956.772	1630.62
956.999	1606.62
957.227	1683.62
957.455	1599.62
957.683	1604.62
957.91	1570.62
958.138	1561.62
958.365	1600.62
958.593	1602.62
958.82	1537.62
959.048	1609.62
959.275	1589.62
959.502	1567.62
959.73	1514.62
959.957	1584.62
960.184	1643.62
960.411	1568.62
960.638	1639.62
960.865	1577.62
961.092	1598.62
961.319	1503.62
961.546	1584.62
961.773	1574.62
962	1558.62
962.227	1612.62
962.454	1552.62
962.68	1542.62
962.907	1562.62
963.134	1519.62
963.36	1556.62
963.587	1559.62
963.813	1503.62
964.04	1560.62
964.266	1498.62
964.493	1555.62
964.719	1568.62
964.945	1542.62
965.171	1434.62
965.398	1492.62
965.624	1508.62
965.85	1455.62
966.076	1474.62
966.302	1515.62
966.528	1452.62
966.754	1503.62
966.98	1491.62
967.206	1468.62
967.431	1404.62
967.657	1511.62
967.883	1495.62
968.109	1464.62
968.334	1415.62
968.56	1417.62
968.785	1440.62
969.011	1403.62
969.236	1472.62
969.462	1395.62
969.687	1431.62
969.912	1488.62
970.138	1463.62
970.363	1415.62
970.588	1426.62
970.813	1407.62
971.038	1361.62
971.263	1425.62
971.488	1407.62
971.713	1440.62
971.938	1431.62
972.163	1356.62
972.388	1391.62
972.613	1362.62
972.838	1371.62
973.062	1353.62
973.287	1370.62
973.512	1313.62
973.736	1371.62
973.961	1352.62
974.185	1344.62
974.41	1385.62
974.634	1281.62
974.858	1308.62
975.083	1340.62
975.307	1346.62
975.531	1311.62
975.755	1284.62
975.98	1290.62
976.204	1232.62
976.428	1232.62
976.652	1219.62
976.876	1230.62
977.1	1261.62
977.324	1223.62
977.547	1281.62
977.771	1280.62
977.995	1251.62
978.219	1194.62
978.442	1316.62
978.666	1264.62
978.89	1282.62
979.113	1233.62
979.337	1256.62
979.56	1208.62
979.783	1300.62
980.007	1203.62
980.23	1237.62
980.453	1201.62
980.677	1226.62
980.9	1218.62
981.123	1135.62
981.346	1252.62
981.569	1236.62
981.792	1268.62
982.015	1192.62
982.238	1187.62
982.461	1196.62
982.684	1162.62
982.907	1153.62
983.129	1168.62
983.352	1220.62
983.575	1174.62
983.797	1200.62
984.02	1149.62
984.242	1143.62
984.465	1161.62
984.687	1203.62
984.91	1222.62
985.132	1193.62
985.354	1215.62
985.577	1187.62
985.799	1206.62
986.021	1118.62
986.243	1132.62
986.465	1151.62
986.687	1192.62
986.909	1218.62
987.131	1175.62
987.353	1134.62
987.575	1173.62
987.797	1151.62
988.019	1072.62
988.241	1146.62
988.462	1093.62
988.684	1166.62
988.906	1189.62
989.127	1196.62
989.349	1121.62
989.57	1148.62
989.792	1197.62
990.013	1178.62
990.234	1182.62
990.456	1195.62
990.677	1171.62
990.898	1150.62
991.119	1126.62
991.341	1181.62
991.562	1094.62
991.783	1155.62
992.004	1080.62
992.225	1060.62
992.446	1120.62
992.667	1054.62
992.887	1136.62
993.108	1050.62
993.329	1182.62
993.55	1118.62
993.77	1056.62
993.991	1061.62
994.212	1111.62
994.432	1094.62
994.653	1094.62
994.873	1143.62
995.093	994.62
995.314	1058.62
995.534	1123.62
995.754	1127.62
995.975	1139.62
996.195	1052.62
996.415	1088.62
996.635	1094.62
996.855	1090.62
997.075	1064.62
997.295	1064.62
997.515	1062.62
997.735	1090.62
997.955	1052.62
998.174	1060.62
998.394	1023.62
998.614	1083.62
998.834	1044.62
999.053	1133.62
999.273	1062.62
999.492	1138.62
999.712	1088.62
999.931	1054.62
1000.151	1095.62
1000.37	1078.62
1000.589	1159.62
1000.809	1064.62
1001.028	1168.62
1001.247	1118.62
1001.466	1017.62
1001.685	1170.62
1001.904	1091.62
1002.123	1108.62
1002.342	1095.62
1002.561	1070.62
1002.78	1089.62
1002.999	1152.62
1003.218	1104.62
1003.436	1092.62
1003.655	1127.62
1003.874	1069.62
1004.092	1070.62
1004.311	1114.62
1004.53	1084.62
1004.748	1162.62
1004.966	1077.62
1005.185	1150.62
1005.403	1153.62
1005.622	1134.62
1005.84	1176.62
1006.058	1085.62
1006.276	1111.62
1006.494	1637.62
1006.712	1103.62
1006.931	1157.62
1007.149	1066.62
1007.367	1079.62
1007.584	1123.62
1007.802	1154.62
1008.02	1109.62
1008.238	1194.62
1008.456	1200.62
1008.673	1045.62
1008.891	1168.62
1009.109	1117.62
1009.326	1156.62
1009.544	1225.62
1009.761	1156.62
1009.979	1198.62
1010.196	1187.62
1010.413	1282.62
1010.631	1331.62
1010.848	1331.62
1011.065	1335.62
1011.282	1285.62
1011.5	1214.62
1011.717	1322.62
1011.934	1285.62
1012.151	1315.62
1012.368	1310.62
1012.585	1211.62
1012.801	1279.62
1013.018	1278.62
1013.235	1225.62
1013.452	1235.62
1013.669	1253.62
1013.885	1255.62
1014.102	1272.62
1014.318	1243.62
1014.535	1203.62
1014.751	1230.62
1014.968	1235.62
1015.184	1282.62
1015.401	1180.62
1015.617	1211.62
1015.833	1180.62
1016.049	1193.62
1016.266	1160.62
1016.482	1175.62
1016.698	1105.62
1016.914	1157.62
1017.13	1114.62
1017.346	1110.62
1017.562	1180.62
1017.778	1128.62
1017.993	1091.62
1018.209	1178.62
1018.425	1139.62
1018.641	1098.62
1018.856	1095.62
1019.072	1120.62
1019.288	1159.62
1019.503	1113.62
1019.719	1021.62
1019.934	1034.62
1020.149	1151.62
1020.365	1060.62
1020.58	1041.62
1020.795	1060.62
1021.011	1020.62
1021.226	1012.62
1021.441	1033.62
1021.656	952.62
1021.871	906.62
1022.086	917.62
1022.301	900.62
1022.516	891.62
1022.731	988.62
1022.946	899.62
1023.16	858.62
1023.375	826.62
1023.59	822.62
1023.804	804.62
1024.019	891.62
1024.234	774.62
1024.448	819.62
1024.663	745.62
1024.877	769.62
1025.092	803.62
1025.306	794.62
1025.52	716.62
1025.734	788.62
1025.949	705.62
1026.163	709.62
1026.377	638.62
1026.591	701.62
1026.805	646.62
1027.019	618.62
1027.233	601.62
1027.447	564.62
1027.661	655.62
1027.875	586.62
1028.088	616.62
1028.302	564.62
1028.516	541.62
1028.73	532.62
1028.943	551.62
1029.157	502.62
1029.37	470.62
1029.584	-1.38
1029.797	-0.38
1030.011	1.62
1030.224	-3.38
