Data from QEP037381__93__10-18-52-734.txt Node

Date: Wed Dec 21 10:18:52 EST 2022
User: dcclab
Spectrometer: QEP03738
Trigger mode: 4
Integration Time (sec): 1.000000E1
Scans to average: 1
Electric dark correction enabled: true
Nonlinearity correction enabled: false
Boxcar width: 0
XAxis mode: Wavelengths
Number of Pixels in Spectrum: 1044
>>>>>Begin Spectral Data<<<<<
784.041	11.38
784.3	-0.62
784.558	-3.62
784.817	0.38
785.075	81656.38
785.334	13990.38
785.592	6566.38
785.851	4540.38
786.109	3391.38
786.368	2615.38
786.626	2140.38
786.884	1767.38
787.143	1483.38
787.401	1223.38
787.659	1106.38
787.917	963.38
788.175	880.38
788.433	782.38
788.691	706.38
788.949	654.38
789.207	646.38
789.465	558.38
789.723	541.38
789.98	500.38
790.238	531.38
790.496	511.38
790.753	485.38
791.011	522.38
791.268	469.38
791.526	470.38
791.783	492.38
792.041	465.38
792.298	380.38
792.556	450.38
792.813	420.38
793.07	390.38
793.327	394.38
793.584	465.38
793.841	392.38
794.099	415.38
794.356	461.38
794.613	366.38
794.869	410.38
795.126	377.38
795.383	360.38
795.64	382.38
795.897	323.38
796.153	383.38
796.41	381.38
796.667	345.38
796.923	369.38
797.18	372.38
797.436	389.38
797.693	343.38
797.949	405.38
798.206	413.38
798.462	332.38
798.718	406.38
798.974	371.38
799.231	409.38
799.487	392.38
799.743	388.38
799.999	416.38
800.255	400.38
800.511	373.38
800.767	408.38
801.023	399.38
801.279	402.38
801.534	423.38
801.79	434.38
802.046	400.38
802.302	474.38
802.557	488.38
802.813	551.38
803.068	554.38
803.324	692.38
803.579	814.38
803.835	1031.38
804.09	1374.38
804.345	1646.38
804.601	2017.38
804.856	2456.38
805.111	2784.38
805.366	2978.38
805.621	3147.38
805.876	3272.38
806.131	3334.38
806.386	3356.38
806.641	3378.38
806.896	3477.38
807.151	3608.38
807.406	3586.38
807.661	3651.38
807.915	3667.38
808.17	3737.38
808.425	3770.38
808.679	3767.38
808.934	3895.38
809.188	3851.38
809.443	3911.38
809.697	4019.38
809.951	3940.38
810.206	4054.38
810.46	4046.38
810.714	4103.38
810.968	4203.38
811.223	4085.38
811.477	4190.38
811.731	4239.38
811.985	4151.38
812.239	4154.38
812.493	4220.38
812.747	4276.38
813	4239.38
813.254	4343.38
813.508	4350.38
813.762	4348.38
814.015	4323.38
814.269	4433.38
814.522	4430.38
814.776	4502.38
815.03	4561.38
815.283	4659.38
815.536	4645.38
815.79	4768.38
816.043	4818.38
816.296	4804.38
816.55	4898.38
816.803	4926.38
817.056	5047.38
817.309	5036.38
817.562	5100.38
817.815	5168.38
818.068	5108.38
818.321	5212.38
818.574	5273.38
818.827	5372.38
819.079	5426.38
819.332	5625.38
819.585	5579.38
819.838	5682.38
820.09	5661.38
820.343	5802.38
820.595	5711.38
820.848	5802.38
821.1	5796.38
821.353	5795.38
821.605	5825.38
821.857	5836.38
822.11	5750.38
822.362	5856.38
822.614	5758.38
822.866	5825.38
823.118	5805.38
823.37	5873.38
823.622	5867.38
823.874	5912.38
824.126	6007.38
824.378	5941.38
824.63	5997.38
824.882	5939.38
825.134	5951.38
825.385	5960.38
825.637	5930.38
825.888	5880.38
826.14	5812.38
826.392	5821.38
826.643	5809.38
826.895	5835.38
827.146	5743.38
827.397	5741.38
827.649	5781.38
827.9	5722.38
828.151	5657.38
828.402	5709.38
828.653	5773.38
828.905	5805.38
829.156	5851.38
829.407	5764.38
829.658	5801.38
829.909	5832.38
830.159	5796.38
830.41	5832.38
830.661	5785.38
830.912	5676.38
831.162	5712.38
831.413	5689.38
831.664	5750.38
831.914	5721.38
832.165	5648.38
832.415	5658.38
832.666	5728.38
832.916	5752.38
833.167	5709.38
833.417	5779.38
833.667	5713.38
833.917	5672.38
834.168	5709.38
834.418	5728.38
834.668	5713.38
834.918	5599.38
835.168	5634.38
835.418	5605.38
835.668	5600.38
835.918	5616.38
836.167	5595.38
836.417	5554.38
836.667	5625.38
836.917	5623.38
837.166	5523.38
837.416	5601.38
837.666	5597.38
837.915	5538.38
838.165	5501.38
838.414	5461.38
838.663	5458.38
838.913	5538.38
839.162	5449.38
839.411	5504.38
839.661	5399.38
839.91	5448.38
840.159	5447.38
840.408	5431.38
840.657	5449.38
840.906	5463.38
841.155	5483.38
841.404	5462.38
841.653	5439.38
841.902	5423.38
842.15	5400.38
842.399	5507.38
842.648	5515.38
842.897	5484.38
843.145	5385.38
843.394	5388.38
843.642	5336.38
843.891	5369.38
844.139	5316.38
844.388	5299.38
844.636	5204.38
844.884	5252.38
845.133	5242.38
845.381	5260.38
845.629	5301.38
845.877	5273.38
846.125	5292.38
846.373	5266.38
846.621	5195.38
846.869	5233.38
847.117	5204.38
847.365	5176.38
847.613	5173.38
847.861	5118.38
848.108	5167.38
848.356	5180.38
848.604	5085.38
848.851	5132.38
849.099	5151.38
849.346	5158.38
849.594	5194.38
849.841	5235.38
850.089	5216.38
850.336	5221.38
850.583	5235.38
850.831	5268.38
851.078	5231.38
851.325	5277.38
851.572	5408.38
851.819	5257.38
852.066	5101.38
852.313	4996.38
852.56	4933.38
852.807	4917.38
853.054	4903.38
853.301	4948.38
853.548	4937.38
853.794	5070.38
854.041	5013.38
854.288	5002.38
854.534	5078.38
854.781	5055.38
855.028	5023.38
855.274	5127.38
855.52	4984.38
855.767	4931.38
856.013	4988.38
856.26	5310.38
856.506	4907.38
856.752	4904.38
856.998	4935.38
857.244	4901.38
857.49	4980.38
857.736	5013.38
857.982	4944.38
858.228	4972.38
858.474	4863.38
858.72	4919.38
858.966	4866.38
859.212	4788.38
859.458	4740.38
859.703	4714.38
859.949	4667.38
860.195	4639.38
860.44	4602.38
860.686	4611.38
860.931	4650.38
861.177	4536.38
861.422	4611.38
861.667	4562.38
861.913	4533.38
862.158	4550.38
862.403	4674.38
862.648	4611.38
862.893	4637.38
863.138	4604.38
863.384	4507.38
863.629	4599.38
863.873	4620.38
864.118	4544.38
864.363	4438.38
864.608	4542.38
864.853	4581.38
865.098	4500.38
865.342	4518.38
865.587	4409.38
865.832	4508.38
866.076	4455.38
866.321	4398.38
866.565	4414.38
866.81	4396.38
867.054	4410.38
867.298	4422.38
867.543	4370.38
867.787	4437.38
868.031	4369.38
868.275	4377.38
868.519	4368.38
868.764	4337.38
869.008	4329.38
869.252	4408.38
869.496	4335.38
869.739	4343.38
869.983	4383.38
870.227	4376.38
870.471	4280.38
870.715	4368.38
870.958	4388.38
871.202	4409.38
871.446	4381.38
871.689	4323.38
871.933	4384.38
872.176	4394.38
872.42	4358.38
872.663	4351.38
872.906	4406.38
873.15	4364.38
873.393	4286.38
873.636	4377.38
873.879	4310.38
874.122	4305.38
874.366	4234.38
874.609	4198.38
874.852	4158.38
875.095	4146.38
875.337	4052.38
875.58	4048.38
875.823	4104.38
876.066	4079.38
876.309	4127.38
876.551	4013.38
876.794	3992.38
877.037	4045.38
877.279	3970.38
877.522	3978.38
877.764	4006.38
878.007	3991.38
878.249	4012.38
878.491	3958.38
878.734	4001.38
878.976	3987.38
879.218	3935.38
879.46	3958.38
879.702	3932.38
879.945	3898.38
880.187	3829.38
880.429	3866.38
880.671	3814.38
880.912	3832.38
881.154	3777.38
881.396	3697.38
881.638	3782.38
881.88	3744.38
882.121	3726.38
882.363	3765.38
882.605	3797.38
882.846	3759.38
883.088	3769.38
883.329	3754.38
883.571	3690.38
883.812	3800.38
884.053	3879.38
884.295	3943.38
884.536	4065.38
884.777	3987.38
885.018	3980.38
885.259	3973.38
885.5	3905.38
885.742	4216.38
885.982	3929.38
886.223	3816.38
886.464	3802.38
886.705	3738.38
886.946	3753.38
887.187	3609.38
887.428	3707.38
887.668	3576.38
887.909	3538.38
888.15	3506.38
888.39	3513.38
888.631	3532.38
888.871	3481.38
889.111	3467.38
889.352	3430.38
889.592	3379.38
889.833	3386.38
890.073	3345.38
890.313	3377.38
890.553	3263.38
890.793	3288.38
891.033	3247.38
891.273	3214.38
891.513	3217.38
891.753	3295.38
891.993	3239.38
892.233	3272.38
892.473	3348.38
892.713	3250.38
892.952	3223.38
893.192	3284.38
893.432	3250.38
893.671	3291.38
893.911	3276.38
894.15	3249.38
894.39	3135.38
894.629	3175.38
894.869	3208.38
895.108	3174.38
895.347	3112.38
895.587	3174.38
895.826	3116.38
896.065	3105.38
896.304	3139.38
896.543	3179.38
896.782	3096.38
897.021	3126.38
897.26	3083.38
897.499	3181.38
897.738	3190.38
897.977	3091.38
898.216	3080.38
898.454	3039.38
898.693	3033.38
898.932	3052.38
899.17	2984.38
899.409	3037.38
899.647	3024.38
899.886	2986.38
900.124	3030.38
900.363	2969.38
900.601	3021.38
900.839	3017.38
901.078	3017.38
901.316	3035.38
901.554	3066.38
901.792	3086.38
902.03	3032.38
902.268	3073.38
902.506	3077.38
902.744	3040.38
902.982	3026.38
903.22	2922.38
903.458	2957.38
903.695	2917.38
903.933	2923.38
904.171	2783.38
904.409	2747.38
904.646	2796.38
904.884	2720.38
905.121	2754.38
905.359	2668.38
905.596	2657.38
905.833	2610.38
906.071	2576.38
906.308	2622.38
906.545	2619.38
906.783	2572.38
907.02	2624.38
907.257	2549.38
907.494	2554.38
907.731	2611.38
907.968	2615.38
908.205	2541.38
908.442	2559.38
908.679	2567.38
908.915	2520.38
909.152	2542.38
909.389	2417.38
909.626	2453.38
909.862	2417.38
910.099	2454.38
910.335	2471.38
910.572	2342.38
910.808	2436.38
911.045	2410.38
911.281	2372.38
911.518	2458.38
911.754	2388.38
911.99	2396.38
912.226	2336.38
912.463	2315.38
912.699	2329.38
912.935	2294.38
913.171	2318.38
913.407	2269.38
913.643	2321.38
913.879	2248.38
914.114	2246.38
914.35	2206.38
914.586	2188.38
914.822	2154.38
915.057	2261.38
915.293	2085.38
915.529	2101.38
915.764	2171.38
916	2175.38
916.235	2159.38
916.471	2187.38
916.706	2082.38
916.941	2124.38
917.177	2175.38
917.412	2181.38
917.647	2166.38
917.882	2091.38
918.117	2153.38
918.352	2127.38
918.588	2172.38
918.823	2118.38
919.057	2097.38
919.292	1960.38
919.527	2074.38
919.762	2027.38
919.997	2098.38
920.232	2023.38
920.466	2041.38
920.701	1921.38
920.935	1956.38
921.17	1962.38
921.405	1920.38
921.639	1992.38
921.873	1935.38
922.108	1932.38
922.342	1953.38
922.576	1882.38
922.811	1906.38
923.045	1930.38
923.279	1983.38
923.513	1845.38
923.747	1935.38
923.981	1895.38
924.215	1883.38
924.449	1817.38
924.683	1790.38
924.917	1815.38
925.151	1833.38
925.385	1875.38
925.618	1831.38
925.852	1837.38
926.086	1767.38
926.319	1841.38
926.553	1786.38
926.786	1828.38
927.02	1830.38
927.253	1868.38
927.486	1885.38
927.72	1777.38
927.953	1858.38
928.186	1784.38
928.42	1844.38
928.653	1762.38
928.886	1747.38
929.119	1786.38
929.352	1772.38
929.585	1802.38
929.818	1748.38
930.051	1774.38
930.284	1759.38
930.516	1681.38
930.749	1686.38
930.982	1727.38
931.215	1728.38
931.447	1700.38
931.68	1673.38
931.912	1669.38
932.145	1659.38
932.377	1685.38
932.61	1814.38
932.842	1625.38
933.074	1700.38
933.307	1665.38
933.539	1750.38
933.771	1699.38
934.003	1659.38
934.236	1719.38
934.468	1748.38
934.7	1690.38
934.932	1748.38
935.164	1634.38
935.395	1639.38
935.627	1678.38
935.859	1677.38
936.091	1624.38
936.323	1671.38
936.554	1711.38
936.786	1653.38
937.017	1579.38
937.249	1651.38
937.481	1594.38
937.712	1661.38
937.943	1637.38
938.175	1643.38
938.406	1594.38
938.637	1661.38
938.869	1549.38
939.1	1637.38
939.331	1602.38
939.562	1634.38
939.793	1633.38
940.024	1652.38
940.255	1651.38
940.486	1566.38
940.717	1616.38
940.948	1578.38
941.179	1544.38
941.409	1589.38
941.64	1558.38
941.871	1604.38
942.102	1562.38
942.332	1568.38
942.563	1610.38
942.793	1575.38
943.024	1519.38
943.254	1571.38
943.484	1595.38
943.715	1621.38
943.945	1580.38
944.175	1530.38
944.405	1503.38
944.636	1534.38
944.866	1547.38
945.096	1578.38
945.326	1498.38
945.556	1563.38
945.786	1589.38
946.016	1546.38
946.245	1482.38
946.475	1513.38
946.705	1508.38
946.935	1524.38
947.164	1526.38
947.394	1481.38
947.624	1485.38
947.853	1546.38
948.083	1490.38
948.312	1498.38
948.542	1421.38
948.771	1443.38
949	1433.38
949.23	1452.38
949.459	1453.38
949.688	1538.38
949.917	1458.38
950.146	1474.38
950.375	1522.38
950.604	1424.38
950.833	1528.38
951.062	1516.38
951.291	1467.38
951.52	1459.38
951.749	1443.38
951.978	1430.38
952.206	1422.38
952.435	1417.38
952.664	1476.38
952.892	1452.38
953.121	1468.38
953.349	1497.38
953.578	1463.38
953.806	1417.38
954.035	1365.38
954.263	1412.38
954.491	1366.38
954.719	1439.38
954.948	1400.38
955.176	1391.38
955.404	1336.38
955.632	1383.38
955.86	1416.38
956.088	1379.38
956.316	1416.38
956.544	1450.38
956.772	1393.38
956.999	1361.38
957.227	1434.38
957.455	1350.38
957.683	1360.38
957.91	1333.38
958.138	1337.38
958.365	1331.38
958.593	1342.38
958.82	1286.38
959.048	1370.38
959.275	1364.38
959.502	1328.38
959.73	1315.38
959.957	1367.38
960.184	1377.38
960.411	1358.38
960.638	1413.38
960.865	1350.38
961.092	1363.38
961.319	1260.38
961.546	1363.38
961.773	1368.38
962	1330.38
962.227	1376.38
962.454	1341.38
962.68	1297.38
962.907	1341.38
963.134	1301.38
963.36	1293.38
963.587	1329.38
963.813	1286.38
964.04	1325.38
964.266	1253.38
964.493	1347.38
964.719	1312.38
964.945	1315.38
965.171	1214.38
965.398	1308.38
965.624	1316.38
965.85	1252.38
966.076	1263.38
966.302	1293.38
966.528	1247.38
966.754	1289.38
966.98	1288.38
967.206	1271.38
967.431	1203.38
967.657	1291.38
967.883	1269.38
968.109	1263.38
968.334	1224.38
968.56	1188.38
968.785	1231.38
969.011	1191.38
969.236	1238.38
969.462	1209.38
969.687	1241.38
969.912	1281.38
970.138	1280.38
970.363	1194.38
970.588	1222.38
970.813	1198.38
971.038	1176.38
971.263	1199.38
971.488	1205.38
971.713	1258.38
971.938	1266.38
972.163	1145.38
972.388	1199.38
972.613	1178.38
972.838	1189.38
973.062	1165.38
973.287	1173.38
973.512	1133.38
973.736	1162.38
973.961	1165.38
974.185	1137.38
974.41	1182.38
974.634	1073.38
974.858	1107.38
975.083	1160.38
975.307	1167.38
975.531	1113.38
975.755	1061.38
975.98	1114.38
976.204	1051.38
976.428	1045.38
976.652	1073.38
976.876	1033.38
977.1	1093.38
977.324	1059.38
977.547	1103.38
977.771	1120.38
977.995	1078.38
978.219	1025.38
978.442	1158.38
978.666	1071.38
978.89	1098.38
979.113	1077.38
979.337	1052.38
979.56	1046.38
979.783	1164.38
980.007	1034.38
980.23	1064.38
980.453	1009.38
980.677	1081.38
980.9	1064.38
981.123	1000.38
981.346	1072.38
981.569	1070.38
981.792	1100.38
982.015	1062.38
982.238	1025.38
982.461	1063.38
982.684	1049.38
982.907	1004.38
983.129	1012.38
983.352	1064.38
983.575	1013.38
983.797	1048.38
984.02	996.38
984.242	1020.38
984.465	1027.38
984.687	1047.38
984.91	1076.38
985.132	1067.38
985.354	1074.38
985.577	1059.38
985.799	1053.38
986.021	951.38
986.243	1005.38
986.465	995.38
986.687	1048.38
986.909	1077.38
987.131	1020.38
987.353	1009.38
987.575	1019.38
987.797	999.38
988.019	935.38
988.241	992.38
988.462	950.38
988.684	1018.38
988.906	1045.38
989.127	1059.38
989.349	974.38
989.57	1008.38
989.792	1044.38
990.013	1028.38
990.234	1056.38
990.456	1090.38
990.677	1045.38
990.898	991.38
991.119	1015.38
991.341	1038.38
991.562	992.38
991.783	1022.38
992.004	957.38
992.225	947.38
992.446	999.38
992.667	905.38
992.887	1020.38
993.108	907.38
993.329	1043.38
993.55	989.38
993.77	949.38
993.991	932.38
994.212	977.38
994.432	983.38
994.653	998.38
994.873	1002.38
995.093	885.38
995.314	932.38
995.534	1031.38
995.754	1023.38
995.975	1022.38
996.195	912.38
996.415	978.38
996.635	981.38
996.855	985.38
997.075	930.38
997.295	951.38
997.515	934.38
997.735	998.38
997.955	970.38
998.174	944.38
998.394	943.38
998.614	994.38
998.834	936.38
999.053	1019.38
999.273	974.38
999.492	1033.38
999.712	955.38
999.931	937.38
1000.151	1002.38
1000.37	979.38
1000.589	1017.38
1000.809	935.38
1001.028	1096.38
1001.247	1005.38
1001.466	906.38
1001.685	1038.38
1001.904	1020.38
1002.123	984.38
1002.342	1002.38
1002.561	955.38
1002.78	996.38
1002.999	1039.38
1003.218	1012.38
1003.436	975.38
1003.655	1017.38
1003.874	969.38
1004.092	985.38
1004.311	1059.38
1004.53	1006.38
1004.748	1087.38
1004.966	990.38
1005.185	1053.38
1005.403	1059.38
1005.622	1017.38
1005.84	1086.38
1006.058	1001.38
1006.276	1023.38
1006.494	1524.38
1006.712	1027.38
1006.931	1068.38
1007.149	985.38
1007.367	997.38
1007.584	1030.38
1007.802	1066.38
1008.02	999.38
1008.238	1105.38
1008.456	1085.38
1008.673	962.38
1008.891	1054.38
1009.109	1029.38
1009.326	1039.38
1009.544	1143.38
1009.761	1029.38
1009.979	1106.38
1010.196	1105.38
1010.413	1185.38
1010.631	1193.38
1010.848	1226.38
1011.065	1219.38
1011.282	1174.38
1011.5	1106.38
1011.717	1220.38
1011.934	1183.38
1012.151	1206.38
1012.368	1196.38
1012.585	1137.38
1012.801	1177.38
1013.018	1158.38
1013.235	1115.38
1013.452	1147.38
1013.669	1151.38
1013.885	1128.38
1014.102	1163.38
1014.318	1137.38
1014.535	1071.38
1014.751	1128.38
1014.968	1149.38
1015.184	1178.38
1015.401	1069.38
1015.617	1115.38
1015.833	1062.38
1016.049	1072.38
1016.266	1077.38
1016.482	1068.38
1016.698	1022.38
1016.914	1061.38
1017.13	1017.38
1017.346	1027.38
1017.562	1087.38
1017.778	1026.38
1017.993	998.38
1018.209	1069.38
1018.425	1038.38
1018.641	991.38
1018.856	973.38
1019.072	1019.38
1019.288	1042.38
1019.503	991.38
1019.719	925.38
1019.934	935.38
1020.149	1019.38
1020.365	953.38
1020.58	917.38
1020.795	980.38
1021.011	923.38
1021.226	913.38
1021.441	966.38
1021.656	870.38
1021.871	813.38
1022.086	822.38
1022.301	818.38
1022.516	829.38
1022.731	936.38
1022.946	795.38
1023.16	790.38
1023.375	783.38
1023.59	746.38
1023.804	733.38
1024.019	837.38
1024.234	719.38
1024.448	742.38
1024.663	690.38
1024.877	713.38
1025.092	722.38
1025.306	750.38
1025.52	643.38
1025.734	743.38
1025.949	677.38
1026.163	651.38
1026.377	596.38
1026.591	655.38
1026.805	576.38
1027.019	598.38
1027.233	558.38
1027.447	498.38
1027.661	621.38
1027.875	549.38
1028.088	571.38
1028.302	498.38
1028.516	513.38
1028.73	507.38
1028.943	501.38
1029.157	476.38
1029.37	448.38
1029.584	-3.62
1029.797	-1.62
1030.011	0.38
1030.224	-2.62
