Data from QEP037381__128__10-24-42-737.txt Node

Date: Wed Dec 21 10:24:42 EST 2022
User: dcclab
Spectrometer: QEP03738
Trigger mode: 4
Integration Time (sec): 1.000000E1
Scans to average: 1
Electric dark correction enabled: true
Nonlinearity correction enabled: false
Boxcar width: 0
XAxis mode: Wavelengths
Number of Pixels in Spectrum: 1044
>>>>>Begin Spectral Data<<<<<
784.041	11.25
784.3	1.25
784.558	-1.75
784.817	-4.75
785.075	82217.25
785.334	14100.25
785.592	6622.25
785.851	4578.25
786.109	3470.25
786.368	2695.25
786.626	2172.25
786.884	1823.25
787.143	1545.25
787.401	1256.25
787.659	1146.25
787.917	1000.25
788.175	919.25
788.433	819.25
788.691	722.25
788.949	697.25
789.207	674.25
789.465	554.25
789.723	556.25
789.98	502.25
790.238	537.25
790.496	504.25
790.753	500.25
791.011	543.25
791.268	477.25
791.526	470.25
791.783	469.25
792.041	460.25
792.298	387.25
792.556	456.25
792.813	425.25
793.07	420.25
793.327	400.25
793.584	486.25
793.841	402.25
794.099	425.25
794.356	484.25
794.613	387.25
794.869	417.25
795.126	389.25
795.383	360.25
795.64	376.25
795.897	327.25
796.153	404.25
796.41	372.25
796.667	368.25
796.923	366.25
797.18	359.25
797.436	397.25
797.693	356.25
797.949	383.25
798.206	440.25
798.462	343.25
798.718	404.25
798.974	381.25
799.231	419.25
799.487	394.25
799.743	388.25
799.999	411.25
800.255	388.25
800.511	382.25
800.767	412.25
801.023	383.25
801.279	399.25
801.534	418.25
801.79	436.25
802.046	394.25
802.302	470.25
802.557	472.25
802.813	543.25
803.068	535.25
803.324	692.25
803.579	790.25
803.835	1012.25
804.09	1346.25
804.345	1625.25
804.601	2031.25
804.856	2427.25
805.111	2780.25
805.366	2990.25
805.621	3114.25
805.876	3225.25
806.131	3293.25
806.386	3287.25
806.641	3380.25
806.896	3459.25
807.151	3536.25
807.406	3557.25
807.661	3563.25
807.915	3681.25
808.17	3734.25
808.425	3768.25
808.679	3762.25
808.934	3898.25
809.188	3902.25
809.443	3918.25
809.697	3994.25
809.951	3958.25
810.206	4007.25
810.46	4055.25
810.714	4051.25
810.968	4118.25
811.223	4159.25
811.477	4184.25
811.731	4237.25
811.985	4177.25
812.239	4232.25
812.493	4219.25
812.747	4248.25
813	4213.25
813.254	4321.25
813.508	4378.25
813.762	4339.25
814.015	4321.25
814.269	4408.25
814.522	4468.25
814.776	4532.25
815.03	4563.25
815.283	4637.25
815.536	4705.25
815.79	4761.25
816.043	4866.25
816.296	4879.25
816.55	4896.25
816.803	4963.25
817.056	5059.25
817.309	5063.25
817.562	5155.25
817.815	5235.25
818.068	5179.25
818.321	5209.25
818.574	5315.25
818.827	5410.25
819.079	5424.25
819.332	5693.25
819.585	5680.25
819.838	5750.25
820.09	5739.25
820.343	5853.25
820.595	5791.25
820.848	5882.25
821.1	5927.25
821.353	5939.25
821.605	5876.25
821.857	5977.25
822.11	5867.25
822.362	5885.25
822.614	5871.25
822.866	5922.25
823.118	5841.25
823.37	6002.25
823.622	5943.25
823.874	5978.25
824.126	6090.25
824.378	6038.25
824.63	6066.25
824.882	6074.25
825.134	6065.25
825.385	6086.25
825.637	6027.25
825.888	5977.25
826.14	5968.25
826.392	5921.25
826.643	5894.25
826.895	5971.25
827.146	5918.25
827.397	5848.25
827.649	5917.25
827.9	5794.25
828.151	5784.25
828.402	5832.25
828.653	5926.25
828.905	5882.25
829.156	5944.25
829.407	5907.25
829.658	5888.25
829.909	5923.25
830.159	5944.25
830.41	5858.25
830.661	5904.25
830.912	5804.25
831.162	5825.25
831.413	5808.25
831.664	5847.25
831.914	5850.25
832.165	5869.25
832.415	5840.25
832.666	5892.25
832.916	5886.25
833.167	5791.25
833.417	5849.25
833.667	5812.25
833.917	5819.25
834.168	5875.25
834.418	5830.25
834.668	5794.25
834.918	5775.25
835.168	5750.25
835.418	5747.25
835.668	5755.25
835.918	5683.25
836.167	5734.25
836.417	5652.25
836.667	5715.25
836.917	5765.25
837.166	5690.25
837.416	5731.25
837.666	5707.25
837.915	5658.25
838.165	5570.25
838.414	5512.25
838.663	5519.25
838.913	5559.25
839.162	5591.25
839.411	5576.25
839.661	5560.25
839.91	5527.25
840.159	5550.25
840.408	5594.25
840.657	5584.25
840.906	5604.25
841.155	5580.25
841.404	5592.25
841.653	5601.25
841.902	5587.25
842.15	5608.25
842.399	5597.25
842.648	5628.25
842.897	5587.25
843.145	5521.25
843.394	5531.25
843.642	5465.25
843.891	5420.25
844.139	5451.25
844.388	5359.25
844.636	5340.25
844.884	5396.25
845.133	5343.25
845.381	5338.25
845.629	5417.25
845.877	5344.25
846.125	5344.25
846.373	5381.25
846.621	5332.25
846.869	5330.25
847.117	5314.25
847.365	5255.25
847.613	5273.25
847.861	5270.25
848.108	5299.25
848.356	5272.25
848.604	5262.25
848.851	5318.25
849.099	5295.25
849.346	5316.25
849.594	5324.25
849.841	5363.25
850.089	5326.25
850.336	5292.25
850.583	5390.25
850.831	5388.25
851.078	5369.25
851.325	5388.25
851.572	5480.25
851.819	5419.25
852.066	5224.25
852.313	5137.25
852.56	5038.25
852.807	5017.25
853.054	4997.25
853.301	5057.25
853.548	5088.25
853.794	5215.25
854.041	5154.25
854.288	5158.25
854.534	5293.25
854.781	5197.25
855.028	5101.25
855.274	5182.25
855.52	5116.25
855.767	5061.25
856.013	5159.25
856.26	5386.25
856.506	4996.25
856.752	5071.25
856.998	5019.25
857.244	5051.25
857.49	5069.25
857.736	5109.25
857.982	5137.25
858.228	5032.25
858.474	5021.25
858.72	4988.25
858.966	4987.25
859.212	4931.25
859.458	4814.25
859.703	4843.25
859.949	4747.25
860.195	4794.25
860.44	4735.25
860.686	4657.25
860.931	4762.25
861.177	4672.25
861.422	4719.25
861.667	4625.25
861.913	4689.25
862.158	4681.25
862.403	4693.25
862.648	4732.25
862.893	4786.25
863.138	4741.25
863.384	4695.25
863.629	4732.25
863.873	4728.25
864.118	4653.25
864.363	4552.25
864.608	4671.25
864.853	4685.25
865.098	4652.25
865.342	4623.25
865.587	4587.25
865.832	4656.25
866.076	4565.25
866.321	4559.25
866.565	4534.25
866.81	4480.25
867.054	4533.25
867.298	4507.25
867.543	4469.25
867.787	4573.25
868.031	4504.25
868.275	4506.25
868.519	4518.25
868.764	4474.25
869.008	4451.25
869.252	4497.25
869.496	4478.25
869.739	4478.25
869.983	4522.25
870.227	4463.25
870.471	4500.25
870.715	4465.25
870.958	4550.25
871.202	4448.25
871.446	4528.25
871.689	4507.25
871.933	4523.25
872.176	4504.25
872.42	4444.25
872.663	4457.25
872.906	4518.25
873.15	4466.25
873.393	4402.25
873.636	4483.25
873.879	4407.25
874.122	4404.25
874.366	4300.25
874.609	4295.25
874.852	4235.25
875.095	4245.25
875.337	4227.25
875.58	4160.25
875.823	4231.25
876.066	4251.25
876.309	4217.25
876.551	4131.25
876.794	4111.25
877.037	4200.25
877.279	4095.25
877.522	4114.25
877.764	4163.25
878.007	4161.25
878.249	4100.25
878.491	4079.25
878.734	4141.25
878.976	4127.25
879.218	4031.25
879.46	4117.25
879.702	4084.25
879.945	3987.25
880.187	3934.25
880.429	3958.25
880.671	3917.25
880.912	3918.25
881.154	3916.25
881.396	3810.25
881.638	3877.25
881.88	3936.25
882.121	3848.25
882.363	3905.25
882.605	3930.25
882.846	3926.25
883.088	3890.25
883.329	3841.25
883.571	3818.25
883.812	3866.25
884.053	3952.25
884.295	4017.25
884.536	4158.25
884.777	4118.25
885.018	4155.25
885.259	4068.25
885.5	3997.25
885.742	4281.25
885.982	4034.25
886.223	3958.25
886.464	3917.25
886.705	3850.25
886.946	3840.25
887.187	3736.25
887.428	3789.25
887.668	3677.25
887.909	3641.25
888.15	3585.25
888.39	3633.25
888.631	3677.25
888.871	3600.25
889.111	3543.25
889.352	3528.25
889.592	3497.25
889.833	3496.25
890.073	3464.25
890.313	3525.25
890.553	3383.25
890.793	3412.25
891.033	3385.25
891.273	3359.25
891.513	3388.25
891.753	3376.25
891.993	3388.25
892.233	3415.25
892.473	3438.25
892.713	3428.25
892.952	3339.25
893.192	3391.25
893.432	3397.25
893.671	3428.25
893.911	3379.25
894.15	3339.25
894.39	3294.25
894.629	3322.25
894.869	3317.25
895.108	3242.25
895.347	3254.25
895.587	3283.25
895.826	3224.25
896.065	3200.25
896.304	3298.25
896.543	3281.25
896.782	3203.25
897.021	3235.25
897.26	3211.25
897.499	3305.25
897.738	3294.25
897.977	3213.25
898.216	3192.25
898.454	3166.25
898.693	3159.25
898.932	3129.25
899.17	3114.25
899.409	3081.25
899.647	3129.25
899.886	3080.25
900.124	3125.25
900.363	3083.25
900.601	3122.25
900.839	3106.25
901.078	3145.25
901.316	3118.25
901.554	3155.25
901.792	3159.25
902.03	3127.25
902.268	3144.25
902.506	3183.25
902.744	3135.25
902.982	3174.25
903.22	3048.25
903.458	3014.25
903.695	3043.25
903.933	2995.25
904.171	2912.25
904.409	2913.25
904.646	2903.25
904.884	2781.25
905.121	2870.25
905.359	2787.25
905.596	2768.25
905.833	2738.25
906.071	2678.25
906.308	2774.25
906.545	2693.25
906.783	2657.25
907.02	2692.25
907.257	2633.25
907.494	2626.25
907.731	2697.25
907.968	2685.25
908.205	2672.25
908.442	2651.25
908.679	2644.25
908.915	2602.25
909.152	2630.25
909.389	2546.25
909.626	2572.25
909.862	2533.25
910.099	2548.25
910.335	2566.25
910.572	2452.25
910.808	2518.25
911.045	2505.25
911.281	2464.25
911.518	2556.25
911.754	2470.25
911.99	2483.25
912.226	2458.25
912.463	2422.25
912.699	2429.25
912.935	2400.25
913.171	2403.25
913.407	2347.25
913.643	2410.25
913.879	2358.25
914.114	2344.25
914.35	2313.25
914.586	2270.25
914.822	2261.25
915.057	2325.25
915.293	2179.25
915.529	2209.25
915.764	2292.25
916	2287.25
916.235	2245.25
916.471	2254.25
916.706	2166.25
916.941	2211.25
917.177	2214.25
917.412	2251.25
917.647	2259.25
917.882	2188.25
918.117	2217.25
918.352	2203.25
918.588	2247.25
918.823	2201.25
919.057	2178.25
919.292	2084.25
919.527	2208.25
919.762	2092.25
919.997	2183.25
920.232	2078.25
920.466	2125.25
920.701	1956.25
920.935	2045.25
921.17	2040.25
921.405	1983.25
921.639	2061.25
921.873	2030.25
922.108	2027.25
922.342	2047.25
922.576	1993.25
922.811	1992.25
923.045	2018.25
923.279	2048.25
923.513	1915.25
923.747	1987.25
923.981	1969.25
924.215	1948.25
924.449	1939.25
924.683	1883.25
924.917	1877.25
925.151	1910.25
925.385	1978.25
925.618	1954.25
925.852	1922.25
926.086	1828.25
926.319	1878.25
926.553	1876.25
926.786	1876.25
927.02	1889.25
927.253	1948.25
927.486	1952.25
927.72	1844.25
927.953	1905.25
928.186	1872.25
928.42	1897.25
928.653	1847.25
928.886	1798.25
929.119	1865.25
929.352	1844.25
929.585	1800.25
929.818	1792.25
930.051	1824.25
930.284	1824.25
930.516	1723.25
930.749	1744.25
930.982	1803.25
931.215	1813.25
931.447	1732.25
931.68	1744.25
931.912	1734.25
932.145	1763.25
932.377	1739.25
932.61	1868.25
932.842	1687.25
933.074	1775.25
933.307	1712.25
933.539	1803.25
933.771	1812.25
934.003	1750.25
934.236	1810.25
934.468	1830.25
934.7	1738.25
934.932	1779.25
935.164	1722.25
935.395	1702.25
935.627	1748.25
935.859	1731.25
936.091	1713.25
936.323	1741.25
936.554	1746.25
936.786	1728.25
937.017	1669.25
937.249	1730.25
937.481	1652.25
937.712	1737.25
937.943	1694.25
938.175	1670.25
938.406	1660.25
938.637	1725.25
938.869	1662.25
939.1	1689.25
939.331	1696.25
939.562	1709.25
939.793	1709.25
940.024	1703.25
940.255	1735.25
940.486	1666.25
940.717	1666.25
940.948	1656.25
941.179	1615.25
941.409	1614.25
941.64	1630.25
941.871	1637.25
942.102	1636.25
942.332	1628.25
942.563	1645.25
942.793	1654.25
943.024	1598.25
943.254	1630.25
943.484	1677.25
943.715	1700.25
943.945	1671.25
944.175	1609.25
944.405	1593.25
944.636	1591.25
944.866	1613.25
945.096	1628.25
945.326	1577.25
945.556	1632.25
945.786	1661.25
946.016	1611.25
946.245	1549.25
946.475	1554.25
946.705	1553.25
946.935	1552.25
947.164	1594.25
947.394	1527.25
947.624	1563.25
947.853	1605.25
948.083	1597.25
948.312	1546.25
948.542	1476.25
948.771	1514.25
949	1518.25
949.23	1508.25
949.459	1538.25
949.688	1581.25
949.917	1548.25
950.146	1555.25
950.375	1593.25
950.604	1498.25
950.833	1613.25
951.062	1577.25
951.291	1536.25
951.52	1515.25
951.749	1517.25
951.978	1496.25
952.206	1505.25
952.435	1486.25
952.664	1546.25
952.892	1526.25
953.121	1511.25
953.349	1534.25
953.578	1532.25
953.806	1489.25
954.035	1472.25
954.263	1496.25
954.491	1464.25
954.719	1492.25
954.948	1475.25
955.176	1464.25
955.404	1378.25
955.632	1436.25
955.86	1467.25
956.088	1473.25
956.316	1487.25
956.544	1503.25
956.772	1433.25
956.999	1448.25
957.227	1499.25
957.455	1432.25
957.683	1439.25
957.91	1406.25
958.138	1396.25
958.365	1394.25
958.593	1359.25
958.82	1357.25
959.048	1438.25
959.275	1389.25
959.502	1402.25
959.73	1393.25
959.957	1431.25
960.184	1436.25
960.411	1418.25
960.638	1488.25
960.865	1399.25
961.092	1412.25
961.319	1332.25
961.546	1426.25
961.773	1430.25
962	1406.25
962.227	1430.25
962.454	1384.25
962.68	1376.25
962.907	1384.25
963.134	1341.25
963.36	1400.25
963.587	1390.25
963.813	1329.25
964.04	1376.25
964.266	1328.25
964.493	1398.25
964.719	1388.25
964.945	1387.25
965.171	1282.25
965.398	1352.25
965.624	1365.25
965.85	1304.25
966.076	1331.25
966.302	1343.25
966.528	1324.25
966.754	1345.25
966.98	1327.25
967.206	1309.25
967.431	1257.25
967.657	1358.25
967.883	1352.25
968.109	1336.25
968.334	1267.25
968.56	1287.25
968.785	1288.25
969.011	1251.25
969.236	1291.25
969.462	1237.25
969.687	1285.25
969.912	1303.25
970.138	1335.25
970.363	1254.25
970.588	1289.25
970.813	1277.25
971.038	1225.25
971.263	1295.25
971.488	1293.25
971.713	1316.25
971.938	1293.25
972.163	1194.25
972.388	1238.25
972.613	1235.25
972.838	1245.25
973.062	1244.25
973.287	1222.25
973.512	1185.25
973.736	1222.25
973.961	1207.25
974.185	1185.25
974.41	1220.25
974.634	1140.25
974.858	1162.25
975.083	1205.25
975.307	1198.25
975.531	1182.25
975.755	1098.25
975.98	1153.25
976.204	1103.25
976.428	1115.25
976.652	1137.25
976.876	1099.25
977.1	1147.25
977.324	1107.25
977.547	1140.25
977.771	1163.25
977.995	1142.25
978.219	1091.25
978.442	1185.25
978.666	1140.25
978.89	1124.25
979.113	1139.25
979.337	1139.25
979.56	1090.25
979.783	1174.25
980.007	1054.25
980.23	1101.25
980.453	1064.25
980.677	1135.25
980.9	1116.25
981.123	1031.25
981.346	1099.25
981.569	1121.25
981.792	1162.25
982.015	1074.25
982.238	1078.25
982.461	1083.25
982.684	1061.25
982.907	1048.25
983.129	1052.25
983.352	1103.25
983.575	1089.25
983.797	1087.25
984.02	1048.25
984.242	1017.25
984.465	1040.25
984.687	1085.25
984.91	1095.25
985.132	1084.25
985.354	1093.25
985.577	1061.25
985.799	1059.25
986.021	981.25
986.243	1045.25
986.465	1017.25
986.687	1106.25
986.909	1145.25
987.131	1058.25
987.353	1037.25
987.575	1063.25
987.797	1036.25
988.019	981.25
988.241	1053.25
988.462	992.25
988.684	1060.25
988.906	1056.25
989.127	1113.25
989.349	996.25
989.57	1027.25
989.792	1078.25
990.013	1076.25
990.234	1089.25
990.456	1131.25
990.677	1086.25
990.898	1024.25
991.119	1047.25
991.341	1067.25
991.562	1009.25
991.783	1061.25
992.004	989.25
992.225	988.25
992.446	1057.25
992.667	962.25
992.887	1048.25
993.108	954.25
993.329	1083.25
993.55	1030.25
993.77	990.25
993.991	988.25
994.212	1016.25
994.432	999.25
994.653	1022.25
994.873	1035.25
995.093	909.25
995.314	952.25
995.534	1032.25
995.754	1049.25
995.975	1057.25
996.195	958.25
996.415	1018.25
996.635	991.25
996.855	996.25
997.075	990.25
997.295	987.25
997.515	956.25
997.735	1020.25
997.955	982.25
998.174	976.25
998.394	966.25
998.614	1021.25
998.834	964.25
999.053	1056.25
999.273	998.25
999.492	1070.25
999.712	1014.25
999.931	972.25
1000.151	1017.25
1000.37	993.25
1000.589	1054.25
1000.809	981.25
1001.028	1105.25
1001.247	1017.25
1001.466	938.25
1001.685	1072.25
1001.904	1021.25
1002.123	1013.25
1002.342	1042.25
1002.561	978.25
1002.78	1007.25
1002.999	1079.25
1003.218	1032.25
1003.436	980.25
1003.655	1053.25
1003.874	998.25
1004.092	1014.25
1004.311	1075.25
1004.53	1014.25
1004.748	1119.25
1004.966	1025.25
1005.185	1062.25
1005.403	1068.25
1005.622	1046.25
1005.84	1118.25
1006.058	1013.25
1006.276	1034.25
1006.494	1522.25
1006.712	1049.25
1006.931	1103.25
1007.149	1006.25
1007.367	1010.25
1007.584	1074.25
1007.802	1060.25
1008.02	992.25
1008.238	1109.25
1008.456	1110.25
1008.673	966.25
1008.891	1078.25
1009.109	1032.25
1009.326	1066.25
1009.544	1155.25
1009.761	1052.25
1009.979	1103.25
1010.196	1094.25
1010.413	1173.25
1010.631	1211.25
1010.848	1207.25
1011.065	1218.25
1011.282	1162.25
1011.5	1109.25
1011.717	1206.25
1011.934	1159.25
1012.151	1215.25
1012.368	1159.25
1012.585	1116.25
1012.801	1172.25
1013.018	1132.25
1013.235	1102.25
1013.452	1130.25
1013.669	1117.25
1013.885	1118.25
1014.102	1150.25
1014.318	1118.25
1014.535	1079.25
1014.751	1128.25
1014.968	1109.25
1015.184	1150.25
1015.401	1064.25
1015.617	1094.25
1015.833	1044.25
1016.049	1067.25
1016.266	1059.25
1016.482	1069.25
1016.698	972.25
1016.914	1073.25
1017.13	1014.25
1017.346	1020.25
1017.562	1088.25
1017.778	1033.25
1017.993	996.25
1018.209	1042.25
1018.425	1023.25
1018.641	976.25
1018.856	946.25
1019.072	1005.25
1019.288	1028.25
1019.503	969.25
1019.719	921.25
1019.934	923.25
1020.149	997.25
1020.365	956.25
1020.58	899.25
1020.795	985.25
1021.011	923.25
1021.226	913.25
1021.441	963.25
1021.656	873.25
1021.871	817.25
1022.086	824.25
1022.301	820.25
1022.516	847.25
1022.731	871.25
1022.946	792.25
1023.16	788.25
1023.375	772.25
1023.59	774.25
1023.804	720.25
1024.019	833.25
1024.234	723.25
1024.448	757.25
1024.663	686.25
1024.877	706.25
1025.092	715.25
1025.306	726.25
1025.52	662.25
1025.734	738.25
1025.949	675.25
1026.163	665.25
1026.377	599.25
1026.591	663.25
1026.805	584.25
1027.019	589.25
1027.233	569.25
1027.447	510.25
1027.661	611.25
1027.875	551.25
1028.088	567.25
1028.302	498.25
1028.516	495.25
1028.73	512.25
1028.943	512.25
1029.157	469.25
1029.37	430.25
1029.584	-3.75
1029.797	-0.75
1030.011	-1.75
1030.224	0.25
