Data from QEP037381__61__10-37-50-508.txt Node

Date: Fri Apr 28 10:37:50 EDT 2023
User: dcclab
Spectrometer: QEP03738
Trigger mode: 4
Integration Time (sec): 1.000000E1
Scans to average: 1
Electric dark correction enabled: true
Nonlinearity correction enabled: false
Boxcar width: 0
XAxis mode: Wavelengths
Number of Pixels in Spectrum: 1044
>>>>>Begin Spectral Data<<<<<
784.041	14.38
784.3	-1.62
784.558	-3.62
784.817	-1.62
785.075	76724.38
785.334	15271.38
785.592	7932.38
785.851	5598.38
786.109	4230.38
786.368	3334.38
786.626	2701.38
786.884	2260.38
787.143	1902.38
787.401	1622.38
787.659	1424.38
787.917	1260.38
788.175	1163.38
788.433	1025.38
788.691	928.38
788.949	847.38
789.207	835.38
789.465	739.38
789.723	716.38
789.98	651.38
790.238	701.38
790.496	672.38
790.753	639.38
791.011	681.38
791.268	610.38
791.526	595.38
791.783	635.38
792.041	606.38
792.298	533.38
792.556	575.38
792.813	566.38
793.07	571.38
793.327	552.38
793.584	625.38
793.841	554.38
794.099	572.38
794.356	640.38
794.613	534.38
794.869	572.38
795.126	530.38
795.383	541.38
795.64	555.38
795.897	507.38
796.153	576.38
796.41	576.38
796.667	556.38
796.923	566.38
797.18	571.38
797.436	604.38
797.693	571.38
797.949	641.38
798.206	674.38
798.462	590.38
798.718	639.38
798.974	664.38
799.231	698.38
799.487	717.38
799.743	720.38
799.999	756.38
800.255	803.38
800.511	810.38
800.767	877.38
801.023	919.38
801.279	1004.38
801.534	1135.38
801.79	1279.38
802.046	1450.38
802.302	1821.38
802.557	2321.38
802.813	3113.38
803.068	4293.38
803.324	6314.38
803.579	9123.38
803.835	12945.38
804.09	17780.38
804.345	23005.38
804.601	28154.38
804.856	32887.38
805.111	36543.38
805.366	39223.38
805.621	41007.38
805.876	42459.38
806.131	43409.38
806.386	44125.38
806.641	45063.38
806.896	45901.38
807.151	46738.38
807.406	47584.38
807.661	48480.38
807.915	49591.38
808.17	50341.38
808.425	50912.38
808.679	51670.38
808.934	52382.38
809.188	53223.38
809.443	54030.38
809.697	54854.38
809.951	55379.38
810.206	55880.38
810.46	56255.38
810.714	56705.38
810.968	57245.38
811.223	57746.38
811.477	58342.38
811.731	58972.38
811.985	59223.38
812.239	59805.38
812.493	60185.38
812.747	60604.38
813	60832.38
813.254	60981.38
813.508	61500.38
813.762	61704.38
814.015	62478.38
814.269	62845.38
814.522	63499.38
814.776	64330.38
815.03	65239.38
815.283	66052.38
815.536	67069.38
815.79	68168.38
816.043	69302.38
816.296	70298.38
816.55	71356.38
816.803	72427.38
817.056	73394.38
817.309	74328.38
817.562	75187.38
817.815	75980.38
818.068	77181.38
818.321	78083.38
818.574	79433.38
818.827	80458.38
819.079	81830.38
819.332	83344.38
819.585	84546.38
819.838	85323.38
820.09	86413.38
820.343	87385.38
820.595	87712.38
820.848	88563.38
821.1	88568.38
821.353	88633.38
821.605	88804.38
821.857	88788.38
822.11	88642.38
822.362	88663.38
822.614	88285.38
822.866	88720.38
823.118	88742.38
823.37	89067.38
823.622	89334.38
823.874	89637.38
824.126	90119.38
824.378	90275.38
824.63	90824.38
824.882	90707.38
825.134	91082.38
825.385	90908.38
825.637	90837.38
825.888	90771.38
826.14	90899.38
826.392	90551.38
826.643	90101.38
826.895	90048.38
827.146	89791.38
827.397	89308.38
827.649	89728.38
827.9	89932.38
828.151	89966.38
828.402	90046.38
828.653	90520.38
828.905	90663.38
829.156	90729.38
829.407	90563.38
829.658	90901.38
829.909	91188.38
830.159	90892.38
830.41	90463.38
830.661	90093.38
830.912	89580.38
831.162	89439.38
831.413	89238.38
831.664	89383.38
831.914	89162.38
832.165	89325.38
832.415	89247.38
832.666	89383.38
832.916	89351.38
833.167	89375.38
833.417	89330.38
833.667	89089.38
833.917	89117.38
834.168	88785.38
834.418	88682.38
834.668	88105.38
834.918	87750.38
835.168	87702.38
835.418	87475.38
835.668	87113.38
835.918	86923.38
836.167	86727.38
836.417	86689.38
836.667	86561.38
836.917	86469.38
837.166	86367.38
837.416	86446.38
837.666	86464.38
837.915	86290.38
838.165	86119.38
838.414	85881.38
838.663	85871.38
838.913	85941.38
839.162	85807.38
839.411	85741.38
839.661	85383.38
839.91	85280.38
840.159	85041.38
840.408	85220.38
840.657	85309.38
840.906	85334.38
841.155	85608.38
841.404	85616.38
841.653	85594.38
841.902	85719.38
842.15	85853.38
842.399	85885.38
842.648	85665.38
842.897	85547.38
843.145	84907.38
843.394	84607.38
843.642	83986.38
843.891	83639.38
844.139	83412.38
844.388	83107.38
844.636	82817.38
844.884	82749.38
845.133	82571.38
845.381	82707.38
845.629	82851.38
845.877	82668.38
846.125	82551.38
846.373	82381.38
846.621	82171.38
846.869	82147.38
847.117	81795.38
847.365	81475.38
847.613	80870.38
847.861	81078.38
848.108	80670.38
848.356	80642.38
848.604	80636.38
848.851	80731.38
849.099	80712.38
849.346	81022.38
849.594	81278.38
849.841	81427.38
850.089	81867.38
850.336	81768.38
850.583	81721.38
850.831	81152.38
851.078	80813.38
851.325	80504.38
851.572	80325.38
851.819	79295.38
852.066	78396.38
852.313	77572.38
852.56	77232.38
852.807	76974.38
853.054	76419.38
853.301	76685.38
853.548	76694.38
853.794	77054.38
854.041	77493.38
854.288	77726.38
854.534	78329.38
854.781	78339.38
855.028	78273.38
855.274	78074.38
855.52	77536.38
855.767	76908.38
856.013	76735.38
856.26	76982.38
856.506	76317.38
856.752	76236.38
856.998	76560.38
857.244	76605.38
857.49	77084.38
857.736	76953.38
857.982	77164.38
858.228	76940.38
858.474	76482.38
858.72	76203.38
858.966	75487.38
859.212	74538.38
859.458	74032.38
859.703	73642.38
859.949	72867.38
860.195	72214.38
860.44	71971.38
860.686	71564.38
860.931	71592.38
861.177	71455.38
861.422	71055.38
861.667	71010.38
861.913	71073.38
862.158	71387.38
862.403	71417.38
862.648	71661.38
862.893	71553.38
863.138	71774.38
863.384	71520.38
863.629	71261.38
863.873	71270.38
864.118	70928.38
864.363	70374.38
864.608	70260.38
864.853	70084.38
865.098	69784.38
865.342	69509.38
865.587	69265.38
865.832	69044.38
866.076	68983.38
866.321	68914.38
866.565	68652.38
866.81	68480.38
867.054	68357.38
867.298	68084.38
867.543	68195.38
867.787	68031.38
868.031	67941.38
868.275	67734.38
868.519	67809.38
868.764	67506.38
869.008	67531.38
869.252	67491.38
869.496	67396.38
869.739	67232.38
869.983	67348.38
870.227	67158.38
870.471	66952.38
870.715	67442.38
870.958	67527.38
871.202	67599.38
871.446	67547.38
871.689	67506.38
871.933	67706.38
872.176	67535.38
872.42	67451.38
872.663	66985.38
872.906	66714.38
873.15	66402.38
873.393	65974.38
873.636	65710.38
873.879	65248.38
874.122	64461.38
874.366	63933.38
874.609	63473.38
874.852	63260.38
875.095	63136.38
875.337	62836.38
875.58	62560.38
875.823	62462.38
876.066	62358.38
876.309	62203.38
876.551	61994.38
876.794	61684.38
877.037	61713.38
877.279	61296.38
877.522	61639.38
877.764	61648.38
878.007	61380.38
878.249	61564.38
878.491	61252.38
878.734	61320.38
878.976	61276.38
879.218	60676.38
879.46	60321.38
879.702	60105.38
879.945	59614.38
880.187	59140.38
880.429	58797.38
880.671	58480.38
880.912	58359.38
881.154	58418.38
881.396	58208.38
881.638	58123.38
881.88	58252.38
882.121	58038.38
882.363	57957.38
882.605	57805.38
882.846	57654.38
883.088	57369.38
883.329	57256.38
883.571	57311.38
883.812	57308.38
884.053	57768.38
884.295	58404.38
884.536	58639.38
884.777	58242.38
885.018	58017.38
885.259	58227.38
885.5	58079.38
885.742	58086.38
885.982	57741.38
886.223	57518.38
886.464	57313.38
886.705	56735.38
886.946	56295.38
887.187	55724.38
887.428	55248.38
887.668	54661.38
887.909	54268.38
888.15	53712.38
888.39	53422.38
888.631	52904.38
888.871	52573.38
889.111	52421.38
889.352	51932.38
889.592	51555.38
889.833	51280.38
890.073	50847.38
890.313	50723.38
890.553	50223.38
890.793	50168.38
891.033	49954.38
891.273	49616.38
891.513	49401.38
891.753	49382.38
891.993	49241.38
892.233	49405.38
892.473	49527.38
892.713	49456.38
892.952	49403.38
893.192	49596.38
893.432	49399.38
893.671	49276.38
893.911	48910.38
894.15	48842.38
894.39	48427.38
894.629	48273.38
894.869	47734.38
895.108	47508.38
895.347	47155.38
895.587	47175.38
895.826	46975.38
896.065	46795.38
896.304	46811.38
896.543	46492.38
896.782	46507.38
897.021	46375.38
897.26	46228.38
897.499	46085.38
897.738	45948.38
897.977	45754.38
898.216	45304.38
898.454	44922.38
898.693	44641.38
898.932	44604.38
899.17	44463.38
899.409	44370.38
899.647	44095.38
899.886	44263.38
900.124	44223.38
900.363	44105.38
900.601	44358.38
900.839	44293.38
901.078	44517.38
901.316	44528.38
901.554	44639.38
901.792	44809.38
902.03	44780.38
902.268	44756.38
902.506	44535.38
902.744	44140.38
902.982	43884.38
903.22	43385.38
903.458	42926.38
903.695	42532.38
903.933	41964.38
904.171	41366.38
904.409	40697.38
904.646	40205.38
904.884	39712.38
905.121	39317.38
905.359	39176.38
905.596	38747.38
905.833	38461.38
906.071	38282.38
906.308	38231.38
906.545	38048.38
906.783	38088.38
907.02	38043.38
907.257	38026.38
907.494	38038.38
907.731	37887.38
907.968	37726.38
908.205	37388.38
908.442	37224.38
908.679	36960.38
908.915	36734.38
909.152	36495.38
909.389	36143.38
909.626	36015.38
909.862	35731.38
910.099	35519.38
910.335	35460.38
910.572	35145.38
910.808	35099.38
911.045	35045.38
911.281	34854.38
911.518	34726.38
911.754	34509.38
911.99	34344.38
912.226	34029.38
912.463	33823.38
912.699	33540.38
912.935	33323.38
913.171	33081.38
913.407	32747.38
913.643	32560.38
913.879	32139.38
914.114	31895.38
914.35	31652.38
914.586	31482.38
914.822	31107.38
915.057	31057.38
915.293	30874.38
915.529	30540.38
915.764	30686.38
916	30638.38
916.235	30482.38
916.471	30500.38
916.706	30363.38
916.941	30251.38
917.177	30226.38
917.412	30269.38
917.647	30307.38
917.882	30102.38
918.117	30022.38
918.352	29969.38
918.588	29937.38
918.823	29465.38
919.057	29331.38
919.292	28864.38
919.527	28764.38
919.762	28348.38
919.997	28014.38
920.232	27841.38
920.466	27621.38
920.701	27332.38
920.935	27229.38
921.17	26955.38
921.405	26831.38
921.639	26869.38
921.873	26665.38
922.108	26537.38
922.342	26520.38
922.576	26322.38
922.811	26238.38
923.045	26250.38
923.279	26156.38
923.513	25848.38
923.747	25866.38
923.981	25713.38
924.215	25430.38
924.449	25305.38
924.683	25045.38
924.917	25084.38
925.151	24989.38
925.385	24772.38
925.618	24659.38
925.852	24775.38
926.086	24633.38
926.319	24676.38
926.553	24574.38
926.786	24594.38
927.02	24484.38
927.253	24528.38
927.486	24380.38
927.72	24304.38
927.953	24276.38
928.186	24171.38
928.42	24056.38
928.653	23979.38
928.886	23861.38
929.119	23748.38
929.352	23658.38
929.585	23452.38
929.818	23206.38
930.051	23038.38
930.284	22965.38
930.516	22611.38
930.749	22386.38
930.982	22382.38
931.215	22294.38
931.447	22075.38
931.68	21989.38
931.912	22030.38
932.145	21918.38
932.377	22078.38
932.61	22186.38
932.842	21949.38
933.074	21955.38
933.307	21910.38
933.539	22031.38
933.771	21906.38
934.003	21919.38
934.236	21978.38
934.468	21949.38
934.7	21760.38
934.932	21663.38
935.164	21617.38
935.395	21605.38
935.627	21564.38
935.859	21373.38
936.091	21313.38
936.323	21172.38
936.554	21186.38
936.786	20966.38
937.017	20788.38
937.249	20889.38
937.481	20763.38
937.712	20720.38
937.943	20677.38
938.175	20574.38
938.406	20592.38
938.637	20671.38
938.869	20587.38
939.1	20531.38
939.331	20306.38
939.562	20373.38
939.793	20370.38
940.024	20249.38
940.255	20178.38
940.486	20023.38
940.717	19897.38
940.948	19786.38
941.179	19712.38
941.409	19706.38
941.64	19653.38
941.871	19778.38
942.102	19660.38
942.332	19627.38
942.563	19633.38
942.793	19594.38
943.024	19520.38
943.254	19622.38
943.484	19455.38
943.715	19589.38
943.945	19452.38
944.175	19397.38
944.405	19453.38
944.636	19418.38
944.866	19252.38
945.096	19416.38
945.326	19133.38
945.556	19180.38
945.786	19070.38
946.016	18895.38
946.245	18771.38
946.475	18623.38
946.705	18448.38
946.935	18433.38
947.164	18306.38
947.394	18224.38
947.624	18179.38
947.853	18137.38
948.083	17980.38
948.312	17943.38
948.542	17777.38
948.771	17783.38
949	17709.38
949.23	17718.38
949.459	17735.38
949.688	17791.38
949.917	17649.38
950.146	17598.38
950.375	17694.38
950.604	17587.38
950.833	17636.38
951.062	17579.38
951.291	17409.38
951.52	17394.38
951.749	17341.38
951.978	17315.38
952.206	17239.38
952.435	17079.38
952.664	17109.38
952.892	16992.38
953.121	16955.38
953.349	16920.38
953.578	16801.38
953.806	16756.38
954.035	16658.38
954.263	16595.38
954.491	16462.38
954.719	16419.38
954.948	16344.38
955.176	16277.38
955.404	16122.38
955.632	16133.38
955.86	16043.38
956.088	15936.38
956.316	15989.38
956.544	15847.38
956.772	15700.38
956.999	15597.38
957.227	15524.38
957.455	15402.38
957.683	15409.38
957.91	15197.38
958.138	15139.38
958.365	15082.38
958.593	15011.38
958.82	15040.38
959.048	14976.38
959.275	14976.38
959.502	14806.38
959.73	14902.38
959.957	14842.38
960.184	14783.38
960.411	14695.38
960.638	14752.38
960.865	14677.38
961.092	14660.38
961.319	14543.38
961.546	14578.38
961.773	14601.38
962	14465.38
962.227	14494.38
962.454	14364.38
962.68	14285.38
962.907	14190.38
963.134	14140.38
963.36	14085.38
963.587	14025.38
963.813	13835.38
964.04	13774.38
964.266	13584.38
964.493	13652.38
964.719	13582.38
964.945	13496.38
965.171	13369.38
965.398	13325.38
965.624	13251.38
965.85	13075.38
966.076	13073.38
966.302	13003.38
966.528	12921.38
966.754	12950.38
966.98	12891.38
967.206	12876.38
967.431	12755.38
967.657	12764.38
967.883	12750.38
968.109	12675.38
968.334	12562.38
968.56	12550.38
968.785	12528.38
969.011	12425.38
969.236	12451.38
969.462	12360.38
969.687	12382.38
969.912	12328.38
970.138	12335.38
970.363	12236.38
970.588	12219.38
970.813	12170.38
971.038	12045.38
971.263	12061.38
971.488	12021.38
971.713	11930.38
971.938	11900.38
972.163	11775.38
972.388	11710.38
972.613	11707.38
972.838	11549.38
973.062	11540.38
973.287	11468.38
973.512	11333.38
973.736	11379.38
973.961	11294.38
974.185	11194.38
974.41	11239.38
974.634	11054.38
974.858	10950.38
975.083	10964.38
975.307	10854.38
975.531	10770.38
975.755	10644.38
975.98	10624.38
976.204	10501.38
976.428	10525.38
976.652	10468.38
976.876	10406.38
977.1	10378.38
977.324	10261.38
977.547	10358.38
977.771	10298.38
977.995	10241.38
978.219	10119.38
978.442	10187.38
978.666	10050.38
978.89	10101.38
979.113	10002.38
979.337	10005.38
979.56	9951.38
979.783	9954.38
980.007	9849.38
980.23	9813.38
980.453	9712.38
980.677	9694.38
980.9	9687.38
981.123	9578.38
981.346	9582.38
981.569	9462.38
981.792	9416.38
982.015	9396.38
982.238	9223.38
982.461	9246.38
982.684	9173.38
982.907	9052.38
983.129	9077.38
983.352	8966.38
983.575	8902.38
983.797	8899.38
984.02	8871.38
984.242	8771.38
984.465	8693.38
984.687	8728.38
984.91	8674.38
985.132	8656.38
985.354	8582.38
985.577	8557.38
985.799	8532.38
986.021	8369.38
986.243	8429.38
986.465	8356.38
986.687	8448.38
986.909	8367.38
987.131	8184.38
987.353	8231.38
987.575	8251.38
987.797	8161.38
988.019	8100.38
988.241	8113.38
988.462	8032.38
988.684	8048.38
988.906	8125.38
989.127	7992.38
989.349	7911.38
989.57	7932.38
989.792	7900.38
990.013	7850.38
990.234	7864.38
990.456	7808.38
990.677	7766.38
990.898	7653.38
991.119	7650.38
991.341	7594.38
991.562	7496.38
991.783	7523.38
992.004	7396.38
992.225	7359.38
992.446	7357.38
992.667	7204.38
992.887	7276.38
993.108	7101.38
993.329	7213.38
993.55	7149.38
993.77	6983.38
993.991	6880.38
994.212	6914.38
994.432	6917.38
994.653	6874.38
994.873	6779.38
995.093	6719.38
995.314	6717.38
995.534	6700.38
995.754	6680.38
995.975	6701.38
996.195	6606.38
996.415	6567.38
996.635	6525.38
996.855	6597.38
997.075	6506.38
997.295	6476.38
997.515	6474.38
997.735	6474.38
997.955	6459.38
998.174	6385.38
998.394	6387.38
998.614	6390.38
998.834	6326.38
999.053	6367.38
999.273	6307.38
999.492	6314.38
999.712	6233.38
999.931	6126.38
1000.151	6111.38
1000.37	6048.38
1000.589	6050.38
1000.809	5952.38
1001.028	6029.38
1001.247	5936.38
1001.466	5746.38
1001.685	5874.38
1001.904	5751.38
1002.123	5717.38
1002.342	5717.38
1002.561	5598.38
1002.78	5634.38
1002.999	5635.38
1003.218	5550.38
1003.436	5500.38
1003.655	5530.38
1003.874	5399.38
1004.092	5411.38
1004.311	5403.38
1004.53	5318.38
1004.748	5387.38
1004.966	5367.38
1005.185	5326.38
1005.403	5289.38
1005.622	5219.38
1005.84	5280.38
1006.058	5193.38
1006.276	5219.38
1006.494	5574.38
1006.712	5186.38
1006.931	5202.38
1007.149	5089.38
1007.367	5124.38
1007.584	5165.38
1007.802	5189.38
1008.02	5136.38
1008.238	5250.38
1008.456	5188.38
1008.673	5087.38
1008.891	5217.38
1009.109	5148.38
1009.326	5255.38
1009.544	5365.38
1009.761	5236.38
1009.979	5500.38
1010.196	5527.38
1010.413	5703.38
1010.631	5794.38
1010.848	5909.38
1011.065	5931.38
1011.282	5842.38
1011.5	5841.38
1011.717	5887.38
1011.934	5840.38
1012.151	5851.38
1012.368	5820.38
1012.585	5761.38
1012.801	5846.38
1013.018	5731.38
1013.235	5732.38
1013.452	5822.38
1013.669	5838.38
1013.885	5738.38
1014.102	5861.38
1014.318	5793.38
1014.535	5711.38
1014.751	5750.38
1014.968	5680.38
1015.184	5619.38
1015.401	5529.38
1015.617	5542.38
1015.833	5382.38
1016.049	5386.38
1016.266	5374.38
1016.482	5363.38
1016.698	5241.38
1016.914	5226.38
1017.13	5240.38
1017.346	5129.38
1017.562	5157.38
1017.778	5085.38
1017.993	5069.38
1018.209	5097.38
1018.425	5103.38
1018.641	5004.38
1018.856	4992.38
1019.072	5078.38
1019.288	5087.38
1019.503	5019.38
1019.719	4909.38
1019.934	4852.38
1020.149	4962.38
1020.365	4855.38
1020.58	4736.38
1020.795	4715.38
1021.011	4588.38
1021.226	4497.38
1021.441	4415.38
1021.656	4292.38
1021.871	4160.38
1022.086	4100.38
1022.301	4043.38
1022.516	3977.38
1022.731	3909.38
1022.946	3829.38
1023.16	3787.38
1023.375	3674.38
1023.59	3624.38
1023.804	3551.38
1024.019	3606.38
1024.234	3416.38
1024.448	3385.38
1024.663	3303.38
1024.877	3277.38
1025.092	3232.38
1025.306	3200.38
1025.52	3023.38
1025.734	3063.38
1025.949	2932.38
1026.163	2845.38
1026.377	2743.38
1026.591	2752.38
1026.805	2612.38
1027.019	2595.38
1027.233	2562.38
1027.447	2464.38
1027.661	2530.38
1027.875	2434.38
1028.088	2380.38
1028.302	2277.38
1028.516	2224.38
1028.73	2156.38
1028.943	2088.38
1029.157	1948.38
1029.37	1831.38
1029.584	0.38
1029.797	-2.62
1030.011	-2.62
1030.224	-2.62
