Data from QEP037381__70__10-39-20-508.txt Node

Date: Fri Apr 28 10:39:20 EDT 2023
User: dcclab
Spectrometer: QEP03738
Trigger mode: 4
Integration Time (sec): 1.000000E1
Scans to average: 1
Electric dark correction enabled: true
Nonlinearity correction enabled: false
Boxcar width: 0
XAxis mode: Wavelengths
Number of Pixels in Spectrum: 1044
>>>>>Begin Spectral Data<<<<<
784.041	13.12
784.3	-0.88
784.558	-0.88
784.817	-2.88
785.075	76208.12
785.334	15162.12
785.592	7855.12
785.851	5629.12
786.109	4223.12
786.368	3340.12
786.626	2664.12
786.884	2237.12
787.143	1901.12
787.401	1574.12
787.659	1427.12
787.917	1199.12
788.175	1126.12
788.433	991.12
788.691	904.12
788.949	861.12
789.207	814.12
789.465	719.12
789.723	690.12
789.98	647.12
790.238	685.12
790.496	656.12
790.753	616.12
791.011	674.12
791.268	610.12
791.526	604.12
791.783	599.12
792.041	596.12
792.298	521.12
792.556	579.12
792.813	562.12
793.07	539.12
793.327	532.12
793.584	618.12
793.841	535.12
794.099	535.12
794.356	608.12
794.613	505.12
794.869	563.12
795.126	516.12
795.383	518.12
795.64	534.12
795.897	479.12
796.153	562.12
796.41	540.12
796.667	533.12
796.923	526.12
797.18	522.12
797.436	565.12
797.693	552.12
797.949	597.12
798.206	640.12
798.462	559.12
798.718	617.12
798.974	601.12
799.231	647.12
799.487	637.12
799.743	679.12
799.999	706.12
800.255	723.12
800.511	732.12
800.767	802.12
801.023	828.12
801.279	882.12
801.534	998.12
801.79	1138.12
802.046	1260.12
802.302	1584.12
802.557	1982.12
802.813	2685.12
803.068	3648.12
803.324	5370.12
803.579	7734.12
803.835	10893.12
804.09	15055.12
804.345	19418.12
804.601	23950.12
804.856	28022.12
805.111	31042.12
805.366	33170.12
805.621	34797.12
805.876	35933.12
806.131	36644.12
806.386	37260.12
806.641	38046.12
806.896	38529.12
807.151	39220.12
807.406	39904.12
807.661	40760.12
807.915	41616.12
808.17	42357.12
808.425	42892.12
808.679	43442.12
808.934	44009.12
809.188	44684.12
809.443	45233.12
809.697	46001.12
809.951	46435.12
810.206	46858.12
810.46	47297.12
810.714	47716.12
810.968	48179.12
811.223	48509.12
811.477	48951.12
811.731	49357.12
811.985	49756.12
812.239	50166.12
812.493	50610.12
812.747	50937.12
813	50964.12
813.254	51319.12
813.508	51647.12
813.762	52017.12
814.015	52439.12
814.269	52805.12
814.522	53286.12
814.776	53898.12
815.03	54729.12
815.283	55365.12
815.536	56342.12
815.79	57380.12
816.043	58188.12
816.296	59039.12
816.55	59566.12
816.803	60659.12
817.056	61607.12
817.309	62225.12
817.562	62943.12
817.815	63772.12
818.068	64642.12
818.321	65546.12
818.574	66563.12
818.827	67476.12
819.079	68519.12
819.332	70059.12
819.585	70913.12
819.838	71949.12
820.09	72521.12
820.343	73258.12
820.595	73625.12
820.848	74210.12
821.1	74530.12
821.353	74756.12
821.605	74648.12
821.857	74654.12
822.11	74179.12
822.362	74195.12
822.614	74254.12
822.866	74238.12
823.118	74414.12
823.37	74815.12
823.622	75188.12
823.874	75213.12
824.126	75434.12
824.378	76137.12
824.63	76153.12
824.882	76719.12
825.134	76633.12
825.385	76572.12
825.637	76304.12
825.888	76360.12
826.14	76169.12
826.392	76276.12
826.643	75826.12
826.895	75584.12
827.146	75521.12
827.397	75467.12
827.649	75480.12
827.9	75676.12
828.151	75642.12
828.402	75967.12
828.653	76143.12
828.905	76174.12
829.156	76320.12
829.407	76445.12
829.658	76560.12
829.909	76796.12
830.159	76799.12
830.41	76324.12
830.661	76032.12
830.912	75731.12
831.162	75476.12
831.413	75540.12
831.664	75414.12
831.914	75219.12
832.165	75348.12
832.415	75363.12
832.666	75368.12
832.916	75737.12
833.167	75413.12
833.417	75340.12
833.667	75281.12
833.917	75247.12
834.168	75132.12
834.418	74867.12
834.668	74604.12
834.918	74331.12
835.168	74050.12
835.418	73932.12
835.668	73734.12
835.918	73617.12
836.167	73380.12
836.417	73196.12
836.667	73230.12
836.917	73174.12
837.166	73319.12
837.416	73231.12
837.666	73113.12
837.915	73443.12
838.165	73158.12
838.414	72927.12
838.663	72785.12
838.913	72828.12
839.162	72788.12
839.411	72608.12
839.661	72273.12
839.91	72288.12
840.159	72267.12
840.408	72164.12
840.657	72420.12
840.906	72648.12
841.155	72790.12
841.404	72739.12
841.653	72569.12
841.902	72777.12
842.15	73124.12
842.399	73143.12
842.648	72951.12
842.897	72555.12
843.145	72200.12
843.394	71941.12
843.642	71557.12
843.891	71268.12
844.139	70972.12
844.388	70643.12
844.636	70579.12
844.884	70348.12
845.133	70386.12
845.381	70437.12
845.629	70465.12
845.877	70399.12
846.125	70224.12
846.373	70419.12
846.621	70094.12
846.869	69903.12
847.117	69720.12
847.365	69510.12
847.613	69001.12
847.861	68948.12
848.108	68728.12
848.356	68793.12
848.604	68836.12
848.851	68731.12
849.099	68951.12
849.346	68969.12
849.594	69374.12
849.841	69806.12
850.089	69914.12
850.336	70001.12
850.583	69914.12
850.831	69158.12
851.078	68947.12
851.325	68912.12
851.572	68818.12
851.819	67972.12
852.066	67084.12
852.313	66413.12
852.56	66148.12
852.807	65805.12
853.054	65537.12
853.301	65414.12
853.548	65670.12
853.794	65906.12
854.041	66465.12
854.288	66549.12
854.534	67087.12
854.781	67107.12
855.028	66768.12
855.274	66935.12
855.52	66400.12
855.767	65942.12
856.013	65947.12
856.26	66151.12
856.506	65539.12
856.752	65549.12
856.998	65605.12
857.244	65814.12
857.49	66034.12
857.736	66238.12
857.982	66112.12
858.228	66130.12
858.474	65544.12
858.72	65414.12
858.966	64564.12
859.212	64101.12
859.458	63422.12
859.703	62952.12
859.949	62355.12
860.195	62044.12
860.44	61654.12
860.686	61620.12
860.931	61497.12
861.177	61265.12
861.422	61054.12
861.667	60684.12
861.913	60749.12
862.158	61155.12
862.403	61278.12
862.648	61487.12
862.893	61496.12
863.138	61614.12
863.384	61299.12
863.629	61171.12
863.873	61372.12
864.118	61051.12
864.363	60667.12
864.608	60483.12
864.853	60198.12
865.098	60004.12
865.342	59675.12
865.587	59668.12
865.832	59582.12
866.076	59356.12
866.321	59412.12
866.565	59300.12
866.81	59005.12
867.054	59040.12
867.298	58899.12
867.543	58823.12
867.787	58822.12
868.031	58636.12
868.275	58634.12
868.519	58601.12
868.764	58591.12
869.008	58489.12
869.252	58384.12
869.496	58057.12
869.739	58280.12
869.983	58282.12
870.227	58266.12
870.471	58409.12
870.715	58521.12
870.958	58677.12
871.202	58586.12
871.446	58869.12
871.689	58739.12
871.933	58756.12
872.176	58658.12
872.42	58646.12
872.663	58223.12
872.906	58259.12
873.15	57773.12
873.393	57469.12
873.636	57198.12
873.879	56744.12
874.122	56190.12
874.366	55581.12
874.609	55434.12
874.852	54997.12
875.095	54909.12
875.337	54941.12
875.58	54573.12
875.823	54524.12
876.066	54308.12
876.309	54249.12
876.551	53975.12
876.794	53846.12
877.037	53808.12
877.279	53790.12
877.522	53635.12
877.764	53749.12
878.007	53528.12
878.249	53428.12
878.491	53631.12
878.734	53412.12
878.976	53218.12
879.218	52817.12
879.46	52635.12
879.702	52245.12
879.945	51951.12
880.187	51575.12
880.429	51321.12
880.671	51180.12
880.912	50835.12
881.154	50878.12
881.396	50846.12
881.638	50923.12
881.88	50857.12
882.121	50633.12
882.363	50451.12
882.605	50547.12
882.846	50295.12
883.088	50196.12
883.329	50177.12
883.571	50213.12
883.812	50490.12
884.053	50863.12
884.295	51316.12
884.536	51884.12
884.777	51405.12
885.018	51385.12
885.259	51317.12
885.5	51036.12
885.742	51204.12
885.982	50939.12
886.223	50563.12
886.464	50453.12
886.705	50187.12
886.946	49663.12
887.187	49001.12
887.428	48544.12
887.668	47902.12
887.909	47495.12
888.15	47064.12
888.39	46783.12
888.631	46421.12
888.871	46172.12
889.111	45697.12
889.352	45613.12
889.592	45055.12
889.833	44835.12
890.073	44512.12
890.313	44355.12
890.553	43980.12
890.793	43837.12
891.033	43829.12
891.273	43541.12
891.513	43434.12
891.753	43426.12
891.993	43280.12
892.233	43455.12
892.473	43377.12
892.713	43393.12
892.952	43390.12
893.192	43470.12
893.432	43371.12
893.671	43305.12
893.911	42988.12
894.15	42726.12
894.39	42393.12
894.629	42218.12
894.869	41940.12
895.108	41716.12
895.347	41582.12
895.587	41379.12
895.826	41279.12
896.065	41308.12
896.304	41303.12
896.543	41193.12
896.782	40968.12
897.021	40925.12
897.26	40558.12
897.499	40831.12
897.738	40598.12
897.977	40355.12
898.216	40000.12
898.454	39828.12
898.693	39337.12
898.932	39571.12
899.17	39252.12
899.409	39130.12
899.647	39034.12
899.886	39174.12
900.124	39235.12
900.363	39105.12
900.601	39218.12
900.839	39241.12
901.078	39491.12
901.316	39569.12
901.554	39781.12
901.792	39981.12
902.03	39928.12
902.268	39826.12
902.506	39722.12
902.744	39300.12
902.982	39106.12
903.22	38530.12
903.458	38079.12
903.695	37694.12
903.933	37142.12
904.171	36625.12
904.409	36240.12
904.646	35788.12
904.884	35294.12
905.121	34936.12
905.359	34602.12
905.596	34398.12
905.833	34144.12
906.071	33908.12
906.308	33969.12
906.545	33831.12
906.783	33662.12
907.02	33667.12
907.257	33679.12
907.494	33617.12
907.731	33414.12
907.968	33324.12
908.205	33232.12
908.442	33036.12
908.679	32848.12
908.915	32484.12
909.152	32388.12
909.389	32059.12
909.626	31889.12
909.862	31631.12
910.099	31566.12
910.335	31461.12
910.572	31196.12
910.808	31186.12
911.045	31063.12
911.281	30962.12
911.518	30920.12
911.754	30596.12
911.99	30481.12
912.226	30302.12
912.463	30045.12
912.699	29796.12
912.935	29675.12
913.171	29324.12
913.407	29095.12
913.643	29049.12
913.879	28637.12
914.114	28499.12
914.35	28179.12
914.586	28047.12
914.822	27792.12
915.057	27685.12
915.293	27302.12
915.529	27212.12
915.764	27414.12
916	27199.12
916.235	27234.12
916.471	27222.12
916.706	27142.12
916.941	27056.12
917.177	26990.12
917.412	27001.12
917.647	27035.12
917.882	26835.12
918.117	26867.12
918.352	26821.12
918.588	26576.12
918.823	26377.12
919.057	26287.12
919.292	25851.12
919.527	25690.12
919.762	25298.12
919.997	25149.12
920.232	24674.12
920.466	24712.12
920.701	24311.12
920.935	24348.12
921.17	24180.12
921.405	24080.12
921.639	24024.12
921.873	23976.12
922.108	23790.12
922.342	23816.12
922.576	23630.12
922.811	23537.12
923.045	23626.12
923.279	23582.12
923.513	23299.12
923.747	23386.12
923.981	23080.12
924.215	22920.12
924.449	22775.12
924.683	22733.12
924.917	22606.12
925.151	22395.12
925.385	22381.12
925.618	22252.12
925.852	22240.12
926.086	22165.12
926.319	22182.12
926.553	22076.12
926.786	22026.12
927.02	22005.12
927.253	22050.12
927.486	22011.12
927.72	21821.12
927.953	21799.12
928.186	21679.12
928.42	21697.12
928.653	21568.12
928.886	21493.12
929.119	21505.12
929.352	21332.12
929.585	21052.12
929.818	20951.12
930.051	20872.12
930.284	20596.12
930.516	20408.12
930.749	20323.12
930.982	20154.12
931.215	20174.12
931.447	19991.12
931.68	20029.12
931.912	19881.12
932.145	19867.12
932.377	19910.12
932.61	20096.12
932.842	19826.12
933.074	19851.12
933.307	19964.12
933.539	19935.12
933.771	19871.12
934.003	19856.12
934.236	19971.12
934.468	19836.12
934.7	19688.12
934.932	19794.12
935.164	19638.12
935.395	19568.12
935.627	19471.12
935.859	19535.12
936.091	19307.12
936.323	19358.12
936.554	19188.12
936.786	19110.12
937.017	18929.12
937.249	18976.12
937.481	18875.12
937.712	18959.12
937.943	18899.12
938.175	18696.12
938.406	18696.12
938.637	18749.12
938.869	18703.12
939.1	18726.12
939.331	18511.12
939.562	18557.12
939.793	18511.12
940.024	18418.12
940.255	18347.12
940.486	18266.12
940.717	18218.12
940.948	18087.12
941.179	18049.12
941.409	18053.12
941.64	17840.12
941.871	17922.12
942.102	17828.12
942.332	17928.12
942.563	17976.12
942.793	17920.12
943.024	17832.12
943.254	17871.12
943.484	17978.12
943.715	17893.12
943.945	17824.12
944.175	17628.12
944.405	17699.12
944.636	17751.12
944.866	17707.12
945.096	17654.12
945.326	17572.12
945.556	17471.12
945.786	17405.12
946.016	17339.12
946.245	17084.12
946.475	16999.12
946.705	16978.12
946.935	16921.12
947.164	16855.12
947.394	16678.12
947.624	16618.12
947.853	16609.12
948.083	16480.12
948.312	16418.12
948.542	16287.12
948.771	16266.12
949	16269.12
949.23	16230.12
949.459	16269.12
949.688	16332.12
949.917	16169.12
950.146	16158.12
950.375	16300.12
950.604	16087.12
950.833	16200.12
951.062	16139.12
951.291	15999.12
951.52	15965.12
951.749	15997.12
951.978	15891.12
952.206	15811.12
952.435	15711.12
952.664	15763.12
952.892	15700.12
953.121	15620.12
953.349	15650.12
953.578	15433.12
953.806	15406.12
954.035	15300.12
954.263	15295.12
954.491	15197.12
954.719	15170.12
954.948	15071.12
955.176	15025.12
955.404	14894.12
955.632	14806.12
955.86	14790.12
956.088	14792.12
956.316	14695.12
956.544	14557.12
956.772	14497.12
956.999	14448.12
957.227	14512.12
957.455	14346.12
957.683	14240.12
957.91	14106.12
958.138	14106.12
958.365	13966.12
958.593	13951.12
958.82	13943.12
959.048	13922.12
959.275	13901.12
959.502	13823.12
959.73	13729.12
959.957	13796.12
960.184	13737.12
960.411	13746.12
960.638	13659.12
960.865	13593.12
961.092	13631.12
961.319	13538.12
961.546	13545.12
961.773	13647.12
962	13422.12
962.227	13594.12
962.454	13398.12
962.68	13365.12
962.907	13298.12
963.134	13216.12
963.36	13111.12
963.587	13116.12
963.813	12902.12
964.04	12860.12
964.266	12708.12
964.493	12735.12
964.719	12742.12
964.945	12569.12
965.171	12449.12
965.398	12503.12
965.624	12407.12
965.85	12234.12
966.076	12177.12
966.302	12288.12
966.528	12235.12
966.754	12083.12
966.98	12053.12
967.206	12079.12
967.431	11930.12
967.657	11937.12
967.883	11905.12
968.109	11912.12
968.334	11786.12
968.56	11808.12
968.785	11727.12
969.011	11665.12
969.236	11710.12
969.462	11632.12
969.687	11543.12
969.912	11565.12
970.138	11562.12
970.363	11415.12
970.588	11461.12
970.813	11355.12
971.038	11238.12
971.263	11198.12
971.488	11227.12
971.713	11251.12
971.938	11145.12
972.163	11011.12
972.388	10932.12
972.613	10921.12
972.838	10888.12
973.062	10818.12
973.287	10819.12
973.512	10659.12
973.736	10677.12
973.961	10637.12
974.185	10590.12
974.41	10446.12
974.634	10335.12
974.858	10297.12
975.083	10309.12
975.307	10311.12
975.531	10204.12
975.755	10050.12
975.98	10007.12
976.204	9982.12
976.428	9890.12
976.652	9885.12
976.876	9782.12
977.1	9774.12
977.324	9731.12
977.547	9798.12
977.771	9688.12
977.995	9634.12
978.219	9508.12
978.442	9638.12
978.666	9587.12
978.89	9518.12
979.113	9426.12
979.337	9460.12
979.56	9400.12
979.783	9429.12
980.007	9287.12
980.23	9254.12
980.453	9163.12
980.677	9171.12
980.9	9157.12
981.123	9030.12
981.346	9103.12
981.569	9054.12
981.792	8976.12
982.015	8854.12
982.238	8863.12
982.461	8740.12
982.684	8656.12
982.907	8581.12
983.129	8533.12
983.352	8548.12
983.575	8505.12
983.797	8452.12
984.02	8357.12
984.242	8365.12
984.465	8342.12
984.687	8298.12
984.91	8277.12
985.132	8203.12
985.354	8227.12
985.577	8126.12
985.799	8112.12
986.021	7937.12
986.243	8022.12
986.465	7931.12
986.687	7967.12
986.909	7985.12
987.131	7906.12
987.353	7798.12
987.575	7831.12
987.797	7808.12
988.019	7678.12
988.241	7709.12
988.462	7683.12
988.684	7700.12
988.906	7710.12
989.127	7700.12
989.349	7531.12
989.57	7534.12
989.792	7540.12
990.013	7534.12
990.234	7515.12
990.456	7504.12
990.677	7448.12
990.898	7357.12
991.119	7306.12
991.341	7308.12
991.562	7127.12
991.783	7222.12
992.004	7033.12
992.225	7013.12
992.446	7016.12
992.667	6897.12
992.887	6959.12
993.108	6787.12
993.329	6902.12
993.55	6843.12
993.77	6699.12
993.991	6590.12
994.212	6658.12
994.432	6595.12
994.653	6642.12
994.873	6573.12
995.093	6397.12
995.314	6418.12
995.534	6435.12
995.754	6448.12
995.975	6481.12
996.195	6258.12
996.415	6364.12
996.635	6333.12
996.855	6348.12
997.075	6296.12
997.295	6321.12
997.515	6213.12
997.735	6270.12
997.955	6201.12
998.174	6193.12
998.394	6151.12
998.614	6193.12
998.834	6108.12
999.053	6182.12
999.273	6076.12
999.492	6134.12
999.712	5999.12
999.931	5948.12
1000.151	5977.12
1000.37	5881.12
1000.589	5887.12
1000.809	5784.12
1001.028	5851.12
1001.247	5741.12
1001.466	5596.12
1001.685	5721.12
1001.904	5571.12
1002.123	5583.12
1002.342	5466.12
1002.561	5406.12
1002.78	5395.12
1002.999	5454.12
1003.218	5344.12
1003.436	5320.12
1003.655	5311.12
1003.874	5205.12
1004.092	5216.12
1004.311	5290.12
1004.53	5178.12
1004.748	5247.12
1004.966	5108.12
1005.185	5144.12
1005.403	5160.12
1005.622	5073.12
1005.84	5161.12
1006.058	5044.12
1006.276	5070.12
1006.494	5377.12
1006.712	5049.12
1006.931	5056.12
1007.149	4935.12
1007.367	4963.12
1007.584	5045.12
1007.802	5078.12
1008.02	5005.12
1008.238	5089.12
1008.456	5128.12
1008.673	5002.12
1008.891	5114.12
1009.109	5063.12
1009.326	5178.12
1009.544	5333.12
1009.761	5245.12
1009.979	5377.12
1010.196	5536.12
1010.413	5736.12
1010.631	5879.12
1010.848	5899.12
1011.065	5979.12
1011.282	5962.12
1011.5	5898.12
1011.717	5944.12
1011.934	5857.12
1012.151	5862.12
1012.368	5864.12
1012.585	5752.12
1012.801	5810.12
1013.018	5839.12
1013.235	5842.12
1013.452	5832.12
1013.669	5961.12
1013.885	5824.12
1014.102	5906.12
1014.318	5846.12
1014.535	5790.12
1014.751	5781.12
1014.968	5753.12
1015.184	5729.12
1015.401	5636.12
1015.617	5613.12
1015.833	5533.12
1016.049	5472.12
1016.266	5437.12
1016.482	5383.12
1016.698	5327.12
1016.914	5354.12
1017.13	5278.12
1017.346	5236.12
1017.562	5282.12
1017.778	5179.12
1017.993	5158.12
1018.209	5187.12
1018.425	5225.12
1018.641	5188.12
1018.856	5134.12
1019.072	5156.12
1019.288	5174.12
1019.503	5057.12
1019.719	5017.12
1019.934	5005.12
1020.149	5077.12
1020.365	4919.12
1020.58	4829.12
1020.795	4829.12
1021.011	4680.12
1021.226	4562.12
1021.441	4433.12
1021.656	4321.12
1021.871	4223.12
1022.086	4118.12
1022.301	4086.12
1022.516	3987.12
1022.731	3963.12
1022.946	3914.12
1023.16	3797.12
1023.375	3713.12
1023.59	3636.12
1023.804	3592.12
1024.019	3621.12
1024.234	3425.12
1024.448	3457.12
1024.663	3266.12
1024.877	3271.12
1025.092	3200.12
1025.306	3197.12
1025.52	3005.12
1025.734	3057.12
1025.949	2937.12
1026.163	2841.12
1026.377	2720.12
1026.591	2769.12
1026.805	2588.12
1027.019	2553.12
1027.233	2497.12
1027.447	2407.12
1027.661	2477.12
1027.875	2386.12
1028.088	2371.12
1028.302	2237.12
1028.516	2184.12
1028.73	2135.12
1028.943	2060.12
1029.157	1923.12
1029.37	1832.12
1029.584	-1.88
1029.797	-3.88
1030.011	-1.88
1030.224	-0.88
