Data from QEP037381__56__10-37-00-508.txt Node

Date: Fri Apr 28 10:37:00 EDT 2023
User: dcclab
Spectrometer: QEP03738
Trigger mode: 4
Integration Time (sec): 1.000000E1
Scans to average: 1
Electric dark correction enabled: true
Nonlinearity correction enabled: false
Boxcar width: 0
XAxis mode: Wavelengths
Number of Pixels in Spectrum: 1044
>>>>>Begin Spectral Data<<<<<
784.041	13.38
784.3	-0.62
784.558	-2.62
784.817	-1.62
785.075	78026.38
785.334	15254.38
785.592	7881.38
785.851	5515.38
786.109	4262.38
786.368	3273.38
786.626	2644.38
786.884	2210.38
787.143	1884.38
787.401	1558.38
787.659	1432.38
787.917	1202.38
788.175	1129.38
788.433	990.38
788.691	916.38
788.949	826.38
789.207	794.38
789.465	723.38
789.723	695.38
789.98	621.38
790.238	685.38
790.496	617.38
790.753	612.38
791.011	664.38
791.268	594.38
791.526	570.38
791.783	601.38
792.041	572.38
792.298	511.38
792.556	555.38
792.813	557.38
793.07	527.38
793.327	515.38
793.584	587.38
793.841	503.38
794.099	553.38
794.356	602.38
794.613	508.38
794.869	553.38
795.126	491.38
795.383	504.38
795.64	518.38
795.897	469.38
796.153	537.38
796.41	514.38
796.667	510.38
796.923	527.38
797.18	521.38
797.436	556.38
797.693	535.38
797.949	562.38
798.206	614.38
798.462	528.38
798.718	576.38
798.974	591.38
799.231	620.38
799.487	617.38
799.743	642.38
799.999	664.38
800.255	691.38
800.511	707.38
800.767	760.38
801.023	794.38
801.279	861.38
801.534	938.38
801.79	1052.38
802.046	1188.38
802.302	1477.38
802.557	1829.38
802.813	2443.38
803.068	3324.38
803.324	4863.38
803.579	6992.38
803.835	9899.38
804.09	13611.38
804.345	17625.38
804.601	21599.38
804.856	25184.38
805.111	28159.38
805.366	30049.38
805.621	31424.38
805.876	32510.38
806.131	33241.38
806.386	33738.38
806.641	34325.38
806.896	34965.38
807.151	35535.38
807.406	36232.38
807.661	37090.38
807.915	37731.38
808.17	38280.38
808.425	38786.38
808.679	39289.38
808.934	39951.38
809.188	40537.38
809.443	41048.38
809.697	41565.38
809.951	41957.38
810.206	42319.38
810.46	42786.38
810.714	43276.38
810.968	43537.38
811.223	43981.38
811.477	44543.38
811.731	44674.38
811.985	45043.38
812.239	45403.38
812.493	45827.38
812.747	46040.38
813	46322.38
813.254	46496.38
813.508	46872.38
813.762	47078.38
814.015	47524.38
814.269	47881.38
814.522	48451.38
814.776	48879.38
815.03	49510.38
815.283	50195.38
815.536	51184.38
815.79	51878.38
816.043	52627.38
816.296	53606.38
816.55	54082.38
816.803	55003.38
817.056	55955.38
817.309	56478.38
817.562	57373.38
817.815	57894.38
818.068	58737.38
818.321	59554.38
818.574	60249.38
818.827	61195.38
819.079	62216.38
819.332	63329.38
819.585	64417.38
819.838	65125.38
820.09	65766.38
820.343	66461.38
820.595	66758.38
820.848	67419.38
821.1	67584.38
821.353	67664.38
821.605	67838.38
821.857	67738.38
822.11	67483.38
822.362	67552.38
822.614	67582.38
822.866	67605.38
823.118	67541.38
823.37	67806.38
823.622	68030.38
823.874	68265.38
824.126	68533.38
824.378	68913.38
824.63	69369.38
824.882	69489.38
825.134	69444.38
825.385	69280.38
825.637	69325.38
825.888	69380.38
826.14	69265.38
826.392	68835.38
826.643	68848.38
826.895	68640.38
827.146	68731.38
827.397	68340.38
827.649	68563.38
827.9	68415.38
828.151	68543.38
828.402	68749.38
828.653	69251.38
828.905	69360.38
829.156	69533.38
829.407	69571.38
829.658	69524.38
829.909	69801.38
830.159	69375.38
830.41	69339.38
830.661	68842.38
830.912	68641.38
831.162	68679.38
831.413	68395.38
831.664	68560.38
831.914	68513.38
832.165	68447.38
832.415	68587.38
832.666	68642.38
832.916	68787.38
833.167	68573.38
833.417	68406.38
833.667	68445.38
833.917	68149.38
834.168	68221.38
834.418	68055.38
834.668	67784.38
834.918	67481.38
835.168	67063.38
835.418	67202.38
835.668	66937.38
835.918	66848.38
836.167	66664.38
836.417	66701.38
836.667	66709.38
836.917	66629.38
837.166	66522.38
837.416	66442.38
837.666	66388.38
837.915	66519.38
838.165	66549.38
838.414	66346.38
838.663	66142.38
838.913	66241.38
839.162	66211.38
839.411	65981.38
839.661	65744.38
839.91	65709.38
840.159	65835.38
840.408	65683.38
840.657	65858.38
840.906	66002.38
841.155	65811.38
841.404	66083.38
841.653	65857.38
841.902	66275.38
842.15	66386.38
842.399	66518.38
842.648	66259.38
842.897	65945.38
843.145	65506.38
843.394	65324.38
843.642	65027.38
843.891	64897.38
844.139	64400.38
844.388	64303.38
844.636	63977.38
844.884	63847.38
845.133	63978.38
845.381	64080.38
845.629	64098.38
845.877	64022.38
846.125	63789.38
846.373	63862.38
846.621	63673.38
846.869	63656.38
847.117	63517.38
847.365	62990.38
847.613	62796.38
847.861	62748.38
848.108	62753.38
848.356	62348.38
848.604	62598.38
848.851	62593.38
849.099	62703.38
849.346	63051.38
849.594	63322.38
849.841	63565.38
850.089	63647.38
850.336	63759.38
850.583	63471.38
850.831	63086.38
851.078	62858.38
851.325	62718.38
851.572	62523.38
851.819	61810.38
852.066	61058.38
852.313	60384.38
852.56	60100.38
852.807	59841.38
853.054	59724.38
853.301	59732.38
853.548	59653.38
853.794	60146.38
854.041	60412.38
854.288	60764.38
854.534	61349.38
854.781	61027.38
855.028	60929.38
855.274	60895.38
855.52	60413.38
855.767	60270.38
856.013	60400.38
856.26	60241.38
856.506	59661.38
856.752	59615.38
856.998	59624.38
857.244	59998.38
857.49	60171.38
857.736	60229.38
857.982	60377.38
858.228	60091.38
858.474	59587.38
858.72	59535.38
858.966	59028.38
859.212	58308.38
859.458	57820.38
859.703	57440.38
859.949	56997.38
860.195	56451.38
860.44	56430.38
860.686	56116.38
860.931	56143.38
861.177	55901.38
861.422	55723.38
861.667	55495.38
861.913	55641.38
862.158	55825.38
862.403	55998.38
862.648	56140.38
862.893	56228.38
863.138	56155.38
863.384	55979.38
863.629	55936.38
863.873	56164.38
864.118	55878.38
864.363	55562.38
864.608	55206.38
864.853	54916.38
865.098	54647.38
865.342	54537.38
865.587	54472.38
865.832	54365.38
866.076	54184.38
866.321	54047.38
866.565	54080.38
866.81	53672.38
867.054	53825.38
867.298	53792.38
867.543	53615.38
867.787	53721.38
868.031	53630.38
868.275	53498.38
868.519	53323.38
868.764	53464.38
869.008	53476.38
869.252	53280.38
869.496	53236.38
869.739	53257.38
869.983	53212.38
870.227	53184.38
870.471	53227.38
870.715	53550.38
870.958	53536.38
871.202	53619.38
871.446	53838.38
871.689	53730.38
871.933	53666.38
872.176	53547.38
872.42	53369.38
872.663	53428.38
872.906	53157.38
873.15	52775.38
873.393	52531.38
873.636	52219.38
873.879	51894.38
874.122	51482.38
874.366	50999.38
874.609	50720.38
874.852	50422.38
875.095	50309.38
875.337	50136.38
875.58	50036.38
875.823	49745.38
876.066	49714.38
876.309	49688.38
876.551	49315.38
876.794	49300.38
877.037	49274.38
877.279	49164.38
877.522	49153.38
877.764	49273.38
878.007	49048.38
878.249	49119.38
878.491	48954.38
878.734	49037.38
878.976	48626.38
879.218	48387.38
879.46	48259.38
879.702	47932.38
879.945	47601.38
880.187	47173.38
880.429	46966.38
880.671	46842.38
880.912	46686.38
881.154	46577.38
881.396	46428.38
881.638	46512.38
881.88	46617.38
882.121	46628.38
882.363	46434.38
882.605	46195.38
882.846	46325.38
883.088	46054.38
883.329	45898.38
883.571	45962.38
883.812	46226.38
884.053	46639.38
884.295	47057.38
884.536	47379.38
884.777	47072.38
885.018	47064.38
885.259	47030.38
885.5	46834.38
885.742	46974.38
885.982	46742.38
886.223	46340.38
886.464	46279.38
886.705	46052.38
886.946	45542.38
887.187	44951.38
887.428	44767.38
887.668	44214.38
887.909	43579.38
888.15	43293.38
888.39	42969.38
888.631	42574.38
888.871	42325.38
889.111	42138.38
889.352	41970.38
889.592	41538.38
889.833	41324.38
890.073	40966.38
890.313	40808.38
890.553	40409.38
890.793	40453.38
891.033	40362.38
891.273	39873.38
891.513	39905.38
891.753	39936.38
891.993	39910.38
892.233	39912.38
892.473	40071.38
892.713	40033.38
892.952	40026.38
893.192	40039.38
893.432	39863.38
893.671	39883.38
893.911	39636.38
894.15	39478.38
894.39	39092.38
894.629	38867.38
894.869	38754.38
895.108	38518.38
895.347	38558.38
895.587	38272.38
895.826	38023.38
896.065	37981.38
896.304	38148.38
896.543	37994.38
896.782	37729.38
897.021	37785.38
897.26	37694.38
897.499	37485.38
897.738	37357.38
897.977	37275.38
898.216	36877.38
898.454	36675.38
898.693	36390.38
898.932	36439.38
899.17	36147.38
899.409	36163.38
899.647	36326.38
899.886	36303.38
900.124	36243.38
900.363	36299.38
900.601	36308.38
900.839	36411.38
901.078	36419.38
901.316	36701.38
901.554	36880.38
901.792	36815.38
902.03	36829.38
902.268	36838.38
902.506	36779.38
902.744	36477.38
902.982	36047.38
903.22	35582.38
903.458	35283.38
903.695	34940.38
903.933	34466.38
904.171	33931.38
904.409	33396.38
904.646	33094.38
904.884	32670.38
905.121	32399.38
905.359	32173.38
905.596	31902.38
905.833	31668.38
906.071	31521.38
906.308	31352.38
906.545	31434.38
906.783	31345.38
907.02	31217.38
907.257	31238.38
907.494	31072.38
907.731	31054.38
907.968	31046.38
908.205	30676.38
908.442	30658.38
908.679	30495.38
908.915	30272.38
909.152	29966.38
909.389	29745.38
909.626	29590.38
909.862	29401.38
910.099	29307.38
910.335	29251.38
910.572	28998.38
910.808	29022.38
911.045	28880.38
911.281	28870.38
911.518	28615.38
911.754	28520.38
911.99	28389.38
912.226	28256.38
912.463	27846.38
912.699	27915.38
912.935	27648.38
913.171	27431.38
913.407	27083.38
913.643	27022.38
913.879	26818.38
914.114	26558.38
914.35	26286.38
914.586	26109.38
914.822	25880.38
915.057	25867.38
915.293	25607.38
915.529	25470.38
915.764	25566.38
916	25458.38
916.235	25473.38
916.471	25379.38
916.706	25243.38
916.941	25258.38
917.177	25217.38
917.412	25165.38
917.647	25140.38
917.882	25062.38
918.117	25035.38
918.352	24921.38
918.588	24854.38
918.823	24614.38
919.057	24385.38
919.292	24183.38
919.527	24002.38
919.762	23748.38
919.997	23387.38
920.232	23293.38
920.466	23117.38
920.701	22808.38
920.935	22759.38
921.17	22725.38
921.405	22574.38
921.639	22469.38
921.873	22397.38
922.108	22261.38
922.342	22262.38
922.576	22130.38
922.811	21943.38
923.045	22143.38
923.279	22004.38
923.513	21684.38
923.747	21707.38
923.981	21557.38
924.215	21409.38
924.449	21309.38
924.683	21126.38
924.917	21131.38
925.151	21058.38
925.385	20941.38
925.618	20832.38
925.852	20795.38
926.086	20752.38
926.319	20713.38
926.553	20791.38
926.786	20765.38
927.02	20672.38
927.253	20702.38
927.486	20689.38
927.72	20504.38
927.953	20585.38
928.186	20421.38
928.42	20366.38
928.653	20298.38
928.886	20053.38
929.119	20087.38
929.352	20047.38
929.585	19908.38
929.818	19730.38
930.051	19613.38
930.284	19421.38
930.516	19182.38
930.749	19107.38
930.982	19056.38
931.215	18883.38
931.447	18839.38
931.68	18845.38
931.912	18775.38
932.145	18723.38
932.377	18760.38
932.61	18881.38
932.842	18653.38
933.074	18863.38
933.307	18669.38
933.539	18789.38
933.771	18673.38
934.003	18727.38
934.236	18821.38
934.468	18722.38
934.7	18467.38
934.932	18558.38
935.164	18403.38
935.395	18359.38
935.627	18353.38
935.859	18416.38
936.091	18209.38
936.323	18133.38
936.554	18100.38
936.786	18026.38
937.017	17921.38
937.249	17858.38
937.481	17812.38
937.712	17855.38
937.943	17729.38
938.175	17754.38
938.406	17767.38
938.637	17799.38
938.869	17655.38
939.1	17531.38
939.331	17588.38
939.562	17501.38
939.793	17518.38
940.024	17417.38
940.255	17231.38
940.486	17188.38
940.717	17111.38
940.948	17075.38
941.179	16996.38
941.409	16911.38
941.64	16973.38
941.871	17022.38
942.102	16871.38
942.332	17092.38
942.563	16988.38
942.793	16852.38
943.024	16822.38
943.254	16843.38
943.484	16800.38
943.715	16850.38
943.945	16861.38
944.175	16782.38
944.405	16750.38
944.636	16750.38
944.866	16774.38
945.096	16670.38
945.326	16620.38
945.556	16589.38
945.786	16487.38
946.016	16433.38
946.245	16127.38
946.475	16136.38
946.705	16018.38
946.935	15909.38
947.164	15927.38
947.394	15705.38
947.624	15747.38
947.853	15734.38
948.083	15638.38
948.312	15578.38
948.542	15551.38
948.771	15483.38
949	15419.38
949.23	15388.38
949.459	15404.38
949.688	15430.38
949.917	15387.38
950.146	15354.38
950.375	15348.38
950.604	15387.38
950.833	15299.38
951.062	15282.38
951.291	15181.38
951.52	15168.38
951.749	15108.38
951.978	15096.38
952.206	15041.38
952.435	15056.38
952.664	14925.38
952.892	14916.38
953.121	14861.38
953.349	14870.38
953.578	14741.38
953.806	14706.38
954.035	14545.38
954.263	14522.38
954.491	14459.38
954.719	14470.38
954.948	14302.38
955.176	14276.38
955.404	14165.38
955.632	14149.38
955.86	14123.38
956.088	14014.38
956.316	13983.38
956.544	13907.38
956.772	13845.38
956.999	13678.38
957.227	13800.38
957.455	13565.38
957.683	13535.38
957.91	13442.38
958.138	13377.38
958.365	13351.38
958.593	13301.38
958.82	13273.38
959.048	13280.38
959.275	13190.38
959.502	13114.38
959.73	13074.38
959.957	13101.38
960.184	12995.38
960.411	13018.38
960.638	13100.38
960.865	12904.38
961.092	13004.38
961.319	12836.38
961.546	12969.38
961.773	12905.38
962	12867.38
962.227	12910.38
962.454	12836.38
962.68	12709.38
962.907	12634.38
963.134	12516.38
963.36	12533.38
963.587	12458.38
963.813	12281.38
964.04	12272.38
964.266	12231.38
964.493	12117.38
964.719	12023.38
964.945	12023.38
965.171	11914.38
965.398	11850.38
965.624	11854.38
965.85	11702.38
966.076	11666.38
966.302	11681.38
966.528	11569.38
966.754	11644.38
966.98	11426.38
967.206	11464.38
967.431	11335.38
967.657	11459.38
967.883	11428.38
968.109	11259.38
968.334	11244.38
968.56	11263.38
968.785	11231.38
969.011	11150.38
969.236	11251.38
969.462	11127.38
969.687	11036.38
969.912	11077.38
970.138	11103.38
970.363	10916.38
970.588	10869.38
970.813	10859.38
971.038	10768.38
971.263	10838.38
971.488	10767.38
971.713	10707.38
971.938	10657.38
972.163	10495.38
972.388	10562.38
972.613	10403.38
972.838	10433.38
973.062	10395.38
973.287	10417.38
973.512	10244.38
973.736	10196.38
973.961	10128.38
974.185	10041.38
974.41	10096.38
974.634	9887.38
974.858	9891.38
975.083	9879.38
975.307	9879.38
975.531	9772.38
975.755	9653.38
975.98	9604.38
976.204	9523.38
976.428	9426.38
976.652	9446.38
976.876	9402.38
977.1	9361.38
977.324	9350.38
977.547	9365.38
977.771	9328.38
977.995	9296.38
978.219	9219.38
978.442	9270.38
978.666	9169.38
978.89	9171.38
979.113	9117.38
979.337	9099.38
979.56	8993.38
979.783	9023.38
980.007	8928.38
980.23	8845.38
980.453	8881.38
980.677	8877.38
980.9	8875.38
981.123	8637.38
981.346	8687.38
981.569	8669.38
981.792	8634.38
982.015	8576.38
982.238	8403.38
982.461	8412.38
982.684	8327.38
982.907	8298.38
983.129	8238.38
983.352	8267.38
983.575	8216.38
983.797	8149.38
984.02	8088.38
984.242	8031.38
984.465	8078.38
984.687	8001.38
984.91	7933.38
985.132	7911.38
985.354	7926.38
985.577	7833.38
985.799	7757.38
986.021	7658.38
986.243	7666.38
986.465	7656.38
986.687	7651.38
986.909	7715.38
987.131	7663.38
987.353	7559.38
987.575	7609.38
987.797	7540.38
988.019	7467.38
988.241	7457.38
988.462	7349.38
988.684	7420.38
988.906	7433.38
989.127	7426.38
989.349	7230.38
989.57	7269.38
989.792	7307.38
990.013	7326.38
990.234	7185.38
990.456	7221.38
990.677	7202.38
990.898	7099.38
991.119	7106.38
991.341	7083.38
991.562	6942.38
991.783	6921.38
992.004	6835.38
992.225	6764.38
992.446	6820.38
992.667	6631.38
992.887	6671.38
993.108	6576.38
993.329	6649.38
993.55	6582.38
993.77	6413.38
993.991	6416.38
994.212	6431.38
994.432	6456.38
994.653	6331.38
994.873	6332.38
995.093	6233.38
995.314	6256.38
995.534	6233.38
995.754	6233.38
995.975	6267.38
996.195	6113.38
996.415	6173.38
996.635	6083.38
996.855	6119.38
997.075	6000.38
997.295	6078.38
997.515	5966.38
997.735	6028.38
997.955	6019.38
998.174	6018.38
998.394	5992.38
998.614	5946.38
998.834	5937.38
999.053	5966.38
999.273	5867.38
999.492	5925.38
999.712	5814.38
999.931	5740.38
1000.151	5752.38
1000.37	5693.38
1000.589	5662.38
1000.809	5630.38
1001.028	5657.38
1001.247	5559.38
1001.466	5409.38
1001.685	5572.38
1001.904	5429.38
1002.123	5381.38
1002.342	5343.38
1002.561	5282.38
1002.78	5282.38
1002.999	5337.38
1003.218	5203.38
1003.436	5154.38
1003.655	5199.38
1003.874	5091.38
1004.092	5124.38
1004.311	5101.38
1004.53	5048.38
1004.748	5056.38
1004.966	4940.38
1005.185	4987.38
1005.403	5029.38
1005.622	4958.38
1005.84	5022.38
1006.058	4843.38
1006.276	4898.38
1006.494	5274.38
1006.712	4895.38
1006.931	4947.38
1007.149	4825.38
1007.367	4859.38
1007.584	4919.38
1007.802	4944.38
1008.02	4887.38
1008.238	4992.38
1008.456	4980.38
1008.673	4896.38
1008.891	4973.38
1009.109	4952.38
1009.326	4981.38
1009.544	5085.38
1009.761	5064.38
1009.979	5249.38
1010.196	5314.38
1010.413	5563.38
1010.631	5629.38
1010.848	5744.38
1011.065	5805.38
1011.282	5801.38
1011.5	5619.38
1011.717	5736.38
1011.934	5645.38
1012.151	5733.38
1012.368	5632.38
1012.585	5615.38
1012.801	5689.38
1013.018	5645.38
1013.235	5590.38
1013.452	5649.38
1013.669	5676.38
1013.885	5660.38
1014.102	5699.38
1014.318	5637.38
1014.535	5545.38
1014.751	5570.38
1014.968	5549.38
1015.184	5582.38
1015.401	5469.38
1015.617	5402.38
1015.833	5383.38
1016.049	5307.38
1016.266	5277.38
1016.482	5204.38
1016.698	5164.38
1016.914	5145.38
1017.13	5074.38
1017.346	5066.38
1017.562	5180.38
1017.778	5060.38
1017.993	4944.38
1018.209	5053.38
1018.425	5053.38
1018.641	5004.38
1018.856	4962.38
1019.072	5008.38
1019.288	5048.38
1019.503	4934.38
1019.719	4881.38
1019.934	4851.38
1020.149	4914.38
1020.365	4761.38
1020.58	4649.38
1020.795	4671.38
1021.011	4517.38
1021.226	4417.38
1021.441	4361.38
1021.656	4209.38
1021.871	4053.38
1022.086	4070.38
1022.301	3957.38
1022.516	3840.38
1022.731	3902.38
1022.946	3747.38
1023.16	3715.38
1023.375	3666.38
1023.59	3568.38
1023.804	3449.38
1024.019	3537.38
1024.234	3317.38
1024.448	3303.38
1024.663	3216.38
1024.877	3158.38
1025.092	3152.38
1025.306	3075.38
1025.52	2953.38
1025.734	2992.38
1025.949	2827.38
1026.163	2717.38
1026.377	2654.38
1026.591	2671.38
1026.805	2533.38
1027.019	2506.38
1027.233	2454.38
1027.447	2348.38
1027.661	2458.38
1027.875	2353.38
1028.088	2303.38
1028.302	2169.38
1028.516	2137.38
1028.73	2028.38
1028.943	2010.38
1029.157	1850.38
1029.37	1752.38
1029.584	-0.62
1029.797	0.38
1030.011	-4.62
1030.224	-3.62
