Data from QEP037381__59__10-37-30-508.txt Node

Date: Fri Apr 28 10:37:30 EDT 2023
User: dcclab
Spectrometer: QEP03738
Trigger mode: 4
Integration Time (sec): 1.000000E1
Scans to average: 1
Electric dark correction enabled: true
Nonlinearity correction enabled: false
Boxcar width: 0
XAxis mode: Wavelengths
Number of Pixels in Spectrum: 1044
>>>>>Begin Spectral Data<<<<<
784.041	12.38
784.3	0.38
784.558	-2.62
784.817	-3.62
785.075	75502.38
785.334	15196.38
785.592	7891.38
785.851	5557.38
786.109	4275.38
786.368	3318.38
786.626	2693.38
786.884	2257.38
787.143	1906.38
787.401	1597.38
787.659	1440.38
787.917	1233.38
788.175	1155.38
788.433	1013.38
788.691	943.38
788.949	865.38
789.207	828.38
789.465	725.38
789.723	699.38
789.98	667.38
790.238	691.38
790.496	659.38
790.753	636.38
791.011	681.38
791.268	616.38
791.526	592.38
791.783	635.38
792.041	587.38
792.298	525.38
792.556	598.38
792.813	585.38
793.07	547.38
793.327	548.38
793.584	624.38
793.841	531.38
794.099	577.38
794.356	626.38
794.613	533.38
794.869	571.38
795.126	549.38
795.383	519.38
795.64	566.38
795.897	496.38
796.153	572.38
796.41	554.38
796.667	534.38
796.923	565.38
797.18	561.38
797.436	593.38
797.693	558.38
797.949	617.38
798.206	651.38
798.462	563.38
798.718	638.38
798.974	617.38
799.231	689.38
799.487	707.38
799.743	688.38
799.999	749.38
800.255	757.38
800.511	789.38
800.767	851.38
801.023	892.38
801.279	957.38
801.534	1070.38
801.79	1220.38
802.046	1367.38
802.302	1716.38
802.557	2209.38
802.813	2965.38
803.068	4062.38
803.324	5970.38
803.579	8564.38
803.835	12218.38
804.09	16787.38
804.345	21749.38
804.601	26522.38
804.856	30886.38
805.111	34412.38
805.366	37056.38
805.621	38544.38
805.876	39742.38
806.131	40481.38
806.386	41135.38
806.641	41957.38
806.896	42585.38
807.151	43446.38
807.406	44213.38
807.661	44963.38
807.915	45886.38
808.17	46697.38
808.425	47355.38
808.679	48106.38
808.934	48792.38
809.188	49412.38
809.443	50014.38
809.697	50710.38
809.951	51315.38
810.206	51814.38
810.46	52178.38
810.714	52744.38
810.968	53261.38
811.223	53755.38
811.477	54203.38
811.731	54610.38
811.985	55173.38
812.239	55454.38
812.493	56045.38
812.747	56218.38
813	56373.38
813.254	56788.38
813.508	57198.38
813.762	57563.38
814.015	58038.38
814.269	58385.38
814.522	58977.38
814.776	59653.38
815.03	60585.38
815.283	61512.38
815.536	62536.38
815.79	63405.38
816.043	64257.38
816.296	65272.38
816.55	66255.38
816.803	67059.38
817.056	68298.38
817.309	68970.38
817.562	69730.38
817.815	70810.38
818.068	71623.38
818.321	72743.38
818.574	73875.38
818.827	75020.38
819.079	76063.38
819.332	77401.38
819.585	78522.38
819.838	79669.38
820.09	80219.38
820.343	81006.38
820.595	81638.38
820.848	82175.38
821.1	82561.38
821.353	82595.38
821.605	82713.38
821.857	82676.38
822.11	82424.38
822.362	82453.38
822.614	82367.38
822.866	82662.38
823.118	82556.38
823.37	82810.38
823.622	82986.38
823.874	83397.38
824.126	83896.38
824.378	84283.38
824.63	84481.38
824.882	84790.38
825.134	84798.38
825.385	84690.38
825.637	84745.38
825.888	84841.38
826.14	84621.38
826.392	84466.38
826.643	84118.38
826.895	83985.38
827.146	83865.38
827.397	83732.38
827.649	83686.38
827.9	83857.38
828.151	83948.38
828.402	84145.38
828.653	84567.38
828.905	84801.38
829.156	84911.38
829.407	84789.38
829.658	85056.38
829.909	85126.38
830.159	84974.38
830.41	84570.38
830.661	84191.38
830.912	83841.38
831.162	83694.38
831.413	83375.38
831.664	83541.38
831.914	83817.38
832.165	83684.38
832.415	83613.38
832.666	83665.38
832.916	83934.38
833.167	83745.38
833.417	83597.38
833.667	83503.38
833.917	83219.38
834.168	83189.38
834.418	83058.38
834.668	82692.38
834.918	82272.38
835.168	81995.38
835.418	81938.38
835.668	81853.38
835.918	81593.38
836.167	81423.38
836.417	81289.38
836.667	81219.38
836.917	81143.38
837.166	81273.38
837.416	81194.38
837.666	80977.38
837.915	81145.38
838.165	80848.38
838.414	80862.38
838.663	80689.38
838.913	80638.38
839.162	80459.38
839.411	80421.38
839.661	80356.38
839.91	80164.38
840.159	80142.38
840.408	80258.38
840.657	80114.38
840.906	80444.38
841.155	80371.38
841.404	80520.38
841.653	80741.38
841.902	80586.38
842.15	80816.38
842.399	80802.38
842.648	80729.38
842.897	80353.38
843.145	79937.38
843.394	79629.38
843.642	79285.38
843.891	78862.38
844.139	78734.38
844.388	78444.38
844.636	78050.38
844.884	78014.38
845.133	77946.38
845.381	77971.38
845.629	78056.38
845.877	78031.38
846.125	77871.38
846.373	77974.38
846.621	77559.38
846.869	77555.38
847.117	76980.38
847.365	76699.38
847.613	76384.38
847.861	76251.38
848.108	76254.38
848.356	76115.38
848.604	76336.38
848.851	76187.38
849.099	76386.38
849.346	76599.38
849.594	76919.38
849.841	77405.38
850.089	77387.38
850.336	77491.38
850.583	77557.38
850.831	76982.38
851.078	76544.38
851.325	76471.38
851.572	76150.38
851.819	75396.38
852.066	74217.38
852.313	73571.38
852.56	73163.38
852.807	72961.38
853.054	72748.38
853.301	72594.38
853.548	72701.38
853.794	73160.38
854.041	73494.38
854.288	74038.38
854.534	74297.38
854.781	74582.38
855.028	74252.38
855.274	73892.38
855.52	73651.38
855.767	73268.38
856.013	73202.38
856.26	73164.38
856.506	72638.38
856.752	72582.38
856.998	72688.38
857.244	72839.38
857.49	73217.38
857.736	73188.38
857.982	73299.38
858.228	72944.38
858.474	72672.38
858.72	72540.38
858.966	71697.38
859.212	71028.38
859.458	70420.38
859.703	69932.38
859.949	69350.38
860.195	68910.38
860.44	68381.38
860.686	68359.38
860.931	68318.38
861.177	67997.38
861.422	67762.38
861.667	67660.38
861.913	67733.38
862.158	67855.38
862.403	68264.38
862.648	68421.38
862.893	68300.38
863.138	68433.38
863.384	68232.38
863.629	68045.38
863.873	68006.38
864.118	67891.38
864.363	67554.38
864.608	67115.38
864.853	66781.38
865.098	66399.38
865.342	66363.38
865.587	66017.38
865.832	66135.38
866.076	65895.38
866.321	65710.38
866.565	65676.38
866.81	65341.38
867.054	65207.38
867.298	65081.38
867.543	64961.38
867.787	65179.38
868.031	64845.38
868.275	64939.38
868.519	64929.38
868.764	64812.38
869.008	64679.38
869.252	64663.38
869.496	64361.38
869.739	64586.38
869.983	64430.38
870.227	64340.38
870.471	64412.38
870.715	64650.38
870.958	64558.38
871.202	64735.38
871.446	64780.38
871.689	64834.38
871.933	64963.38
872.176	64714.38
872.42	64482.38
872.663	64449.38
872.906	64138.38
873.15	63994.38
873.393	63288.38
873.636	63080.38
873.879	62462.38
874.122	62165.38
874.366	61334.38
874.609	60872.38
874.852	60644.38
875.095	60544.38
875.337	60566.38
875.58	60161.38
875.823	60127.38
876.066	60259.38
876.309	59898.38
876.551	59533.38
876.794	59323.38
877.037	59273.38
877.279	59119.38
877.522	59284.38
877.764	59427.38
878.007	59136.38
878.249	59204.38
878.491	58999.38
878.734	59192.38
878.976	58775.38
879.218	58436.38
879.46	58026.38
879.702	57819.38
879.945	57264.38
880.187	57068.38
880.429	56738.38
880.671	56442.38
880.912	56318.38
881.154	56125.38
881.396	56087.38
881.638	56173.38
881.88	56068.38
882.121	56069.38
882.363	55986.38
882.605	55716.38
882.846	55651.38
883.088	55422.38
883.329	55307.38
883.571	55298.38
883.812	55579.38
884.053	56029.38
884.295	56444.38
884.536	56672.38
884.777	56459.38
885.018	56319.38
885.259	56366.38
885.5	56191.38
885.742	56361.38
885.982	56071.38
886.223	55611.38
886.464	55499.38
886.705	55056.38
886.946	54465.38
887.187	53903.38
887.428	53471.38
887.668	53019.38
887.909	52377.38
888.15	51825.38
888.39	51689.38
888.631	51236.38
888.871	51022.38
889.111	50500.38
889.352	50248.38
889.592	49877.38
889.833	49410.38
890.073	49197.38
890.313	49180.38
890.553	48605.38
890.793	48686.38
891.033	48338.38
891.273	48063.38
891.513	47962.38
891.753	47851.38
891.993	47808.38
892.233	47830.38
892.473	47950.38
892.713	47944.38
892.952	47994.38
893.192	48004.38
893.432	47854.38
893.671	47977.38
893.911	47718.38
894.15	47320.38
894.39	47043.38
894.629	46651.38
894.869	46382.38
895.108	46148.38
895.347	46020.38
895.587	45652.38
895.826	45645.38
896.065	45474.38
896.304	45545.38
896.543	45493.38
896.782	45213.38
897.021	45143.38
897.26	44991.38
897.499	44913.38
897.738	44709.38
897.977	44641.38
898.216	44222.38
898.454	43837.38
898.693	43796.38
898.932	43557.38
899.17	43324.38
899.409	43237.38
899.647	43005.38
899.886	43091.38
900.124	43234.38
900.363	43148.38
900.601	43371.38
900.839	43124.38
901.078	43388.38
901.316	43523.38
901.554	43602.38
901.792	43762.38
902.03	43744.38
902.268	43583.38
902.506	43526.38
902.744	43208.38
902.982	42876.38
903.22	42289.38
903.458	41887.38
903.695	41571.38
903.933	40978.38
904.171	40370.38
904.409	39828.38
904.646	39372.38
904.884	38871.38
905.121	38578.38
905.359	38321.38
905.596	37920.38
905.833	37721.38
906.071	37610.38
906.308	37303.38
906.545	37278.38
906.783	37301.38
907.02	37245.38
907.257	37075.38
907.494	37002.38
907.731	37012.38
907.968	36738.38
908.205	36596.38
908.442	36314.38
908.679	36162.38
908.915	35950.38
909.152	35774.38
909.389	35439.38
909.626	35287.38
909.862	34919.38
910.099	34872.38
910.335	34729.38
910.572	34498.38
910.808	34496.38
911.045	34276.38
911.281	34219.38
911.518	34127.38
911.754	34037.38
911.99	33661.38
912.226	33457.38
912.463	33176.38
912.699	32858.38
912.935	32830.38
913.171	32383.38
913.407	32235.38
913.643	31977.38
913.879	31718.38
914.114	31314.38
914.35	31104.38
914.586	30926.38
914.822	30672.38
915.057	30397.38
915.293	30299.38
915.529	30206.38
915.764	30196.38
916	30114.38
916.235	29993.38
916.471	30033.38
916.706	29851.38
916.941	29920.38
917.177	29693.38
917.412	29735.38
917.647	29685.38
917.882	29659.38
918.117	29654.38
918.352	29437.38
918.588	29223.38
918.823	29013.38
919.057	28823.38
919.292	28578.38
919.527	28350.38
919.762	27944.38
919.997	27782.38
920.232	27402.38
920.466	27225.38
920.701	26978.38
920.935	26860.38
921.17	26566.38
921.405	26513.38
921.639	26456.38
921.873	26177.38
922.108	26255.38
922.342	26122.38
922.576	26047.38
922.811	25919.38
923.045	25975.38
923.279	25836.38
923.513	25539.38
923.747	25522.38
923.981	25394.38
924.215	25214.38
924.449	24968.38
924.683	24873.38
924.917	24721.38
925.151	24573.38
925.385	24622.38
925.618	24514.38
925.852	24451.38
926.086	24381.38
926.319	24410.38
926.553	24332.38
926.786	24361.38
927.02	24316.38
927.253	24295.38
927.486	24095.38
927.72	23952.38
927.953	24005.38
928.186	23975.38
928.42	23833.38
928.653	23707.38
928.886	23574.38
929.119	23522.38
929.352	23461.38
929.585	23168.38
929.818	23027.38
930.051	22817.38
930.284	22692.38
930.516	22421.38
930.749	22331.38
930.982	22216.38
931.215	22154.38
931.447	22036.38
931.68	21889.38
931.912	21922.38
932.145	21993.38
932.377	21931.38
932.61	22024.38
932.842	21903.38
933.074	21912.38
933.307	21815.38
933.539	21764.38
933.771	21736.38
934.003	21770.38
934.236	21804.38
934.468	21830.38
934.7	21626.38
934.932	21638.38
935.164	21510.38
935.395	21363.38
935.627	21407.38
935.859	21326.38
936.091	21145.38
936.323	21052.38
936.554	21067.38
936.786	20974.38
937.017	20791.38
937.249	20919.38
937.481	20605.38
937.712	20725.38
937.943	20657.38
938.175	20700.38
938.406	20607.38
938.637	20643.38
938.869	20460.38
939.1	20496.38
939.331	20396.38
939.562	20371.38
939.793	20175.38
940.024	20234.38
940.255	20083.38
940.486	20027.38
940.717	19878.38
940.948	19747.38
941.179	19803.38
941.409	19737.38
941.64	19710.38
941.871	19596.38
942.102	19748.38
942.332	19704.38
942.563	19741.38
942.793	19615.38
943.024	19568.38
943.254	19642.38
943.484	19573.38
943.715	19537.38
943.945	19454.38
944.175	19325.38
944.405	19377.38
944.636	19313.38
944.866	19405.38
945.096	19514.38
945.326	19210.38
945.556	19149.38
945.786	19058.38
946.016	18873.38
946.245	18737.38
946.475	18728.38
946.705	18610.38
946.935	18526.38
947.164	18382.38
947.394	18246.38
947.624	18252.38
947.853	18192.38
948.083	18041.38
948.312	17954.38
948.542	17905.38
948.771	17919.38
949	17935.38
949.23	17820.38
949.459	17803.38
949.688	17731.38
949.917	17770.38
950.146	17714.38
950.375	17707.38
950.604	17634.38
950.833	17683.38
951.062	17574.38
951.291	17610.38
951.52	17485.38
951.749	17504.38
951.978	17413.38
952.206	17300.38
952.435	17237.38
952.664	17241.38
952.892	17166.38
953.121	17152.38
953.349	17023.38
953.578	16974.38
953.806	16904.38
954.035	16797.38
954.263	16717.38
954.491	16593.38
954.719	16609.38
954.948	16538.38
955.176	16379.38
955.404	16343.38
955.632	16218.38
955.86	16259.38
956.088	16103.38
956.316	16138.38
956.544	15982.38
956.772	15873.38
956.999	15787.38
957.227	15782.38
957.455	15624.38
957.683	15479.38
957.91	15372.38
958.138	15437.38
958.365	15453.38
958.593	15298.38
958.82	15047.38
959.048	15237.38
959.275	15164.38
959.502	15064.38
959.73	15015.38
959.957	15037.38
960.184	14959.38
960.411	14972.38
960.638	14888.38
960.865	14945.38
961.092	14848.38
961.319	14744.38
961.546	14820.38
961.773	14818.38
962	14740.38
962.227	14777.38
962.454	14628.38
962.68	14620.38
962.907	14452.38
963.134	14384.38
963.36	14303.38
963.587	14195.38
963.813	14060.38
964.04	14035.38
964.266	13989.38
964.493	13925.38
964.719	13838.38
964.945	13648.38
965.171	13568.38
965.398	13480.38
965.624	13500.38
965.85	13391.38
966.076	13309.38
966.302	13230.38
966.528	13190.38
966.754	13221.38
966.98	13115.38
967.206	13111.38
967.431	12975.38
967.657	12995.38
967.883	12952.38
968.109	12937.38
968.334	12832.38
968.56	12799.38
968.785	12768.38
969.011	12660.38
969.236	12660.38
969.462	12636.38
969.687	12591.38
969.912	12565.38
970.138	12564.38
970.363	12440.38
970.588	12448.38
970.813	12367.38
971.038	12269.38
971.263	12220.38
971.488	12265.38
971.713	12163.38
971.938	12158.38
972.163	12010.38
972.388	11976.38
972.613	11853.38
972.838	11844.38
973.062	11773.38
973.287	11761.38
973.512	11677.38
973.736	11631.38
973.961	11545.38
974.185	11485.38
974.41	11428.38
974.634	11220.38
974.858	11277.38
975.083	11124.38
975.307	11152.38
975.531	11016.38
975.755	10942.38
975.98	10907.38
976.204	10800.38
976.428	10742.38
976.652	10714.38
976.876	10569.38
977.1	10625.38
977.324	10620.38
977.547	10568.38
977.771	10546.38
977.995	10514.38
978.219	10393.38
978.442	10433.38
978.666	10389.38
978.89	10302.38
979.113	10362.38
979.337	10233.38
979.56	10227.38
979.783	10239.38
980.007	10055.38
980.23	10096.38
980.453	10019.38
980.677	9905.38
980.9	9964.38
981.123	9813.38
981.346	9878.38
981.569	9779.38
981.792	9720.38
982.015	9640.38
982.238	9563.38
982.461	9500.38
982.684	9457.38
982.907	9343.38
983.129	9307.38
983.352	9232.38
983.575	9188.38
983.797	9140.38
984.02	9048.38
984.242	9034.38
984.465	8947.38
984.687	8973.38
984.91	9034.38
985.132	8802.38
985.354	8897.38
985.577	8823.38
985.799	8749.38
986.021	8660.38
986.243	8583.38
986.465	8637.38
986.687	8629.38
986.909	8639.38
987.131	8559.38
987.353	8535.38
987.575	8478.38
987.797	8416.38
988.019	8363.38
988.241	8380.38
988.462	8340.38
988.684	8397.38
988.906	8334.38
989.127	8314.38
989.349	8168.38
989.57	8157.38
989.792	8217.38
990.013	8212.38
990.234	8147.38
990.456	8096.38
990.677	8014.38
990.898	7919.38
991.119	7864.38
991.341	7864.38
991.562	7731.38
991.783	7791.38
992.004	7604.38
992.225	7573.38
992.446	7588.38
992.667	7495.38
992.887	7518.38
993.108	7375.38
993.329	7459.38
993.55	7347.38
993.77	7225.38
993.991	7123.38
994.212	7179.38
994.432	7174.38
994.653	7108.38
994.873	7084.38
995.093	6901.38
995.314	6929.38
995.534	6913.38
995.754	6979.38
995.975	6913.38
996.195	6797.38
996.415	6824.38
996.635	6826.38
996.855	6767.38
997.075	6768.38
997.295	6718.38
997.515	6693.38
997.735	6728.38
997.955	6734.38
998.174	6732.38
998.394	6585.38
998.614	6624.38
998.834	6557.38
999.053	6573.38
999.273	6507.38
999.492	6556.38
999.712	6409.38
999.931	6347.38
1000.151	6388.38
1000.37	6317.38
1000.589	6336.38
1000.809	6203.38
1001.028	6295.38
1001.247	6134.38
1001.466	6021.38
1001.685	6117.38
1001.904	5993.38
1002.123	5982.38
1002.342	5934.38
1002.561	5828.38
1002.78	5812.38
1002.999	5879.38
1003.218	5724.38
1003.436	5706.38
1003.655	5662.38
1003.874	5598.38
1004.092	5634.38
1004.311	5605.38
1004.53	5542.38
1004.748	5623.38
1004.966	5505.38
1005.185	5509.38
1005.403	5517.38
1005.622	5473.38
1005.84	5510.38
1006.058	5412.38
1006.276	5401.38
1006.494	5753.38
1006.712	5341.38
1006.931	5362.38
1007.149	5332.38
1007.367	5291.38
1007.584	5326.38
1007.802	5453.38
1008.02	5395.38
1008.238	5474.38
1008.456	5445.38
1008.673	5311.38
1008.891	5417.38
1009.109	5400.38
1009.326	5452.38
1009.544	5577.38
1009.761	5579.38
1009.979	5703.38
1010.196	5765.38
1010.413	5969.38
1010.631	6068.38
1010.848	6182.38
1011.065	6263.38
1011.282	6207.38
1011.5	6113.38
1011.717	6219.38
1011.934	6071.38
1012.151	6150.38
1012.368	6122.38
1012.585	6082.38
1012.801	6050.38
1013.018	6110.38
1013.235	6043.38
1013.452	6037.38
1013.669	6047.38
1013.885	6031.38
1014.102	6124.38
1014.318	6104.38
1014.535	6000.38
1014.751	5990.38
1014.968	5986.38
1015.184	5923.38
1015.401	5787.38
1015.617	5832.38
1015.833	5758.38
1016.049	5706.38
1016.266	5650.38
1016.482	5594.38
1016.698	5545.38
1016.914	5495.38
1017.13	5543.38
1017.346	5436.38
1017.562	5417.38
1017.778	5404.38
1017.993	5394.38
1018.209	5442.38
1018.425	5410.38
1018.641	5310.38
1018.856	5299.38
1019.072	5376.38
1019.288	5332.38
1019.503	5312.38
1019.719	5215.38
1019.934	5190.38
1020.149	5251.38
1020.365	5148.38
1020.58	5029.38
1020.795	4979.38
1021.011	4836.38
1021.226	4766.38
1021.441	4682.38
1021.656	4502.38
1021.871	4364.38
1022.086	4364.38
1022.301	4265.38
1022.516	4187.38
1022.731	4173.38
1022.946	4052.38
1023.16	3948.38
1023.375	3920.38
1023.59	3816.38
1023.804	3733.38
1024.019	3822.38
1024.234	3591.38
1024.448	3559.38
1024.663	3462.38
1024.877	3443.38
1025.092	3376.38
1025.306	3328.38
1025.52	3176.38
1025.734	3236.38
1025.949	3012.38
1026.163	2978.38
1026.377	2821.38
1026.591	2875.38
1026.805	2727.38
1027.019	2700.38
1027.233	2604.38
1027.447	2558.38
1027.661	2601.38
1027.875	2517.38
1028.088	2505.38
1028.302	2357.38
1028.516	2292.38
1028.73	2219.38
1028.943	2148.38
1029.157	2031.38
1029.37	1888.38
1029.584	0.38
1029.797	-3.62
1030.011	-1.62
1030.224	-1.62
