Data from QEP037381__523__17-35-17-569.txt Node

Date: Fri Dec 16 17:35:17 EST 2022
User: dcclab
Spectrometer: QEP03738
Trigger mode: 4
Integration Time (sec): 1.000000E1
Scans to average: 1
Electric dark correction enabled: true
Nonlinearity correction enabled: false
Boxcar width: 0
XAxis mode: Wavelengths
Number of Pixels in Spectrum: 1044
>>>>>Begin Spectral Data<<<<<
784.041	8.5
784.3	0.5
784.558	-0.5
784.817	-1.5
785.075	95108.5
785.334	16519.5
785.592	7816.5
785.851	5377.5
786.109	4003.5
786.368	3119.5
786.626	2568.5
786.884	2095.5
787.143	1775.5
787.401	1441.5
787.659	1314.5
787.917	1129.5
788.175	1059.5
788.433	922.5
788.691	827.5
788.949	762.5
789.207	737.5
789.465	666.5
789.723	644.5
789.98	582.5
790.238	622.5
790.496	591.5
790.753	578.5
791.011	610.5
791.268	512.5
791.526	514.5
791.783	537.5
792.041	524.5
792.298	450.5
792.556	500.5
792.813	485.5
793.07	469.5
793.327	450.5
793.584	533.5
793.841	456.5
794.099	462.5
794.356	525.5
794.613	434.5
794.869	472.5
795.126	427.5
795.383	412.5
795.64	433.5
795.897	386.5
796.153	456.5
796.41	440.5
796.667	435.5
796.923	414.5
797.18	425.5
797.436	453.5
797.693	420.5
797.949	485.5
798.206	500.5
798.462	405.5
798.718	476.5
798.974	460.5
799.231	498.5
799.487	491.5
799.743	508.5
799.999	518.5
800.255	524.5
800.511	524.5
800.767	575.5
801.023	543.5
801.279	578.5
801.534	641.5
801.79	675.5
802.046	709.5
802.302	853.5
802.557	984.5
802.813	1227.5
803.068	1504.5
803.324	2091.5
803.579	2883.5
803.835	3990.5
804.09	5555.5
804.345	7192.5
804.601	9155.5
804.856	11094.5
805.111	12844.5
805.366	14130.5
805.621	15278.5
805.876	15889.5
806.131	16349.5
806.386	16679.5
806.641	17000.5
806.896	17353.5
807.151	17628.5
807.406	17937.5
807.661	18282.5
807.915	18567.5
808.17	18887.5
808.425	19220.5
808.679	19459.5
808.934	19724.5
809.188	19851.5
809.443	20066.5
809.697	20346.5
809.951	20530.5
810.206	20720.5
810.46	20859.5
810.714	21039.5
810.968	21287.5
811.223	21443.5
811.477	21745.5
811.731	21788.5
811.985	22008.5
812.239	22042.5
812.493	22230.5
812.747	22265.5
813	22366.5
813.254	22522.5
813.508	22604.5
813.762	22628.5
814.015	22807.5
814.269	23079.5
814.522	23268.5
814.776	23600.5
815.03	23844.5
815.283	24157.5
815.536	24506.5
815.79	25018.5
816.043	25331.5
816.296	25737.5
816.55	26044.5
816.803	26257.5
817.056	26746.5
817.309	27076.5
817.562	27296.5
817.815	27548.5
818.068	27864.5
818.321	28093.5
818.574	28450.5
818.827	28788.5
819.079	29299.5
819.332	29764.5
819.585	30017.5
819.838	30525.5
820.09	30708.5
820.343	31021.5
820.595	30999.5
820.848	31357.5
821.1	31528.5
821.353	31378.5
821.605	31514.5
821.857	31353.5
822.11	31280.5
822.362	31185.5
822.614	31170.5
822.866	31162.5
823.118	31002.5
823.37	31176.5
823.622	31309.5
823.874	31357.5
824.126	31528.5
824.378	31682.5
824.63	31717.5
824.882	31769.5
825.134	31690.5
825.385	31769.5
825.637	31649.5
825.888	31625.5
826.14	31545.5
826.392	31393.5
826.643	31129.5
826.895	31047.5
827.146	31010.5
827.397	30864.5
827.649	31014.5
827.9	30882.5
828.151	30937.5
828.402	31062.5
828.653	31076.5
828.905	31054.5
829.156	31267.5
829.407	31195.5
829.658	31012.5
829.909	31144.5
830.159	31131.5
830.41	30927.5
830.661	30656.5
830.912	30556.5
831.162	30396.5
831.413	30396.5
831.664	30446.5
831.914	30291.5
832.165	30305.5
832.415	30280.5
832.666	30301.5
832.916	30345.5
833.167	30065.5
833.417	30185.5
833.667	30216.5
833.917	29981.5
834.168	30006.5
834.418	29844.5
834.668	29742.5
834.918	29428.5
835.168	29544.5
835.418	29259.5
835.668	29345.5
835.918	29235.5
836.167	29264.5
836.417	29072.5
836.667	28923.5
836.917	29018.5
837.166	28855.5
837.416	28937.5
837.666	29000.5
837.915	28639.5
838.165	28836.5
838.414	28612.5
838.663	28524.5
838.913	28497.5
839.162	28451.5
839.411	28456.5
839.661	28349.5
839.91	28106.5
840.159	28098.5
840.408	28134.5
840.657	28074.5
840.906	28207.5
841.155	28132.5
841.404	28204.5
841.653	28069.5
841.902	28057.5
842.15	28172.5
842.399	28035.5
842.648	27989.5
842.897	27942.5
843.145	27790.5
843.394	27580.5
843.642	27357.5
843.891	27337.5
844.139	27124.5
844.388	27032.5
844.636	26857.5
844.884	26973.5
845.133	26737.5
845.381	26736.5
845.629	26862.5
845.877	26810.5
846.125	26704.5
846.373	26649.5
846.621	26530.5
846.869	26539.5
847.117	26128.5
847.365	26084.5
847.613	26066.5
847.861	25917.5
848.108	25826.5
848.356	25773.5
848.604	25769.5
848.851	25730.5
849.099	25797.5
849.346	25818.5
849.594	25868.5
849.841	26040.5
850.089	25915.5
850.336	26047.5
850.583	25987.5
850.831	25822.5
851.078	25722.5
851.325	25704.5
851.572	25710.5
851.819	25492.5
852.066	24990.5
852.313	24701.5
852.56	24435.5
852.807	24230.5
853.054	24242.5
853.301	24208.5
853.548	24278.5
853.794	24442.5
854.041	24402.5
854.288	24441.5
854.534	24624.5
854.781	24581.5
855.028	24530.5
855.274	24378.5
855.52	24244.5
855.767	24054.5
856.013	24143.5
856.26	24296.5
856.506	23817.5
856.752	23857.5
856.998	23802.5
857.244	23834.5
857.49	24009.5
857.736	23992.5
857.982	24124.5
858.228	23923.5
858.474	23707.5
858.72	23649.5
858.966	23512.5
859.212	23149.5
859.458	22980.5
859.703	22734.5
859.949	22521.5
860.195	22351.5
860.44	22322.5
860.686	22166.5
860.931	22010.5
861.177	21891.5
861.422	21923.5
861.667	21797.5
861.913	21767.5
862.158	21950.5
862.403	21910.5
862.648	22014.5
862.893	22072.5
863.138	21912.5
863.384	21946.5
863.629	21962.5
863.873	21817.5
864.118	21702.5
864.363	21623.5
864.608	21514.5
864.853	21594.5
865.098	21373.5
865.342	21232.5
865.587	21126.5
865.832	21147.5
866.076	21057.5
866.321	20959.5
866.565	20896.5
866.81	20718.5
867.054	20660.5
867.298	20642.5
867.543	20580.5
867.787	20666.5
868.031	20501.5
868.275	20438.5
868.519	20487.5
868.764	20468.5
869.008	20229.5
869.252	20273.5
869.496	20226.5
869.739	20140.5
869.983	20167.5
870.227	20085.5
870.471	19945.5
870.715	20115.5
870.958	20182.5
871.202	20100.5
871.446	20114.5
871.689	20115.5
871.933	20143.5
872.176	19991.5
872.42	20007.5
872.663	19943.5
872.906	19966.5
873.15	19807.5
873.393	19605.5
873.636	19533.5
873.879	19387.5
874.122	19220.5
874.366	18977.5
874.609	18935.5
874.852	18747.5
875.095	18668.5
875.337	18600.5
875.58	18583.5
875.823	18410.5
876.066	18491.5
876.309	18400.5
876.551	18278.5
876.794	18088.5
877.037	18123.5
877.279	18018.5
877.522	18123.5
877.764	18030.5
878.007	18008.5
878.249	17952.5
878.491	17938.5
878.734	17935.5
878.976	17900.5
879.218	17760.5
879.46	17640.5
879.702	17566.5
879.945	17361.5
880.187	17251.5
880.429	17107.5
880.671	17121.5
880.912	16942.5
881.154	16879.5
881.396	16833.5
881.638	16904.5
881.88	16893.5
882.121	16793.5
882.363	16729.5
882.605	16774.5
882.846	16672.5
883.088	16633.5
883.329	16528.5
883.571	16494.5
883.812	16492.5
884.053	16608.5
884.295	16779.5
884.536	16920.5
884.777	16831.5
885.018	16789.5
885.259	16787.5
885.5	16591.5
885.742	16797.5
885.982	16514.5
886.223	16460.5
886.464	16460.5
886.705	16213.5
886.946	16151.5
887.187	15843.5
887.428	15959.5
887.668	15636.5
887.909	15495.5
888.15	15347.5
888.39	15218.5
888.631	15233.5
888.871	15001.5
889.111	14969.5
889.352	14928.5
889.592	14747.5
889.833	14598.5
890.073	14468.5
890.313	14441.5
890.553	14342.5
890.793	14318.5
891.033	14177.5
891.273	14113.5
891.513	14012.5
891.753	14126.5
891.993	14057.5
892.233	14105.5
892.473	14137.5
892.713	14088.5
892.952	14119.5
893.192	14073.5
893.432	14044.5
893.671	14079.5
893.911	13992.5
894.15	13817.5
894.39	13743.5
894.629	13649.5
894.869	13605.5
895.108	13562.5
895.347	13454.5
895.587	13485.5
895.826	13228.5
896.065	13227.5
896.304	13349.5
896.543	13315.5
896.782	13210.5
897.021	13234.5
897.26	13183.5
897.499	13157.5
897.738	13106.5
897.977	12931.5
898.216	12863.5
898.454	12739.5
898.693	12684.5
898.932	12658.5
899.17	12603.5
899.409	12558.5
899.647	12462.5
899.886	12414.5
900.124	12568.5
900.363	12474.5
900.601	12528.5
900.839	12478.5
901.078	12578.5
901.316	12480.5
901.554	12542.5
901.792	12596.5
902.03	12473.5
902.268	12508.5
902.506	12450.5
902.744	12407.5
902.982	12363.5
903.22	12051.5
903.458	11972.5
903.695	11939.5
903.933	11743.5
904.171	11492.5
904.409	11402.5
904.646	11252.5
904.884	11131.5
905.121	11003.5
905.359	10903.5
905.596	10776.5
905.833	10701.5
906.071	10660.5
906.308	10608.5
906.545	10571.5
906.783	10532.5
907.02	10534.5
907.257	10427.5
907.494	10536.5
907.731	10491.5
907.968	10395.5
908.205	10271.5
908.442	10252.5
908.679	10100.5
908.915	10121.5
909.152	10004.5
909.389	9911.5
909.626	9827.5
909.862	9760.5
910.099	9720.5
910.335	9702.5
910.572	9607.5
910.808	9602.5
911.045	9579.5
911.281	9502.5
911.518	9599.5
911.754	9471.5
911.99	9380.5
912.226	9244.5
912.463	9246.5
912.699	9177.5
912.935	9120.5
913.171	8996.5
913.407	8942.5
913.643	8920.5
913.879	8785.5
914.114	8693.5
914.35	8678.5
914.586	8506.5
914.822	8422.5
915.057	8488.5
915.293	8379.5
915.529	8292.5
915.764	8378.5
916	8306.5
916.235	8280.5
916.471	8305.5
916.706	8130.5
916.941	8128.5
917.177	8128.5
917.412	8225.5
917.647	8190.5
917.882	8086.5
918.117	8118.5
918.352	8074.5
918.588	8057.5
918.823	7980.5
919.057	7904.5
919.292	7777.5
919.527	7805.5
919.762	7680.5
919.997	7633.5
920.232	7488.5
920.466	7453.5
920.701	7335.5
920.935	7348.5
921.17	7313.5
921.405	7247.5
921.639	7256.5
921.873	7177.5
922.108	7175.5
922.342	7177.5
922.576	7081.5
922.811	7010.5
923.045	7077.5
923.279	7102.5
923.513	6896.5
923.747	6956.5
923.981	6925.5
924.215	6850.5
924.449	6836.5
924.683	6671.5
924.917	6735.5
925.151	6633.5
925.385	6749.5
925.618	6693.5
925.852	6641.5
926.086	6544.5
926.319	6622.5
926.553	6589.5
926.786	6594.5
927.02	6543.5
927.253	6609.5
927.486	6617.5
927.72	6498.5
927.953	6509.5
928.186	6469.5
928.42	6507.5
928.653	6404.5
928.886	6349.5
929.119	6386.5
929.352	6238.5
929.585	6321.5
929.818	6182.5
930.051	6180.5
930.284	6168.5
930.516	6055.5
930.749	5979.5
930.982	6074.5
931.215	6036.5
931.447	5889.5
931.68	5869.5
931.912	5873.5
932.145	5835.5
932.377	5916.5
932.61	6097.5
932.842	5836.5
933.074	5864.5
933.307	5881.5
933.539	5902.5
933.771	5910.5
934.003	5786.5
934.236	5948.5
934.468	5870.5
934.7	5792.5
934.932	5807.5
935.164	5761.5
935.395	5741.5
935.627	5701.5
935.859	5690.5
936.091	5603.5
936.323	5674.5
936.554	5682.5
936.786	5643.5
937.017	5544.5
937.249	5569.5
937.481	5509.5
937.712	5548.5
937.943	5491.5
938.175	5512.5
938.406	5506.5
938.637	5486.5
938.869	5451.5
939.1	5489.5
939.331	5404.5
939.562	5428.5
939.793	5444.5
940.024	5414.5
940.255	5403.5
940.486	5350.5
940.717	5285.5
940.948	5212.5
941.179	5234.5
941.409	5232.5
941.64	5184.5
941.871	5222.5
942.102	5177.5
942.332	5194.5
942.563	5220.5
942.793	5231.5
943.024	5095.5
943.254	5182.5
943.484	5185.5
943.715	5246.5
943.945	5113.5
944.175	5109.5
944.405	5059.5
944.636	5075.5
944.866	5102.5
945.096	5151.5
945.326	5014.5
945.556	5074.5
945.786	5048.5
946.016	4993.5
946.245	4879.5
946.475	4888.5
946.705	4907.5
946.935	4871.5
947.164	4860.5
947.394	4769.5
947.624	4772.5
947.853	4837.5
948.083	4789.5
948.312	4713.5
948.542	4659.5
948.771	4631.5
949	4651.5
949.23	4645.5
949.459	4667.5
949.688	4685.5
949.917	4688.5
950.146	4562.5
950.375	4672.5
950.604	4565.5
950.833	4644.5
951.062	4652.5
951.291	4554.5
951.52	4529.5
951.749	4588.5
951.978	4494.5
952.206	4500.5
952.435	4448.5
952.664	4479.5
952.892	4464.5
953.121	4433.5
953.349	4489.5
953.578	4476.5
953.806	4380.5
954.035	4343.5
954.263	4389.5
954.491	4241.5
954.719	4318.5
954.948	4276.5
955.176	4228.5
955.404	4155.5
955.632	4243.5
955.86	4239.5
956.088	4156.5
956.316	4189.5
956.544	4223.5
956.772	4109.5
956.999	4099.5
957.227	4156.5
957.455	4055.5
957.683	4042.5
957.91	4004.5
958.138	3944.5
958.365	3962.5
958.593	3912.5
958.82	3834.5
959.048	3956.5
959.275	3887.5
959.502	3893.5
959.73	3876.5
959.957	3862.5
960.184	3857.5
960.411	3825.5
960.638	3875.5
960.865	3859.5
961.092	3849.5
961.319	3784.5
961.546	3858.5
961.773	3845.5
962	3803.5
962.227	3838.5
962.454	3818.5
962.68	3776.5
962.907	3782.5
963.134	3720.5
963.36	3693.5
963.587	3699.5
963.813	3667.5
964.04	3680.5
964.266	3614.5
964.493	3674.5
964.719	3605.5
964.945	3594.5
965.171	3482.5
965.398	3544.5
965.624	3540.5
965.85	3457.5
966.076	3473.5
966.302	3473.5
966.528	3437.5
966.754	3483.5
966.98	3451.5
967.206	3411.5
967.431	3328.5
967.657	3441.5
967.883	3410.5
968.109	3405.5
968.334	3332.5
968.56	3342.5
968.785	3322.5
969.011	3266.5
969.236	3314.5
969.462	3261.5
969.687	3295.5
969.912	3318.5
970.138	3338.5
970.363	3196.5
970.588	3264.5
970.813	3216.5
971.038	3180.5
971.263	3238.5
971.488	3187.5
971.713	3174.5
971.938	3185.5
972.163	3131.5
972.388	3100.5
972.613	3089.5
972.838	3072.5
973.062	3064.5
973.287	3081.5
973.512	2993.5
973.736	3002.5
973.961	3031.5
974.185	2999.5
974.41	3039.5
974.634	2889.5
974.858	2926.5
975.083	2945.5
975.307	2924.5
975.531	2917.5
975.755	2861.5
975.98	2881.5
976.204	2779.5
976.428	2747.5
976.652	2786.5
976.876	2755.5
977.1	2751.5
977.324	2722.5
977.547	2777.5
977.771	2776.5
977.995	2737.5
978.219	2679.5
978.442	2776.5
978.666	2696.5
978.89	2719.5
979.113	2717.5
979.337	2669.5
979.56	2655.5
979.783	2765.5
980.007	2629.5
980.23	2654.5
980.453	2649.5
980.677	2646.5
980.9	2607.5
981.123	2567.5
981.346	2601.5
981.569	2581.5
981.792	2599.5
982.015	2549.5
982.238	2528.5
982.461	2518.5
982.684	2513.5
982.907	2467.5
983.129	2493.5
983.352	2503.5
983.575	2466.5
983.797	2448.5
984.02	2410.5
984.242	2377.5
984.465	2384.5
984.687	2412.5
984.91	2426.5
985.132	2414.5
985.354	2399.5
985.577	2393.5
985.799	2340.5
986.021	2280.5
986.243	2308.5
986.465	2333.5
986.687	2344.5
986.909	2387.5
987.131	2288.5
987.353	2247.5
987.575	2308.5
987.797	2284.5
988.019	2237.5
988.241	2256.5
988.462	2248.5
988.684	2257.5
988.906	2285.5
989.127	2312.5
989.349	2178.5
989.57	2228.5
989.792	2244.5
990.013	2247.5
990.234	2266.5
990.456	2246.5
990.677	2232.5
990.898	2179.5
991.119	2195.5
991.341	2186.5
991.562	2109.5
991.783	2170.5
992.004	2119.5
992.225	2076.5
992.446	2103.5
992.667	2057.5
992.887	2077.5
993.108	1998.5
993.329	2124.5
993.55	2057.5
993.77	1997.5
993.991	2007.5
994.212	2037.5
994.432	1985.5
994.653	2049.5
994.873	2003.5
995.093	1898.5
995.314	1936.5
995.534	2028.5
995.754	2022.5
995.975	2025.5
996.195	1904.5
996.415	1941.5
996.635	1964.5
996.855	1947.5
997.075	1897.5
997.295	1907.5
997.515	1896.5
997.735	1935.5
997.955	1910.5
998.174	1884.5
998.394	1899.5
998.614	1910.5
998.834	1874.5
999.053	1943.5
999.273	1873.5
999.492	1963.5
999.712	1892.5
999.931	1862.5
1000.151	1877.5
1000.37	1863.5
1000.589	1891.5
1000.809	1837.5
1001.028	1926.5
1001.247	1884.5
1001.466	1740.5
1001.685	1909.5
1001.904	1830.5
1002.123	1810.5
1002.342	1792.5
1002.561	1781.5
1002.78	1774.5
1002.999	1842.5
1003.218	1803.5
1003.436	1760.5
1003.655	1805.5
1003.874	1751.5
1004.092	1766.5
1004.311	1796.5
1004.53	1743.5
1004.748	1828.5
1004.966	1745.5
1005.185	1800.5
1005.403	1771.5
1005.622	1752.5
1005.84	1821.5
1006.058	1714.5
1006.276	1743.5
1006.494	2087.5
1006.712	1732.5
1006.931	1796.5
1007.149	1680.5
1007.367	1683.5
1007.584	1736.5
1007.802	1758.5
1008.02	1703.5
1008.238	1761.5
1008.456	1802.5
1008.673	1622.5
1008.891	1773.5
1009.109	1738.5
1009.326	1731.5
1009.544	1814.5
1009.761	1724.5
1009.979	1780.5
1010.196	1793.5
1010.413	1891.5
1010.631	1916.5
1010.848	1949.5
1011.065	1952.5
1011.282	1895.5
1011.5	1858.5
1011.717	1971.5
1011.934	1892.5
1012.151	1946.5
1012.368	1911.5
1012.585	1855.5
1012.801	1895.5
1013.018	1858.5
1013.235	1818.5
1013.452	1849.5
1013.669	1842.5
1013.885	1836.5
1014.102	1864.5
1014.318	1826.5
1014.535	1802.5
1014.751	1803.5
1014.968	1813.5
1015.184	1848.5
1015.401	1764.5
1015.617	1833.5
1015.833	1731.5
1016.049	1739.5
1016.266	1743.5
1016.482	1711.5
1016.698	1644.5
1016.914	1710.5
1017.13	1661.5
1017.346	1680.5
1017.562	1720.5
1017.778	1635.5
1017.993	1620.5
1018.209	1677.5
1018.425	1642.5
1018.641	1614.5
1018.856	1588.5
1019.072	1599.5
1019.288	1663.5
1019.503	1631.5
1019.719	1534.5
1019.934	1556.5
1020.149	1614.5
1020.365	1535.5
1020.58	1503.5
1020.795	1565.5
1021.011	1517.5
1021.226	1483.5
1021.441	1478.5
1021.656	1400.5
1021.871	1337.5
1022.086	1339.5
1022.301	1334.5
1022.516	1319.5
1022.731	1352.5
1022.946	1284.5
1023.16	1267.5
1023.375	1254.5
1023.59	1220.5
1023.804	1176.5
1024.019	1272.5
1024.234	1183.5
1024.448	1172.5
1024.663	1131.5
1024.877	1158.5
1025.092	1146.5
1025.306	1148.5
1025.52	1045.5
1025.734	1135.5
1025.949	1056.5
1026.163	1022.5
1026.377	955.5
1026.591	993.5
1026.805	957.5
1027.019	917.5
1027.233	881.5
1027.447	825.5
1027.661	942.5
1027.875	883.5
1028.088	873.5
1028.302	809.5
1028.516	793.5
1028.73	788.5
1028.943	799.5
1029.157	736.5
1029.37	694.5
1029.584	-2.5
1029.797	-1.5
1030.011	-0.5
1030.224	-2.5
