Data from QEP037381__541__17-38-17-571.txt Node

Date: Fri Dec 16 17:38:17 EST 2022
User: dcclab
Spectrometer: QEP03738
Trigger mode: 4
Integration Time (sec): 1.000000E1
Scans to average: 1
Electric dark correction enabled: true
Nonlinearity correction enabled: false
Boxcar width: 0
XAxis mode: Wavelengths
Number of Pixels in Spectrum: 1044
>>>>>Begin Spectral Data<<<<<
784.041	11.75
784.3	-1.25
784.558	-3.25
784.817	-6.25
785.075	95952.75
785.334	16055.75
785.592	7478.75
785.851	5147.75
786.109	3829.75
786.368	2971.75
786.626	2428.75
786.884	2028.75
787.143	1729.75
787.401	1419.75
787.659	1303.75
787.917	1074.75
788.175	1018.75
788.433	898.75
788.691	793.75
788.949	743.75
789.207	712.75
789.465	640.75
789.723	609.75
789.98	559.75
790.238	586.75
790.496	581.75
790.753	537.75
791.011	592.75
791.268	525.75
791.526	498.75
791.783	516.75
792.041	510.75
792.298	431.75
792.556	498.75
792.813	475.75
793.07	444.75
793.327	446.75
793.584	516.75
793.841	445.75
794.099	467.75
794.356	522.75
794.613	421.75
794.869	467.75
795.126	421.75
795.383	400.75
795.64	433.75
795.897	384.75
796.153	439.75
796.41	437.75
796.667	417.75
796.923	441.75
797.18	422.75
797.436	454.75
797.693	405.75
797.949	471.75
798.206	495.75
798.462	410.75
798.718	456.75
798.974	449.75
799.231	484.75
799.487	483.75
799.743	470.75
799.999	512.75
800.255	505.75
800.511	489.75
800.767	543.75
801.023	513.75
801.279	576.75
801.534	617.75
801.79	647.75
802.046	679.75
802.302	807.75
802.557	906.75
802.813	1153.75
803.068	1418.75
803.324	1906.75
803.579	2604.75
803.835	3645.75
804.09	4983.75
804.345	6470.75
804.601	8157.75
804.856	9915.75
805.111	11428.75
805.366	12532.75
805.621	13428.75
805.876	14042.75
806.131	14522.75
806.386	14775.75
806.641	15029.75
806.896	15274.75
807.151	15625.75
807.406	15842.75
807.661	16096.75
807.915	16460.75
808.17	16677.75
808.425	16919.75
808.679	17060.75
808.934	17437.75
809.188	17430.75
809.443	17625.75
809.697	17899.75
809.951	18051.75
810.206	18199.75
810.46	18390.75
810.714	18492.75
810.968	18756.75
811.223	18774.75
811.477	19088.75
811.731	19185.75
811.985	19290.75
812.239	19282.75
812.493	19460.75
812.747	19508.75
813	19680.75
813.254	19758.75
813.508	19766.75
813.762	19934.75
814.015	20031.75
814.269	20218.75
814.522	20405.75
814.776	20627.75
815.03	20892.75
815.283	21201.75
815.536	21492.75
815.79	21824.75
816.043	22087.75
816.296	22514.75
816.55	22767.75
816.803	23084.75
817.056	23317.75
817.309	23584.75
817.562	23874.75
817.815	24061.75
818.068	24290.75
818.321	24448.75
818.574	24811.75
818.827	25136.75
819.079	25516.75
819.332	25851.75
819.585	26171.75
819.838	26570.75
820.09	26606.75
820.343	26877.75
820.595	26910.75
820.848	27147.75
821.1	27128.75
821.353	27218.75
821.605	27195.75
821.857	27217.75
822.11	26978.75
822.362	27128.75
822.614	26948.75
822.866	27049.75
823.118	26940.75
823.37	27170.75
823.622	27301.75
823.874	27361.75
824.126	27375.75
824.378	27303.75
824.63	27518.75
824.882	27347.75
825.134	27434.75
825.385	27470.75
825.637	27325.75
825.888	27338.75
826.14	27276.75
826.392	27206.75
826.643	27118.75
826.895	26895.75
827.146	26742.75
827.397	26646.75
827.649	26855.75
827.9	26757.75
828.151	26669.75
828.402	26703.75
828.653	26768.75
828.905	26896.75
829.156	26985.75
829.407	26895.75
829.658	26949.75
829.909	27017.75
830.159	27040.75
830.41	27009.75
830.661	26665.75
830.912	26625.75
831.162	26477.75
831.413	26416.75
831.664	26486.75
831.914	26492.75
832.165	26305.75
832.415	26360.75
832.666	26261.75
832.916	26422.75
833.167	26278.75
833.417	26378.75
833.667	26185.75
833.917	26112.75
834.168	26079.75
834.418	25951.75
834.668	25900.75
834.918	25647.75
835.168	25730.75
835.418	25533.75
835.668	25446.75
835.918	25392.75
836.167	25433.75
836.417	25257.75
836.667	25221.75
836.917	25139.75
837.166	25203.75
837.416	25148.75
837.666	25121.75
837.915	25114.75
838.165	25070.75
838.414	24969.75
838.663	24971.75
838.913	24977.75
839.162	24875.75
839.411	24896.75
839.661	24665.75
839.91	24716.75
840.159	24605.75
840.408	24649.75
840.657	24684.75
840.906	24617.75
841.155	24633.75
841.404	24563.75
841.653	24591.75
841.902	24646.75
842.15	24639.75
842.399	24699.75
842.648	24719.75
842.897	24508.75
843.145	24357.75
843.394	24157.75
843.642	24069.75
843.891	24055.75
844.139	23932.75
844.388	23699.75
844.636	23555.75
844.884	23466.75
845.133	23457.75
845.381	23418.75
845.629	23547.75
845.877	23558.75
846.125	23469.75
846.373	23497.75
846.621	23353.75
846.869	23354.75
847.117	23128.75
847.365	23029.75
847.613	22868.75
847.861	22828.75
848.108	22809.75
848.356	22695.75
848.604	22607.75
848.851	22677.75
849.099	22734.75
849.346	22728.75
849.594	22841.75
849.841	22944.75
850.089	22805.75
850.336	22960.75
850.583	22816.75
850.831	22759.75
851.078	22580.75
851.325	22659.75
851.572	22794.75
851.819	22567.75
852.066	22109.75
852.313	21799.75
852.56	21679.75
852.807	21540.75
853.054	21435.75
853.301	21536.75
853.548	21469.75
853.794	21487.75
854.041	21614.75
854.288	21553.75
854.534	21813.75
854.781	21698.75
855.028	21687.75
855.274	21704.75
855.52	21595.75
855.767	21516.75
856.013	21516.75
856.26	21831.75
856.506	21273.75
856.752	21229.75
856.998	21256.75
857.244	21210.75
857.49	21444.75
857.736	21451.75
857.982	21367.75
858.228	21373.75
858.474	21109.75
858.72	21082.75
858.966	20969.75
859.212	20574.75
859.458	20502.75
859.703	20246.75
859.949	19947.75
860.195	19880.75
860.44	19730.75
860.686	19726.75
860.931	19722.75
861.177	19627.75
861.422	19457.75
861.667	19434.75
861.913	19280.75
862.158	19412.75
862.403	19572.75
862.648	19485.75
862.893	19550.75
863.138	19492.75
863.384	19326.75
863.629	19442.75
863.873	19381.75
864.118	19291.75
864.363	19268.75
864.608	19144.75
864.853	19140.75
865.098	19007.75
865.342	18918.75
865.587	18834.75
865.832	18777.75
866.076	18794.75
866.321	18711.75
866.565	18666.75
866.81	18565.75
867.054	18538.75
867.298	18529.75
867.543	18418.75
867.787	18421.75
868.031	18354.75
868.275	18196.75
868.519	18184.75
868.764	18243.75
869.008	18150.75
869.252	18190.75
869.496	18077.75
869.739	18111.75
869.983	18142.75
870.227	18220.75
870.471	17990.75
870.715	18167.75
870.958	18210.75
871.202	18248.75
871.446	18292.75
871.689	18256.75
871.933	18268.75
872.176	18281.75
872.42	18225.75
872.663	18167.75
872.906	18077.75
873.15	18018.75
873.393	17894.75
873.636	17977.75
873.879	17718.75
874.122	17633.75
874.366	17280.75
874.609	17191.75
874.852	17097.75
875.095	16949.75
875.337	16817.75
875.58	16741.75
875.823	16739.75
876.066	16695.75
876.309	16636.75
876.551	16498.75
876.794	16387.75
877.037	16459.75
877.279	16339.75
877.522	16347.75
877.764	16339.75
878.007	16222.75
878.249	16264.75
878.491	16139.75
878.734	16186.75
878.976	16188.75
879.218	16008.75
879.46	15907.75
879.702	15841.75
879.945	15645.75
880.187	15525.75
880.429	15475.75
880.671	15306.75
880.912	15283.75
881.154	15191.75
881.396	15134.75
881.638	15252.75
881.88	15262.75
882.121	15101.75
882.363	15132.75
882.605	15115.75
882.846	15035.75
883.088	15134.75
883.329	14990.75
883.571	15096.75
883.812	15249.75
884.053	15499.75
884.295	15750.75
884.536	15990.75
884.777	15865.75
885.018	15800.75
885.259	15723.75
885.5	15643.75
885.742	15893.75
885.982	15524.75
886.223	15344.75
886.464	15226.75
886.705	15054.75
886.946	14890.75
887.187	14665.75
887.428	14543.75
887.668	14294.75
887.909	14009.75
888.15	13873.75
888.39	13868.75
888.631	13734.75
888.871	13519.75
889.111	13560.75
889.352	13447.75
889.592	13337.75
889.833	13183.75
890.073	13104.75
890.313	13124.75
890.553	12868.75
890.793	12874.75
891.033	12800.75
891.273	12763.75
891.513	12715.75
891.753	12687.75
891.993	12602.75
892.233	12734.75
892.473	12747.75
892.713	12751.75
892.952	12660.75
893.192	12678.75
893.432	12591.75
893.671	12627.75
893.911	12625.75
894.15	12475.75
894.39	12346.75
894.629	12377.75
894.869	12335.75
895.108	12285.75
895.347	12192.75
895.587	12214.75
895.826	12156.75
896.065	12139.75
896.304	12140.75
896.543	12227.75
896.782	12050.75
897.021	12008.75
897.26	12047.75
897.499	12053.75
897.738	12004.75
897.977	11912.75
898.216	11760.75
898.454	11718.75
898.693	11647.75
898.932	11659.75
899.17	11570.75
899.409	11552.75
899.647	11501.75
899.886	11528.75
900.124	11571.75
900.363	11498.75
900.601	11560.75
900.839	11659.75
901.078	11657.75
901.316	11776.75
901.554	11808.75
901.792	11835.75
902.03	11871.75
902.268	11853.75
902.506	11832.75
902.744	11751.75
902.982	11639.75
903.22	11455.75
903.458	11229.75
903.695	11080.75
903.933	10828.75
904.171	10690.75
904.409	10503.75
904.646	10377.75
904.884	10153.75
905.121	10133.75
905.359	10011.75
905.596	9873.75
905.833	9762.75
906.071	9742.75
906.308	9752.75
906.545	9668.75
906.783	9620.75
907.02	9629.75
907.257	9483.75
907.494	9524.75
907.731	9483.75
907.968	9481.75
908.205	9376.75
908.442	9335.75
908.679	9213.75
908.915	9207.75
909.152	9169.75
909.389	9005.75
909.626	8931.75
909.862	8896.75
910.099	8849.75
910.335	8929.75
910.572	8771.75
910.808	8781.75
911.045	8669.75
911.281	8664.75
911.518	8709.75
911.754	8582.75
911.99	8509.75
912.226	8437.75
912.463	8374.75
912.699	8374.75
912.935	8308.75
913.171	8179.75
913.407	8101.75
913.643	8131.75
913.879	8029.75
914.114	7958.75
914.35	7848.75
914.586	7721.75
914.822	7724.75
915.057	7756.75
915.293	7573.75
915.529	7547.75
915.764	7633.75
916	7626.75
916.235	7557.75
916.471	7551.75
916.706	7473.75
916.941	7499.75
917.177	7499.75
917.412	7490.75
917.647	7479.75
917.882	7428.75
918.117	7410.75
918.352	7386.75
918.588	7388.75
918.823	7294.75
919.057	7223.75
919.292	7055.75
919.527	7198.75
919.762	7012.75
919.997	7045.75
920.232	6899.75
920.466	6900.75
920.701	6704.75
920.935	6726.75
921.17	6732.75
921.405	6598.75
921.639	6647.75
921.873	6608.75
922.108	6596.75
922.342	6603.75
922.576	6494.75
922.811	6497.75
923.045	6441.75
923.279	6433.75
923.513	6325.75
923.747	6452.75
923.981	6431.75
924.215	6257.75
924.449	6275.75
924.683	6194.75
924.917	6136.75
925.151	6169.75
925.385	6228.75
925.618	6075.75
925.852	6135.75
926.086	5996.75
926.319	6047.75
926.553	6018.75
926.786	6089.75
927.02	6036.75
927.253	6061.75
927.486	6031.75
927.72	5977.75
927.953	6030.75
928.186	5906.75
928.42	5970.75
928.653	5865.75
928.886	5864.75
929.119	5918.75
929.352	5848.75
929.585	5801.75
929.818	5700.75
930.051	5682.75
930.284	5726.75
930.516	5563.75
930.749	5580.75
930.982	5567.75
931.215	5541.75
931.447	5435.75
931.68	5470.75
931.912	5447.75
932.145	5404.75
932.377	5518.75
932.61	5545.75
932.842	5389.75
933.074	5444.75
933.307	5381.75
933.539	5435.75
933.771	5506.75
934.003	5374.75
934.236	5428.75
934.468	5447.75
934.7	5366.75
934.932	5401.75
935.164	5347.75
935.395	5286.75
935.627	5294.75
935.859	5307.75
936.091	5253.75
936.323	5220.75
936.554	5250.75
936.786	5212.75
937.017	5141.75
937.249	5215.75
937.481	5071.75
937.712	5198.75
937.943	5153.75
938.175	5144.75
938.406	5087.75
938.637	5157.75
938.869	5039.75
939.1	5083.75
939.331	5033.75
939.562	5121.75
939.793	5098.75
940.024	5043.75
940.255	5044.75
940.486	4959.75
940.717	4907.75
940.948	4923.75
941.179	4876.75
941.409	4884.75
941.64	4837.75
941.871	4862.75
942.102	4807.75
942.332	4820.75
942.563	4840.75
942.793	4890.75
943.024	4822.75
943.254	4816.75
943.484	4895.75
943.715	4848.75
943.945	4796.75
944.175	4764.75
944.405	4676.75
944.636	4761.75
944.866	4784.75
945.096	4813.75
945.326	4681.75
945.556	4715.75
945.786	4707.75
946.016	4676.75
946.245	4596.75
946.475	4599.75
946.705	4566.75
946.935	4541.75
947.164	4556.75
947.394	4495.75
947.624	4470.75
947.853	4503.75
948.083	4475.75
948.312	4465.75
948.542	4343.75
948.771	4365.75
949	4324.75
949.23	4345.75
949.459	4340.75
949.688	4427.75
949.917	4357.75
950.146	4314.75
950.375	4424.75
950.604	4242.75
950.833	4357.75
951.062	4320.75
951.291	4280.75
951.52	4176.75
951.749	4201.75
951.978	4201.75
952.206	4210.75
952.435	4186.75
952.664	4190.75
952.892	4197.75
953.121	4165.75
953.349	4136.75
953.578	4135.75
953.806	4108.75
954.035	4009.75
954.263	4067.75
954.491	3961.75
954.719	4044.75
954.948	3949.75
955.176	3927.75
955.404	3897.75
955.632	3947.75
955.86	3947.75
956.088	3932.75
956.316	3925.75
956.544	3918.75
956.772	3846.75
956.999	3788.75
957.227	3895.75
957.455	3744.75
957.683	3783.75
957.91	3771.75
958.138	3694.75
958.365	3658.75
958.593	3667.75
958.82	3588.75
959.048	3677.75
959.275	3666.75
959.502	3634.75
959.73	3628.75
959.957	3631.75
960.184	3648.75
960.411	3533.75
960.638	3654.75
960.865	3551.75
961.092	3610.75
961.319	3523.75
961.546	3626.75
961.773	3550.75
962	3590.75
962.227	3621.75
962.454	3599.75
962.68	3514.75
962.907	3543.75
963.134	3456.75
963.36	3488.75
963.587	3499.75
963.813	3390.75
964.04	3424.75
964.266	3347.75
964.493	3436.75
964.719	3378.75
964.945	3397.75
965.171	3286.75
965.398	3304.75
965.624	3351.75
965.85	3259.75
966.076	3234.75
966.302	3296.75
966.528	3228.75
966.754	3256.75
966.98	3254.75
967.206	3250.75
967.431	3182.75
967.657	3214.75
967.883	3195.75
968.109	3174.75
968.334	3144.75
968.56	3123.75
968.785	3116.75
969.011	3064.75
969.236	3082.75
969.462	3072.75
969.687	3096.75
969.912	3089.75
970.138	3128.75
970.363	3052.75
970.588	3047.75
970.813	2991.75
971.038	3000.75
971.263	3012.75
971.488	3025.75
971.713	3012.75
971.938	3030.75
972.163	2892.75
972.388	2952.75
972.613	2896.75
972.838	2910.75
973.062	2885.75
973.287	2896.75
973.512	2813.75
973.736	2837.75
973.961	2833.75
974.185	2813.75
974.41	2855.75
974.634	2718.75
974.858	2737.75
975.083	2751.75
975.307	2766.75
975.531	2727.75
975.755	2666.75
975.98	2675.75
976.204	2618.75
976.428	2612.75
976.652	2588.75
976.876	2565.75
977.1	2659.75
977.324	2587.75
977.547	2596.75
977.771	2631.75
977.995	2576.75
978.219	2528.75
978.442	2665.75
978.666	2543.75
978.89	2562.75
979.113	2586.75
979.337	2517.75
979.56	2474.75
979.783	2579.75
980.007	2495.75
980.23	2482.75
980.453	2480.75
980.677	2473.75
980.9	2470.75
981.123	2360.75
981.346	2484.75
981.569	2443.75
981.792	2460.75
982.015	2397.75
982.238	2346.75
982.461	2361.75
982.684	2359.75
982.907	2318.75
983.129	2316.75
983.352	2382.75
983.575	2313.75
983.797	2329.75
984.02	2310.75
984.242	2274.75
984.465	2298.75
984.687	2295.75
984.91	2333.75
985.132	2283.75
985.354	2272.75
985.577	2275.75
985.799	2242.75
986.021	2164.75
986.243	2230.75
986.465	2196.75
986.687	2263.75
986.909	2247.75
987.131	2200.75
987.353	2166.75
987.575	2202.75
987.797	2184.75
988.019	2083.75
988.241	2170.75
988.462	2109.75
988.684	2153.75
988.906	2221.75
989.127	2210.75
989.349	2082.75
989.57	2115.75
989.792	2133.75
990.013	2172.75
990.234	2171.75
990.456	2160.75
990.677	2152.75
990.898	2114.75
991.119	2091.75
991.341	2121.75
991.562	2011.75
991.783	2075.75
992.004	2001.75
992.225	2015.75
992.446	2008.75
992.667	1967.75
992.887	2002.75
993.108	1916.75
993.329	2047.75
993.55	1982.75
993.77	1940.75
993.991	1945.75
994.212	1965.75
994.432	1933.75
994.653	1891.75
994.873	1957.75
995.093	1817.75
995.314	1872.75
995.534	1917.75
995.754	1956.75
995.975	1980.75
996.195	1848.75
996.415	1898.75
996.635	1888.75
996.855	1887.75
997.075	1871.75
997.295	1865.75
997.515	1823.75
997.735	1901.75
997.955	1875.75
998.174	1843.75
998.394	1837.75
998.614	1870.75
998.834	1803.75
999.053	1872.75
999.273	1882.75
999.492	1904.75
999.712	1819.75
999.931	1787.75
1000.151	1823.75
1000.37	1814.75
1000.589	1841.75
1000.809	1771.75
1001.028	1879.75
1001.247	1818.75
1001.466	1702.75
1001.685	1855.75
1001.904	1783.75
1002.123	1757.75
1002.342	1761.75
1002.561	1708.75
1002.78	1736.75
1002.999	1820.75
1003.218	1722.75
1003.436	1730.75
1003.655	1745.75
1003.874	1674.75
1004.092	1713.75
1004.311	1765.75
1004.53	1719.75
1004.748	1759.75
1004.966	1710.75
1005.185	1765.75
1005.403	1761.75
1005.622	1739.75
1005.84	1779.75
1006.058	1656.75
1006.276	1700.75
1006.494	2085.75
1006.712	1714.75
1006.931	1781.75
1007.149	1692.75
1007.367	1682.75
1007.584	1725.75
1007.802	1746.75
1008.02	1718.75
1008.238	1829.75
1008.456	1775.75
1008.673	1657.75
1008.891	1789.75
1009.109	1755.75
1009.326	1809.75
1009.544	1880.75
1009.761	1837.75
1009.979	1959.75
1010.196	1939.75
1010.413	2076.75
1010.631	2114.75
1010.848	2183.75
1011.065	2164.75
1011.282	2164.75
1011.5	2092.75
1011.717	2161.75
1011.934	2125.75
1012.151	2179.75
1012.368	2127.75
1012.585	2080.75
1012.801	2134.75
1013.018	2095.75
1013.235	2123.75
1013.452	2086.75
1013.669	2118.75
1013.885	2078.75
1014.102	2151.75
1014.318	2113.75
1014.535	2078.75
1014.751	2097.75
1014.968	2102.75
1015.184	2109.75
1015.401	2020.75
1015.617	2039.75
1015.833	1981.75
1016.049	1997.75
1016.266	1950.75
1016.482	1971.75
1016.698	1931.75
1016.914	1972.75
1017.13	1871.75
1017.346	1872.75
1017.562	1951.75
1017.778	1895.75
1017.993	1850.75
1018.209	1901.75
1018.425	1872.75
1018.641	1823.75
1018.856	1821.75
1019.072	1848.75
1019.288	1898.75
1019.503	1861.75
1019.719	1780.75
1019.934	1801.75
1020.149	1868.75
1020.365	1782.75
1020.58	1714.75
1020.795	1743.75
1021.011	1688.75
1021.226	1679.75
1021.441	1663.75
1021.656	1562.75
1021.871	1492.75
1022.086	1491.75
1022.301	1515.75
1022.516	1487.75
1022.731	1514.75
1022.946	1410.75
1023.16	1398.75
1023.375	1385.75
1023.59	1356.75
1023.804	1315.75
1024.019	1409.75
1024.234	1267.75
1024.448	1286.75
1024.663	1219.75
1024.877	1237.75
1025.092	1247.75
1025.306	1245.75
1025.52	1125.75
1025.734	1208.75
1025.949	1142.75
1026.163	1085.75
1026.377	1017.75
1026.591	1070.75
1026.805	973.75
1027.019	983.75
1027.233	944.75
1027.447	890.75
1027.661	994.75
1027.875	928.75
1028.088	947.75
1028.302	841.75
1028.516	838.75
1028.73	838.75
1028.943	819.75
1029.157	765.75
1029.37	729.75
1029.584	2.75
1029.797	-3.25
1030.011	-1.25
1030.224	0.75
