Data from QEP037381__543__17-38-37-572.txt Node

Date: Fri Dec 16 17:38:37 EST 2022
User: dcclab
Spectrometer: QEP03738
Trigger mode: 4
Integration Time (sec): 1.000000E1
Scans to average: 1
Electric dark correction enabled: true
Nonlinearity correction enabled: false
Boxcar width: 0
XAxis mode: Wavelengths
Number of Pixels in Spectrum: 1044
>>>>>Begin Spectral Data<<<<<
784.041	10.88
784.3	-0.12
784.558	-3.12
784.817	-2.12
785.075	93705.88
785.334	16339.88
785.592	7672.88
785.851	5292.88
786.109	4029.88
786.368	3145.88
786.626	2518.88
786.884	2125.88
787.143	1778.88
787.401	1470.88
787.659	1327.88
787.917	1152.88
788.175	1083.88
788.433	923.88
788.691	849.88
788.949	784.88
789.207	749.88
789.465	687.88
789.723	639.88
789.98	597.88
790.238	632.88
790.496	599.88
790.753	564.88
791.011	627.88
791.268	555.88
791.526	535.88
791.783	555.88
792.041	541.88
792.298	463.88
792.556	519.88
792.813	491.88
793.07	475.88
793.327	462.88
793.584	539.88
793.841	475.88
794.099	494.88
794.356	544.88
794.613	471.88
794.869	498.88
795.126	460.88
795.383	436.88
795.64	471.88
795.897	421.88
796.153	462.88
796.41	458.88
796.667	453.88
796.923	469.88
797.18	469.88
797.436	486.88
797.693	453.88
797.949	508.88
798.206	532.88
798.462	452.88
798.718	510.88
798.974	487.88
799.231	548.88
799.487	527.88
799.743	556.88
799.999	569.88
800.255	573.88
800.511	577.88
800.767	614.88
801.023	619.88
801.279	668.88
801.534	722.88
801.79	770.88
802.046	836.88
802.302	1021.88
802.557	1183.88
802.813	1504.88
803.068	1930.88
803.324	2676.88
803.579	3705.88
803.835	5158.88
804.09	7116.88
804.345	9414.88
804.601	11973.88
804.856	14586.88
805.111	17065.88
805.366	18868.88
805.621	20299.88
805.876	21303.88
806.131	21980.88
806.386	22485.88
806.641	22885.88
806.896	23255.88
807.151	23902.88
807.406	24239.88
807.661	24815.88
807.915	25237.88
808.17	25739.88
808.425	25904.88
808.679	26160.88
808.934	26664.88
809.188	26974.88
809.443	27235.88
809.697	27602.88
809.951	27864.88
810.206	28204.88
810.46	28524.88
810.714	28782.88
810.968	29134.88
811.223	29307.88
811.477	29566.88
811.731	29987.88
811.985	30076.88
812.239	30123.88
812.493	30346.88
812.747	30557.88
813	30781.88
813.254	30833.88
813.508	31029.88
813.762	31313.88
814.015	31410.88
814.269	31710.88
814.522	32000.88
814.776	32315.88
815.03	32841.88
815.283	33401.88
815.536	33961.88
815.79	34541.88
816.043	35043.88
816.296	35677.88
816.55	36240.88
816.803	36597.88
817.056	37178.88
817.309	37580.88
817.562	37906.88
817.815	38457.88
818.068	38844.88
818.321	39181.88
818.574	39552.88
818.827	40256.88
819.079	40683.88
819.332	41328.88
819.585	41884.88
819.838	42593.88
820.09	42843.88
820.343	43236.88
820.595	43464.88
820.848	43761.88
821.1	44117.88
821.353	44080.88
821.605	44024.88
821.857	44074.88
822.11	43894.88
822.362	43740.88
822.614	43801.88
822.866	43798.88
823.118	43762.88
823.37	43840.88
823.622	44030.88
823.874	44010.88
824.126	44229.88
824.378	44276.88
824.63	44636.88
824.882	44760.88
825.134	44694.88
825.385	44822.88
825.637	44679.88
825.888	44497.88
826.14	44432.88
826.392	44287.88
826.643	44072.88
826.895	44024.88
827.146	43886.88
827.397	43793.88
827.649	43711.88
827.9	43670.88
828.151	43968.88
828.402	44024.88
828.653	44151.88
828.905	44275.88
829.156	44391.88
829.407	44227.88
829.658	44409.88
829.909	44311.88
830.159	44267.88
830.41	44008.88
830.661	43779.88
830.912	43578.88
831.162	43506.88
831.413	43420.88
831.664	43564.88
831.914	43478.88
832.165	43260.88
832.415	43285.88
832.666	43499.88
832.916	43333.88
833.167	43383.88
833.417	43443.88
833.667	43256.88
833.917	43048.88
834.168	43060.88
834.418	42979.88
834.668	42825.88
834.918	42387.88
835.168	42410.88
835.418	42243.88
835.668	42066.88
835.918	42154.88
836.167	42003.88
836.417	41899.88
836.667	41897.88
836.917	41797.88
837.166	41747.88
837.416	41815.88
837.666	41693.88
837.915	41663.88
838.165	41571.88
838.414	41519.88
838.663	41565.88
838.913	41421.88
839.162	41068.88
839.411	41225.88
839.661	41066.88
839.91	41015.88
840.159	40882.88
840.408	40841.88
840.657	40816.88
840.906	40799.88
841.155	40922.88
841.404	40888.88
841.653	40832.88
841.902	40975.88
842.15	41018.88
842.399	41034.88
842.648	40875.88
842.897	40821.88
843.145	40494.88
843.394	40256.88
843.642	40205.88
843.891	39971.88
844.139	39847.88
844.388	39593.88
844.636	39467.88
844.884	39440.88
845.133	39346.88
845.381	39194.88
845.629	39329.88
845.877	39193.88
846.125	39184.88
846.373	39174.88
846.621	39115.88
846.869	38881.88
847.117	38530.88
847.365	38423.88
847.613	38427.88
847.861	38171.88
848.108	38266.88
848.356	38013.88
848.604	37958.88
848.851	38049.88
849.099	38082.88
849.346	38176.88
849.594	38197.88
849.841	38359.88
850.089	38501.88
850.336	38543.88
850.583	38533.88
850.831	38310.88
851.078	38187.88
851.325	38187.88
851.572	38200.88
851.819	37809.88
852.066	37118.88
852.313	36608.88
852.56	36491.88
852.807	36256.88
853.054	35938.88
853.301	35952.88
853.548	36102.88
853.794	36285.88
854.041	36344.88
854.288	36496.88
854.534	36703.88
854.781	36694.88
855.028	36434.88
855.274	36335.88
855.52	36224.88
855.767	36065.88
856.013	36020.88
856.26	36111.88
856.506	35588.88
856.752	35701.88
856.998	35721.88
857.244	35832.88
857.49	35978.88
857.736	35905.88
857.982	35918.88
858.228	35871.88
858.474	35538.88
858.72	35513.88
858.966	35223.88
859.212	35016.88
859.458	34427.88
859.703	34220.88
859.949	34120.88
860.195	33666.88
860.44	33540.88
860.686	33348.88
860.931	33166.88
861.177	33064.88
861.422	32959.88
861.667	32924.88
861.913	32916.88
862.158	32877.88
862.403	33007.88
862.648	33070.88
862.893	33167.88
863.138	33119.88
863.384	32987.88
863.629	32992.88
863.873	33143.88
864.118	32860.88
864.363	32595.88
864.608	32654.88
864.853	32555.88
865.098	32335.88
865.342	32303.88
865.587	32198.88
865.832	32060.88
866.076	31897.88
866.321	31896.88
866.565	31771.88
866.81	31663.88
867.054	31704.88
867.298	31494.88
867.543	31237.88
867.787	31263.88
868.031	31248.88
868.275	31075.88
868.519	31059.88
868.764	31099.88
869.008	30937.88
869.252	30871.88
869.496	30784.88
869.739	30713.88
869.983	30721.88
870.227	30726.88
870.471	30497.88
870.715	30759.88
870.958	30757.88
871.202	30783.88
871.446	30698.88
871.689	30800.88
871.933	30782.88
872.176	30787.88
872.42	30646.88
872.663	30522.88
872.906	30396.88
873.15	30347.88
873.393	30196.88
873.636	30054.88
873.879	29779.88
874.122	29525.88
874.366	29049.88
874.609	29014.88
874.852	28777.88
875.095	28638.88
875.337	28639.88
875.58	28354.88
875.823	28526.88
876.066	28388.88
876.309	28295.88
876.551	28007.88
876.794	27919.88
877.037	28004.88
877.279	27776.88
877.522	27870.88
877.764	27833.88
878.007	27803.88
878.249	27677.88
878.491	27684.88
878.734	27756.88
878.976	27684.88
879.218	27408.88
879.46	27287.88
879.702	27087.88
879.945	27040.88
880.187	26658.88
880.429	26527.88
880.671	26399.88
880.912	26386.88
881.154	26203.88
881.396	26194.88
881.638	26206.88
881.88	26174.88
882.121	26082.88
882.363	26059.88
882.605	25964.88
882.846	25841.88
883.088	25706.88
883.329	25705.88
883.571	25651.88
883.812	25649.88
884.053	25936.88
884.295	26138.88
884.536	26338.88
884.777	26166.88
885.018	26012.88
885.259	26030.88
885.5	25917.88
885.742	26110.88
885.982	25824.88
886.223	25740.88
886.464	25477.88
886.705	25341.88
886.946	25190.88
887.187	24908.88
887.428	24691.88
887.668	24395.88
887.909	24123.88
888.15	23924.88
888.39	23841.88
888.631	23716.88
888.871	23459.88
889.111	23267.88
889.352	23222.88
889.592	23000.88
889.833	22841.88
890.073	22695.88
890.313	22624.88
890.553	22494.88
890.793	22316.88
891.033	22121.88
891.273	22054.88
891.513	22007.88
891.753	21897.88
891.993	21999.88
892.233	21984.88
892.473	22134.88
892.713	22013.88
892.952	21963.88
893.192	22129.88
893.432	22071.88
893.671	22002.88
893.911	21884.88
894.15	21741.88
894.39	21616.88
894.629	21416.88
894.869	21365.88
895.108	21139.88
895.347	21060.88
895.587	21083.88
895.826	20997.88
896.065	20857.88
896.304	20977.88
896.543	20857.88
896.782	20754.88
897.021	20708.88
897.26	20658.88
897.499	20722.88
897.738	20598.88
897.977	20465.88
898.216	20279.88
898.454	20113.88
898.693	19942.88
898.932	19976.88
899.17	19681.88
899.409	19738.88
899.647	19655.88
899.886	19632.88
900.124	19754.88
900.363	19611.88
900.601	19710.88
900.839	19687.88
901.078	19749.88
901.316	19845.88
901.554	19802.88
901.792	19876.88
902.03	19784.88
902.268	19752.88
902.506	19764.88
902.744	19552.88
902.982	19561.88
903.22	19209.88
903.458	19019.88
903.695	18856.88
903.933	18557.88
904.171	18178.88
904.409	18041.88
904.646	17816.88
904.884	17547.88
905.121	17453.88
905.359	17173.88
905.596	17001.88
905.833	16841.88
906.071	16753.88
906.308	16808.88
906.545	16729.88
906.783	16587.88
907.02	16563.88
907.257	16516.88
907.494	16530.88
907.731	16444.88
907.968	16316.88
908.205	16223.88
908.442	16214.88
908.679	16036.88
908.915	16019.88
909.152	15845.88
909.389	15578.88
909.626	15614.88
909.862	15473.88
910.099	15413.88
910.335	15279.88
910.572	15166.88
910.808	15236.88
911.045	15214.88
911.281	15097.88
911.518	15077.88
911.754	14884.88
911.99	14931.88
912.226	14733.88
912.463	14554.88
912.699	14529.88
912.935	14436.88
913.171	14269.88
913.407	14174.88
913.643	14204.88
913.879	13949.88
914.114	13861.88
914.35	13753.88
914.586	13449.88
914.822	13495.88
915.057	13440.88
915.293	13266.88
915.529	13255.88
915.764	13156.88
916	13171.88
916.235	13047.88
916.471	13012.88
916.706	12932.88
916.941	12995.88
917.177	12877.88
917.412	13024.88
917.647	12951.88
917.882	12844.88
918.117	12923.88
918.352	12811.88
918.588	12826.88
918.823	12683.88
919.057	12493.88
919.292	12429.88
919.527	12321.88
919.762	12168.88
919.997	12132.88
920.232	11892.88
920.466	11953.88
920.701	11732.88
920.935	11675.88
921.17	11611.88
921.405	11545.88
921.639	11575.88
921.873	11374.88
922.108	11437.88
922.342	11388.88
922.576	11316.88
922.811	11242.88
923.045	11246.88
923.279	11213.88
923.513	11056.88
923.747	11137.88
923.981	10955.88
924.215	10898.88
924.449	10875.88
924.683	10727.88
924.917	10679.88
925.151	10630.88
925.385	10711.88
925.618	10514.88
925.852	10536.88
926.086	10442.88
926.319	10447.88
926.553	10446.88
926.786	10469.88
927.02	10459.88
927.253	10491.88
927.486	10410.88
927.72	10312.88
927.953	10360.88
928.186	10248.88
928.42	10330.88
928.653	10227.88
928.886	10167.88
929.119	10138.88
929.352	10076.88
929.585	9981.88
929.818	9915.88
930.051	9865.88
930.284	9804.88
930.516	9622.88
930.749	9609.88
930.982	9637.88
931.215	9486.88
931.447	9452.88
931.68	9538.88
931.912	9385.88
932.145	9383.88
932.377	9342.88
932.61	9490.88
932.842	9334.88
933.074	9429.88
933.307	9356.88
933.539	9489.88
933.771	9374.88
934.003	9260.88
934.236	9401.88
934.468	9375.88
934.7	9225.88
934.932	9259.88
935.164	9164.88
935.395	9178.88
935.627	9138.88
935.859	9119.88
936.091	9006.88
936.323	9124.88
936.554	9036.88
936.786	8988.88
937.017	8796.88
937.249	8861.88
937.481	8865.88
937.712	8823.88
937.943	8743.88
938.175	8760.88
938.406	8701.88
938.637	8722.88
938.869	8719.88
939.1	8706.88
939.331	8639.88
939.562	8638.88
939.793	8652.88
940.024	8635.88
940.255	8601.88
940.486	8522.88
940.717	8411.88
940.948	8400.88
941.179	8298.88
941.409	8362.88
941.64	8290.88
941.871	8292.88
942.102	8315.88
942.332	8314.88
942.563	8368.88
942.793	8306.88
943.024	8196.88
943.254	8227.88
943.484	8233.88
943.715	8249.88
943.945	8248.88
944.175	8197.88
944.405	8160.88
944.636	8161.88
944.866	8134.88
945.096	8215.88
945.326	8078.88
945.556	8114.88
945.786	8043.88
946.016	7991.88
946.245	7899.88
946.475	7841.88
946.705	7805.88
946.935	7758.88
947.164	7778.88
947.394	7685.88
947.624	7630.88
947.853	7695.88
948.083	7562.88
948.312	7487.88
948.542	7439.88
948.771	7417.88
949	7462.88
949.23	7416.88
949.459	7383.88
949.688	7434.88
949.917	7414.88
950.146	7390.88
950.375	7474.88
950.604	7297.88
950.833	7376.88
951.062	7340.88
951.291	7283.88
951.52	7265.88
951.749	7263.88
951.978	7159.88
952.206	7202.88
952.435	7186.88
952.664	7188.88
952.892	7149.88
953.121	7096.88
953.349	7041.88
953.578	7076.88
953.806	6984.88
954.035	6869.88
954.263	6913.88
954.491	6840.88
954.719	6879.88
954.948	6801.88
955.176	6732.88
955.404	6712.88
955.632	6684.88
955.86	6664.88
956.088	6594.88
956.316	6640.88
956.544	6633.88
956.772	6589.88
956.999	6416.88
957.227	6507.88
957.455	6418.88
957.683	6384.88
957.91	6378.88
958.138	6360.88
958.365	6254.88
958.593	6265.88
958.82	6117.88
959.048	6297.88
959.275	6171.88
959.502	6115.88
959.73	6077.88
959.957	6126.88
960.184	6147.88
960.411	6105.88
960.638	6119.88
960.865	6093.88
961.092	6093.88
961.319	5988.88
961.546	6022.88
961.773	6084.88
962	5990.88
962.227	6056.88
962.454	6004.88
962.68	5905.88
962.907	5931.88
963.134	5816.88
963.36	5844.88
963.587	5855.88
963.813	5754.88
964.04	5743.88
964.266	5676.88
964.493	5763.88
964.719	5651.88
964.945	5656.88
965.171	5536.88
965.398	5574.88
965.624	5564.88
965.85	5477.88
966.076	5425.88
966.302	5458.88
966.528	5374.88
966.754	5453.88
966.98	5420.88
967.206	5338.88
967.431	5318.88
967.657	5354.88
967.883	5301.88
968.109	5297.88
968.334	5202.88
968.56	5208.88
968.785	5255.88
969.011	5150.88
969.236	5231.88
969.462	5134.88
969.687	5124.88
969.912	5171.88
970.138	5167.88
970.363	5121.88
970.588	5068.88
970.813	5049.88
971.038	5017.88
971.263	5075.88
971.488	4996.88
971.713	5041.88
971.938	5016.88
972.163	4859.88
972.388	4891.88
972.613	4809.88
972.838	4848.88
973.062	4796.88
973.287	4837.88
973.512	4673.88
973.736	4761.88
973.961	4666.88
974.185	4684.88
974.41	4661.88
974.634	4532.88
974.858	4532.88
975.083	4583.88
975.307	4522.88
975.531	4511.88
975.755	4418.88
975.98	4421.88
976.204	4370.88
976.428	4326.88
976.652	4358.88
976.876	4291.88
977.1	4349.88
977.324	4255.88
977.547	4294.88
977.771	4284.88
977.995	4238.88
978.219	4157.88
978.442	4321.88
978.666	4249.88
978.89	4259.88
979.113	4192.88
979.337	4172.88
979.56	4116.88
979.783	4204.88
980.007	4109.88
980.23	4082.88
980.453	4034.88
980.677	4107.88
980.9	4059.88
981.123	3962.88
981.346	4055.88
981.569	4012.88
981.792	4003.88
982.015	3943.88
982.238	3907.88
982.461	3900.88
982.684	3888.88
982.907	3787.88
983.129	3791.88
983.352	3816.88
983.575	3797.88
983.797	3769.88
984.02	3726.88
984.242	3656.88
984.465	3694.88
984.687	3691.88
984.91	3768.88
985.132	3659.88
985.354	3691.88
985.577	3634.88
985.799	3572.88
986.021	3510.88
986.243	3486.88
986.465	3514.88
986.687	3609.88
986.909	3593.88
987.131	3525.88
987.353	3530.88
987.575	3529.88
987.797	3423.88
988.019	3382.88
988.241	3427.88
988.462	3413.88
988.684	3434.88
988.906	3464.88
989.127	3530.88
989.349	3367.88
989.57	3349.88
989.792	3401.88
990.013	3385.88
990.234	3387.88
990.456	3395.88
990.677	3383.88
990.898	3307.88
991.119	3317.88
991.341	3300.88
991.562	3233.88
991.783	3264.88
992.004	3164.88
992.225	3141.88
992.446	3162.88
992.667	3060.88
992.887	3113.88
993.108	3019.88
993.329	3152.88
993.55	3070.88
993.77	3033.88
993.991	2975.88
994.212	3044.88
994.432	3037.88
994.653	3027.88
994.873	2974.88
995.093	2889.88
995.314	2899.88
995.534	2930.88
995.754	3010.88
995.975	2926.88
996.195	2808.88
996.415	2941.88
996.635	2873.88
996.855	2850.88
997.075	2842.88
997.295	2848.88
997.515	2795.88
997.735	2847.88
997.955	2869.88
998.174	2827.88
998.394	2749.88
998.614	2847.88
998.834	2770.88
999.053	2831.88
999.273	2790.88
999.492	2831.88
999.712	2772.88
999.931	2719.88
1000.151	2763.88
1000.37	2732.88
1000.589	2740.88
1000.809	2673.88
1001.028	2776.88
1001.247	2688.88
1001.466	2579.88
1001.685	2690.88
1001.904	2636.88
1002.123	2602.88
1002.342	2584.88
1002.561	2550.88
1002.78	2528.88
1002.999	2602.88
1003.218	2577.88
1003.436	2506.88
1003.655	2547.88
1003.874	2466.88
1004.092	2473.88
1004.311	2539.88
1004.53	2468.88
1004.748	2551.88
1004.966	2429.88
1005.185	2482.88
1005.403	2524.88
1005.622	2473.88
1005.84	2506.88
1006.058	2392.88
1006.276	2446.88
1006.494	2827.88
1006.712	2448.88
1006.931	2492.88
1007.149	2405.88
1007.367	2412.88
1007.584	2443.88
1007.802	2467.88
1008.02	2387.88
1008.238	2494.88
1008.456	2500.88
1008.673	2352.88
1008.891	2457.88
1009.109	2378.88
1009.326	2446.88
1009.544	2533.88
1009.761	2444.88
1009.979	2513.88
1010.196	2569.88
1010.413	2667.88
1010.631	2737.88
1010.848	2772.88
1011.065	2783.88
1011.282	2722.88
1011.5	2689.88
1011.717	2761.88
1011.934	2692.88
1012.151	2737.88
1012.368	2711.88
1012.585	2631.88
1012.801	2691.88
1013.018	2670.88
1013.235	2635.88
1013.452	2654.88
1013.669	2649.88
1013.885	2643.88
1014.102	2673.88
1014.318	2639.88
1014.535	2592.88
1014.751	2634.88
1014.968	2608.88
1015.184	2603.88
1015.401	2528.88
1015.617	2581.88
1015.833	2504.88
1016.049	2503.88
1016.266	2460.88
1016.482	2452.88
1016.698	2417.88
1016.914	2446.88
1017.13	2399.88
1017.346	2378.88
1017.562	2438.88
1017.778	2348.88
1017.993	2339.88
1018.209	2381.88
1018.425	2372.88
1018.641	2317.88
1018.856	2311.88
1019.072	2311.88
1019.288	2363.88
1019.503	2340.88
1019.719	2257.88
1019.934	2266.88
1020.149	2322.88
1020.365	2255.88
1020.58	2184.88
1020.795	2220.88
1021.011	2157.88
1021.226	2130.88
1021.441	2120.88
1021.656	2006.88
1021.871	1959.88
1022.086	1921.88
1022.301	1913.88
1022.516	1905.88
1022.731	1930.88
1022.946	1867.88
1023.16	1837.88
1023.375	1775.88
1023.59	1741.88
1023.804	1721.88
1024.019	1830.88
1024.234	1644.88
1024.448	1691.88
1024.663	1605.88
1024.877	1565.88
1025.092	1624.88
1025.306	1584.88
1025.52	1482.88
1025.734	1568.88
1025.949	1438.88
1026.163	1418.88
1026.377	1337.88
1026.591	1371.88
1026.805	1315.88
1027.019	1276.88
1027.233	1269.88
1027.447	1192.88
1027.661	1281.88
1027.875	1204.88
1028.088	1216.88
1028.302	1126.88
1028.516	1100.88
1028.73	1085.88
1028.943	1091.88
1029.157	1012.88
1029.37	923.88
1029.584	-2.12
1029.797	-0.12
1030.011	-0.12
1030.224	-3.12
