Data from QEP037381__533__17-36-57-572.txt Node

Date: Fri Dec 16 17:36:57 EST 2022
User: dcclab
Spectrometer: QEP03738
Trigger mode: 4
Integration Time (sec): 1.000000E1
Scans to average: 1
Electric dark correction enabled: true
Nonlinearity correction enabled: false
Boxcar width: 0
XAxis mode: Wavelengths
Number of Pixels in Spectrum: 1044
>>>>>Begin Spectral Data<<<<<
784.041	13.38
784.3	0.38
784.558	-2.62
784.817	-6.62
785.075	90128.38
785.334	15687.38
785.592	7366.38
785.851	5128.38
786.109	3903.38
786.368	3021.38
786.626	2448.38
786.884	2028.38
787.143	1737.38
787.401	1401.38
787.659	1276.38
787.917	1099.38
788.175	1034.38
788.433	873.38
788.691	808.38
788.949	755.38
789.207	727.38
789.465	632.38
789.723	613.38
789.98	580.38
790.238	600.38
790.496	565.38
790.753	538.38
791.011	592.38
791.268	534.38
791.526	514.38
791.783	531.38
792.041	512.38
792.298	434.38
792.556	512.38
792.813	476.38
793.07	459.38
793.327	425.38
793.584	532.38
793.841	442.38
794.099	463.38
794.356	533.38
794.613	421.38
794.869	470.38
795.126	414.38
795.383	412.38
795.64	432.38
795.897	387.38
796.153	450.38
796.41	430.38
796.667	413.38
796.923	418.38
797.18	428.38
797.436	452.38
797.693	427.38
797.949	480.38
798.206	499.38
798.462	409.38
798.718	475.38
798.974	448.38
799.231	497.38
799.487	470.38
799.743	490.38
799.999	522.38
800.255	519.38
800.511	501.38
800.767	558.38
801.023	533.38
801.279	579.38
801.534	603.38
801.79	669.38
802.046	694.38
802.302	842.38
802.557	944.38
802.813	1181.38
803.068	1459.38
803.324	2018.38
803.579	2762.38
803.835	3807.38
804.09	5278.38
804.345	6910.38
804.601	8645.38
804.856	10632.38
805.111	12207.38
805.366	13632.38
805.621	14542.38
805.876	15259.38
806.131	15714.38
806.386	16017.38
806.641	16228.38
806.896	16630.38
807.151	17052.38
807.406	17201.38
807.661	17594.38
807.915	17955.38
808.17	18212.38
808.425	18481.38
808.679	18604.38
808.934	18980.38
809.188	19023.38
809.443	19312.38
809.697	19623.38
809.951	19774.38
810.206	19940.38
810.46	20209.38
810.714	20372.38
810.968	20589.38
811.223	20567.38
811.477	20844.38
811.731	21141.38
811.985	21251.38
812.239	21280.38
812.493	21384.38
812.747	21526.38
813	21507.38
813.254	21716.38
813.508	21881.38
813.762	21923.38
814.015	22032.38
814.269	22281.38
814.522	22489.38
814.776	22743.38
815.03	22981.38
815.283	23335.38
815.536	23738.38
815.79	24101.38
816.043	24478.38
816.296	24892.38
816.55	25137.38
816.803	25417.38
817.056	25904.38
817.309	26123.38
817.562	26383.38
817.815	26786.38
818.068	26945.38
818.321	27284.38
818.574	27553.38
818.827	27957.38
819.079	28239.38
819.332	28671.38
819.585	29105.38
819.838	29545.38
820.09	29603.38
820.343	29955.38
820.595	30050.38
820.848	30230.38
821.1	30286.38
821.353	30436.38
821.605	30395.38
821.857	30516.38
822.11	30257.38
822.362	30236.38
822.614	30129.38
822.866	30267.38
823.118	30240.38
823.37	30366.38
823.622	30380.38
823.874	30440.38
824.126	30589.38
824.378	30627.38
824.63	30782.38
824.882	30876.38
825.134	30683.38
825.385	30679.38
825.637	30722.38
825.888	30594.38
826.14	30384.38
826.392	30388.38
826.643	30313.38
826.895	30095.38
827.146	30007.38
827.397	30039.38
827.649	30037.38
827.9	29890.38
828.151	29921.38
828.402	30021.38
828.653	30033.38
828.905	30325.38
829.156	30295.38
829.407	30215.38
829.658	30247.38
829.909	30301.38
830.159	30262.38
830.41	30064.38
830.661	29843.38
830.912	29727.38
831.162	29648.38
831.413	29570.38
831.664	29546.38
831.914	29604.38
832.165	29555.38
832.415	29414.38
832.666	29496.38
832.916	29640.38
833.167	29451.38
833.417	29414.38
833.667	29421.38
833.917	29255.38
834.168	29221.38
834.418	29131.38
834.668	28943.38
834.918	28867.38
835.168	28663.38
835.418	28660.38
835.668	28525.38
835.918	28427.38
836.167	28416.38
836.417	28293.38
836.667	28246.38
836.917	28316.38
837.166	28188.38
837.416	28184.38
837.666	28016.38
837.915	28139.38
838.165	28073.38
838.414	28058.38
838.663	27804.38
838.913	27876.38
839.162	27773.38
839.411	27914.38
839.661	27653.38
839.91	27510.38
840.159	27478.38
840.408	27514.38
840.657	27365.38
840.906	27590.38
841.155	27527.38
841.404	27446.38
841.653	27517.38
841.902	27483.38
842.15	27441.38
842.399	27593.38
842.648	27455.38
842.897	27309.38
843.145	27081.38
843.394	26962.38
843.642	26792.38
843.891	26730.38
844.139	26617.38
844.388	26335.38
844.636	26292.38
844.884	26313.38
845.133	26273.38
845.381	26301.38
845.629	26235.38
845.877	26238.38
846.125	26115.38
846.373	26132.38
846.621	25961.38
846.869	26027.38
847.117	25814.38
847.365	25593.38
847.613	25490.38
847.861	25415.38
848.108	25398.38
848.356	25214.38
848.604	25291.38
848.851	25377.38
849.099	25306.38
849.346	25303.38
849.594	25444.38
849.841	25542.38
850.089	25575.38
850.336	25376.38
850.583	25519.38
850.831	25290.38
851.078	25341.38
851.325	25281.38
851.572	25386.38
851.819	25131.38
852.066	24621.38
852.313	24183.38
852.56	24059.38
852.807	24026.38
853.054	23840.38
853.301	23783.38
853.548	23740.38
853.794	23884.38
854.041	23974.38
854.288	24099.38
854.534	24191.38
854.781	24158.38
855.028	24092.38
855.274	24077.38
855.52	23904.38
855.767	23794.38
856.013	23772.38
856.26	24104.38
856.506	23452.38
856.752	23507.38
856.998	23505.38
857.244	23555.38
857.49	23671.38
857.736	23699.38
857.982	23729.38
858.228	23587.38
858.474	23473.38
858.72	23233.38
858.966	23047.38
859.212	22802.38
859.458	22533.38
859.703	22462.38
859.949	22139.38
860.195	22065.38
860.44	21817.38
860.686	21863.38
860.931	21910.38
861.177	21559.38
861.422	21567.38
861.667	21429.38
861.913	21515.38
862.158	21442.38
862.403	21612.38
862.648	21599.38
862.893	21564.38
863.138	21495.38
863.384	21547.38
863.629	21479.38
863.873	21531.38
864.118	21402.38
864.363	21296.38
864.608	21231.38
864.853	21231.38
865.098	21064.38
865.342	20878.38
865.587	20805.38
865.832	20756.38
866.076	20812.38
866.321	20670.38
866.565	20682.38
866.81	20538.38
867.054	20519.38
867.298	20479.38
867.543	20281.38
867.787	20324.38
868.031	20131.38
868.275	20251.38
868.519	20203.38
868.764	20054.38
869.008	20078.38
869.252	20019.38
869.496	19894.38
869.739	19870.38
869.983	19926.38
870.227	19896.38
870.471	19837.38
870.715	20009.38
870.958	20042.38
871.202	20048.38
871.446	20027.38
871.689	19938.38
871.933	19973.38
872.176	20019.38
872.42	19889.38
872.663	19822.38
872.906	19712.38
873.15	19683.38
873.393	19557.38
873.636	19536.38
873.879	19367.38
874.122	19164.38
874.366	18929.38
874.609	18837.38
874.852	18696.38
875.095	18546.38
875.337	18402.38
875.58	18220.38
875.823	18471.38
876.066	18277.38
876.309	18282.38
876.551	18025.38
876.794	18077.38
877.037	17993.38
877.279	17961.38
877.522	17878.38
877.764	17963.38
878.007	17821.38
878.249	17917.38
878.491	17778.38
878.734	17751.38
878.976	17737.38
879.218	17634.38
879.46	17477.38
879.702	17330.38
879.945	17310.38
880.187	17074.38
880.429	17060.38
880.671	16873.38
880.912	16939.38
881.154	16866.38
881.396	16670.38
881.638	16778.38
881.88	16726.38
882.121	16641.38
882.363	16644.38
882.605	16645.38
882.846	16584.38
883.088	16587.38
883.329	16422.38
883.571	16371.38
883.812	16456.38
884.053	16678.38
884.295	16926.38
884.536	17058.38
884.777	17095.38
885.018	17002.38
885.259	16926.38
885.5	16875.38
885.742	17002.38
885.982	16655.38
886.223	16581.38
886.464	16349.38
886.705	16242.38
886.946	16218.38
887.187	15965.38
887.428	15804.38
887.668	15579.38
887.909	15417.38
888.15	15248.38
888.39	15118.38
888.631	15130.38
888.871	14934.38
889.111	14868.38
889.352	14753.38
889.592	14568.38
889.833	14548.38
890.073	14371.38
890.313	14420.38
890.553	14234.38
890.793	14163.38
891.033	14097.38
891.273	13988.38
891.513	13916.38
891.753	13912.38
891.993	13913.38
892.233	13908.38
892.473	14054.38
892.713	14002.38
892.952	13968.38
893.192	13941.38
893.432	13919.38
893.671	13936.38
893.911	13868.38
894.15	13696.38
894.39	13624.38
894.629	13604.38
894.869	13582.38
895.108	13435.38
895.347	13367.38
895.587	13342.38
895.826	13335.38
896.065	13335.38
896.304	13348.38
896.543	13322.38
896.782	13109.38
897.021	13202.38
897.26	13116.38
897.499	13098.38
897.738	13215.38
897.977	12941.38
898.216	12920.38
898.454	12826.38
898.693	12658.38
898.932	12723.38
899.17	12606.38
899.409	12577.38
899.647	12523.38
899.886	12572.38
900.124	12547.38
900.363	12584.38
900.601	12581.38
900.839	12648.38
901.078	12592.38
901.316	12633.38
901.554	12617.38
901.792	12661.38
902.03	12799.38
902.268	12700.38
902.506	12700.38
902.744	12603.38
902.982	12528.38
903.22	12276.38
903.458	12147.38
903.695	11978.38
903.933	11808.38
904.171	11570.38
904.409	11399.38
904.646	11282.38
904.884	11106.38
905.121	11073.38
905.359	10843.38
905.596	10834.38
905.833	10710.38
906.071	10650.38
906.308	10619.38
906.545	10559.38
906.783	10424.38
907.02	10530.38
907.257	10464.38
907.494	10449.38
907.731	10431.38
907.968	10257.38
908.205	10225.38
908.442	10139.38
908.679	10118.38
908.915	10058.38
909.152	9968.38
909.389	9916.38
909.626	9859.38
909.862	9676.38
910.099	9725.38
910.335	9718.38
910.572	9540.38
910.808	9504.38
911.045	9484.38
911.281	9471.38
911.518	9512.38
911.754	9434.38
911.99	9419.38
912.226	9264.38
912.463	9167.38
912.699	9153.38
912.935	9071.38
913.171	8980.38
913.407	8843.38
913.643	8924.38
913.879	8812.38
914.114	8672.38
914.35	8594.38
914.586	8544.38
914.822	8409.38
915.057	8511.38
915.293	8300.38
915.529	8325.38
915.764	8357.38
916	8271.38
916.235	8243.38
916.471	8244.38
916.706	8188.38
916.941	8197.38
917.177	8139.38
917.412	8179.38
917.647	8242.38
917.882	8129.38
918.117	8124.38
918.352	8043.38
918.588	8137.38
918.823	7981.38
919.057	7893.38
919.292	7783.38
919.527	7702.38
919.762	7656.38
919.997	7682.38
920.232	7582.38
920.466	7499.38
920.701	7368.38
920.935	7355.38
921.17	7297.38
921.405	7256.38
921.639	7253.38
921.873	7202.38
922.108	7194.38
922.342	7102.38
922.576	7086.38
922.811	7051.38
923.045	7085.38
923.279	7116.38
923.513	6937.38
923.747	7005.38
923.981	6889.38
924.215	6883.38
924.449	6818.38
924.683	6744.38
924.917	6687.38
925.151	6703.38
925.385	6754.38
925.618	6659.38
925.852	6627.38
926.086	6618.38
926.319	6640.38
926.553	6601.38
926.786	6570.38
927.02	6573.38
927.253	6564.38
927.486	6556.38
927.72	6517.38
927.953	6568.38
928.186	6450.38
928.42	6480.38
928.653	6435.38
928.886	6405.38
929.119	6414.38
929.352	6414.38
929.585	6328.38
929.818	6237.38
930.051	6204.38
930.284	6217.38
930.516	6089.38
930.749	6086.38
930.982	6075.38
931.215	5984.38
931.447	5917.38
931.68	5949.38
931.912	5908.38
932.145	5879.38
932.377	5963.38
932.61	6049.38
932.842	5895.38
933.074	5909.38
933.307	5828.38
933.539	5956.38
933.771	5973.38
934.003	5841.38
934.236	5946.38
934.468	5913.38
934.7	5837.38
934.932	5842.38
935.164	5784.38
935.395	5799.38
935.627	5798.38
935.859	5741.38
936.091	5652.38
936.323	5741.38
936.554	5799.38
936.786	5646.38
937.017	5589.38
937.249	5617.38
937.481	5548.38
937.712	5596.38
937.943	5548.38
938.175	5574.38
938.406	5495.38
938.637	5551.38
938.869	5462.38
939.1	5515.38
939.331	5447.38
939.562	5458.38
939.793	5461.38
940.024	5496.38
940.255	5401.38
940.486	5371.38
940.717	5390.38
940.948	5323.38
941.179	5275.38
941.409	5272.38
941.64	5263.38
941.871	5261.38
942.102	5257.38
942.332	5236.38
942.563	5250.38
942.793	5230.38
943.024	5147.38
943.254	5214.38
943.484	5241.38
943.715	5264.38
943.945	5265.38
944.175	5193.38
944.405	5164.38
944.636	5142.38
944.866	5173.38
945.096	5199.38
945.326	5071.38
945.556	5135.38
945.786	5121.38
946.016	5019.38
946.245	4960.38
946.475	4948.38
946.705	4938.38
946.935	4881.38
947.164	4893.38
947.394	4863.38
947.624	4903.38
947.853	4822.38
948.083	4787.38
948.312	4788.38
948.542	4712.38
948.771	4680.38
949	4650.38
949.23	4718.38
949.459	4717.38
949.688	4769.38
949.917	4707.38
950.146	4641.38
950.375	4680.38
950.604	4617.38
950.833	4684.38
951.062	4704.38
951.291	4648.38
951.52	4646.38
951.749	4606.38
951.978	4586.38
952.206	4519.38
952.435	4500.38
952.664	4551.38
952.892	4530.38
953.121	4488.38
953.349	4538.38
953.578	4504.38
953.806	4411.38
954.035	4409.38
954.263	4424.38
954.491	4325.38
954.719	4383.38
954.948	4284.38
955.176	4313.38
955.404	4255.38
955.632	4283.38
955.86	4286.38
956.088	4229.38
956.316	4255.38
956.544	4267.38
956.772	4163.38
956.999	4145.38
957.227	4204.38
957.455	4061.38
957.683	4132.38
957.91	4036.38
958.138	4005.38
958.365	4038.38
958.593	3969.38
958.82	3918.38
959.048	3996.38
959.275	3973.38
959.502	3933.38
959.73	3911.38
959.957	3937.38
960.184	3923.38
960.411	3914.38
960.638	3927.38
960.865	3884.38
961.092	3902.38
961.319	3773.38
961.546	3907.38
961.773	3886.38
962	3812.38
962.227	3839.38
962.454	3838.38
962.68	3807.38
962.907	3780.38
963.134	3732.38
963.36	3763.38
963.587	3749.38
963.813	3660.38
964.04	3737.38
964.266	3638.38
964.493	3664.38
964.719	3632.38
964.945	3651.38
965.171	3560.38
965.398	3555.38
965.624	3618.38
965.85	3469.38
966.076	3470.38
966.302	3534.38
966.528	3469.38
966.754	3503.38
966.98	3485.38
967.206	3462.38
967.431	3400.38
967.657	3514.38
967.883	3443.38
968.109	3460.38
968.334	3375.38
968.56	3319.38
968.785	3346.38
969.011	3318.38
969.236	3389.38
969.462	3343.38
969.687	3352.38
969.912	3343.38
970.138	3322.38
970.363	3271.38
970.588	3303.38
970.813	3241.38
971.038	3229.38
971.263	3238.38
971.488	3212.38
971.713	3230.38
971.938	3229.38
972.163	3134.38
972.388	3138.38
972.613	3184.38
972.838	3134.38
973.062	3089.38
973.287	3092.38
973.512	3043.38
973.736	3097.38
973.961	3064.38
974.185	3043.38
974.41	3063.38
974.634	2954.38
974.858	2952.38
975.083	3045.38
975.307	2999.38
975.531	2946.38
975.755	2853.38
975.98	2898.38
976.204	2795.38
976.428	2799.38
976.652	2822.38
976.876	2776.38
977.1	2811.38
977.324	2755.38
977.547	2832.38
977.771	2833.38
977.995	2762.38
978.219	2731.38
978.442	2859.38
978.666	2757.38
978.89	2769.38
979.113	2733.38
979.337	2707.38
979.56	2656.38
979.783	2763.38
980.007	2664.38
980.23	2674.38
980.453	2632.38
980.677	2632.38
980.9	2663.38
981.123	2566.38
981.346	2647.38
981.569	2612.38
981.792	2631.38
982.015	2587.38
982.238	2537.38
982.461	2550.38
982.684	2525.38
982.907	2496.38
983.129	2485.38
983.352	2522.38
983.575	2515.38
983.797	2495.38
984.02	2449.38
984.242	2459.38
984.465	2443.38
984.687	2450.38
984.91	2445.38
985.132	2408.38
985.354	2461.38
985.577	2411.38
985.799	2385.38
986.021	2331.38
986.243	2297.38
986.465	2311.38
986.687	2369.38
986.909	2385.38
987.131	2375.38
987.353	2296.38
987.575	2336.38
987.797	2332.38
988.019	2260.38
988.241	2304.38
988.462	2256.38
988.684	2281.38
988.906	2320.38
989.127	2365.38
989.349	2224.38
989.57	2256.38
989.792	2301.38
990.013	2275.38
990.234	2269.38
990.456	2313.38
990.677	2281.38
990.898	2208.38
991.119	2241.38
991.341	2207.38
991.562	2161.38
991.783	2214.38
992.004	2143.38
992.225	2103.38
992.446	2139.38
992.667	2056.38
992.887	2168.38
993.108	2041.38
993.329	2160.38
993.55	2086.38
993.77	2044.38
993.991	2055.38
994.212	2064.38
994.432	2038.38
994.653	2067.38
994.873	2014.38
995.093	1921.38
995.314	1971.38
995.534	2029.38
995.754	2029.38
995.975	2048.38
996.195	1933.38
996.415	2003.38
996.635	1976.38
996.855	1991.38
997.075	1953.38
997.295	1933.38
997.515	1933.38
997.735	1974.38
997.955	1961.38
998.174	1921.38
998.394	1911.38
998.614	1965.38
998.834	1933.38
999.053	1950.38
999.273	1929.38
999.492	1978.38
999.712	1905.38
999.931	1863.38
1000.151	1931.38
1000.37	1882.38
1000.589	1955.38
1000.809	1882.38
1001.028	1990.38
1001.247	1900.38
1001.466	1801.38
1001.685	1915.38
1001.904	1854.38
1002.123	1833.38
1002.342	1861.38
1002.561	1781.38
1002.78	1861.38
1002.999	1853.38
1003.218	1811.38
1003.436	1752.38
1003.655	1851.38
1003.874	1742.38
1004.092	1805.38
1004.311	1856.38
1004.53	1784.38
1004.748	1878.38
1004.966	1782.38
1005.185	1838.38
1005.403	1817.38
1005.622	1784.38
1005.84	1880.38
1006.058	1730.38
1006.276	1771.38
1006.494	2130.38
1006.712	1748.38
1006.931	1789.38
1007.149	1740.38
1007.367	1729.38
1007.584	1769.38
1007.802	1803.38
1008.02	1769.38
1008.238	1830.38
1008.456	1845.38
1008.673	1712.38
1008.891	1828.38
1009.109	1757.38
1009.326	1820.38
1009.544	1912.38
1009.761	1818.38
1009.979	1895.38
1010.196	1923.38
1010.413	1997.38
1010.631	2060.38
1010.848	2106.38
1011.065	2100.38
1011.282	2035.38
1011.5	1992.38
1011.717	2086.38
1011.934	2035.38
1012.151	2077.38
1012.368	2029.38
1012.585	1997.38
1012.801	2033.38
1013.018	2020.38
1013.235	1959.38
1013.452	1974.38
1013.669	2020.38
1013.885	1965.38
1014.102	2021.38
1014.318	1983.38
1014.535	1924.38
1014.751	1991.38
1014.968	1969.38
1015.184	2015.38
1015.401	1939.38
1015.617	1945.38
1015.833	1900.38
1016.049	1907.38
1016.266	1866.38
1016.482	1875.38
1016.698	1817.38
1016.914	1858.38
1017.13	1796.38
1017.346	1765.38
1017.562	1845.38
1017.778	1774.38
1017.993	1755.38
1018.209	1830.38
1018.425	1802.38
1018.641	1764.38
1018.856	1761.38
1019.072	1766.38
1019.288	1809.38
1019.503	1771.38
1019.719	1660.38
1019.934	1717.38
1020.149	1769.38
1020.365	1709.38
1020.58	1669.38
1020.795	1704.38
1021.011	1624.38
1021.226	1591.38
1021.441	1607.38
1021.656	1538.38
1021.871	1431.38
1022.086	1466.38
1022.301	1468.38
1022.516	1441.38
1022.731	1487.38
1022.946	1383.38
1023.16	1349.38
1023.375	1336.38
1023.59	1344.38
1023.804	1261.38
1024.019	1388.38
1024.234	1232.38
1024.448	1272.38
1024.663	1192.38
1024.877	1200.38
1025.092	1220.38
1025.306	1218.38
1025.52	1109.38
1025.734	1190.38
1025.949	1097.38
1026.163	1081.38
1026.377	1029.38
1026.591	1053.38
1026.805	994.38
1027.019	981.38
1027.233	947.38
1027.447	913.38
1027.661	979.38
1027.875	921.38
1028.088	924.38
1028.302	843.38
1028.516	838.38
1028.73	841.38
1028.943	816.38
1029.157	781.38
1029.37	721.38
1029.584	-0.62
1029.797	-2.62
1030.011	-0.62
1030.224	-0.62
