Data from QEP037381__542__17-38-27-572.txt Node

Date: Fri Dec 16 17:38:27 EST 2022
User: dcclab
Spectrometer: QEP03738
Trigger mode: 4
Integration Time (sec): 1.000000E1
Scans to average: 1
Electric dark correction enabled: true
Nonlinearity correction enabled: false
Boxcar width: 0
XAxis mode: Wavelengths
Number of Pixels in Spectrum: 1044
>>>>>Begin Spectral Data<<<<<
784.041	15.38
784.3	0.38
784.558	-0.62
784.817	-5.62
785.075	93881.38
785.334	16049.38
785.592	7421.38
785.851	5176.38
786.109	3938.38
786.368	3079.38
786.626	2458.38
786.884	2052.38
787.143	1743.38
787.401	1425.38
787.659	1286.38
787.917	1121.38
788.175	1022.38
788.433	919.38
788.691	825.38
788.949	766.38
789.207	748.38
789.465	646.38
789.723	637.38
789.98	577.38
790.238	611.38
790.496	571.38
790.753	539.38
791.011	601.38
791.268	526.38
791.526	528.38
791.783	529.38
792.041	518.38
792.298	428.38
792.556	490.38
792.813	488.38
793.07	448.38
793.327	448.38
793.584	532.38
793.841	456.38
794.099	471.38
794.356	530.38
794.613	439.38
794.869	493.38
795.126	437.38
795.383	415.38
795.64	431.38
795.897	396.38
796.153	452.38
796.41	441.38
796.667	424.38
796.923	433.38
797.18	438.38
797.436	470.38
797.693	433.38
797.949	482.38
798.206	509.38
798.462	439.38
798.718	481.38
798.974	463.38
799.231	496.38
799.487	491.38
799.743	505.38
799.999	536.38
800.255	537.38
800.511	515.38
800.767	567.38
801.023	556.38
801.279	594.38
801.534	631.38
801.79	699.38
802.046	724.38
802.302	864.38
802.557	1003.38
802.813	1233.38
803.068	1555.38
803.324	2153.38
803.579	2926.38
803.835	4103.38
804.09	5657.38
804.345	7368.38
804.601	9338.38
804.856	11231.38
805.111	13001.38
805.366	14348.38
805.621	15284.38
805.876	16037.38
806.131	16475.38
806.386	16798.38
806.641	17178.38
806.896	17398.38
807.151	17864.38
807.406	18097.38
807.661	18460.38
807.915	18862.38
808.17	19224.38
808.425	19434.38
808.679	19576.38
808.934	19808.38
809.188	19960.38
809.443	20245.38
809.697	20518.38
809.951	20614.38
810.206	20836.38
810.46	21153.38
810.714	21242.38
810.968	21401.38
811.223	21678.38
811.477	21865.38
811.731	22062.38
811.985	22079.38
812.239	22240.38
812.493	22448.38
812.747	22473.38
813	22420.38
813.254	22770.38
813.508	22774.38
813.762	22928.38
814.015	23003.38
814.269	23178.38
814.522	23346.38
814.776	23651.38
815.03	23981.38
815.283	24273.38
815.536	24674.38
815.79	25114.38
816.043	25506.38
816.296	25938.38
816.55	26231.38
816.803	26584.38
817.056	26761.38
817.309	27101.38
817.562	27345.38
817.815	27662.38
818.068	27996.38
818.321	28241.38
818.574	28575.38
818.827	28859.38
819.079	29349.38
819.332	29755.38
819.585	30204.38
819.838	30563.38
820.09	30800.38
820.343	31006.38
820.595	31076.38
820.848	31266.38
821.1	31458.38
821.353	31483.38
821.605	31467.38
821.857	31382.38
822.11	31330.38
822.362	31217.38
822.614	31184.38
822.866	31241.38
823.118	31133.38
823.37	31444.38
823.622	31461.38
823.874	31423.38
824.126	31632.38
824.378	31628.38
824.63	31796.38
824.882	31835.38
825.134	31884.38
825.385	31702.38
825.637	31726.38
825.888	31633.38
826.14	31530.38
826.392	31498.38
826.643	31290.38
826.895	31246.38
827.146	31070.38
827.397	31059.38
827.649	30982.38
827.9	30985.38
828.151	31012.38
828.402	30993.38
828.653	31146.38
828.905	31228.38
829.156	31456.38
829.407	31266.38
829.658	31331.38
829.909	31395.38
830.159	31445.38
830.41	31108.38
830.661	30986.38
830.912	30884.38
831.162	30752.38
831.413	30675.38
831.664	30729.38
831.914	30640.38
832.165	30665.38
832.415	30607.38
832.666	30591.38
832.916	30667.38
833.167	30599.38
833.417	30487.38
833.667	30409.38
833.917	30346.38
834.168	30305.38
834.418	30178.38
834.668	30137.38
834.918	29870.38
835.168	29847.38
835.418	29692.38
835.668	29605.38
835.918	29476.38
836.167	29379.38
836.417	29351.38
836.667	29329.38
836.917	29385.38
837.166	29167.38
837.416	29322.38
837.666	29431.38
837.915	29237.38
838.165	29122.38
838.414	29058.38
838.663	29107.38
838.913	29069.38
839.162	28787.38
839.411	28918.38
839.661	28801.38
839.91	28536.38
840.159	28586.38
840.408	28754.38
840.657	28733.38
840.906	28604.38
841.155	28587.38
841.404	28540.38
841.653	28677.38
841.902	28671.38
842.15	28675.38
842.399	28764.38
842.648	28743.38
842.897	28474.38
843.145	28339.38
843.394	28173.38
843.642	28146.38
843.891	27943.38
844.139	27735.38
844.388	27606.38
844.636	27439.38
844.884	27439.38
845.133	27487.38
845.381	27504.38
845.629	27515.38
845.877	27361.38
846.125	27421.38
846.373	27412.38
846.621	27231.38
846.869	27118.38
847.117	26998.38
847.365	26816.38
847.613	26727.38
847.861	26530.38
848.108	26547.38
848.356	26501.38
848.604	26377.38
848.851	26416.38
849.099	26527.38
849.346	26601.38
849.594	26669.38
849.841	26774.38
850.089	26857.38
850.336	26741.38
850.583	26666.38
850.831	26622.38
851.078	26353.38
851.325	26570.38
851.572	26702.38
851.819	26403.38
852.066	25873.38
852.313	25546.38
852.56	25289.38
852.807	25289.38
853.054	25063.38
853.301	25064.38
853.548	25076.38
853.794	25250.38
854.041	25261.38
854.288	25359.38
854.534	25608.38
854.781	25522.38
855.028	25393.38
855.274	25381.38
855.52	25338.38
855.767	25075.38
856.013	25217.38
856.26	25409.38
856.506	25002.38
856.752	24818.38
856.998	24859.38
857.244	24928.38
857.49	25014.38
857.736	25041.38
857.982	25013.38
858.228	24955.38
858.474	24868.38
858.72	24697.38
858.966	24470.38
859.212	24161.38
859.458	23990.38
859.703	23616.38
859.949	23552.38
860.195	23501.38
860.44	23203.38
860.686	23269.38
860.931	23151.38
861.177	22994.38
861.422	22826.38
861.667	22797.38
861.913	22854.38
862.158	22933.38
862.403	22881.38
862.648	22973.38
862.893	22988.38
863.138	22806.38
863.384	22867.38
863.629	22810.38
863.873	22849.38
864.118	22847.38
864.363	22623.38
864.608	22588.38
864.853	22481.38
865.098	22354.38
865.342	22375.38
865.587	22161.38
865.832	22078.38
866.076	22037.38
866.321	21953.38
866.565	21906.38
866.81	21858.38
867.054	21910.38
867.298	21764.38
867.543	21677.38
867.787	21586.38
868.031	21500.38
868.275	21540.38
868.519	21497.38
868.764	21402.38
869.008	21393.38
869.252	21317.38
869.496	21304.38
869.739	21210.38
869.983	21286.38
870.227	21286.38
870.471	21226.38
870.715	21369.38
870.958	21375.38
871.202	21381.38
871.446	21494.38
871.689	21471.38
871.933	21345.38
872.176	21392.38
872.42	21295.38
872.663	21241.38
872.906	21362.38
873.15	21179.38
873.393	21074.38
873.636	21033.38
873.879	20856.38
874.122	20552.38
874.366	20365.38
874.609	20214.38
874.852	20052.38
875.095	19978.38
875.337	19916.38
875.58	19691.38
875.823	19664.38
876.066	19682.38
876.309	19610.38
876.551	19465.38
876.794	19315.38
877.037	19260.38
877.279	19293.38
877.522	19197.38
877.764	19290.38
878.007	19213.38
878.249	19161.38
878.491	19034.38
878.734	19232.38
878.976	19041.38
879.218	18915.38
879.46	18859.38
879.702	18672.38
879.945	18558.38
880.187	18316.38
880.429	18206.38
880.671	18144.38
880.912	18083.38
881.154	18027.38
881.396	17809.38
881.638	18027.38
881.88	17985.38
882.121	17855.38
882.363	17931.38
882.605	17861.38
882.846	17819.38
883.088	17830.38
883.329	17750.38
883.571	17835.38
883.812	17913.38
884.053	18161.38
884.295	18442.38
884.536	18690.38
884.777	18621.38
885.018	18358.38
885.259	18438.38
885.5	18269.38
885.742	18441.38
885.982	18125.38
886.223	18030.38
886.464	17983.38
886.705	17722.38
886.946	17468.38
887.187	17267.38
887.428	17066.38
887.668	16791.38
887.909	16633.38
888.15	16434.38
888.39	16360.38
888.631	16256.38
888.871	16141.38
889.111	15969.38
889.352	15892.38
889.592	15681.38
889.833	15616.38
890.073	15409.38
890.313	15419.38
890.553	15306.38
890.793	15253.38
891.033	15199.38
891.273	15019.38
891.513	15011.38
891.753	15028.38
891.993	14948.38
892.233	14991.38
892.473	15041.38
892.713	14990.38
892.952	15070.38
893.192	14989.38
893.432	15051.38
893.671	15037.38
893.911	14862.38
894.15	14828.38
894.39	14764.38
894.629	14653.38
894.869	14549.38
895.108	14510.38
895.347	14382.38
895.587	14457.38
895.826	14293.38
896.065	14269.38
896.304	14342.38
896.543	14282.38
896.782	14197.38
897.021	14230.38
897.26	14173.38
897.499	14230.38
897.738	14267.38
897.977	14053.38
898.216	13895.38
898.454	13894.38
898.693	13734.38
898.932	13744.38
899.17	13628.38
899.409	13622.38
899.647	13631.38
899.886	13624.38
900.124	13578.38
900.363	13501.38
900.601	13608.38
900.839	13670.38
901.078	13633.38
901.316	13735.38
901.554	13785.38
901.792	13808.38
902.03	13830.38
902.268	13820.38
902.506	13816.38
902.744	13651.38
902.982	13554.38
903.22	13311.38
903.458	13144.38
903.695	13013.38
903.933	12803.38
904.171	12511.38
904.409	12355.38
904.646	12198.38
904.884	12024.38
905.121	11997.38
905.359	11729.38
905.596	11626.38
905.833	11525.38
906.071	11409.38
906.308	11505.38
906.545	11384.38
906.783	11333.38
907.02	11288.38
907.257	11274.38
907.494	11229.38
907.731	11205.38
907.968	11129.38
908.205	11043.38
908.442	10971.38
908.679	10885.38
908.915	10823.38
909.152	10760.38
909.389	10590.38
909.626	10634.38
909.862	10483.38
910.099	10437.38
910.335	10432.38
910.572	10338.38
910.808	10338.38
911.045	10204.38
911.281	10203.38
911.518	10215.38
911.754	10103.38
911.99	10072.38
912.226	10015.38
912.463	9885.38
912.699	9928.38
912.935	9787.38
913.171	9731.38
913.407	9612.38
913.643	9553.38
913.879	9472.38
914.114	9328.38
914.35	9252.38
914.586	9216.38
914.822	9047.38
915.057	9135.38
915.293	8951.38
915.529	8869.38
915.764	9025.38
916	8940.38
916.235	8886.38
916.471	8962.38
916.706	8799.38
916.941	8814.38
917.177	8763.38
917.412	8753.38
917.647	8781.38
917.882	8675.38
918.117	8716.38
918.352	8628.38
918.588	8664.38
918.823	8584.38
919.057	8492.38
919.292	8289.38
919.527	8358.38
919.762	8250.38
919.997	8197.38
920.232	8049.38
920.466	7948.38
920.701	7920.38
920.935	7869.38
921.17	7791.38
921.405	7786.38
921.639	7825.38
921.873	7729.38
922.108	7663.38
922.342	7726.38
922.576	7553.38
922.811	7541.38
923.045	7637.38
923.279	7558.38
923.513	7436.38
923.747	7414.38
923.981	7434.38
924.215	7318.38
924.449	7352.38
924.683	7201.38
924.917	7167.38
925.151	7213.38
925.385	7160.38
925.618	7151.38
925.852	7138.38
926.086	7033.38
926.319	7085.38
926.553	7040.38
926.786	7039.38
927.02	7012.38
927.253	7039.38
927.486	7032.38
927.72	6946.38
927.953	6962.38
928.186	6926.38
928.42	6974.38
928.653	6865.38
928.886	6872.38
929.119	6841.38
929.352	6796.38
929.585	6761.38
929.818	6680.38
930.051	6683.38
930.284	6589.38
930.516	6516.38
930.749	6489.38
930.982	6547.38
931.215	6470.38
931.447	6409.38
931.68	6373.38
931.912	6372.38
932.145	6312.38
932.377	6359.38
932.61	6473.38
932.842	6255.38
933.074	6368.38
933.307	6231.38
933.539	6381.38
933.771	6324.38
934.003	6262.38
934.236	6307.38
934.468	6315.38
934.7	6225.38
934.932	6273.38
935.164	6187.38
935.395	6151.38
935.627	6170.38
935.859	6132.38
936.091	6029.38
936.323	6093.38
936.554	6131.38
936.786	6092.38
937.017	6029.38
937.249	6008.38
937.481	5889.38
937.712	6015.38
937.943	5886.38
938.175	5933.38
938.406	5879.38
938.637	5959.38
938.869	5876.38
939.1	5864.38
939.331	5862.38
939.562	5841.38
939.793	5816.38
940.024	5818.38
940.255	5799.38
940.486	5753.38
940.717	5706.38
940.948	5701.38
941.179	5621.38
941.409	5635.38
941.64	5603.38
941.871	5610.38
942.102	5576.38
942.332	5597.38
942.563	5632.38
942.793	5614.38
943.024	5554.38
943.254	5558.38
943.484	5625.38
943.715	5561.38
943.945	5556.38
944.175	5460.38
944.405	5433.38
944.636	5450.38
944.866	5499.38
945.096	5508.38
945.326	5432.38
945.556	5422.38
945.786	5478.38
946.016	5400.38
946.245	5339.38
946.475	5285.38
946.705	5285.38
946.935	5239.38
947.164	5242.38
947.394	5110.38
947.624	5127.38
947.853	5145.38
948.083	5124.38
948.312	5051.38
948.542	4997.38
948.771	4982.38
949	5025.38
949.23	4966.38
949.459	5025.38
949.688	5058.38
949.917	4904.38
950.146	5016.38
950.375	5012.38
950.604	4879.38
950.833	4988.38
951.062	4963.38
951.291	4921.38
951.52	4859.38
951.749	4859.38
951.978	4814.38
952.206	4805.38
952.435	4808.38
952.664	4845.38
952.892	4854.38
953.121	4756.38
953.349	4818.38
953.578	4762.38
953.806	4696.38
954.035	4666.38
954.263	4705.38
954.491	4600.38
954.719	4620.38
954.948	4551.38
955.176	4570.38
955.404	4497.38
955.632	4548.38
955.86	4509.38
956.088	4460.38
956.316	4453.38
956.544	4458.38
956.772	4423.38
956.999	4381.38
957.227	4414.38
957.455	4309.38
957.683	4309.38
957.91	4277.38
958.138	4234.38
958.365	4247.38
958.593	4238.38
958.82	4162.38
959.048	4241.38
959.275	4160.38
959.502	4145.38
959.73	4132.38
959.957	4179.38
960.184	4192.38
960.411	4086.38
960.638	4145.38
960.865	4071.38
961.092	4089.38
961.319	4009.38
961.546	4130.38
961.773	4116.38
962	4040.38
962.227	4086.38
962.454	4029.38
962.68	4004.38
962.907	4008.38
963.134	3958.38
963.36	3984.38
963.587	3946.38
963.813	3871.38
964.04	3907.38
964.266	3809.38
964.493	3873.38
964.719	3837.38
964.945	3831.38
965.171	3719.38
965.398	3804.38
965.624	3778.38
965.85	3682.38
966.076	3696.38
966.302	3702.38
966.528	3645.38
966.754	3675.38
966.98	3608.38
967.206	3652.38
967.431	3570.38
967.657	3639.38
967.883	3598.38
968.109	3576.38
968.334	3516.38
968.56	3549.38
968.785	3513.38
969.011	3476.38
969.236	3545.38
969.462	3438.38
969.687	3511.38
969.912	3469.38
970.138	3519.38
970.363	3422.38
970.588	3415.38
970.813	3442.38
971.038	3354.38
971.263	3385.38
971.488	3405.38
971.713	3407.38
971.938	3388.38
972.163	3274.38
972.388	3315.38
972.613	3271.38
972.838	3293.38
973.062	3257.38
973.287	3256.38
973.512	3201.38
973.736	3198.38
973.961	3175.38
974.185	3134.38
974.41	3186.38
974.634	3110.38
974.858	3087.38
975.083	3129.38
975.307	3125.38
975.531	3029.38
975.755	2995.38
975.98	3005.38
976.204	2952.38
976.428	2928.38
976.652	2954.38
976.876	2948.38
977.1	2976.38
977.324	2897.38
977.547	2968.38
977.771	2911.38
977.995	2920.38
978.219	2803.38
978.442	2942.38
978.666	2880.38
978.89	2844.38
979.113	2857.38
979.337	2837.38
979.56	2778.38
979.783	2893.38
980.007	2785.38
980.23	2786.38
980.453	2769.38
980.677	2829.38
980.9	2784.38
981.123	2698.38
981.346	2766.38
981.569	2736.38
981.792	2752.38
982.015	2683.38
982.238	2679.38
982.461	2668.38
982.684	2644.38
982.907	2619.38
983.129	2590.38
983.352	2621.38
983.575	2605.38
983.797	2580.38
984.02	2525.38
984.242	2526.38
984.465	2531.38
984.687	2567.38
984.91	2559.38
985.132	2516.38
985.354	2563.38
985.577	2501.38
985.799	2480.38
986.021	2442.38
986.243	2437.38
986.465	2465.38
986.687	2477.38
986.909	2509.38
987.131	2455.38
987.353	2384.38
987.575	2432.38
987.797	2412.38
988.019	2350.38
988.241	2392.38
988.462	2348.38
988.684	2419.38
988.906	2451.38
989.127	2442.38
989.349	2308.38
989.57	2348.38
989.792	2384.38
990.013	2387.38
990.234	2397.38
990.456	2396.38
990.677	2381.38
990.898	2304.38
991.119	2285.38
991.341	2324.38
991.562	2272.38
991.783	2298.38
992.004	2197.38
992.225	2204.38
992.446	2266.38
992.667	2153.38
992.887	2232.38
993.108	2129.38
993.329	2230.38
993.55	2166.38
993.77	2098.38
993.991	2125.38
994.212	2118.38
994.432	2142.38
994.653	2150.38
994.873	2125.38
995.093	2013.38
995.314	2033.38
995.534	2107.38
995.754	2137.38
995.975	2178.38
996.195	2027.38
996.415	2102.38
996.635	2066.38
996.855	2044.38
997.075	2026.38
997.295	2035.38
997.515	2027.38
997.735	2060.38
997.955	2045.38
998.174	2037.38
998.394	2026.38
998.614	2022.38
998.834	2010.38
999.053	2086.38
999.273	2010.38
999.492	2094.38
999.712	1977.38
999.931	1956.38
1000.151	2025.38
1000.37	1982.38
1000.589	2005.38
1000.809	1940.38
1001.028	2038.38
1001.247	1986.38
1001.466	1865.38
1001.685	1999.38
1001.904	1922.38
1002.123	1913.38
1002.342	1914.38
1002.561	1863.38
1002.78	1888.38
1002.999	1961.38
1003.218	1894.38
1003.436	1841.38
1003.655	1910.38
1003.874	1855.38
1004.092	1842.38
1004.311	1900.38
1004.53	1854.38
1004.748	1919.38
1004.966	1849.38
1005.185	1880.38
1005.403	1850.38
1005.622	1817.38
1005.84	1922.38
1006.058	1822.38
1006.276	1840.38
1006.494	2220.38
1006.712	1824.38
1006.931	1881.38
1007.149	1812.38
1007.367	1824.38
1007.584	1835.38
1007.802	1881.38
1008.02	1821.38
1008.238	1918.38
1008.456	1935.38
1008.673	1789.38
1008.891	1943.38
1009.109	1897.38
1009.326	1917.38
1009.544	2046.38
1009.761	1947.38
1009.979	2067.38
1010.196	2068.38
1010.413	2204.38
1010.631	2270.38
1010.848	2309.38
1011.065	2314.38
1011.282	2295.38
1011.5	2218.38
1011.717	2331.38
1011.934	2245.38
1012.151	2312.38
1012.368	2235.38
1012.585	2193.38
1012.801	2301.38
1013.018	2205.38
1013.235	2201.38
1013.452	2257.38
1013.669	2226.38
1013.885	2231.38
1014.102	2242.38
1014.318	2225.38
1014.535	2180.38
1014.751	2227.38
1014.968	2196.38
1015.184	2247.38
1015.401	2114.38
1015.617	2161.38
1015.833	2119.38
1016.049	2094.38
1016.266	2117.38
1016.482	2036.38
1016.698	2017.38
1016.914	2038.38
1017.13	1981.38
1017.346	1982.38
1017.562	2044.38
1017.778	1956.38
1017.993	1937.38
1018.209	1966.38
1018.425	1974.38
1018.641	1950.38
1018.856	1899.38
1019.072	1954.38
1019.288	1996.38
1019.503	1955.38
1019.719	1821.38
1019.934	1868.38
1020.149	1946.38
1020.365	1874.38
1020.58	1832.38
1020.795	1835.38
1021.011	1780.38
1021.226	1720.38
1021.441	1737.38
1021.656	1685.38
1021.871	1602.38
1022.086	1586.38
1022.301	1577.38
1022.516	1545.38
1022.731	1586.38
1022.946	1479.38
1023.16	1488.38
1023.375	1434.38
1023.59	1399.38
1023.804	1374.38
1024.019	1451.38
1024.234	1336.38
1024.448	1382.38
1024.663	1275.38
1024.877	1315.38
1025.092	1298.38
1025.306	1280.38
1025.52	1192.38
1025.734	1221.38
1025.949	1175.38
1026.163	1159.38
1026.377	1075.38
1026.591	1124.38
1026.805	1054.38
1027.019	1050.38
1027.233	993.38
1027.447	969.38
1027.661	1059.38
1027.875	986.38
1028.088	963.38
1028.302	907.38
1028.516	891.38
1028.73	898.38
1028.943	861.38
1029.157	819.38
1029.37	765.38
1029.584	-2.62
1029.797	-3.62
1030.011	0.38
1030.224	-3.62
