Data from QEP037381__535__17-37-17-569.txt Node

Date: Fri Dec 16 17:37:17 EST 2022
User: dcclab
Spectrometer: QEP03738
Trigger mode: 4
Integration Time (sec): 1.000000E1
Scans to average: 1
Electric dark correction enabled: true
Nonlinearity correction enabled: false
Boxcar width: 0
XAxis mode: Wavelengths
Number of Pixels in Spectrum: 1044
>>>>>Begin Spectral Data<<<<<
784.041	12.25
784.3	-1.75
784.558	-2.75
784.817	-3.75
785.075	92449.25
785.334	15879.25
785.592	7409.25
785.851	5106.25
786.109	3868.25
786.368	3002.25
786.626	2444.25
786.884	2031.25
787.143	1718.25
787.401	1428.25
787.659	1319.25
787.917	1106.25
788.175	1037.25
788.433	907.25
788.691	833.25
788.949	760.25
789.207	740.25
789.465	641.25
789.723	622.25
789.98	565.25
790.238	615.25
790.496	580.25
790.753	537.25
791.011	597.25
791.268	543.25
791.526	538.25
791.783	534.25
792.041	522.25
792.298	441.25
792.556	512.25
792.813	491.25
793.07	475.25
793.327	469.25
793.584	526.25
793.841	454.25
794.099	479.25
794.356	537.25
794.613	441.25
794.869	495.25
795.126	436.25
795.383	407.25
795.64	463.25
795.897	400.25
796.153	461.25
796.41	441.25
796.667	438.25
796.923	446.25
797.18	435.25
797.436	469.25
797.693	429.25
797.949	481.25
798.206	498.25
798.462	431.25
798.718	486.25
798.974	448.25
799.231	511.25
799.487	497.25
799.743	514.25
799.999	534.25
800.255	535.25
800.511	516.25
800.767	573.25
801.023	570.25
801.279	606.25
801.534	647.25
801.79	709.25
802.046	752.25
802.302	909.25
802.557	1048.25
802.813	1280.25
803.068	1617.25
803.324	2266.25
803.579	3082.25
803.835	4334.25
804.09	5997.25
804.345	7920.25
804.601	10009.25
804.856	12208.25
805.111	14024.25
805.366	15531.25
805.621	16679.25
805.876	17433.25
806.131	17910.25
806.386	18375.25
806.641	18685.25
806.896	18975.25
807.151	19387.25
807.406	19717.25
807.661	20119.25
807.915	20643.25
808.17	20936.25
808.425	21105.25
808.679	21424.25
808.934	21683.25
809.188	21808.25
809.443	22104.25
809.697	22410.25
809.951	22582.25
810.206	22814.25
810.46	23028.25
810.714	23249.25
810.968	23479.25
811.223	23682.25
811.477	23893.25
811.731	24261.25
811.985	24357.25
812.239	24465.25
812.493	24621.25
812.747	24761.25
813	24630.25
813.254	24944.25
813.508	25006.25
813.762	25164.25
814.015	25291.25
814.269	25557.25
814.522	25722.25
814.776	26143.25
815.03	26534.25
815.283	26795.25
815.536	27297.25
815.79	27692.25
816.043	28108.25
816.296	28547.25
816.55	28922.25
816.803	29263.25
817.056	29705.25
817.309	29909.25
817.562	30353.25
817.815	30674.25
818.068	30908.25
818.321	31351.25
818.574	31623.25
818.827	32129.25
819.079	32502.25
819.332	33039.25
819.585	33499.25
819.838	33905.25
820.09	34046.25
820.343	34383.25
820.595	34561.25
820.848	34887.25
821.1	35067.25
821.353	34974.25
821.605	34949.25
821.857	34854.25
822.11	34846.25
822.362	34792.25
822.614	34815.25
822.866	34941.25
823.118	34694.25
823.37	34865.25
823.622	34968.25
823.874	35060.25
824.126	35162.25
824.378	35160.25
824.63	35210.25
824.882	35341.25
825.134	35327.25
825.385	35281.25
825.637	35250.25
825.888	35274.25
826.14	35135.25
826.392	34921.25
826.643	34855.25
826.895	34633.25
827.146	34561.25
827.397	34365.25
827.649	34389.25
827.9	34330.25
828.151	34444.25
828.402	34677.25
828.653	34662.25
828.905	34588.25
829.156	34677.25
829.407	34752.25
829.658	34603.25
829.909	34776.25
830.159	34703.25
830.41	34493.25
830.661	34303.25
830.912	34080.25
831.162	34038.25
831.413	33859.25
831.664	33925.25
831.914	33840.25
832.165	33828.25
832.415	33884.25
832.666	33883.25
832.916	33800.25
833.167	33738.25
833.417	33788.25
833.667	33336.25
833.917	33496.25
834.168	33331.25
834.418	33318.25
834.668	33231.25
834.918	33003.25
835.168	32958.25
835.418	32766.25
835.668	32739.25
835.918	32526.25
836.167	32531.25
836.417	32311.25
836.667	32367.25
836.917	32287.25
837.166	32176.25
837.416	32271.25
837.666	32150.25
837.915	31994.25
838.165	31875.25
838.414	31890.25
838.663	31866.25
838.913	31922.25
839.162	31832.25
839.411	31700.25
839.661	31520.25
839.91	31487.25
840.159	31429.25
840.408	31301.25
840.657	31445.25
840.906	31360.25
841.155	31323.25
841.404	31262.25
841.653	31339.25
841.902	31409.25
842.15	31423.25
842.399	31421.25
842.648	31376.25
842.897	31213.25
843.145	31040.25
843.394	30802.25
843.642	30604.25
843.891	30475.25
844.139	30345.25
844.388	30235.25
844.636	29983.25
844.884	29896.25
845.133	29953.25
845.381	29851.25
845.629	29803.25
845.877	29886.25
846.125	29779.25
846.373	29734.25
846.621	29592.25
846.869	29543.25
847.117	29331.25
847.365	29219.25
847.613	29074.25
847.861	29031.25
848.108	28897.25
848.356	28750.25
848.604	28733.25
848.851	28786.25
849.099	28789.25
849.346	28912.25
849.594	28953.25
849.841	29009.25
850.089	28953.25
850.336	28995.25
850.583	29037.25
850.831	28778.25
851.078	28726.25
851.325	28713.25
851.572	28751.25
851.819	28368.25
852.066	27842.25
852.313	27446.25
852.56	27338.25
852.807	27222.25
853.054	27049.25
853.301	26968.25
853.548	27058.25
853.794	27147.25
854.041	27211.25
854.288	27298.25
854.534	27507.25
854.781	27397.25
855.028	27348.25
855.274	27314.25
855.52	27073.25
855.767	26894.25
856.013	27008.25
856.26	27108.25
856.506	26602.25
856.752	26736.25
856.998	26583.25
857.244	26595.25
857.49	26781.25
857.736	26830.25
857.982	26773.25
858.228	26840.25
858.474	26633.25
858.72	26394.25
858.966	26181.25
859.212	25909.25
859.458	25680.25
859.703	25338.25
859.949	25157.25
860.195	24939.25
860.44	24846.25
860.686	24665.25
860.931	24741.25
861.177	24430.25
861.422	24463.25
861.667	24507.25
861.913	24359.25
862.158	24349.25
862.403	24393.25
862.648	24467.25
862.893	24502.25
863.138	24578.25
863.384	24433.25
863.629	24410.25
863.873	24395.25
864.118	24327.25
864.363	24153.25
864.608	24041.25
864.853	24056.25
865.098	23823.25
865.342	23670.25
865.587	23485.25
865.832	23575.25
866.076	23531.25
866.321	23325.25
866.565	23289.25
866.81	23163.25
867.054	23187.25
867.298	23164.25
867.543	22907.25
867.787	22929.25
868.031	22965.25
868.275	22874.25
868.519	22773.25
868.764	22749.25
869.008	22683.25
869.252	22547.25
869.496	22451.25
869.739	22544.25
869.983	22487.25
870.227	22410.25
870.471	22327.25
870.715	22434.25
870.958	22520.25
871.202	22589.25
871.446	22490.25
871.689	22482.25
871.933	22535.25
872.176	22379.25
872.42	22391.25
872.663	22282.25
872.906	22302.25
873.15	22079.25
873.393	21859.25
873.636	21940.25
873.879	21726.25
874.122	21517.25
874.366	21213.25
874.609	21165.25
874.852	20898.25
875.095	20812.25
875.337	20784.25
875.58	20553.25
875.823	20715.25
876.066	20639.25
876.309	20567.25
876.551	20343.25
876.794	20328.25
877.037	20265.25
877.279	20045.25
877.522	20194.25
877.764	20258.25
878.007	20149.25
878.249	20114.25
878.491	19979.25
878.734	20086.25
878.976	19978.25
879.218	19798.25
879.46	19711.25
879.702	19607.25
879.945	19357.25
880.187	19277.25
880.429	19040.25
880.671	19091.25
880.912	18912.25
881.154	18953.25
881.396	18767.25
881.638	18842.25
881.88	18917.25
882.121	18780.25
882.363	18705.25
882.605	18784.25
882.846	18658.25
883.088	18620.25
883.329	18528.25
883.571	18535.25
883.812	18481.25
884.053	18726.25
884.295	18936.25
884.536	19032.25
884.777	18917.25
885.018	18783.25
885.259	18763.25
885.5	18670.25
885.742	18838.25
885.982	18700.25
886.223	18458.25
886.464	18440.25
886.705	18265.25
886.946	18158.25
887.187	17879.25
887.428	17759.25
887.668	17570.25
887.909	17306.25
888.15	17032.25
888.39	17061.25
888.631	16916.25
888.871	16806.25
889.111	16719.25
889.352	16632.25
889.592	16488.25
889.833	16326.25
890.073	16230.25
890.313	16136.25
890.553	15972.25
890.793	15969.25
891.033	15830.25
891.273	15766.25
891.513	15732.25
891.753	15670.25
891.993	15641.25
892.233	15679.25
892.473	15712.25
892.713	15605.25
892.952	15593.25
893.192	15725.25
893.432	15641.25
893.671	15644.25
893.911	15554.25
894.15	15438.25
894.39	15233.25
894.629	15293.25
894.869	15206.25
895.108	15053.25
895.347	14962.25
895.587	14896.25
895.826	14875.25
896.065	14844.25
896.304	14801.25
896.543	14842.25
896.782	14704.25
897.021	14670.25
897.26	14670.25
897.499	14660.25
897.738	14664.25
897.977	14511.25
898.216	14404.25
898.454	14302.25
898.693	14105.25
898.932	14177.25
899.17	14014.25
899.409	14012.25
899.647	13928.25
899.886	13900.25
900.124	13939.25
900.363	13879.25
900.601	13964.25
900.839	13970.25
901.078	13929.25
901.316	14017.25
901.554	13997.25
901.792	14088.25
902.03	13973.25
902.268	14018.25
902.506	14017.25
902.744	13914.25
902.982	13738.25
903.22	13569.25
903.458	13451.25
903.695	13377.25
903.933	13033.25
904.171	12849.25
904.409	12700.25
904.646	12577.25
904.884	12389.25
905.121	12316.25
905.359	12224.25
905.596	12034.25
905.833	11900.25
906.071	11910.25
906.308	11807.25
906.545	11756.25
906.783	11771.25
907.02	11669.25
907.257	11660.25
907.494	11687.25
907.731	11577.25
907.968	11574.25
908.205	11346.25
908.442	11311.25
908.679	11324.25
908.915	11221.25
909.152	11075.25
909.389	10972.25
909.626	11018.25
909.862	10895.25
910.099	10829.25
910.335	10784.25
910.572	10642.25
910.808	10693.25
911.045	10621.25
911.281	10606.25
911.518	10594.25
911.754	10438.25
911.99	10419.25
912.226	10439.25
912.463	10250.25
912.699	10205.25
912.935	10098.25
913.171	10010.25
913.407	9947.25
913.643	9945.25
913.879	9838.25
914.114	9678.25
914.35	9599.25
914.586	9492.25
914.822	9413.25
915.057	9402.25
915.293	9257.25
915.529	9283.25
915.764	9250.25
916	9234.25
916.235	9171.25
916.471	9175.25
916.706	9118.25
916.941	9086.25
917.177	9129.25
917.412	9109.25
917.647	9079.25
917.882	9049.25
918.117	9001.25
918.352	8976.25
918.588	9052.25
918.823	8850.25
919.057	8802.25
919.292	8597.25
919.527	8705.25
919.762	8525.25
919.997	8435.25
920.232	8369.25
920.466	8326.25
920.701	8095.25
920.935	8139.25
921.17	8103.25
921.405	8074.25
921.639	8042.25
921.873	8026.25
922.108	7958.25
922.342	7946.25
922.576	7896.25
922.811	7798.25
923.045	7918.25
923.279	7885.25
923.513	7682.25
923.747	7749.25
923.981	7702.25
924.215	7554.25
924.449	7570.25
924.683	7481.25
924.917	7470.25
925.151	7381.25
925.385	7439.25
925.618	7291.25
925.852	7396.25
926.086	7280.25
926.319	7329.25
926.553	7284.25
926.786	7302.25
927.02	7305.25
927.253	7264.25
927.486	7289.25
927.72	7162.25
927.953	7273.25
928.186	7180.25
928.42	7202.25
928.653	7108.25
928.886	7083.25
929.119	7081.25
929.352	7036.25
929.585	6985.25
929.818	6937.25
930.051	6915.25
930.284	6844.25
930.516	6785.25
930.749	6657.25
930.982	6702.25
931.215	6613.25
931.447	6585.25
931.68	6606.25
931.912	6573.25
932.145	6498.25
932.377	6564.25
932.61	6679.25
932.842	6461.25
933.074	6532.25
933.307	6433.25
933.539	6557.25
933.771	6546.25
934.003	6487.25
934.236	6595.25
934.468	6524.25
934.7	6444.25
934.932	6480.25
935.164	6428.25
935.395	6316.25
935.627	6386.25
935.859	6355.25
936.091	6229.25
936.323	6275.25
936.554	6285.25
936.786	6249.25
937.017	6189.25
937.249	6169.25
937.481	6124.25
937.712	6226.25
937.943	6132.25
938.175	6150.25
938.406	6059.25
938.637	6214.25
938.869	5986.25
939.1	6092.25
939.331	6024.25
939.562	5999.25
939.793	5995.25
940.024	6025.25
940.255	6005.25
940.486	5871.25
940.717	5908.25
940.948	5884.25
941.179	5856.25
941.409	5828.25
941.64	5833.25
941.871	5816.25
942.102	5738.25
942.332	5796.25
942.563	5788.25
942.793	5795.25
943.024	5738.25
943.254	5736.25
943.484	5768.25
943.715	5809.25
943.945	5755.25
944.175	5669.25
944.405	5647.25
944.636	5681.25
944.866	5705.25
945.096	5716.25
945.326	5619.25
945.556	5673.25
945.786	5664.25
946.016	5549.25
946.245	5505.25
946.475	5516.25
946.705	5430.25
946.935	5424.25
947.164	5445.25
947.394	5366.25
947.624	5310.25
947.853	5370.25
948.083	5315.25
948.312	5221.25
948.542	5211.25
948.771	5170.25
949	5179.25
949.23	5192.25
949.459	5152.25
949.688	5258.25
949.917	5188.25
950.146	5187.25
950.375	5145.25
950.604	5101.25
950.833	5185.25
951.062	5157.25
951.291	5061.25
951.52	5054.25
951.749	5042.25
951.978	4989.25
952.206	4995.25
952.435	4959.25
952.664	5019.25
952.892	5007.25
953.121	4961.25
953.349	4947.25
953.578	4939.25
953.806	4889.25
954.035	4821.25
954.263	4812.25
954.491	4729.25
954.719	4792.25
954.948	4712.25
955.176	4767.25
955.404	4689.25
955.632	4686.25
955.86	4652.25
956.088	4654.25
956.316	4606.25
956.544	4635.25
956.772	4541.25
956.999	4467.25
957.227	4621.25
957.455	4519.25
957.683	4493.25
957.91	4405.25
958.138	4398.25
958.365	4410.25
958.593	4369.25
958.82	4335.25
959.048	4387.25
959.275	4321.25
959.502	4316.25
959.73	4283.25
959.957	4298.25
960.184	4351.25
960.411	4270.25
960.638	4289.25
960.865	4269.25
961.092	4280.25
961.319	4178.25
961.546	4292.25
961.773	4305.25
962	4236.25
962.227	4234.25
962.454	4196.25
962.68	4183.25
962.907	4183.25
963.134	4148.25
963.36	4102.25
963.587	4125.25
963.813	4034.25
964.04	4070.25
964.266	3948.25
964.493	4064.25
964.719	4014.25
964.945	4028.25
965.171	3863.25
965.398	3895.25
965.624	3924.25
965.85	3818.25
966.076	3811.25
966.302	3864.25
966.528	3815.25
966.754	3769.25
966.98	3810.25
967.206	3786.25
967.431	3738.25
967.657	3807.25
967.883	3749.25
968.109	3725.25
968.334	3684.25
968.56	3684.25
968.785	3682.25
969.011	3611.25
969.236	3698.25
969.462	3608.25
969.687	3618.25
969.912	3679.25
970.138	3706.25
970.363	3566.25
970.588	3553.25
970.813	3552.25
971.038	3539.25
971.263	3571.25
971.488	3522.25
971.713	3602.25
971.938	3582.25
972.163	3438.25
972.388	3409.25
972.613	3445.25
972.838	3474.25
973.062	3384.25
973.287	3368.25
973.512	3296.25
973.736	3369.25
973.961	3323.25
974.185	3323.25
974.41	3344.25
974.634	3223.25
974.858	3235.25
975.083	3284.25
975.307	3224.25
975.531	3189.25
975.755	3106.25
975.98	3155.25
976.204	3047.25
976.428	3090.25
976.652	3020.25
976.876	3040.25
977.1	3100.25
977.324	3053.25
977.547	3092.25
977.771	3055.25
977.995	3011.25
978.219	2942.25
978.442	3073.25
978.666	3012.25
978.89	2978.25
979.113	2989.25
979.337	2979.25
979.56	2906.25
979.783	3030.25
980.007	2894.25
980.23	2961.25
980.453	2879.25
980.677	2888.25
980.9	2901.25
981.123	2813.25
981.346	2912.25
981.569	2882.25
981.792	2838.25
982.015	2843.25
982.238	2772.25
982.461	2809.25
982.684	2746.25
982.907	2718.25
983.129	2717.25
983.352	2750.25
983.575	2720.25
983.797	2715.25
984.02	2665.25
984.242	2633.25
984.465	2657.25
984.687	2663.25
984.91	2672.25
985.132	2637.25
985.354	2644.25
985.577	2624.25
985.799	2604.25
986.021	2547.25
986.243	2514.25
986.465	2547.25
986.687	2557.25
986.909	2591.25
987.131	2513.25
987.353	2517.25
987.575	2524.25
987.797	2501.25
988.019	2425.25
988.241	2506.25
988.462	2470.25
988.684	2513.25
988.906	2531.25
989.127	2504.25
989.349	2397.25
989.57	2447.25
989.792	2517.25
990.013	2464.25
990.234	2469.25
990.456	2475.25
990.677	2453.25
990.898	2406.25
991.119	2376.25
991.341	2408.25
991.562	2317.25
991.783	2351.25
992.004	2272.25
992.225	2276.25
992.446	2339.25
992.667	2224.25
992.887	2322.25
993.108	2204.25
993.329	2325.25
993.55	2269.25
993.77	2197.25
993.991	2173.25
994.212	2220.25
994.432	2212.25
994.653	2202.25
994.873	2212.25
995.093	2046.25
995.314	2151.25
995.534	2182.25
995.754	2169.25
995.975	2214.25
996.195	2127.25
996.415	2171.25
996.635	2110.25
996.855	2151.25
997.075	2136.25
997.295	2107.25
997.515	2062.25
997.735	2134.25
997.955	2095.25
998.174	2067.25
998.394	2043.25
998.614	2069.25
998.834	2057.25
999.053	2134.25
999.273	2060.25
999.492	2094.25
999.712	2040.25
999.931	1990.25
1000.151	2021.25
1000.37	2001.25
1000.589	2087.25
1000.809	2002.25
1001.028	2085.25
1001.247	2022.25
1001.466	1923.25
1001.685	2045.25
1001.904	1994.25
1002.123	1962.25
1002.342	1980.25
1002.561	1931.25
1002.78	1917.25
1002.999	1989.25
1003.218	1956.25
1003.436	1884.25
1003.655	1950.25
1003.874	1866.25
1004.092	1922.25
1004.311	1957.25
1004.53	1886.25
1004.748	1955.25
1004.966	1885.25
1005.185	1924.25
1005.403	1934.25
1005.622	1889.25
1005.84	1973.25
1006.058	1866.25
1006.276	1855.25
1006.494	2267.25
1006.712	1890.25
1006.931	1933.25
1007.149	1815.25
1007.367	1833.25
1007.584	1876.25
1007.802	1916.25
1008.02	1858.25
1008.238	1959.25
1008.456	1931.25
1008.673	1819.25
1008.891	1890.25
1009.109	1882.25
1009.326	1937.25
1009.544	1992.25
1009.761	1892.25
1009.979	1994.25
1010.196	1985.25
1010.413	2077.25
1010.631	2153.25
1010.848	2158.25
1011.065	2161.25
1011.282	2095.25
1011.5	2054.25
1011.717	2143.25
1011.934	2093.25
1012.151	2076.25
1012.368	2087.25
1012.585	2039.25
1012.801	2086.25
1013.018	2079.25
1013.235	2052.25
1013.452	2051.25
1013.669	2060.25
1013.885	2023.25
1014.102	2067.25
1014.318	2034.25
1014.535	1999.25
1014.751	2025.25
1014.968	2021.25
1015.184	2062.25
1015.401	1969.25
1015.617	1967.25
1015.833	1906.25
1016.049	1945.25
1016.266	1935.25
1016.482	1872.25
1016.698	1845.25
1016.914	1881.25
1017.13	1838.25
1017.346	1826.25
1017.562	1874.25
1017.778	1823.25
1017.993	1805.25
1018.209	1841.25
1018.425	1822.25
1018.641	1802.25
1018.856	1748.25
1019.072	1812.25
1019.288	1829.25
1019.503	1821.25
1019.719	1725.25
1019.934	1714.25
1020.149	1821.25
1020.365	1765.25
1020.58	1665.25
1020.795	1746.25
1021.011	1640.25
1021.226	1640.25
1021.441	1678.25
1021.656	1583.25
1021.871	1481.25
1022.086	1492.25
1022.301	1467.25
1022.516	1482.25
1022.731	1490.25
1022.946	1416.25
1023.16	1396.25
1023.375	1377.25
1023.59	1350.25
1023.804	1297.25
1024.019	1409.25
1024.234	1285.25
1024.448	1306.25
1024.663	1224.25
1024.877	1231.25
1025.092	1234.25
1025.306	1268.25
1025.52	1149.25
1025.734	1222.25
1025.949	1151.25
1026.163	1095.25
1026.377	1049.25
1026.591	1079.25
1026.805	1040.25
1027.019	1008.25
1027.233	964.25
1027.447	921.25
1027.661	1001.25
1027.875	963.25
1028.088	966.25
1028.302	873.25
1028.516	877.25
1028.73	854.25
1028.943	829.25
1029.157	780.25
1029.37	748.25
1029.584	-1.75
1029.797	-0.75
1030.011	0.25
1030.224	-1.75
