Data from QEP037381__522__17-35-07-569.txt Node

Date: Fri Dec 16 17:35:07 EST 2022
User: dcclab
Spectrometer: QEP03738
Trigger mode: 4
Integration Time (sec): 1.000000E1
Scans to average: 1
Electric dark correction enabled: true
Nonlinearity correction enabled: false
Boxcar width: 0
XAxis mode: Wavelengths
Number of Pixels in Spectrum: 1044
>>>>>Begin Spectral Data<<<<<
784.041	12.62
784.3	-1.38
784.558	-5.38
784.817	-2.38
785.075	82798.62
785.334	14285.62
785.592	6772.62
785.851	4683.62
786.109	3526.62
786.368	2772.62
786.626	2223.62
786.884	1893.62
787.143	1583.62
787.401	1316.62
787.659	1209.62
787.917	1052.62
788.175	953.62
788.433	837.62
788.691	761.62
788.949	702.62
789.207	692.62
789.465	614.62
789.723	581.62
789.98	531.62
790.238	569.62
790.496	528.62
790.753	519.62
791.011	583.62
791.268	505.62
791.526	497.62
791.783	526.62
792.041	499.62
792.298	430.62
792.556	489.62
792.813	465.62
793.07	444.62
793.327	432.62
793.584	515.62
793.841	435.62
794.099	459.62
794.356	509.62
794.613	412.62
794.869	458.62
795.126	415.62
795.383	401.62
795.64	425.62
795.897	374.62
796.153	438.62
796.41	420.62
796.667	411.62
796.923	408.62
797.18	414.62
797.436	455.62
797.693	424.62
797.949	458.62
798.206	487.62
798.462	416.62
798.718	459.62
798.974	452.62
799.231	476.62
799.487	477.62
799.743	471.62
799.999	510.62
800.255	496.62
800.511	498.62
800.767	535.62
801.023	516.62
801.279	554.62
801.534	608.62
801.79	642.62
802.046	697.62
802.302	828.62
802.557	938.62
802.813	1189.62
803.068	1474.62
803.324	1989.62
803.579	2736.62
803.835	3838.62
804.09	5257.62
804.345	6975.62
804.601	8795.62
804.856	10760.62
805.111	12315.62
805.366	13615.62
805.621	14534.62
805.876	15187.62
806.131	15599.62
806.386	15850.62
806.641	16206.62
806.896	16473.62
807.151	16818.62
807.406	17043.62
807.661	17375.62
807.915	17656.62
808.17	17981.62
808.425	18225.62
808.679	18437.62
808.934	18653.62
809.188	18693.62
809.443	19081.62
809.697	19234.62
809.951	19375.62
810.206	19475.62
810.46	19843.62
810.714	19939.62
810.968	20121.62
811.223	20319.62
811.477	20445.62
811.731	20590.62
811.985	20783.62
812.239	20796.62
812.493	20858.62
812.747	21056.62
813	20996.62
813.254	21155.62
813.508	21293.62
813.762	21342.62
814.015	21476.62
814.269	21630.62
814.522	21897.62
814.776	22068.62
815.03	22509.62
815.283	22702.62
815.536	22981.62
815.79	23318.62
816.043	23651.62
816.296	24039.62
816.55	24419.62
816.803	24674.62
817.056	24980.62
817.309	25182.62
817.562	25458.62
817.815	25763.62
818.068	25950.62
818.321	26172.62
818.574	26529.62
818.827	27007.62
819.079	27205.62
819.332	27725.62
819.585	27978.62
819.838	28346.62
820.09	28624.62
820.343	28820.62
820.595	28890.62
820.848	29074.62
821.1	29146.62
821.353	29177.62
821.605	29187.62
821.857	29258.62
822.11	29044.62
822.362	29056.62
822.614	28901.62
822.866	29046.62
823.118	28890.62
823.37	28959.62
823.622	29079.62
823.874	28972.62
824.126	29218.62
824.378	29261.62
824.63	29409.62
824.882	29455.62
825.134	29302.62
825.385	29285.62
825.637	29347.62
825.888	29083.62
826.14	29051.62
826.392	28913.62
826.643	28706.62
826.895	28742.62
827.146	28628.62
827.397	28528.62
827.649	28579.62
827.9	28525.62
828.151	28454.62
828.402	28487.62
828.653	28665.62
828.905	28556.62
829.156	28656.62
829.407	28671.62
829.658	28662.62
829.909	28660.62
830.159	28627.62
830.41	28488.62
830.661	28324.62
830.912	28083.62
831.162	28029.62
831.413	27925.62
831.664	27988.62
831.914	27929.62
832.165	27866.62
832.415	27927.62
832.666	27804.62
832.916	27827.62
833.167	27685.62
833.417	27872.62
833.667	27567.62
833.917	27480.62
834.168	27433.62
834.418	27412.62
834.668	27224.62
834.918	27120.62
835.168	27045.62
835.418	26865.62
835.668	26773.62
835.918	26778.62
836.167	26641.62
836.417	26578.62
836.667	26574.62
836.917	26500.62
837.166	26481.62
837.416	26517.62
837.666	26489.62
837.915	26340.62
838.165	26260.62
838.414	26166.62
838.663	26051.62
838.913	26019.62
839.162	26016.62
839.411	25909.62
839.661	25826.62
839.91	25710.62
840.159	25687.62
840.408	25779.62
840.657	25703.62
840.906	25711.62
841.155	25617.62
841.404	25614.62
841.653	25616.62
841.902	25567.62
842.15	25659.62
842.399	25679.62
842.648	25582.62
842.897	25418.62
843.145	25241.62
843.394	25109.62
843.642	24899.62
843.891	24947.62
844.139	24840.62
844.388	24591.62
844.636	24392.62
844.884	24521.62
845.133	24354.62
845.381	24382.62
845.629	24403.62
845.877	24343.62
846.125	24312.62
846.373	24268.62
846.621	24114.62
846.869	23974.62
847.117	23997.62
847.365	23662.62
847.613	23687.62
847.861	23520.62
848.108	23526.62
848.356	23432.62
848.604	23431.62
848.851	23439.62
849.099	23477.62
849.346	23504.62
849.594	23610.62
849.841	23569.62
850.089	23617.62
850.336	23562.62
850.583	23562.62
850.831	23420.62
851.078	23295.62
851.325	23200.62
851.572	23283.62
851.819	23079.62
852.066	22643.62
852.313	22249.62
852.56	22199.62
852.807	22064.62
853.054	21892.62
853.301	21892.62
853.548	21869.62
853.794	21986.62
854.041	22053.62
854.288	22135.62
854.534	22434.62
854.781	22282.62
855.028	22169.62
855.274	22097.62
855.52	21969.62
855.767	21727.62
856.013	21793.62
856.26	22064.62
856.506	21486.62
856.752	21617.62
856.998	21550.62
857.244	21531.62
857.49	21627.62
857.736	21678.62
857.982	21636.62
858.228	21527.62
858.474	21359.62
858.72	21315.62
858.966	21093.62
859.212	20894.62
859.458	20619.62
859.703	20519.62
859.949	20311.62
860.195	20164.62
860.44	20045.62
860.686	19828.62
860.931	19928.62
861.177	19687.62
861.422	19702.62
861.667	19701.62
861.913	19684.62
862.158	19708.62
862.403	19781.62
862.648	19816.62
862.893	19827.62
863.138	19828.62
863.384	19710.62
863.629	19663.62
863.873	19650.62
864.118	19590.62
864.363	19397.62
864.608	19380.62
864.853	19308.62
865.098	19124.62
865.342	19106.62
865.587	19001.62
865.832	19067.62
866.076	18956.62
866.321	18911.62
866.565	18803.62
866.81	18646.62
867.054	18629.62
867.298	18489.62
867.543	18503.62
867.787	18489.62
868.031	18377.62
868.275	18405.62
868.519	18393.62
868.764	18246.62
869.008	18228.62
869.252	18214.62
869.496	17975.62
869.739	18173.62
869.983	18066.62
870.227	17923.62
870.471	17964.62
870.715	18104.62
870.958	18040.62
871.202	18050.62
871.446	18142.62
871.689	18095.62
871.933	18112.62
872.176	18077.62
872.42	17991.62
872.663	17886.62
872.906	17793.62
873.15	17680.62
873.393	17663.62
873.636	17648.62
873.879	17356.62
874.122	17340.62
874.366	17114.62
874.609	16909.62
874.852	16780.62
875.095	16853.62
875.337	16609.62
875.58	16618.62
875.823	16595.62
876.066	16512.62
876.309	16489.62
876.551	16271.62
876.794	16189.62
877.037	16207.62
877.279	16068.62
877.522	16154.62
877.764	16184.62
878.007	16168.62
878.249	16201.62
878.491	16044.62
878.734	16101.62
878.976	16086.62
879.218	15875.62
879.46	15873.62
879.702	15721.62
879.945	15612.62
880.187	15328.62
880.429	15344.62
880.671	15295.62
880.912	15199.62
881.154	15098.62
881.396	14972.62
881.638	15100.62
881.88	15136.62
882.121	15046.62
882.363	14972.62
882.605	14937.62
882.846	14880.62
883.088	14870.62
883.329	14775.62
883.571	14790.62
883.812	14827.62
884.053	14954.62
884.295	15072.62
884.536	15218.62
884.777	15118.62
885.018	15015.62
885.259	14997.62
885.5	14976.62
885.742	15108.62
885.982	14823.62
886.223	14681.62
886.464	14637.62
886.705	14514.62
886.946	14508.62
887.187	14234.62
887.428	14182.62
887.668	13967.62
887.909	13830.62
888.15	13729.62
888.39	13647.62
888.631	13601.62
888.871	13481.62
889.111	13450.62
889.352	13200.62
889.592	13090.62
889.833	13062.62
890.073	12895.62
890.313	12955.62
890.553	12750.62
890.793	12760.62
891.033	12624.62
891.273	12608.62
891.513	12623.62
891.753	12645.62
891.993	12568.62
892.233	12507.62
892.473	12599.62
892.713	12606.62
892.952	12506.62
893.192	12479.62
893.432	12516.62
893.671	12497.62
893.911	12463.62
894.15	12366.62
894.39	12237.62
894.629	12223.62
894.869	12048.62
895.108	12075.62
895.347	11993.62
895.587	12009.62
895.826	11969.62
896.065	11865.62
896.304	11896.62
896.543	11875.62
896.782	11754.62
897.021	11749.62
897.26	11702.62
897.499	11755.62
897.738	11671.62
897.977	11584.62
898.216	11496.62
898.454	11318.62
898.693	11271.62
898.932	11286.62
899.17	11243.62
899.409	11190.62
899.647	11137.62
899.886	11015.62
900.124	11110.62
900.363	11119.62
900.601	11118.62
900.839	11097.62
901.078	11086.62
901.316	11164.62
901.554	11145.62
901.792	11223.62
902.03	11116.62
902.268	11189.62
902.506	11159.62
902.744	11070.62
902.982	10996.62
903.22	10847.62
903.458	10672.62
903.695	10628.62
903.933	10500.62
904.171	10233.62
904.409	10107.62
904.646	10065.62
904.884	9870.62
905.121	9815.62
905.359	9716.62
905.596	9723.62
905.833	9556.62
906.071	9451.62
906.308	9466.62
906.545	9439.62
906.783	9373.62
907.02	9428.62
907.257	9318.62
907.494	9322.62
907.731	9320.62
907.968	9247.62
908.205	9153.62
908.442	9108.62
908.679	9053.62
908.915	9005.62
909.152	8919.62
909.389	8754.62
909.626	8709.62
909.862	8712.62
910.099	8624.62
910.335	8675.62
910.572	8525.62
910.808	8611.62
911.045	8479.62
911.281	8477.62
911.518	8580.62
911.754	8379.62
911.99	8344.62
912.226	8287.62
912.463	8215.62
912.699	8254.62
912.935	8172.62
913.171	8044.62
913.407	7932.62
913.643	7893.62
913.879	7869.62
914.114	7780.62
914.35	7730.62
914.586	7667.62
914.822	7554.62
915.057	7639.62
915.293	7433.62
915.529	7352.62
915.764	7469.62
916	7366.62
916.235	7359.62
916.471	7359.62
916.706	7329.62
916.941	7254.62
917.177	7310.62
917.412	7333.62
917.647	7294.62
917.882	7220.62
918.117	7282.62
918.352	7185.62
918.588	7222.62
918.823	7101.62
919.057	7039.62
919.292	6857.62
919.527	7024.62
919.762	6776.62
919.997	6846.62
920.232	6695.62
920.466	6697.62
920.701	6539.62
920.935	6512.62
921.17	6548.62
921.405	6453.62
921.639	6481.62
921.873	6415.62
922.108	6372.62
922.342	6409.62
922.576	6331.62
922.811	6297.62
923.045	6279.62
923.279	6326.62
923.513	6147.62
923.747	6189.62
923.981	6201.62
924.215	6056.62
924.449	6112.62
924.683	6060.62
924.917	5925.62
925.151	5930.62
925.385	5937.62
925.618	5932.62
925.852	5911.62
926.086	5816.62
926.319	5898.62
926.553	5869.62
926.786	5882.62
927.02	5852.62
927.253	5841.62
927.486	5842.62
927.72	5768.62
927.953	5819.62
928.186	5800.62
928.42	5765.62
928.653	5697.62
928.886	5659.62
929.119	5744.62
929.352	5639.62
929.585	5597.62
929.818	5592.62
930.051	5476.62
930.284	5542.62
930.516	5378.62
930.749	5336.62
930.982	5386.62
931.215	5367.62
931.447	5247.62
931.68	5260.62
931.912	5206.62
932.145	5233.62
932.377	5244.62
932.61	5359.62
932.842	5141.62
933.074	5256.62
933.307	5206.62
933.539	5314.62
933.771	5301.62
934.003	5194.62
934.236	5240.62
934.468	5259.62
934.7	5176.62
934.932	5199.62
935.164	5120.62
935.395	5090.62
935.627	5115.62
935.859	5082.62
936.091	5070.62
936.323	5048.62
936.554	5069.62
936.786	5037.62
937.017	4913.62
937.249	4966.62
937.481	4903.62
937.712	4950.62
937.943	4899.62
938.175	4871.62
938.406	4888.62
938.637	4972.62
938.869	4866.62
939.1	4883.62
939.331	4826.62
939.562	4836.62
939.793	4815.62
940.024	4815.62
940.255	4876.62
940.486	4728.62
940.717	4731.62
940.948	4701.62
941.179	4702.62
941.409	4670.62
941.64	4611.62
941.871	4632.62
942.102	4635.62
942.332	4614.62
942.563	4677.62
942.793	4632.62
943.024	4578.62
943.254	4597.62
943.484	4635.62
943.715	4619.62
943.945	4573.62
944.175	4549.62
944.405	4513.62
944.636	4554.62
944.866	4553.62
945.096	4611.62
945.326	4486.62
945.556	4544.62
945.786	4533.62
946.016	4474.62
946.245	4369.62
946.475	4383.62
946.705	4348.62
946.935	4302.62
947.164	4329.62
947.394	4267.62
947.624	4293.62
947.853	4328.62
948.083	4260.62
948.312	4220.62
948.542	4138.62
948.771	4127.62
949	4121.62
949.23	4135.62
949.459	4173.62
949.688	4190.62
949.917	4142.62
950.146	4116.62
950.375	4175.62
950.604	4069.62
950.833	4143.62
951.062	4133.62
951.291	4092.62
951.52	4028.62
951.749	4074.62
951.978	3977.62
952.206	4007.62
952.435	3994.62
952.664	4012.62
952.892	4013.62
953.121	3991.62
953.349	3946.62
953.578	3954.62
953.806	3951.62
954.035	3862.62
954.263	3863.62
954.491	3797.62
954.719	3852.62
954.948	3816.62
955.176	3799.62
955.404	3740.62
955.632	3797.62
955.86	3749.62
956.088	3735.62
956.316	3778.62
956.544	3754.62
956.772	3676.62
956.999	3642.62
957.227	3701.62
957.455	3594.62
957.683	3643.62
957.91	3550.62
958.138	3524.62
958.365	3553.62
958.593	3527.62
958.82	3445.62
959.048	3550.62
959.275	3490.62
959.502	3471.62
959.73	3478.62
959.957	3439.62
960.184	3491.62
960.411	3411.62
960.638	3495.62
960.865	3429.62
961.092	3425.62
961.319	3340.62
961.546	3435.62
961.773	3500.62
962	3430.62
962.227	3455.62
962.454	3378.62
962.68	3363.62
962.907	3367.62
963.134	3315.62
963.36	3310.62
963.587	3327.62
963.813	3273.62
964.04	3292.62
964.266	3204.62
964.493	3299.62
964.719	3220.62
964.945	3236.62
965.171	3099.62
965.398	3193.62
965.624	3229.62
965.85	3084.62
966.076	3092.62
966.302	3096.62
966.528	3065.62
966.754	3102.62
966.98	3038.62
967.206	3084.62
967.431	2976.62
967.657	3110.62
967.883	3010.62
968.109	3061.62
968.334	3005.62
968.56	2979.62
968.785	2980.62
969.011	2923.62
969.236	3005.62
969.462	2945.62
969.687	2942.62
969.912	2970.62
970.138	2972.62
970.363	2887.62
970.588	2924.62
970.813	2868.62
971.038	2858.62
971.263	2846.62
971.488	2863.62
971.713	2890.62
971.938	2907.62
972.163	2786.62
972.388	2798.62
972.613	2745.62
972.838	2751.62
973.062	2738.62
973.287	2729.62
973.512	2670.62
973.736	2734.62
973.961	2692.62
974.185	2647.62
974.41	2718.62
974.634	2606.62
974.858	2617.62
975.083	2615.62
975.307	2636.62
975.531	2624.62
975.755	2536.62
975.98	2560.62
976.204	2479.62
976.428	2495.62
976.652	2491.62
976.876	2459.62
977.1	2480.62
977.324	2423.62
977.547	2505.62
977.771	2499.62
977.995	2472.62
978.219	2408.62
978.442	2518.62
978.666	2460.62
978.89	2437.62
979.113	2446.62
979.337	2425.62
979.56	2412.62
979.783	2444.62
980.007	2362.62
980.23	2388.62
980.453	2305.62
980.677	2402.62
980.9	2344.62
981.123	2286.62
981.346	2342.62
981.569	2333.62
981.792	2333.62
982.015	2294.62
982.238	2269.62
982.461	2262.62
982.684	2226.62
982.907	2193.62
983.129	2187.62
983.352	2258.62
983.575	2218.62
983.797	2218.62
984.02	2203.62
984.242	2182.62
984.465	2189.62
984.687	2188.62
984.91	2223.62
985.132	2152.62
985.354	2158.62
985.577	2176.62
985.799	2160.62
986.021	2057.62
986.243	2066.62
986.465	2094.62
986.687	2144.62
986.909	2154.62
987.131	2077.62
987.353	2052.62
987.575	2094.62
987.797	2064.62
988.019	1994.62
988.241	2026.62
988.462	1972.62
988.684	2059.62
988.906	2095.62
989.127	2099.62
989.349	1976.62
989.57	2033.62
989.792	2053.62
990.013	2046.62
990.234	2045.62
990.456	2106.62
990.677	2054.62
990.898	1993.62
991.119	1983.62
991.341	1975.62
991.562	1943.62
991.783	1966.62
992.004	1873.62
992.225	1861.62
992.446	1933.62
992.667	1852.62
992.887	1931.62
993.108	1799.62
993.329	1956.62
993.55	1867.62
993.77	1804.62
993.991	1815.62
994.212	1865.62
994.432	1838.62
994.653	1819.62
994.873	1844.62
995.093	1723.62
995.314	1801.62
995.534	1818.62
995.754	1815.62
995.975	1885.62
996.195	1743.62
996.415	1781.62
996.635	1741.62
996.855	1763.62
997.075	1754.62
997.295	1733.62
997.515	1713.62
997.735	1773.62
997.955	1699.62
998.174	1743.62
998.394	1710.62
998.614	1753.62
998.834	1701.62
999.053	1755.62
999.273	1731.62
999.492	1767.62
999.712	1727.62
999.931	1663.62
1000.151	1727.62
1000.37	1711.62
1000.589	1748.62
1000.809	1675.62
1001.028	1797.62
1001.247	1708.62
1001.466	1580.62
1001.685	1731.62
1001.904	1723.62
1002.123	1678.62
1002.342	1696.62
1002.561	1630.62
1002.78	1657.62
1002.999	1695.62
1003.218	1633.62
1003.436	1620.62
1003.655	1668.62
1003.874	1594.62
1004.092	1633.62
1004.311	1664.62
1004.53	1614.62
1004.748	1695.62
1004.966	1616.62
1005.185	1639.62
1005.403	1636.62
1005.622	1625.62
1005.84	1650.62
1006.058	1604.62
1006.276	1616.62
1006.494	1982.62
1006.712	1600.62
1006.931	1652.62
1007.149	1575.62
1007.367	1591.62
1007.584	1583.62
1007.802	1641.62
1008.02	1585.62
1008.238	1675.62
1008.456	1676.62
1008.673	1515.62
1008.891	1616.62
1009.109	1571.62
1009.326	1605.62
1009.544	1731.62
1009.761	1593.62
1009.979	1689.62
1010.196	1679.62
1010.413	1759.62
1010.631	1809.62
1010.848	1842.62
1011.065	1828.62
1011.282	1790.62
1011.5	1726.62
1011.717	1835.62
1011.934	1755.62
1012.151	1805.62
1012.368	1797.62
1012.585	1721.62
1012.801	1766.62
1013.018	1740.62
1013.235	1700.62
1013.452	1731.62
1013.669	1735.62
1013.885	1741.62
1014.102	1744.62
1014.318	1708.62
1014.535	1669.62
1014.751	1706.62
1014.968	1701.62
1015.184	1720.62
1015.401	1639.62
1015.617	1688.62
1015.833	1626.62
1016.049	1628.62
1016.266	1603.62
1016.482	1599.62
1016.698	1527.62
1016.914	1589.62
1017.13	1548.62
1017.346	1525.62
1017.562	1598.62
1017.778	1523.62
1017.993	1494.62
1018.209	1551.62
1018.425	1536.62
1018.641	1500.62
1018.856	1493.62
1019.072	1520.62
1019.288	1562.62
1019.503	1490.62
1019.719	1442.62
1019.934	1437.62
1020.149	1540.62
1020.365	1445.62
1020.58	1408.62
1020.795	1458.62
1021.011	1400.62
1021.226	1378.62
1021.441	1364.62
1021.656	1300.62
1021.871	1279.62
1022.086	1252.62
1022.301	1254.62
1022.516	1251.62
1022.731	1282.62
1022.946	1205.62
1023.16	1197.62
1023.375	1166.62
1023.59	1169.62
1023.804	1121.62
1024.019	1212.62
1024.234	1080.62
1024.448	1108.62
1024.663	1042.62
1024.877	1069.62
1025.092	1077.62
1025.306	1071.62
1025.52	997.62
1025.734	1053.62
1025.949	996.62
1026.163	954.62
1026.377	879.62
1026.591	951.62
1026.805	869.62
1027.019	856.62
1027.233	840.62
1027.447	786.62
1027.661	884.62
1027.875	823.62
1028.088	833.62
1028.302	774.62
1028.516	754.62
1028.73	751.62
1028.943	742.62
1029.157	687.62
1029.37	610.62
1029.584	-0.38
1029.797	0.62
1030.011	-1.38
1030.224	-2.38
