Data from QEP037381__524__17-35-27-569.txt Node

Date: Fri Dec 16 17:35:27 EST 2022
User: dcclab
Spectrometer: QEP03738
Trigger mode: 4
Integration Time (sec): 1.000000E1
Scans to average: 1
Electric dark correction enabled: true
Nonlinearity correction enabled: false
Boxcar width: 0
XAxis mode: Wavelengths
Number of Pixels in Spectrum: 1044
>>>>>Begin Spectral Data<<<<<
784.041	12.75
784.3	-0.25
784.558	-2.25
784.817	-6.25
785.075	99101.75
785.334	17135.75
785.592	7909.75
785.851	5424.75
786.109	4070.75
786.368	3215.75
786.626	2556.75
786.884	2142.75
787.143	1787.75
787.401	1475.75
787.659	1337.75
787.917	1141.75
788.175	1054.75
788.433	939.75
788.691	851.75
788.949	796.75
789.207	764.75
789.465	646.75
789.723	640.75
789.98	596.75
790.238	620.75
790.496	587.75
790.753	565.75
791.011	607.75
791.268	539.75
791.526	535.75
791.783	550.75
792.041	524.75
792.298	453.75
792.556	506.75
792.813	485.75
793.07	477.75
793.327	444.75
793.584	540.75
793.841	426.75
794.099	479.75
794.356	526.75
794.613	443.75
794.869	482.75
795.126	441.75
795.383	425.75
795.64	431.75
795.897	401.75
796.153	447.75
796.41	429.75
796.667	430.75
796.923	415.75
797.18	423.75
797.436	458.75
797.693	421.75
797.949	466.75
798.206	495.75
798.462	420.75
798.718	481.75
798.974	448.75
799.231	520.75
799.487	483.75
799.743	495.75
799.999	511.75
800.255	535.75
800.511	503.75
800.767	544.75
801.023	528.75
801.279	582.75
801.534	622.75
801.79	656.75
802.046	712.75
802.302	843.75
802.557	929.75
802.813	1185.75
803.068	1443.75
803.324	1987.75
803.579	2736.75
803.835	3798.75
804.09	5295.75
804.345	6966.75
804.601	8801.75
804.856	10898.75
805.111	12610.75
805.366	13909.75
805.621	14974.75
805.876	15654.75
806.131	16143.75
806.386	16417.75
806.641	16716.75
806.896	17039.75
807.151	17376.75
807.406	17644.75
807.661	18107.75
807.915	18292.75
808.17	18675.75
808.425	18841.75
808.679	19022.75
808.934	19208.75
809.188	19482.75
809.443	19718.75
809.697	20014.75
809.951	20105.75
810.206	20284.75
810.46	20519.75
810.714	20718.75
810.968	20839.75
811.223	21023.75
811.477	21319.75
811.731	21382.75
811.985	21481.75
812.239	21628.75
812.493	21724.75
812.747	21952.75
813	21810.75
813.254	22015.75
813.508	22202.75
813.762	22282.75
814.015	22398.75
814.269	22484.75
814.522	22697.75
814.776	23092.75
815.03	23308.75
815.283	23614.75
815.536	24088.75
815.79	24404.75
816.043	24812.75
816.296	25237.75
816.55	25408.75
816.803	25628.75
817.056	26146.75
817.309	26495.75
817.562	26678.75
817.815	26970.75
818.068	27184.75
818.321	27355.75
818.574	27749.75
818.827	28259.75
819.079	28504.75
819.332	29105.75
819.585	29396.75
819.838	29618.75
820.09	29845.75
820.343	30172.75
820.595	30334.75
820.848	30504.75
821.1	30596.75
821.353	30657.75
821.605	30676.75
821.857	30698.75
822.11	30588.75
822.362	30407.75
822.614	30410.75
822.866	30323.75
823.118	30450.75
823.37	30416.75
823.622	30609.75
823.874	30500.75
824.126	30753.75
824.378	30702.75
824.63	30847.75
824.882	30836.75
825.134	30811.75
825.385	30762.75
825.637	30781.75
825.888	30631.75
826.14	30640.75
826.392	30542.75
826.643	30317.75
826.895	30145.75
827.146	30046.75
827.397	29963.75
827.649	29990.75
827.9	30022.75
828.151	29998.75
828.402	30095.75
828.653	30090.75
828.905	30186.75
829.156	30271.75
829.407	30078.75
829.658	30218.75
829.909	30257.75
830.159	30154.75
830.41	29907.75
830.661	29790.75
830.912	29641.75
831.162	29619.75
831.413	29398.75
831.664	29424.75
831.914	29418.75
832.165	29305.75
832.415	29360.75
832.666	29563.75
832.916	29397.75
833.167	29364.75
833.417	29292.75
833.667	29175.75
833.917	29065.75
834.168	29000.75
834.418	28896.75
834.668	28763.75
834.918	28661.75
835.168	28574.75
835.418	28413.75
835.668	28320.75
835.918	28323.75
836.167	28205.75
836.417	28031.75
836.667	27899.75
836.917	27986.75
837.166	27960.75
837.416	28042.75
837.666	27876.75
837.915	27811.75
838.165	27729.75
838.414	27601.75
838.663	27513.75
838.913	27618.75
839.162	27436.75
839.411	27476.75
839.661	27309.75
839.91	27260.75
840.159	27242.75
840.408	27050.75
840.657	27061.75
840.906	27071.75
841.155	27092.75
841.404	27061.75
841.653	26976.75
841.902	27000.75
842.15	27153.75
842.399	27031.75
842.648	27166.75
842.897	26885.75
843.145	26689.75
843.394	26536.75
843.642	26372.75
843.891	26326.75
844.139	26225.75
844.388	25973.75
844.636	25890.75
844.884	25877.75
845.133	25912.75
845.381	25757.75
845.629	25829.75
845.877	25723.75
846.125	25761.75
846.373	25682.75
846.621	25460.75
846.869	25397.75
847.117	25355.75
847.365	25141.75
847.613	24996.75
847.861	24934.75
848.108	24872.75
848.356	24825.75
848.604	24614.75
848.851	24659.75
849.099	24740.75
849.346	24751.75
849.594	24941.75
849.841	24976.75
850.089	25022.75
850.336	24981.75
850.583	24921.75
850.831	24771.75
851.078	24620.75
851.325	24617.75
851.572	24754.75
851.819	24436.75
852.066	23993.75
852.313	23667.75
852.56	23500.75
852.807	23350.75
853.054	23343.75
853.301	23271.75
853.548	23326.75
853.794	23420.75
854.041	23381.75
854.288	23459.75
854.534	23711.75
854.781	23658.75
855.028	23501.75
855.274	23450.75
855.52	23319.75
855.767	23172.75
856.013	23085.75
856.26	23417.75
856.506	22797.75
856.752	22862.75
856.998	22771.75
857.244	22910.75
857.49	22940.75
857.736	23022.75
857.982	23065.75
858.228	22875.75
858.474	22808.75
858.72	22659.75
858.966	22416.75
859.212	22255.75
859.458	22009.75
859.703	21758.75
859.949	21475.75
860.195	21418.75
860.44	21310.75
860.686	21130.75
860.931	21115.75
861.177	20943.75
861.422	20943.75
861.667	20800.75
861.913	20795.75
862.158	20944.75
862.403	21024.75
862.648	21051.75
862.893	21115.75
863.138	21099.75
863.384	20881.75
863.629	20932.75
863.873	20977.75
864.118	20883.75
864.363	20643.75
864.608	20615.75
864.853	20523.75
865.098	20367.75
865.342	20284.75
865.587	20200.75
865.832	20158.75
866.076	20174.75
866.321	20005.75
866.565	19872.75
866.81	19811.75
867.054	19788.75
867.298	19694.75
867.543	19698.75
867.787	19775.75
868.031	19595.75
868.275	19523.75
868.519	19419.75
868.764	19457.75
869.008	19363.75
869.252	19336.75
869.496	19268.75
869.739	19228.75
869.983	19124.75
870.227	19091.75
870.471	19104.75
870.715	19057.75
870.958	19133.75
871.202	19171.75
871.446	19182.75
871.689	19203.75
871.933	19151.75
872.176	19151.75
872.42	19109.75
872.663	18993.75
872.906	18858.75
873.15	18747.75
873.393	18720.75
873.636	18685.75
873.879	18542.75
874.122	18298.75
874.366	18105.75
874.609	18050.75
874.852	17899.75
875.095	17857.75
875.337	17701.75
875.58	17596.75
875.823	17529.75
876.066	17608.75
876.309	17453.75
876.551	17356.75
876.794	17188.75
877.037	17310.75
877.279	17161.75
877.522	17084.75
877.764	17163.75
878.007	17026.75
878.249	17031.75
878.491	16997.75
878.734	17057.75
878.976	16993.75
879.218	16887.75
879.46	16745.75
879.702	16753.75
879.945	16606.75
880.187	16426.75
880.429	16243.75
880.671	16173.75
880.912	16177.75
881.154	16083.75
881.396	15893.75
881.638	16069.75
881.88	15971.75
882.121	15995.75
882.363	15945.75
882.605	15935.75
882.846	15851.75
883.088	15799.75
883.329	15766.75
883.571	15747.75
883.812	15719.75
884.053	15824.75
884.295	15967.75
884.536	16167.75
884.777	15998.75
885.018	15912.75
885.259	15908.75
885.5	15781.75
885.742	16078.75
885.982	15764.75
886.223	15685.75
886.464	15610.75
886.705	15433.75
886.946	15319.75
887.187	15131.75
887.428	15094.75
887.668	14790.75
887.909	14730.75
888.15	14603.75
888.39	14436.75
888.631	14392.75
888.871	14255.75
889.111	14212.75
889.352	14100.75
889.592	13910.75
889.833	13835.75
890.073	13848.75
890.313	13738.75
890.553	13666.75
890.793	13530.75
891.033	13449.75
891.273	13423.75
891.513	13373.75
891.753	13391.75
891.993	13310.75
892.233	13380.75
892.473	13467.75
892.713	13339.75
892.952	13350.75
893.192	13336.75
893.432	13228.75
893.671	13198.75
893.911	13223.75
894.15	13134.75
894.39	12982.75
894.629	12979.75
894.869	12912.75
895.108	12827.75
895.347	12623.75
895.587	12692.75
895.826	12668.75
896.065	12602.75
896.304	12602.75
896.543	12592.75
896.782	12548.75
897.021	12567.75
897.26	12367.75
897.499	12536.75
897.738	12484.75
897.977	12277.75
898.216	12176.75
898.454	12111.75
898.693	12072.75
898.932	12044.75
899.17	11904.75
899.409	11879.75
899.647	11883.75
899.886	11896.75
900.124	11809.75
900.363	11801.75
900.601	11852.75
900.839	11822.75
901.078	11850.75
901.316	11820.75
901.554	11847.75
901.792	11925.75
902.03	11801.75
902.268	11863.75
902.506	11917.75
902.744	11724.75
902.982	11724.75
903.22	11503.75
903.458	11316.75
903.695	11308.75
903.933	11111.75
904.171	10867.75
904.409	10767.75
904.646	10708.75
904.884	10543.75
905.121	10398.75
905.359	10358.75
905.596	10203.75
905.833	10096.75
906.071	10087.75
906.308	10129.75
906.545	10045.75
906.783	10000.75
907.02	9973.75
907.257	9906.75
907.494	9909.75
907.731	9913.75
907.968	9896.75
908.205	9775.75
908.442	9769.75
908.679	9636.75
908.915	9621.75
909.152	9505.75
909.389	9378.75
909.626	9385.75
909.862	9208.75
910.099	9230.75
910.335	9227.75
910.572	9093.75
910.808	9164.75
911.045	9036.75
911.281	8956.75
911.518	9082.75
911.754	8999.75
911.99	8919.75
912.226	8859.75
912.463	8683.75
912.699	8703.75
912.935	8628.75
913.171	8636.75
913.407	8439.75
913.643	8524.75
913.879	8407.75
914.114	8338.75
914.35	8195.75
914.586	8089.75
914.822	8028.75
915.057	8088.75
915.293	7901.75
915.529	7874.75
915.764	7945.75
916	7788.75
916.235	7874.75
916.471	7855.75
916.706	7748.75
916.941	7791.75
917.177	7780.75
917.412	7833.75
917.647	7802.75
917.882	7719.75
918.117	7738.75
918.352	7677.75
918.588	7682.75
918.823	7546.75
919.057	7495.75
919.292	7345.75
919.527	7401.75
919.762	7273.75
919.997	7189.75
920.232	7179.75
920.466	7111.75
920.701	6956.75
920.935	6991.75
921.17	6943.75
921.405	6861.75
921.639	6921.75
921.873	6828.75
922.108	6823.75
922.342	6861.75
922.576	6722.75
922.811	6697.75
923.045	6708.75
923.279	6776.75
923.513	6560.75
923.747	6625.75
923.981	6608.75
924.215	6540.75
924.449	6443.75
924.683	6396.75
924.917	6373.75
925.151	6330.75
925.385	6408.75
925.618	6307.75
925.852	6310.75
926.086	6226.75
926.319	6229.75
926.553	6308.75
926.786	6292.75
927.02	6250.75
927.253	6283.75
927.486	6282.75
927.72	6126.75
927.953	6189.75
928.186	6131.75
928.42	6129.75
928.653	6119.75
928.886	6043.75
929.119	6094.75
929.352	6040.75
929.585	5993.75
929.818	5876.75
930.051	5945.75
930.284	5838.75
930.516	5723.75
930.749	5651.75
930.982	5727.75
931.215	5695.75
931.447	5622.75
931.68	5632.75
931.912	5589.75
932.145	5554.75
932.377	5635.75
932.61	5678.75
932.842	5526.75
933.074	5627.75
933.307	5501.75
933.539	5670.75
933.771	5600.75
934.003	5585.75
934.236	5557.75
934.468	5620.75
934.7	5518.75
934.932	5483.75
935.164	5464.75
935.395	5431.75
935.627	5430.75
935.859	5435.75
936.091	5347.75
936.323	5423.75
936.554	5400.75
936.786	5336.75
937.017	5324.75
937.249	5315.75
937.481	5214.75
937.712	5244.75
937.943	5224.75
938.175	5245.75
938.406	5247.75
938.637	5246.75
938.869	5128.75
939.1	5216.75
939.331	5178.75
939.562	5183.75
939.793	5132.75
940.024	5176.75
940.255	5118.75
940.486	5050.75
940.717	4976.75
940.948	5005.75
941.179	4996.75
941.409	4968.75
941.64	4942.75
941.871	4959.75
942.102	4897.75
942.332	4929.75
942.563	5043.75
942.793	4936.75
943.024	4859.75
943.254	4909.75
943.484	4989.75
943.715	4918.75
943.945	4920.75
944.175	4871.75
944.405	4890.75
944.636	4809.75
944.866	4873.75
945.096	4896.75
945.326	4788.75
945.556	4843.75
945.786	4834.75
946.016	4783.75
946.245	4654.75
946.475	4656.75
946.705	4660.75
946.935	4605.75
947.164	4640.75
947.394	4597.75
947.624	4588.75
947.853	4557.75
948.083	4571.75
948.312	4508.75
948.542	4452.75
948.771	4396.75
949	4470.75
949.23	4475.75
949.459	4438.75
949.688	4464.75
949.917	4411.75
950.146	4443.75
950.375	4488.75
950.604	4378.75
950.833	4439.75
951.062	4407.75
951.291	4367.75
951.52	4356.75
951.749	4315.75
951.978	4294.75
952.206	4286.75
952.435	4284.75
952.664	4288.75
952.892	4239.75
953.121	4207.75
953.349	4247.75
953.578	4265.75
953.806	4153.75
954.035	4100.75
954.263	4134.75
954.491	4070.75
954.719	4104.75
954.948	4062.75
955.176	4061.75
955.404	3973.75
955.632	4052.75
955.86	4011.75
956.088	4039.75
956.316	4036.75
956.544	3980.75
956.772	3958.75
956.999	3896.75
957.227	3968.75
957.455	3851.75
957.683	3884.75
957.91	3794.75
958.138	3779.75
958.365	3756.75
958.593	3773.75
958.82	3709.75
959.048	3763.75
959.275	3752.75
959.502	3756.75
959.73	3709.75
959.957	3718.75
960.184	3712.75
960.411	3670.75
960.638	3732.75
960.865	3645.75
961.092	3682.75
961.319	3579.75
961.546	3639.75
961.773	3693.75
962	3617.75
962.227	3660.75
962.454	3600.75
962.68	3586.75
962.907	3607.75
963.134	3522.75
963.36	3531.75
963.587	3606.75
963.813	3445.75
964.04	3522.75
964.266	3401.75
964.493	3483.75
964.719	3439.75
964.945	3466.75
965.171	3312.75
965.398	3370.75
965.624	3380.75
965.85	3335.75
966.076	3276.75
966.302	3364.75
966.528	3298.75
966.754	3306.75
966.98	3309.75
967.206	3325.75
967.431	3217.75
967.657	3281.75
967.883	3224.75
968.109	3238.75
968.334	3185.75
968.56	3166.75
968.785	3147.75
969.011	3129.75
969.236	3205.75
969.462	3160.75
969.687	3140.75
969.912	3150.75
970.138	3209.75
970.363	3100.75
970.588	3118.75
970.813	3097.75
971.038	3050.75
971.263	3061.75
971.488	3039.75
971.713	3045.75
971.938	3065.75
972.163	2969.75
972.388	3008.75
972.613	2990.75
972.838	2958.75
973.062	2937.75
973.287	2939.75
973.512	2874.75
973.736	2917.75
973.961	2872.75
974.185	2858.75
974.41	2868.75
974.634	2780.75
974.858	2805.75
975.083	2823.75
975.307	2792.75
975.531	2745.75
975.755	2711.75
975.98	2744.75
976.204	2663.75
976.428	2635.75
976.652	2612.75
976.876	2605.75
977.1	2641.75
977.324	2608.75
977.547	2621.75
977.771	2604.75
977.995	2621.75
978.219	2573.75
978.442	2694.75
978.666	2592.75
978.89	2602.75
979.113	2627.75
979.337	2553.75
979.56	2519.75
979.783	2623.75
980.007	2497.75
980.23	2532.75
980.453	2496.75
980.677	2554.75
980.9	2500.75
981.123	2418.75
981.346	2494.75
981.569	2477.75
981.792	2487.75
982.015	2441.75
982.238	2386.75
982.461	2396.75
982.684	2399.75
982.907	2374.75
983.129	2344.75
983.352	2357.75
983.575	2353.75
983.797	2366.75
984.02	2339.75
984.242	2277.75
984.465	2280.75
984.687	2323.75
984.91	2319.75
985.132	2316.75
985.354	2282.75
985.577	2304.75
985.799	2245.75
986.021	2194.75
986.243	2206.75
986.465	2241.75
986.687	2253.75
986.909	2265.75
987.131	2230.75
987.353	2186.75
987.575	2231.75
987.797	2168.75
988.019	2091.75
988.241	2182.75
988.462	2149.75
988.684	2207.75
988.906	2205.75
989.127	2195.75
989.349	2094.75
989.57	2155.75
989.792	2176.75
990.013	2175.75
990.234	2187.75
990.456	2192.75
990.677	2154.75
990.898	2098.75
991.119	2107.75
991.341	2135.75
991.562	2051.75
991.783	2081.75
992.004	1999.75
992.225	1958.75
992.446	2059.75
992.667	1918.75
992.887	2031.75
993.108	1940.75
993.329	2077.75
993.55	1979.75
993.77	1931.75
993.991	1928.75
994.212	1952.75
994.432	1948.75
994.653	1950.75
994.873	1916.75
995.093	1837.75
995.314	1867.75
995.534	1935.75
995.754	1941.75
995.975	1981.75
996.195	1839.75
996.415	1896.75
996.635	1871.75
996.855	1870.75
997.075	1845.75
997.295	1844.75
997.515	1802.75
997.735	1886.75
997.955	1816.75
998.174	1863.75
998.394	1794.75
998.614	1873.75
998.834	1821.75
999.053	1846.75
999.273	1851.75
999.492	1898.75
999.712	1801.75
999.931	1744.75
1000.151	1826.75
1000.37	1819.75
1000.589	1815.75
1000.809	1763.75
1001.028	1875.75
1001.247	1777.75
1001.466	1673.75
1001.685	1835.75
1001.904	1763.75
1002.123	1769.75
1002.342	1781.75
1002.561	1722.75
1002.78	1738.75
1002.999	1799.75
1003.218	1758.75
1003.436	1671.75
1003.655	1734.75
1003.874	1682.75
1004.092	1675.75
1004.311	1751.75
1004.53	1699.75
1004.748	1774.75
1004.966	1679.75
1005.185	1756.75
1005.403	1698.75
1005.622	1716.75
1005.84	1764.75
1006.058	1663.75
1006.276	1669.75
1006.494	2076.75
1006.712	1671.75
1006.931	1725.75
1007.149	1635.75
1007.367	1661.75
1007.584	1673.75
1007.802	1709.75
1008.02	1625.75
1008.238	1751.75
1008.456	1716.75
1008.673	1580.75
1008.891	1682.75
1009.109	1676.75
1009.326	1716.75
1009.544	1785.75
1009.761	1657.75
1009.979	1778.75
1010.196	1795.75
1010.413	1860.75
1010.631	1867.75
1010.848	1919.75
1011.065	1918.75
1011.282	1853.75
1011.5	1821.75
1011.717	1915.75
1011.934	1839.75
1012.151	1895.75
1012.368	1840.75
1012.585	1813.75
1012.801	1842.75
1013.018	1806.75
1013.235	1797.75
1013.452	1812.75
1013.669	1809.75
1013.885	1791.75
1014.102	1828.75
1014.318	1785.75
1014.535	1759.75
1014.751	1779.75
1014.968	1784.75
1015.184	1828.75
1015.401	1737.75
1015.617	1779.75
1015.833	1681.75
1016.049	1701.75
1016.266	1671.75
1016.482	1708.75
1016.698	1610.75
1016.914	1658.75
1017.13	1640.75
1017.346	1615.75
1017.562	1690.75
1017.778	1618.75
1017.993	1588.75
1018.209	1634.75
1018.425	1626.75
1018.641	1563.75
1018.856	1567.75
1019.072	1594.75
1019.288	1646.75
1019.503	1599.75
1019.719	1513.75
1019.934	1502.75
1020.149	1579.75
1020.365	1541.75
1020.58	1485.75
1020.795	1560.75
1021.011	1445.75
1021.226	1459.75
1021.441	1460.75
1021.656	1383.75
1021.871	1343.75
1022.086	1321.75
1022.301	1322.75
1022.516	1277.75
1022.731	1352.75
1022.946	1254.75
1023.16	1258.75
1023.375	1218.75
1023.59	1211.75
1023.804	1173.75
1024.019	1257.75
1024.234	1132.75
1024.448	1167.75
1024.663	1084.75
1024.877	1114.75
1025.092	1127.75
1025.306	1118.75
1025.52	1020.75
1025.734	1121.75
1025.949	1005.75
1026.163	985.75
1026.377	924.75
1026.591	968.75
1026.805	908.75
1027.019	904.75
1027.233	866.75
1027.447	832.75
1027.661	903.75
1027.875	844.75
1028.088	857.75
1028.302	784.75
1028.516	768.75
1028.73	783.75
1028.943	763.75
1029.157	698.75
1029.37	667.75
1029.584	1.75
1029.797	0.75
1030.011	-2.25
1030.224	-4.25
