Data from QEP037381__536__17-37-27-571.txt Node

Date: Fri Dec 16 17:37:27 EST 2022
User: dcclab
Spectrometer: QEP03738
Trigger mode: 4
Integration Time (sec): 1.000000E1
Scans to average: 1
Electric dark correction enabled: true
Nonlinearity correction enabled: false
Boxcar width: 0
XAxis mode: Wavelengths
Number of Pixels in Spectrum: 1044
>>>>>Begin Spectral Data<<<<<
784.041	13.75
784.3	-1.25
784.558	-3.25
784.817	-3.25
785.075	91502.75
785.334	15899.75
785.592	7531.75
785.851	5193.75
786.109	3966.75
786.368	3079.75
786.626	2509.75
786.884	2046.75
787.143	1764.75
787.401	1426.75
787.659	1310.75
787.917	1132.75
788.175	1017.75
788.433	901.75
788.691	805.75
788.949	763.75
789.207	700.75
789.465	624.75
789.723	616.75
789.98	547.75
790.238	605.75
790.496	572.75
790.753	538.75
791.011	585.75
791.268	543.75
791.526	504.75
791.783	534.75
792.041	510.75
792.298	429.75
792.556	499.75
792.813	471.75
793.07	468.75
793.327	442.75
793.584	515.75
793.841	450.75
794.099	461.75
794.356	516.75
794.613	417.75
794.869	474.75
795.126	438.75
795.383	393.75
795.64	431.75
795.897	367.75
796.153	444.75
796.41	431.75
796.667	405.75
796.923	419.75
797.18	423.75
797.436	457.75
797.693	408.75
797.949	460.75
798.206	495.75
798.462	393.75
798.718	460.75
798.974	441.75
799.231	483.75
799.487	471.75
799.743	490.75
799.999	534.75
800.255	498.75
800.511	505.75
800.767	530.75
801.023	512.75
801.279	556.75
801.534	578.75
801.79	635.75
802.046	657.75
802.302	806.75
802.557	876.75
802.813	1079.75
803.068	1323.75
803.324	1842.75
803.579	2524.75
803.835	3493.75
804.09	4806.75
804.345	6263.75
804.601	7886.75
804.856	9545.75
805.111	11097.75
805.366	12254.75
805.621	13049.75
805.876	13693.75
806.131	14113.75
806.386	14360.75
806.641	14666.75
806.896	14933.75
807.151	15232.75
807.406	15455.75
807.661	15888.75
807.915	16157.75
808.17	16370.75
808.425	16540.75
808.679	16544.75
808.934	17021.75
809.188	17157.75
809.443	17325.75
809.697	17528.75
809.951	17612.75
810.206	17800.75
810.46	17996.75
810.714	18216.75
810.968	18426.75
811.223	18536.75
811.477	18731.75
811.731	18920.75
811.985	19002.75
812.239	18972.75
812.493	19229.75
812.747	19290.75
813	19271.75
813.254	19274.75
813.508	19578.75
813.762	19589.75
814.015	19775.75
814.269	19837.75
814.522	20088.75
814.776	20375.75
815.03	20588.75
815.283	20925.75
815.536	21238.75
815.79	21513.75
816.043	21944.75
816.296	22231.75
816.55	22554.75
816.803	22747.75
817.056	23185.75
817.309	23353.75
817.562	23579.75
817.815	23976.75
818.068	24031.75
818.321	24339.75
818.574	24515.75
818.827	24990.75
819.079	25297.75
819.332	25760.75
819.585	26017.75
819.838	26415.75
820.09	26567.75
820.343	26692.75
820.595	26941.75
820.848	27113.75
821.1	27070.75
821.353	27198.75
821.605	27190.75
821.857	27258.75
822.11	26997.75
822.362	26885.75
822.614	26921.75
822.866	26993.75
823.118	27011.75
823.37	27066.75
823.622	27149.75
823.874	27304.75
824.126	27361.75
824.378	27307.75
824.63	27467.75
824.882	27586.75
825.134	27574.75
825.385	27461.75
825.637	27413.75
825.888	27279.75
826.14	27201.75
826.392	27193.75
826.643	27016.75
826.895	26986.75
827.146	26754.75
827.397	26815.75
827.649	26815.75
827.9	26659.75
828.151	26791.75
828.402	26658.75
828.653	26940.75
828.905	26895.75
829.156	27003.75
829.407	26929.75
829.658	26898.75
829.909	27039.75
830.159	26897.75
830.41	26805.75
830.661	26643.75
830.912	26456.75
831.162	26360.75
831.413	26307.75
831.664	26412.75
831.914	26345.75
832.165	26128.75
832.415	26257.75
832.666	26296.75
832.916	26350.75
833.167	26298.75
833.417	26220.75
833.667	26172.75
833.917	26197.75
834.168	26161.75
834.418	25966.75
834.668	25894.75
834.918	25717.75
835.168	25683.75
835.418	25448.75
835.668	25464.75
835.918	25335.75
836.167	25424.75
836.417	25337.75
836.667	25175.75
836.917	25182.75
837.166	25170.75
837.416	25091.75
837.666	25248.75
837.915	25055.75
838.165	25056.75
838.414	24967.75
838.663	24801.75
838.913	24880.75
839.162	24734.75
839.411	24784.75
839.661	24601.75
839.91	24704.75
840.159	24482.75
840.408	24704.75
840.657	24653.75
840.906	24494.75
841.155	24526.75
841.404	24486.75
841.653	24576.75
841.902	24507.75
842.15	24498.75
842.399	24551.75
842.648	24505.75
842.897	24457.75
843.145	24201.75
843.394	24123.75
843.642	23985.75
843.891	23874.75
844.139	23785.75
844.388	23549.75
844.636	23432.75
844.884	23581.75
845.133	23484.75
845.381	23399.75
845.629	23502.75
845.877	23449.75
846.125	23405.75
846.373	23390.75
846.621	23198.75
846.869	23164.75
847.117	22970.75
847.365	22954.75
847.613	22868.75
847.861	22726.75
848.108	22641.75
848.356	22677.75
848.604	22560.75
848.851	22628.75
849.099	22730.75
849.346	22701.75
849.594	22735.75
849.841	22865.75
850.089	22810.75
850.336	22916.75
850.583	22793.75
850.831	22647.75
851.078	22620.75
851.325	22734.75
851.572	22749.75
851.819	22549.75
852.066	21999.75
852.313	21633.75
852.56	21460.75
852.807	21443.75
853.054	21288.75
853.301	21323.75
853.548	21362.75
853.794	21492.75
854.041	21451.75
854.288	21585.75
854.534	21732.75
854.781	21606.75
855.028	21648.75
855.274	21532.75
855.52	21383.75
855.767	21250.75
856.013	21322.75
856.26	21590.75
856.506	21033.75
856.752	21028.75
856.998	21073.75
857.244	21061.75
857.49	21254.75
857.736	21155.75
857.982	21251.75
858.228	21122.75
858.474	20882.75
858.72	20900.75
858.966	20768.75
859.212	20520.75
859.458	20328.75
859.703	19983.75
859.949	19896.75
860.195	19740.75
860.44	19707.75
860.686	19515.75
860.931	19496.75
861.177	19245.75
861.422	19355.75
861.667	19189.75
861.913	19289.75
862.158	19268.75
862.403	19277.75
862.648	19445.75
862.893	19396.75
863.138	19430.75
863.384	19307.75
863.629	19361.75
863.873	19301.75
864.118	19193.75
864.363	19125.75
864.608	19062.75
864.853	18968.75
865.098	18875.75
865.342	18730.75
865.587	18616.75
865.832	18638.75
866.076	18545.75
866.321	18527.75
866.565	18480.75
866.81	18281.75
867.054	18389.75
867.298	18295.75
867.543	18198.75
867.787	18210.75
868.031	18111.75
868.275	18110.75
868.519	18082.75
868.764	18080.75
869.008	17987.75
869.252	17996.75
869.496	17874.75
869.739	17806.75
869.983	17796.75
870.227	17870.75
870.471	17730.75
870.715	17907.75
870.958	17931.75
871.202	17954.75
871.446	18030.75
871.689	17860.75
871.933	17961.75
872.176	17858.75
872.42	17751.75
872.663	17828.75
872.906	17733.75
873.15	17691.75
873.393	17541.75
873.636	17482.75
873.879	17375.75
874.122	17224.75
874.366	16990.75
874.609	16972.75
874.852	16732.75
875.095	16723.75
875.337	16450.75
875.58	16480.75
875.823	16411.75
876.066	16453.75
876.309	16357.75
876.551	16255.75
876.794	16229.75
877.037	16201.75
877.279	16088.75
877.522	15948.75
877.764	16066.75
878.007	15948.75
878.249	16004.75
878.491	15993.75
878.734	15926.75
878.976	15924.75
879.218	15856.75
879.46	15699.75
879.702	15646.75
879.945	15519.75
880.187	15247.75
880.429	15274.75
880.671	15152.75
880.912	15113.75
881.154	15104.75
881.396	14912.75
881.638	15093.75
881.88	15034.75
882.121	14917.75
882.363	14902.75
882.605	14872.75
882.846	14814.75
883.088	14875.75
883.329	14812.75
883.571	14746.75
883.812	14849.75
884.053	14989.75
884.295	15221.75
884.536	15379.75
884.777	15261.75
885.018	15196.75
885.259	15206.75
885.5	14997.75
885.742	15164.75
885.982	15015.75
886.223	14783.75
886.464	14676.75
886.705	14571.75
886.946	14556.75
887.187	14269.75
887.428	14175.75
887.668	13976.75
887.909	13788.75
888.15	13695.75
888.39	13622.75
888.631	13513.75
888.871	13368.75
889.111	13244.75
889.352	13194.75
889.592	13057.75
889.833	12897.75
890.073	12867.75
890.313	12902.75
890.553	12700.75
890.793	12676.75
891.033	12682.75
891.273	12560.75
891.513	12438.75
891.753	12548.75
891.993	12479.75
892.233	12520.75
892.473	12599.75
892.713	12511.75
892.952	12474.75
893.192	12562.75
893.432	12441.75
893.671	12516.75
893.911	12385.75
894.15	12303.75
894.39	12174.75
894.629	12221.75
894.869	12095.75
895.108	12055.75
895.347	11994.75
895.587	11949.75
895.826	11903.75
896.065	11910.75
896.304	11866.75
896.543	11883.75
896.782	11815.75
897.021	11818.75
897.26	11718.75
897.499	11849.75
897.738	11789.75
897.977	11664.75
898.216	11508.75
898.454	11449.75
898.693	11357.75
898.932	11276.75
899.17	11324.75
899.409	11275.75
899.647	11200.75
899.886	11214.75
900.124	11148.75
900.363	11194.75
900.601	11234.75
900.839	11230.75
901.078	11270.75
901.316	11322.75
901.554	11311.75
901.792	11359.75
902.03	11372.75
902.268	11302.75
902.506	11385.75
902.744	11237.75
902.982	11035.75
903.22	10955.75
903.458	10846.75
903.695	10675.75
903.933	10519.75
904.171	10354.75
904.409	10171.75
904.646	10072.75
904.884	9884.75
905.121	9880.75
905.359	9729.75
905.596	9668.75
905.833	9518.75
906.071	9427.75
906.308	9466.75
906.545	9447.75
906.783	9429.75
907.02	9430.75
907.257	9291.75
907.494	9304.75
907.731	9331.75
907.968	9240.75
908.205	9204.75
908.442	9135.75
908.679	9024.75
908.915	8919.75
909.152	8891.75
909.389	8779.75
909.626	8739.75
909.862	8663.75
910.099	8622.75
910.335	8660.75
910.572	8495.75
910.808	8534.75
911.045	8545.75
911.281	8447.75
911.518	8445.75
911.754	8355.75
911.99	8327.75
912.226	8313.75
912.463	8142.75
912.699	8094.75
912.935	8035.75
913.171	8056.75
913.407	7944.75
913.643	7938.75
913.879	7847.75
914.114	7825.75
914.35	7702.75
914.586	7600.75
914.822	7523.75
915.057	7553.75
915.293	7363.75
915.529	7409.75
915.764	7417.75
916	7407.75
916.235	7361.75
916.471	7400.75
916.706	7258.75
916.941	7282.75
917.177	7233.75
917.412	7332.75
917.647	7293.75
917.882	7140.75
918.117	7279.75
918.352	7182.75
918.588	7211.75
918.823	7083.75
919.057	7006.75
919.292	6876.75
919.527	6926.75
919.762	6844.75
919.997	6824.75
920.232	6684.75
920.466	6669.75
920.701	6528.75
920.935	6531.75
921.17	6501.75
921.405	6379.75
921.639	6466.75
921.873	6459.75
922.108	6380.75
922.342	6359.75
922.576	6296.75
922.811	6327.75
923.045	6294.75
923.279	6364.75
923.513	6159.75
923.747	6229.75
923.981	6091.75
924.215	6060.75
924.449	6072.75
924.683	6036.75
924.917	6008.75
925.151	5923.75
925.385	6008.75
925.618	5924.75
925.852	5896.75
926.086	5855.75
926.319	5849.75
926.553	5869.75
926.786	5879.75
927.02	5865.75
927.253	5880.75
927.486	5882.75
927.72	5747.75
927.953	5868.75
928.186	5764.75
928.42	5764.75
928.653	5735.75
928.886	5646.75
929.119	5657.75
929.352	5643.75
929.585	5594.75
929.818	5555.75
930.051	5518.75
930.284	5494.75
930.516	5350.75
930.749	5383.75
930.982	5404.75
931.215	5348.75
931.447	5280.75
931.68	5287.75
931.912	5237.75
932.145	5206.75
932.377	5216.75
932.61	5406.75
932.842	5136.75
933.074	5251.75
933.307	5161.75
933.539	5273.75
933.771	5268.75
934.003	5189.75
934.236	5300.75
934.468	5289.75
934.7	5201.75
934.932	5182.75
935.164	5147.75
935.395	5110.75
935.627	5119.75
935.859	5122.75
936.091	5067.75
936.323	5107.75
936.554	5044.75
936.786	4992.75
937.017	4964.75
937.249	5017.75
937.481	4904.75
937.712	4979.75
937.943	4933.75
938.175	4893.75
938.406	4910.75
938.637	4888.75
938.869	4794.75
939.1	4878.75
939.331	4813.75
939.562	4892.75
939.793	4843.75
940.024	4839.75
940.255	4838.75
940.486	4747.75
940.717	4720.75
940.948	4721.75
941.179	4668.75
941.409	4705.75
941.64	4674.75
941.871	4693.75
942.102	4616.75
942.332	4678.75
942.563	4730.75
942.793	4655.75
943.024	4565.75
943.254	4603.75
943.484	4644.75
943.715	4648.75
943.945	4677.75
944.175	4561.75
944.405	4524.75
944.636	4585.75
944.866	4620.75
945.096	4595.75
945.326	4512.75
945.556	4537.75
945.786	4561.75
946.016	4493.75
946.245	4398.75
946.475	4407.75
946.705	4380.75
946.935	4339.75
947.164	4355.75
947.394	4306.75
947.624	4267.75
947.853	4347.75
948.083	4280.75
948.312	4253.75
948.542	4183.75
948.771	4157.75
949	4170.75
949.23	4162.75
949.459	4160.75
949.688	4234.75
949.917	4189.75
950.146	4185.75
950.375	4239.75
950.604	4093.75
950.833	4197.75
951.062	4181.75
951.291	4088.75
951.52	4079.75
951.749	4043.75
951.978	4017.75
952.206	4009.75
952.435	3967.75
952.664	4014.75
952.892	4071.75
953.121	3964.75
953.349	4037.75
953.578	3976.75
953.806	3892.75
954.035	3851.75
954.263	3881.75
954.491	3798.75
954.719	3888.75
954.948	3875.75
955.176	3804.75
955.404	3713.75
955.632	3797.75
955.86	3791.75
956.088	3762.75
956.316	3731.75
956.544	3796.75
956.772	3697.75
956.999	3653.75
957.227	3700.75
957.455	3598.75
957.683	3624.75
957.91	3572.75
958.138	3565.75
958.365	3543.75
958.593	3529.75
958.82	3428.75
959.048	3530.75
959.275	3539.75
959.502	3444.75
959.73	3461.75
959.957	3460.75
960.184	3503.75
960.411	3467.75
960.638	3481.75
960.865	3453.75
961.092	3447.75
961.319	3368.75
961.546	3495.75
961.773	3458.75
962	3424.75
962.227	3496.75
962.454	3388.75
962.68	3393.75
962.907	3389.75
963.134	3355.75
963.36	3326.75
963.587	3368.75
963.813	3328.75
964.04	3265.75
964.266	3237.75
964.493	3293.75
964.719	3219.75
964.945	3199.75
965.171	3120.75
965.398	3208.75
965.624	3199.75
965.85	3109.75
966.076	3114.75
966.302	3143.75
966.528	3125.75
966.754	3145.75
966.98	3099.75
967.206	3116.75
967.431	3017.75
967.657	3086.75
967.883	3080.75
968.109	3028.75
968.334	2999.75
968.56	2984.75
968.785	2998.75
969.011	2961.75
969.236	3020.75
969.462	2950.75
969.687	2954.75
969.912	2974.75
970.138	3003.75
970.363	2890.75
970.588	2920.75
970.813	2908.75
971.038	2861.75
971.263	2877.75
971.488	2877.75
971.713	2911.75
971.938	2916.75
972.163	2778.75
972.388	2792.75
972.613	2790.75
972.838	2798.75
973.062	2770.75
973.287	2762.75
973.512	2669.75
973.736	2738.75
973.961	2718.75
974.185	2714.75
974.41	2712.75
974.634	2594.75
974.858	2641.75
975.083	2634.75
975.307	2659.75
975.531	2600.75
975.755	2565.75
975.98	2552.75
976.204	2491.75
976.428	2474.75
976.652	2471.75
976.876	2507.75
977.1	2497.75
977.324	2453.75
977.547	2520.75
977.771	2502.75
977.995	2479.75
978.219	2409.75
978.442	2519.75
978.666	2454.75
978.89	2457.75
979.113	2445.75
979.337	2399.75
979.56	2394.75
979.783	2472.75
980.007	2372.75
980.23	2397.75
980.453	2346.75
980.677	2381.75
980.9	2376.75
981.123	2276.75
981.346	2382.75
981.569	2319.75
981.792	2375.75
982.015	2287.75
982.238	2289.75
982.461	2277.75
982.684	2259.75
982.907	2221.75
983.129	2209.75
983.352	2266.75
983.575	2224.75
983.797	2247.75
984.02	2212.75
984.242	2165.75
984.465	2178.75
984.687	2202.75
984.91	2241.75
985.132	2158.75
985.354	2171.75
985.577	2168.75
985.799	2146.75
986.021	2087.75
986.243	2091.75
986.465	2108.75
986.687	2152.75
986.909	2173.75
987.131	2122.75
987.353	2083.75
987.575	2088.75
987.797	2054.75
988.019	1989.75
988.241	2060.75
988.462	1997.75
988.684	2044.75
988.906	2064.75
989.127	2129.75
989.349	1993.75
989.57	2047.75
989.792	2059.75
990.013	2058.75
990.234	2048.75
990.456	2086.75
990.677	2057.75
990.898	1960.75
991.119	2011.75
991.341	2032.75
991.562	1926.75
991.783	1999.75
992.004	1920.75
992.225	1901.75
992.446	1945.75
992.667	1870.75
992.887	1960.75
993.108	1845.75
993.329	1966.75
993.55	1893.75
993.77	1851.75
993.991	1801.75
994.212	1897.75
994.432	1850.75
994.653	1862.75
994.873	1864.75
995.093	1740.75
995.314	1777.75
995.534	1852.75
995.754	1849.75
995.975	1854.75
996.195	1752.75
996.415	1804.75
996.635	1795.75
996.855	1799.75
997.075	1790.75
997.295	1780.75
997.515	1729.75
997.735	1807.75
997.955	1765.75
998.174	1749.75
998.394	1752.75
998.614	1748.75
998.834	1722.75
999.053	1804.75
999.273	1794.75
999.492	1793.75
999.712	1723.75
999.931	1702.75
1000.151	1759.75
1000.37	1709.75
1000.589	1783.75
1000.809	1698.75
1001.028	1823.75
1001.247	1730.75
1001.466	1640.75
1001.685	1757.75
1001.904	1698.75
1002.123	1660.75
1002.342	1676.75
1002.561	1619.75
1002.78	1657.75
1002.999	1738.75
1003.218	1661.75
1003.436	1632.75
1003.655	1665.75
1003.874	1612.75
1004.092	1630.75
1004.311	1691.75
1004.53	1660.75
1004.748	1698.75
1004.966	1615.75
1005.185	1681.75
1005.403	1683.75
1005.622	1651.75
1005.84	1717.75
1006.058	1616.75
1006.276	1616.75
1006.494	1981.75
1006.712	1633.75
1006.931	1688.75
1007.149	1601.75
1007.367	1580.75
1007.584	1647.75
1007.802	1668.75
1008.02	1617.75
1008.238	1700.75
1008.456	1674.75
1008.673	1570.75
1008.891	1670.75
1009.109	1633.75
1009.326	1685.75
1009.544	1770.75
1009.761	1668.75
1009.979	1742.75
1010.196	1783.75
1010.413	1849.75
1010.631	1890.75
1010.848	1935.75
1011.065	1929.75
1011.282	1875.75
1011.5	1816.75
1011.717	1928.75
1011.934	1846.75
1012.151	1870.75
1012.368	1880.75
1012.585	1792.75
1012.801	1875.75
1013.018	1863.75
1013.235	1812.75
1013.452	1826.75
1013.669	1862.75
1013.885	1808.75
1014.102	1883.75
1014.318	1827.75
1014.535	1825.75
1014.751	1821.75
1014.968	1835.75
1015.184	1837.75
1015.401	1756.75
1015.617	1803.75
1015.833	1751.75
1016.049	1733.75
1016.266	1719.75
1016.482	1721.75
1016.698	1657.75
1016.914	1736.75
1017.13	1633.75
1017.346	1637.75
1017.562	1716.75
1017.778	1656.75
1017.993	1596.75
1018.209	1672.75
1018.425	1613.75
1018.641	1625.75
1018.856	1565.75
1019.072	1640.75
1019.288	1665.75
1019.503	1611.75
1019.719	1560.75
1019.934	1558.75
1020.149	1605.75
1020.365	1594.75
1020.58	1520.75
1020.795	1572.75
1021.011	1481.75
1021.226	1473.75
1021.441	1511.75
1021.656	1427.75
1021.871	1342.75
1022.086	1341.75
1022.301	1322.75
1022.516	1314.75
1022.731	1380.75
1022.946	1304.75
1023.16	1289.75
1023.375	1236.75
1023.59	1227.75
1023.804	1195.75
1024.019	1260.75
1024.234	1152.75
1024.448	1197.75
1024.663	1086.75
1024.877	1115.75
1025.092	1142.75
1025.306	1130.75
1025.52	1031.75
1025.734	1126.75
1025.949	1029.75
1026.163	1013.75
1026.377	940.75
1026.591	995.75
1026.805	922.75
1027.019	925.75
1027.233	874.75
1027.447	831.75
1027.661	924.75
1027.875	860.75
1028.088	866.75
1028.302	778.75
1028.516	760.75
1028.73	770.75
1028.943	756.75
1029.157	714.75
1029.37	669.75
1029.584	-1.25
1029.797	-0.25
1030.011	-2.25
1030.224	-2.25
