Data from QEP037381__539__17-37-57-571.txt Node

Date: Fri Dec 16 17:37:57 EST 2022
User: dcclab
Spectrometer: QEP03738
Trigger mode: 4
Integration Time (sec): 1.000000E1
Scans to average: 1
Electric dark correction enabled: true
Nonlinearity correction enabled: false
Boxcar width: 0
XAxis mode: Wavelengths
Number of Pixels in Spectrum: 1044
>>>>>Begin Spectral Data<<<<<
784.041	14.38
784.3	2.38
784.558	-5.62
784.817	-3.62
785.075	104565.38
785.334	17234.38
785.592	7929.38
785.851	5416.38
786.109	4116.38
786.368	3228.38
786.626	2614.38
786.884	2140.38
787.143	1800.38
787.401	1476.38
787.659	1345.38
787.917	1157.38
788.175	1057.38
788.433	928.38
788.691	835.38
788.949	787.38
789.207	745.38
789.465	643.38
789.723	627.38
789.98	575.38
790.238	610.38
790.496	579.38
790.753	568.38
791.011	596.38
791.268	531.38
791.526	511.38
791.783	537.38
792.041	510.38
792.298	439.38
792.556	503.38
792.813	482.38
793.07	460.38
793.327	447.38
793.584	508.38
793.841	439.38
794.099	467.38
794.356	507.38
794.613	433.38
794.869	470.38
795.126	422.38
795.383	405.38
795.64	432.38
795.897	390.38
796.153	465.38
796.41	433.38
796.667	415.38
796.923	425.38
797.18	422.38
797.436	439.38
797.693	409.38
797.949	474.38
798.206	498.38
798.462	403.38
798.718	463.38
798.974	439.38
799.231	483.38
799.487	473.38
799.743	484.38
799.999	516.38
800.255	494.38
800.511	464.38
800.767	531.38
801.023	538.38
801.279	550.38
801.534	603.38
801.79	632.38
802.046	642.38
802.302	762.38
802.557	900.38
802.813	1101.38
803.068	1305.38
803.324	1795.38
803.579	2450.38
803.835	3371.38
804.09	4647.38
804.345	6059.38
804.601	7604.38
804.856	9270.38
805.111	10703.38
805.366	11828.38
805.621	12653.38
805.876	13219.38
806.131	13605.38
806.386	13911.38
806.641	14146.38
806.896	14401.38
807.151	14665.38
807.406	14846.38
807.661	15233.38
807.915	15439.38
808.17	15803.38
808.425	16020.38
808.679	16081.38
808.934	16421.38
809.188	16503.38
809.443	16727.38
809.697	16904.38
809.951	17034.38
810.206	17256.38
810.46	17444.38
810.714	17623.38
810.968	17816.38
811.223	17947.38
811.477	18087.38
811.731	18253.38
811.985	18370.38
812.239	18380.38
812.493	18585.38
812.747	18615.38
813	18630.38
813.254	18725.38
813.508	18930.38
813.762	19009.38
814.015	19092.38
814.269	19267.38
814.522	19474.38
814.776	19646.38
815.03	19877.38
815.283	20239.38
815.536	20536.38
815.79	20906.38
816.043	21228.38
816.296	21585.38
816.55	21872.38
816.803	22050.38
817.056	22408.38
817.309	22610.38
817.562	22851.38
817.815	23042.38
818.068	23200.38
818.321	23496.38
818.574	23738.38
818.827	24241.38
819.079	24493.38
819.332	24881.38
819.585	25230.38
819.838	25515.38
820.09	25618.38
820.343	25886.38
820.595	26097.38
820.848	26192.38
821.1	26367.38
821.353	26472.38
821.605	26234.38
821.857	26260.38
822.11	26155.38
822.362	26114.38
822.614	26090.38
822.866	26092.38
823.118	26140.38
823.37	26262.38
823.622	26403.38
823.874	26401.38
824.126	26569.38
824.378	26545.38
824.63	26614.38
824.882	26730.38
825.134	26610.38
825.385	26601.38
825.637	26546.38
825.888	26389.38
826.14	26357.38
826.392	26327.38
826.643	26286.38
826.895	26140.38
827.146	26038.38
827.397	25904.38
827.649	25947.38
827.9	26007.38
828.151	25889.38
828.402	26083.38
828.653	26039.38
828.905	26132.38
829.156	26209.38
829.407	26204.38
829.658	26267.38
829.909	26357.38
830.159	26325.38
830.41	26102.38
830.661	25862.38
830.912	25827.38
831.162	25712.38
831.413	25744.38
831.664	25778.38
831.914	25660.38
832.165	25688.38
832.415	25610.38
832.666	25687.38
832.916	25685.38
833.167	25635.38
833.417	25589.38
833.667	25598.38
833.917	25442.38
834.168	25497.38
834.418	25326.38
834.668	25200.38
834.918	25089.38
835.168	25047.38
835.418	25072.38
835.668	24826.38
835.918	24920.38
836.167	24712.38
836.417	24732.38
836.667	24587.38
836.917	24607.38
837.166	24552.38
837.416	24643.38
837.666	24517.38
837.915	24550.38
838.165	24498.38
838.414	24370.38
838.663	24323.38
838.913	24364.38
839.162	24255.38
839.411	24382.38
839.661	24166.38
839.91	24073.38
840.159	24119.38
840.408	24001.38
840.657	24109.38
840.906	24121.38
841.155	24071.38
841.404	24102.38
841.653	24077.38
841.902	24011.38
842.15	24188.38
842.399	24085.38
842.648	24113.38
842.897	24025.38
843.145	23851.38
843.394	23686.38
843.642	23607.38
843.891	23355.38
844.139	23382.38
844.388	23136.38
844.636	23000.38
844.884	22960.38
845.133	23135.38
845.381	23057.38
845.629	23062.38
845.877	22984.38
846.125	23016.38
846.373	22920.38
846.621	22994.38
846.869	22858.38
847.117	22769.38
847.365	22578.38
847.613	22355.38
847.861	22293.38
848.108	22277.38
848.356	22259.38
848.604	22294.38
848.851	22219.38
849.099	22390.38
849.346	22289.38
849.594	22411.38
849.841	22488.38
850.089	22417.38
850.336	22448.38
850.583	22414.38
850.831	22380.38
851.078	22280.38
851.325	22367.38
851.572	22458.38
851.819	22140.38
852.066	21690.38
852.313	21413.38
852.56	21196.38
852.807	21133.38
853.054	21044.38
853.301	21045.38
853.548	21051.38
853.794	21256.38
854.041	21204.38
854.288	21339.38
854.534	21461.38
854.781	21340.38
855.028	21379.38
855.274	21319.38
855.52	21131.38
855.767	21035.38
856.013	21111.38
856.26	21410.38
856.506	20834.38
856.752	20888.38
856.998	20939.38
857.244	20985.38
857.49	21030.38
857.736	21060.38
857.982	21061.38
858.228	20957.38
858.474	20869.38
858.72	20695.38
858.966	20515.38
859.212	20296.38
859.458	20074.38
859.703	19962.38
859.949	19743.38
860.195	19642.38
860.44	19576.38
860.686	19449.38
860.931	19428.38
861.177	19158.38
861.422	19207.38
861.667	19195.38
861.913	19032.38
862.158	19089.38
862.403	19165.38
862.648	19316.38
862.893	19291.38
863.138	19238.38
863.384	19094.38
863.629	19130.38
863.873	19207.38
864.118	19060.38
864.363	18921.38
864.608	19030.38
864.853	18878.38
865.098	18772.38
865.342	18727.38
865.587	18602.38
865.832	18657.38
866.076	18574.38
866.321	18468.38
866.565	18446.38
866.81	18386.38
867.054	18278.38
867.298	18222.38
867.543	18109.38
867.787	18128.38
868.031	18052.38
868.275	18107.38
868.519	18019.38
868.764	18053.38
869.008	17952.38
869.252	17952.38
869.496	17824.38
869.739	17833.38
869.983	17962.38
870.227	17914.38
870.471	17882.38
870.715	17890.38
870.958	18023.38
871.202	18013.38
871.446	18032.38
871.689	18049.38
871.933	18006.38
872.176	18088.38
872.42	17851.38
872.663	17829.38
872.906	17736.38
873.15	17732.38
873.393	17595.38
873.636	17630.38
873.879	17521.38
874.122	17372.38
874.366	17013.38
874.609	17017.38
874.852	16881.38
875.095	16697.38
875.337	16670.38
875.58	16587.38
875.823	16597.38
876.066	16604.38
876.309	16543.38
876.551	16348.38
876.794	16218.38
877.037	16348.38
877.279	16247.38
877.522	16200.38
877.764	16263.38
878.007	16170.38
878.249	16028.38
878.491	15964.38
878.734	16015.38
878.976	16030.38
879.218	15826.38
879.46	15831.38
879.702	15786.38
879.945	15525.38
880.187	15523.38
880.429	15348.38
880.671	15329.38
880.912	15267.38
881.154	15232.38
881.396	15096.38
881.638	15215.38
881.88	15197.38
882.121	15060.38
882.363	15101.38
882.605	15180.38
882.846	14974.38
883.088	15022.38
883.329	14997.38
883.571	14975.38
883.812	14879.38
884.053	15210.38
884.295	15449.38
884.536	15596.38
884.777	15549.38
885.018	15497.38
885.259	15457.38
885.5	15337.38
885.742	15587.38
885.982	15317.38
886.223	15049.38
886.464	14927.38
886.705	14914.38
886.946	14742.38
887.187	14588.38
887.428	14392.38
887.668	14215.38
887.909	13965.38
888.15	13918.38
888.39	13869.38
888.631	13752.38
888.871	13612.38
889.111	13477.38
889.352	13366.38
889.592	13317.38
889.833	13154.38
890.073	13086.38
890.313	13131.38
890.553	12995.38
890.793	12914.38
891.033	12817.38
891.273	12750.38
891.513	12691.38
891.753	12730.38
891.993	12720.38
892.233	12708.38
892.473	12847.38
892.713	12746.38
892.952	12706.38
893.192	12764.38
893.432	12694.38
893.671	12714.38
893.911	12669.38
894.15	12604.38
894.39	12501.38
894.629	12422.38
894.869	12389.38
895.108	12315.38
895.347	12206.38
895.587	12260.38
895.826	12215.38
896.065	12170.38
896.304	12102.38
896.543	12230.38
896.782	12041.38
897.021	12047.38
897.26	12021.38
897.499	12065.38
897.738	12166.38
897.977	11976.38
898.216	11865.38
898.454	11767.38
898.693	11704.38
898.932	11751.38
899.17	11603.38
899.409	11552.38
899.647	11571.38
899.886	11524.38
900.124	11565.38
900.363	11525.38
900.601	11615.38
900.839	11598.38
901.078	11595.38
901.316	11734.38
901.554	11729.38
901.792	11769.38
902.03	11764.38
902.268	11660.38
902.506	11717.38
902.744	11573.38
902.982	11579.38
903.22	11328.38
903.458	11296.38
903.695	11060.38
903.933	10883.38
904.171	10690.38
904.409	10563.38
904.646	10498.38
904.884	10265.38
905.121	10270.38
905.359	10055.38
905.596	9989.38
905.833	9815.38
906.071	9846.38
906.308	9799.38
906.545	9789.38
906.783	9627.38
907.02	9704.38
907.257	9666.38
907.494	9561.38
907.731	9564.38
907.968	9540.38
908.205	9417.38
908.442	9415.38
908.679	9357.38
908.915	9322.38
909.152	9191.38
909.389	9009.38
909.626	9007.38
909.862	8998.38
910.099	8934.38
910.335	8929.38
910.572	8856.38
910.808	8871.38
911.045	8801.38
911.281	8768.38
911.518	8773.38
911.754	8721.38
911.99	8686.38
912.226	8586.38
912.463	8432.38
912.699	8390.38
912.935	8343.38
913.171	8320.38
913.407	8301.38
913.643	8224.38
913.879	8112.38
914.114	8014.38
914.35	8014.38
914.586	7940.38
914.822	7801.38
915.057	7840.38
915.293	7728.38
915.529	7617.38
915.764	7721.38
916	7740.38
916.235	7705.38
916.471	7629.38
916.706	7508.38
916.941	7580.38
917.177	7617.38
917.412	7583.38
917.647	7551.38
917.882	7493.38
918.117	7539.38
918.352	7456.38
918.588	7527.38
918.823	7390.38
919.057	7320.38
919.292	7165.38
919.527	7281.38
919.762	7128.38
919.997	7143.38
920.232	7019.38
920.466	6998.38
920.701	6815.38
920.935	6838.38
921.17	6760.38
921.405	6689.38
921.639	6797.38
921.873	6700.38
922.108	6704.38
922.342	6705.38
922.576	6592.38
922.811	6563.38
923.045	6616.38
923.279	6596.38
923.513	6512.38
923.747	6499.38
923.981	6417.38
924.215	6397.38
924.449	6326.38
924.683	6269.38
924.917	6308.38
925.151	6213.38
925.385	6309.38
925.618	6251.38
925.852	6202.38
926.086	6142.38
926.319	6222.38
926.553	6150.38
926.786	6193.38
927.02	6112.38
927.253	6173.38
927.486	6192.38
927.72	6071.38
927.953	6083.38
928.186	6052.38
928.42	6083.38
928.653	6044.38
928.886	5946.38
929.119	5952.38
929.352	5998.38
929.585	5877.38
929.818	5767.38
930.051	5803.38
930.284	5799.38
930.516	5630.38
930.749	5632.38
930.982	5693.38
931.215	5643.38
931.447	5545.38
931.68	5599.38
931.912	5514.38
932.145	5519.38
932.377	5571.38
932.61	5681.38
932.842	5487.38
933.074	5551.38
933.307	5441.38
933.539	5548.38
933.771	5565.38
934.003	5491.38
934.236	5520.38
934.468	5563.38
934.7	5471.38
934.932	5496.38
935.164	5435.38
935.395	5409.38
935.627	5414.38
935.859	5383.38
936.091	5308.38
936.323	5337.38
936.554	5285.38
936.786	5359.38
937.017	5262.38
937.249	5279.38
937.481	5235.38
937.712	5304.38
937.943	5238.38
938.175	5232.38
938.406	5184.38
938.637	5251.38
938.869	5140.38
939.1	5190.38
939.331	5135.38
939.562	5130.38
939.793	5108.38
940.024	5092.38
940.255	5119.38
940.486	5092.38
940.717	5028.38
940.948	4995.38
941.179	4939.38
941.409	4973.38
941.64	4917.38
941.871	4946.38
942.102	4926.38
942.332	4963.38
942.563	4981.38
942.793	4977.38
943.024	4849.38
943.254	4885.38
943.484	4927.38
943.715	4976.38
943.945	4941.38
944.175	4805.38
944.405	4860.38
944.636	4836.38
944.866	4873.38
945.096	4900.38
945.326	4770.38
945.556	4852.38
945.786	4787.38
946.016	4752.38
946.245	4677.38
946.475	4649.38
946.705	4658.38
946.935	4634.38
947.164	4600.38
947.394	4559.38
947.624	4543.38
947.853	4557.38
948.083	4519.38
948.312	4512.38
948.542	4446.38
948.771	4445.38
949	4471.38
949.23	4411.38
949.459	4429.38
949.688	4534.38
949.917	4449.38
950.146	4454.38
950.375	4432.38
950.604	4388.38
950.833	4472.38
951.062	4476.38
951.291	4398.38
951.52	4316.38
951.749	4359.38
951.978	4271.38
952.206	4305.38
952.435	4294.38
952.664	4271.38
952.892	4273.38
953.121	4265.38
953.349	4288.38
953.578	4237.38
953.806	4204.38
954.035	4153.38
954.263	4178.38
954.491	4079.38
954.719	4114.38
954.948	4046.38
955.176	4039.38
955.404	4004.38
955.632	4062.38
955.86	3981.38
956.088	3988.38
956.316	4029.38
956.544	4040.38
956.772	3958.38
956.999	3940.38
957.227	3973.38
957.455	3853.38
957.683	3900.38
957.91	3821.38
958.138	3777.38
958.365	3797.38
958.593	3755.38
958.82	3723.38
959.048	3771.38
959.275	3714.38
959.502	3740.38
959.73	3699.38
959.957	3692.38
960.184	3760.38
960.411	3652.38
960.638	3756.38
960.865	3668.38
961.092	3710.38
961.319	3562.38
961.546	3702.38
961.773	3718.38
962	3636.38
962.227	3667.38
962.454	3623.38
962.68	3631.38
962.907	3592.38
963.134	3519.38
963.36	3577.38
963.587	3571.38
963.813	3464.38
964.04	3524.38
964.266	3432.38
964.493	3516.38
964.719	3467.38
964.945	3485.38
965.171	3333.38
965.398	3401.38
965.624	3409.38
965.85	3355.38
966.076	3328.38
966.302	3355.38
966.528	3310.38
966.754	3324.38
966.98	3316.38
967.206	3309.38
967.431	3246.38
967.657	3339.38
967.883	3273.38
968.109	3234.38
968.334	3202.38
968.56	3192.38
968.785	3196.38
969.011	3139.38
969.236	3222.38
969.462	3145.38
969.687	3182.38
969.912	3186.38
970.138	3194.38
970.363	3131.38
970.588	3133.38
970.813	3090.38
971.038	3066.38
971.263	3110.38
971.488	3050.38
971.713	3073.38
971.938	3111.38
972.163	2989.38
972.388	3015.38
972.613	2929.38
972.838	2991.38
973.062	3004.38
973.287	2971.38
973.512	2934.38
973.736	2935.38
973.961	2916.38
974.185	2922.38
974.41	2921.38
974.634	2777.38
974.858	2843.38
975.083	2813.38
975.307	2828.38
975.531	2755.38
975.755	2711.38
975.98	2718.38
976.204	2683.38
976.428	2707.38
976.652	2695.38
976.876	2661.38
977.1	2691.38
977.324	2656.38
977.547	2681.38
977.771	2674.38
977.995	2648.38
978.219	2582.38
978.442	2714.38
978.666	2619.38
978.89	2620.38
979.113	2631.38
979.337	2602.38
979.56	2556.38
979.783	2611.38
980.007	2526.38
980.23	2557.38
980.453	2497.38
980.677	2512.38
980.9	2552.38
981.123	2429.38
981.346	2556.38
981.569	2519.38
981.792	2533.38
982.015	2460.38
982.238	2416.38
982.461	2438.38
982.684	2382.38
982.907	2375.38
983.129	2407.38
983.352	2442.38
983.575	2393.38
983.797	2380.38
984.02	2314.38
984.242	2325.38
984.465	2333.38
984.687	2350.38
984.91	2387.38
985.132	2351.38
985.354	2351.38
985.577	2351.38
985.799	2294.38
986.021	2202.38
986.243	2256.38
986.465	2271.38
986.687	2289.38
986.909	2307.38
987.131	2253.38
987.353	2188.38
987.575	2232.38
987.797	2207.38
988.019	2155.38
988.241	2202.38
988.462	2133.38
988.684	2232.38
988.906	2238.38
989.127	2262.38
989.349	2140.38
989.57	2168.38
989.792	2167.38
990.013	2209.38
990.234	2176.38
990.456	2246.38
990.677	2221.38
990.898	2134.38
991.119	2126.38
991.341	2153.38
991.562	2070.38
991.783	2124.38
992.004	2088.38
992.225	2031.38
992.446	2091.38
992.667	2001.38
992.887	2062.38
993.108	1952.38
993.329	2100.38
993.55	2039.38
993.77	1966.38
993.991	1956.38
994.212	1988.38
994.432	1986.38
994.653	1982.38
994.873	1972.38
995.093	1858.38
995.314	1911.38
995.534	1944.38
995.754	1938.38
995.975	1955.38
996.195	1852.38
996.415	1930.38
996.635	1903.38
996.855	1909.38
997.075	1874.38
997.295	1866.38
997.515	1846.38
997.735	1915.38
997.955	1864.38
998.174	1846.38
998.394	1855.38
998.614	1876.38
998.834	1841.38
999.053	1882.38
999.273	1875.38
999.492	1936.38
999.712	1852.38
999.931	1790.38
1000.151	1829.38
1000.37	1819.38
1000.589	1877.38
1000.809	1790.38
1001.028	1900.38
1001.247	1819.38
1001.466	1713.38
1001.685	1855.38
1001.904	1807.38
1002.123	1788.38
1002.342	1783.38
1002.561	1742.38
1002.78	1739.38
1002.999	1802.38
1003.218	1763.38
1003.436	1762.38
1003.655	1791.38
1003.874	1720.38
1004.092	1713.38
1004.311	1793.38
1004.53	1728.38
1004.748	1813.38
1004.966	1726.38
1005.185	1761.38
1005.403	1752.38
1005.622	1728.38
1005.84	1809.38
1006.058	1690.38
1006.276	1719.38
1006.494	2110.38
1006.712	1701.38
1006.931	1799.38
1007.149	1664.38
1007.367	1661.38
1007.584	1743.38
1007.802	1754.38
1008.02	1676.38
1008.238	1803.38
1008.456	1815.38
1008.673	1624.38
1008.891	1742.38
1009.109	1726.38
1009.326	1752.38
1009.544	1864.38
1009.761	1757.38
1009.979	1852.38
1010.196	1865.38
1010.413	1971.38
1010.631	2036.38
1010.848	2055.38
1011.065	2063.38
1011.282	1990.38
1011.5	1944.38
1011.717	2027.38
1011.934	2017.38
1012.151	2026.38
1012.368	1983.38
1012.585	1944.38
1012.801	2000.38
1013.018	1964.38
1013.235	1909.38
1013.452	1964.38
1013.669	1992.38
1013.885	1935.38
1014.102	1972.38
1014.318	1947.38
1014.535	1944.38
1014.751	1932.38
1014.968	1942.38
1015.184	1926.38
1015.401	1883.38
1015.617	1893.38
1015.833	1875.38
1016.049	1841.38
1016.266	1806.38
1016.482	1855.38
1016.698	1769.38
1016.914	1832.38
1017.13	1772.38
1017.346	1759.38
1017.562	1794.38
1017.778	1754.38
1017.993	1726.38
1018.209	1794.38
1018.425	1767.38
1018.641	1728.38
1018.856	1707.38
1019.072	1752.38
1019.288	1793.38
1019.503	1748.38
1019.719	1653.38
1019.934	1669.38
1020.149	1740.38
1020.365	1694.38
1020.58	1631.38
1020.795	1672.38
1021.011	1611.38
1021.226	1575.38
1021.441	1585.38
1021.656	1519.38
1021.871	1438.38
1022.086	1446.38
1022.301	1412.38
1022.516	1401.38
1022.731	1444.38
1022.946	1358.38
1023.16	1350.38
1023.375	1327.38
1023.59	1312.38
1023.804	1269.38
1024.019	1341.38
1024.234	1239.38
1024.448	1239.38
1024.663	1185.38
1024.877	1169.38
1025.092	1186.38
1025.306	1176.38
1025.52	1092.38
1025.734	1185.38
1025.949	1089.38
1026.163	1045.38
1026.377	1000.38
1026.591	1043.38
1026.805	974.38
1027.019	989.38
1027.233	938.38
1027.447	874.38
1027.661	982.38
1027.875	905.38
1028.088	919.38
1028.302	850.38
1028.516	828.38
1028.73	828.38
1028.943	808.38
1029.157	733.38
1029.37	714.38
1029.584	-2.62
1029.797	-1.62
1030.011	-0.62
1030.224	-2.62
