Data from QEP037381__540__17-38-07-571.txt Node

Date: Fri Dec 16 17:38:07 EST 2022
User: dcclab
Spectrometer: QEP03738
Trigger mode: 4
Integration Time (sec): 1.000000E1
Scans to average: 1
Electric dark correction enabled: true
Nonlinearity correction enabled: false
Boxcar width: 0
XAxis mode: Wavelengths
Number of Pixels in Spectrum: 1044
>>>>>Begin Spectral Data<<<<<
784.041	10.12
784.3	-0.88
784.558	-0.88
784.817	-0.88
785.075	93879.12
785.334	15993.12
785.592	7495.12
785.851	5145.12
786.109	3856.12
786.368	3018.12
786.626	2461.12
786.884	2066.12
787.143	1731.12
787.401	1412.12
787.659	1294.12
787.917	1120.12
788.175	1019.12
788.433	916.12
788.691	837.12
788.949	770.12
789.207	751.12
789.465	639.12
789.723	626.12
789.98	571.12
790.238	628.12
790.496	589.12
790.753	565.12
791.011	599.12
791.268	554.12
791.526	517.12
791.783	539.12
792.041	527.12
792.298	451.12
792.556	516.12
792.813	492.12
793.07	471.12
793.327	474.12
793.584	532.12
793.841	459.12
794.099	487.12
794.356	534.12
794.613	457.12
794.869	489.12
795.126	442.12
795.383	438.12
795.64	460.12
795.897	419.12
796.153	463.12
796.41	441.12
796.667	430.12
796.923	452.12
797.18	447.12
797.436	476.12
797.693	446.12
797.949	477.12
798.206	528.12
798.462	425.12
798.718	502.12
798.974	486.12
799.231	520.12
799.487	520.12
799.743	520.12
799.999	554.12
800.255	560.12
800.511	534.12
800.767	596.12
801.023	597.12
801.279	628.12
801.534	667.12
801.79	742.12
802.046	797.12
802.302	949.12
802.557	1103.12
802.813	1389.12
803.068	1764.12
803.324	2452.12
803.579	3371.12
803.835	4695.12
804.09	6533.12
804.345	8569.12
804.601	10857.12
804.856	13324.12
805.111	15412.12
805.366	17001.12
805.621	18249.12
805.876	19270.12
806.131	19775.12
806.386	20127.12
806.641	20650.12
806.896	20953.12
807.151	21322.12
807.406	21801.12
807.661	22177.12
807.915	22587.12
808.17	22946.12
808.425	23275.12
808.679	23488.12
808.934	23873.12
809.188	24118.12
809.443	24385.12
809.697	24684.12
809.951	24805.12
810.206	25014.12
810.46	25432.12
810.714	25704.12
810.968	25968.12
811.223	26072.12
811.477	26372.12
811.731	26721.12
811.985	26806.12
812.239	26950.12
812.493	26915.12
812.747	27207.12
813	27317.12
813.254	27274.12
813.508	27519.12
813.762	27650.12
814.015	27811.12
814.269	28097.12
814.522	28441.12
814.776	28637.12
815.03	29042.12
815.283	29557.12
815.536	30001.12
815.79	30574.12
816.043	30942.12
816.296	31477.12
816.55	31738.12
816.803	32259.12
817.056	32605.12
817.309	33062.12
817.562	33268.12
817.815	33773.12
818.068	34150.12
818.321	34257.12
818.574	34850.12
818.827	35340.12
819.079	35830.12
819.332	36375.12
819.585	36896.12
819.838	37297.12
820.09	37404.12
820.343	37787.12
820.595	38089.12
820.848	38469.12
821.1	38416.12
821.353	38503.12
821.605	38661.12
821.857	38410.12
822.11	38306.12
822.362	38309.12
822.614	38184.12
822.866	38248.12
823.118	38199.12
823.37	38440.12
823.622	38488.12
823.874	38587.12
824.126	38717.12
824.378	38650.12
824.63	39000.12
824.882	39011.12
825.134	38959.12
825.385	39005.12
825.637	38930.12
825.888	38743.12
826.14	38528.12
826.392	38656.12
826.643	38351.12
826.895	38420.12
827.146	38288.12
827.397	37911.12
827.649	38036.12
827.9	37885.12
828.151	38001.12
828.402	38165.12
828.653	38323.12
828.905	38387.12
829.156	38448.12
829.407	38343.12
829.658	38449.12
829.909	38508.12
830.159	38337.12
830.41	38246.12
830.661	37924.12
830.912	37878.12
831.162	37629.12
831.413	37544.12
831.664	37488.12
831.914	37410.12
832.165	37509.12
832.415	37568.12
832.666	37500.12
832.916	37588.12
833.167	37367.12
833.417	37547.12
833.667	37282.12
833.917	37200.12
834.168	37133.12
834.418	37066.12
834.668	36866.12
834.918	36611.12
835.168	36500.12
835.418	36541.12
835.668	36370.12
835.918	36168.12
836.167	36087.12
836.417	35981.12
836.667	36100.12
836.917	36132.12
837.166	35761.12
837.416	35916.12
837.666	35959.12
837.915	35845.12
838.165	35905.12
838.414	35654.12
838.663	35640.12
838.913	35497.12
839.162	35418.12
839.411	35458.12
839.661	35152.12
839.91	35142.12
840.159	35005.12
840.408	35106.12
840.657	35084.12
840.906	35024.12
841.155	34904.12
841.404	35038.12
841.653	35048.12
841.902	35013.12
842.15	35148.12
842.399	35016.12
842.648	35228.12
842.897	34939.12
843.145	34629.12
843.394	34483.12
843.642	34339.12
843.891	34136.12
844.139	33906.12
844.388	33833.12
844.636	33623.12
844.884	33707.12
845.133	33568.12
845.381	33473.12
845.629	33658.12
845.877	33405.12
846.125	33396.12
846.373	33346.12
846.621	33153.12
846.869	32982.12
847.117	32888.12
847.365	32774.12
847.613	32484.12
847.861	32303.12
848.108	32369.12
848.356	32454.12
848.604	32255.12
848.851	32285.12
849.099	32273.12
849.346	32485.12
849.594	32642.12
849.841	32680.12
850.089	32650.12
850.336	32857.12
850.583	32626.12
850.831	32450.12
851.078	32296.12
851.325	32310.12
851.572	32387.12
851.819	32034.12
852.066	31471.12
852.313	31088.12
852.56	30815.12
852.807	30568.12
853.054	30480.12
853.301	30566.12
853.548	30384.12
853.794	30537.12
854.041	30605.12
854.288	30741.12
854.534	31118.12
854.781	31103.12
855.028	30935.12
855.274	30766.12
855.52	30592.12
855.767	30436.12
856.013	30457.12
856.26	30698.12
856.506	30074.12
856.752	30101.12
856.998	30216.12
857.244	30223.12
857.49	30324.12
857.736	30260.12
857.982	30294.12
858.228	30140.12
858.474	30057.12
858.72	29838.12
858.966	29550.12
859.212	29149.12
859.458	29031.12
859.703	28694.12
859.949	28487.12
860.195	28262.12
860.44	28137.12
860.686	27952.12
860.931	27951.12
861.177	27648.12
861.422	27611.12
861.667	27521.12
861.913	27633.12
862.158	27466.12
862.403	27700.12
862.648	27657.12
862.893	27848.12
863.138	27700.12
863.384	27630.12
863.629	27622.12
863.873	27544.12
864.118	27560.12
864.363	27294.12
864.608	27268.12
864.853	27178.12
865.098	26965.12
865.342	26866.12
865.587	26783.12
865.832	26726.12
866.076	26644.12
866.321	26544.12
866.565	26443.12
866.81	26267.12
867.054	26355.12
867.298	26171.12
867.543	26104.12
867.787	26049.12
868.031	25934.12
868.275	25858.12
868.519	25846.12
868.764	25812.12
869.008	25756.12
869.252	25673.12
869.496	25592.12
869.739	25589.12
869.983	25554.12
870.227	25384.12
870.471	25422.12
870.715	25480.12
870.958	25443.12
871.202	25613.12
871.446	25584.12
871.689	25524.12
871.933	25581.12
872.176	25494.12
872.42	25420.12
872.663	25368.12
872.906	25246.12
873.15	25003.12
873.393	25183.12
873.636	24985.12
873.879	24740.12
874.122	24513.12
874.366	24185.12
874.609	24051.12
874.852	23955.12
875.095	23715.12
875.337	23629.12
875.58	23429.12
875.823	23500.12
876.066	23406.12
876.309	23261.12
876.551	23167.12
876.794	22921.12
877.037	22985.12
877.279	22929.12
877.522	22901.12
877.764	22894.12
878.007	22783.12
878.249	22858.12
878.491	22665.12
878.734	22777.12
878.976	22825.12
879.218	22452.12
879.46	22480.12
879.702	22155.12
879.945	22133.12
880.187	21957.12
880.429	21759.12
880.671	21654.12
880.912	21575.12
881.154	21554.12
881.396	21383.12
881.638	21333.12
881.88	21412.12
882.121	21375.12
882.363	21414.12
882.605	21223.12
882.846	21154.12
883.088	21096.12
883.329	21114.12
883.571	21136.12
883.812	21174.12
884.053	21335.12
884.295	21613.12
884.536	21818.12
884.777	21608.12
885.018	21496.12
885.259	21459.12
885.5	21186.12
885.742	21516.12
885.982	21327.12
886.223	21108.12
886.464	21004.12
886.705	20753.12
886.946	20673.12
887.187	20322.12
887.428	20187.12
887.668	19893.12
887.909	19746.12
888.15	19477.12
888.39	19335.12
888.631	19321.12
888.871	19163.12
889.111	19083.12
889.352	18916.12
889.592	18612.12
889.833	18539.12
890.073	18410.12
890.313	18341.12
890.553	18125.12
890.793	18201.12
891.033	17997.12
891.273	18018.12
891.513	17892.12
891.753	17794.12
891.993	17819.12
892.233	17881.12
892.473	17906.12
892.713	17885.12
892.952	17810.12
893.192	17808.12
893.432	17750.12
893.671	17789.12
893.911	17761.12
894.15	17671.12
894.39	17470.12
894.629	17381.12
894.869	17356.12
895.108	17176.12
895.347	17132.12
895.587	17115.12
895.826	16981.12
896.065	16907.12
896.304	16895.12
896.543	16905.12
896.782	16755.12
897.021	16769.12
897.26	16761.12
897.499	16775.12
897.738	16772.12
897.977	16456.12
898.216	16281.12
898.454	16198.12
898.693	16087.12
898.932	16150.12
899.17	15978.12
899.409	15910.12
899.647	15941.12
899.886	15942.12
900.124	15852.12
900.363	15915.12
900.601	15978.12
900.839	15909.12
901.078	16019.12
901.316	16046.12
901.554	16037.12
901.792	16076.12
902.03	15994.12
902.268	15964.12
902.506	16011.12
902.744	15913.12
902.982	15849.12
903.22	15558.12
903.458	15266.12
903.695	15172.12
903.933	15011.12
904.171	14711.12
904.409	14562.12
904.646	14368.12
904.884	14078.12
905.121	13991.12
905.359	13785.12
905.596	13691.12
905.833	13477.12
906.071	13504.12
906.308	13430.12
906.545	13407.12
906.783	13250.12
907.02	13294.12
907.257	13229.12
907.494	13205.12
907.731	13121.12
907.968	13123.12
908.205	12976.12
908.442	12883.12
908.679	12925.12
908.915	12811.12
909.152	12676.12
909.389	12453.12
909.626	12518.12
909.862	12391.12
910.099	12232.12
910.335	12328.12
910.572	12160.12
910.808	12110.12
911.045	12059.12
911.281	12029.12
911.518	12052.12
911.754	11901.12
911.99	11930.12
912.226	11814.12
912.463	11705.12
912.699	11590.12
912.935	11529.12
913.171	11416.12
913.407	11326.12
913.643	11232.12
913.879	11164.12
914.114	11092.12
914.35	10919.12
914.586	10821.12
914.822	10654.12
915.057	10700.12
915.293	10540.12
915.529	10523.12
915.764	10501.12
916	10354.12
916.235	10391.12
916.471	10457.12
916.706	10305.12
916.941	10334.12
917.177	10320.12
917.412	10318.12
917.647	10236.12
917.882	10239.12
918.117	10276.12
918.352	10192.12
918.588	10191.12
918.823	10085.12
919.057	10008.12
919.292	9770.12
919.527	9814.12
919.762	9621.12
919.997	9632.12
920.232	9476.12
920.466	9444.12
920.701	9240.12
920.935	9264.12
921.17	9153.12
921.405	9088.12
921.639	9150.12
921.873	9065.12
922.108	9061.12
922.342	9069.12
922.576	8934.12
922.811	8899.12
923.045	8979.12
923.279	8938.12
923.513	8745.12
923.747	8781.12
923.981	8737.12
924.215	8555.12
924.449	8563.12
924.683	8449.12
924.917	8455.12
925.151	8340.12
925.385	8393.12
925.618	8341.12
925.852	8291.12
926.086	8229.12
926.319	8319.12
926.553	8280.12
926.786	8311.12
927.02	8242.12
927.253	8291.12
927.486	8199.12
927.72	8154.12
927.953	8224.12
928.186	8098.12
928.42	8179.12
928.653	8051.12
928.886	8003.12
929.119	7971.12
929.352	7992.12
929.585	7980.12
929.818	7789.12
930.051	7777.12
930.284	7749.12
930.516	7643.12
930.749	7618.12
930.982	7598.12
931.215	7497.12
931.447	7507.12
931.68	7462.12
931.912	7378.12
932.145	7369.12
932.377	7362.12
932.61	7524.12
932.842	7375.12
933.074	7411.12
933.307	7321.12
933.539	7380.12
933.771	7408.12
934.003	7357.12
934.236	7365.12
934.468	7388.12
934.7	7286.12
934.932	7296.12
935.164	7243.12
935.395	7235.12
935.627	7193.12
935.859	7236.12
936.091	7167.12
936.323	7125.12
936.554	7096.12
936.786	7064.12
937.017	6983.12
937.249	6997.12
937.481	6865.12
937.712	6984.12
937.943	6932.12
938.175	6915.12
938.406	6877.12
938.637	6957.12
938.869	6893.12
939.1	6889.12
939.331	6812.12
939.562	6830.12
939.793	6807.12
940.024	6797.12
940.255	6728.12
940.486	6704.12
940.717	6599.12
940.948	6626.12
941.179	6524.12
941.409	6517.12
941.64	6561.12
941.871	6540.12
942.102	6517.12
942.332	6533.12
942.563	6510.12
942.793	6537.12
943.024	6457.12
943.254	6506.12
943.484	6484.12
943.715	6514.12
943.945	6437.12
944.175	6428.12
944.405	6395.12
944.636	6371.12
944.866	6417.12
945.096	6437.12
945.326	6328.12
945.556	6384.12
945.786	6349.12
946.016	6271.12
946.245	6215.12
946.475	6196.12
946.705	6205.12
946.935	6155.12
947.164	6071.12
947.394	6015.12
947.624	6031.12
947.853	5993.12
948.083	6000.12
948.312	5988.12
948.542	5878.12
948.771	5815.12
949	5824.12
949.23	5861.12
949.459	5809.12
949.688	5883.12
949.917	5793.12
950.146	5840.12
950.375	5890.12
950.604	5734.12
950.833	5828.12
951.062	5826.12
951.291	5751.12
951.52	5689.12
951.749	5734.12
951.978	5689.12
952.206	5603.12
952.435	5607.12
952.664	5635.12
952.892	5599.12
953.121	5545.12
953.349	5599.12
953.578	5521.12
953.806	5481.12
954.035	5451.12
954.263	5396.12
954.491	5355.12
954.719	5437.12
954.948	5359.12
955.176	5348.12
955.404	5245.12
955.632	5340.12
955.86	5276.12
956.088	5215.12
956.316	5235.12
956.544	5227.12
956.772	5153.12
956.999	5102.12
957.227	5187.12
957.455	5028.12
957.683	5033.12
957.91	5015.12
958.138	4937.12
958.365	4942.12
958.593	4903.12
958.82	4875.12
959.048	4863.12
959.275	4842.12
959.502	4867.12
959.73	4818.12
959.957	4819.12
960.184	4841.12
960.411	4770.12
960.638	4862.12
960.865	4817.12
961.092	4795.12
961.319	4672.12
961.546	4800.12
961.773	4777.12
962	4739.12
962.227	4756.12
962.454	4762.12
962.68	4653.12
962.907	4662.12
963.134	4619.12
963.36	4598.12
963.587	4597.12
963.813	4527.12
964.04	4525.12
964.266	4482.12
964.493	4528.12
964.719	4485.12
964.945	4506.12
965.171	4328.12
965.398	4402.12
965.624	4414.12
965.85	4357.12
966.076	4335.12
966.302	4333.12
966.528	4241.12
966.754	4294.12
966.98	4212.12
967.206	4243.12
967.431	4149.12
967.657	4235.12
967.883	4236.12
968.109	4199.12
968.334	4143.12
968.56	4091.12
968.785	4101.12
969.011	4046.12
969.236	4107.12
969.462	4042.12
969.687	4082.12
969.912	4102.12
970.138	4058.12
970.363	4017.12
970.588	3996.12
970.813	3984.12
971.038	3949.12
971.263	3988.12
971.488	3943.12
971.713	4010.12
971.938	3963.12
972.163	3821.12
972.388	3822.12
972.613	3848.12
972.838	3825.12
973.062	3788.12
973.287	3790.12
973.512	3717.12
973.736	3717.12
973.961	3744.12
974.185	3685.12
974.41	3727.12
974.634	3610.12
974.858	3593.12
975.083	3608.12
975.307	3633.12
975.531	3545.12
975.755	3517.12
975.98	3484.12
976.204	3422.12
976.428	3398.12
976.652	3468.12
976.876	3399.12
977.1	3429.12
977.324	3414.12
977.547	3428.12
977.771	3400.12
977.995	3365.12
978.219	3297.12
978.442	3444.12
978.666	3308.12
978.89	3354.12
979.113	3365.12
979.337	3278.12
979.56	3251.12
979.783	3320.12
980.007	3240.12
980.23	3250.12
980.453	3211.12
980.677	3251.12
980.9	3219.12
981.123	3098.12
981.346	3186.12
981.569	3170.12
981.792	3160.12
982.015	3137.12
982.238	3079.12
982.461	3109.12
982.684	3087.12
982.907	3013.12
983.129	3022.12
983.352	3031.12
983.575	2993.12
983.797	2992.12
984.02	2953.12
984.242	2931.12
984.465	2948.12
984.687	2960.12
984.91	2984.12
985.132	2923.12
985.354	2969.12
985.577	2904.12
985.799	2878.12
986.021	2810.12
986.243	2807.12
986.465	2797.12
986.687	2857.12
986.909	2898.12
987.131	2827.12
987.353	2795.12
987.575	2809.12
987.797	2775.12
988.019	2719.12
988.241	2754.12
988.462	2730.12
988.684	2763.12
988.906	2755.12
989.127	2767.12
989.349	2678.12
989.57	2723.12
989.792	2717.12
990.013	2747.12
990.234	2712.12
990.456	2727.12
990.677	2723.12
990.898	2654.12
991.119	2647.12
991.341	2679.12
991.562	2577.12
991.783	2614.12
992.004	2566.12
992.225	2508.12
992.446	2599.12
992.667	2480.12
992.887	2538.12
993.108	2462.12
993.329	2579.12
993.55	2508.12
993.77	2424.12
993.991	2415.12
994.212	2462.12
994.432	2424.12
994.653	2433.12
994.873	2413.12
995.093	2313.12
995.314	2332.12
995.534	2426.12
995.754	2418.12
995.975	2418.12
996.195	2303.12
996.415	2362.12
996.635	2350.12
996.855	2346.12
997.075	2311.12
997.295	2328.12
997.515	2308.12
997.735	2318.12
997.955	2305.12
998.174	2297.12
998.394	2239.12
998.614	2302.12
998.834	2274.12
999.053	2322.12
999.273	2298.12
999.492	2306.12
999.712	2289.12
999.931	2192.12
1000.151	2241.12
1000.37	2215.12
1000.589	2278.12
1000.809	2224.12
1001.028	2333.12
1001.247	2232.12
1001.466	2118.12
1001.685	2256.12
1001.904	2164.12
1002.123	2171.12
1002.342	2143.12
1002.561	2078.12
1002.78	2143.12
1002.999	2176.12
1003.218	2087.12
1003.436	2046.12
1003.655	2104.12
1003.874	2051.12
1004.092	2070.12
1004.311	2122.12
1004.53	2055.12
1004.748	2123.12
1004.966	2023.12
1005.185	2108.12
1005.403	2078.12
1005.622	2085.12
1005.84	2160.12
1006.058	1986.12
1006.276	2025.12
1006.494	2396.12
1006.712	2015.12
1006.931	2089.12
1007.149	2020.12
1007.367	1998.12
1007.584	2020.12
1007.802	2055.12
1008.02	2015.12
1008.238	2115.12
1008.456	2100.12
1008.673	1972.12
1008.891	2092.12
1009.109	2071.12
1009.326	2096.12
1009.544	2175.12
1009.761	2109.12
1009.979	2196.12
1010.196	2182.12
1010.413	2282.12
1010.631	2380.12
1010.848	2439.12
1011.065	2441.12
1011.282	2347.12
1011.5	2315.12
1011.717	2433.12
1011.934	2331.12
1012.151	2364.12
1012.368	2345.12
1012.585	2275.12
1012.801	2316.12
1013.018	2311.12
1013.235	2267.12
1013.452	2303.12
1013.669	2309.12
1013.885	2281.12
1014.102	2313.12
1014.318	2265.12
1014.535	2212.12
1014.751	2285.12
1014.968	2242.12
1015.184	2270.12
1015.401	2193.12
1015.617	2239.12
1015.833	2133.12
1016.049	2149.12
1016.266	2167.12
1016.482	2139.12
1016.698	2061.12
1016.914	2107.12
1017.13	2068.12
1017.346	2057.12
1017.562	2082.12
1017.778	2022.12
1017.993	1992.12
1018.209	2064.12
1018.425	2029.12
1018.641	2012.12
1018.856	1976.12
1019.072	2012.12
1019.288	2044.12
1019.503	1991.12
1019.719	1916.12
1019.934	1896.12
1020.149	1976.12
1020.365	1952.12
1020.58	1893.12
1020.795	1937.12
1021.011	1808.12
1021.226	1815.12
1021.441	1808.12
1021.656	1740.12
1021.871	1634.12
1022.086	1664.12
1022.301	1612.12
1022.516	1612.12
1022.731	1632.12
1022.946	1568.12
1023.16	1552.12
1023.375	1504.12
1023.59	1473.12
1023.804	1439.12
1024.019	1531.12
1024.234	1413.12
1024.448	1412.12
1024.663	1349.12
1024.877	1372.12
1025.092	1381.12
1025.306	1372.12
1025.52	1259.12
1025.734	1339.12
1025.949	1257.12
1026.163	1197.12
1026.377	1136.12
1026.591	1201.12
1026.805	1107.12
1027.019	1102.12
1027.233	1070.12
1027.447	1018.12
1027.661	1081.12
1027.875	1050.12
1028.088	1044.12
1028.302	960.12
1028.516	952.12
1028.73	919.12
1028.943	920.12
1029.157	859.12
1029.37	785.12
1029.584	-1.88
1029.797	-3.88
1030.011	0.12
1030.224	-1.88
