Data from QEP037381__532__17-36-47-573.txt Node

Date: Fri Dec 16 17:36:47 EST 2022
User: dcclab
Spectrometer: QEP03738
Trigger mode: 4
Integration Time (sec): 1.000000E1
Scans to average: 1
Electric dark correction enabled: true
Nonlinearity correction enabled: false
Boxcar width: 0
XAxis mode: Wavelengths
Number of Pixels in Spectrum: 1044
>>>>>Begin Spectral Data<<<<<
784.041	11.38
784.3	4.38
784.558	-4.62
784.817	-2.62
785.075	92054.38
785.334	15884.38
785.592	7448.38
785.851	5200.38
786.109	3949.38
786.368	3108.38
786.626	2508.38
786.884	2080.38
787.143	1757.38
787.401	1478.38
787.659	1306.38
787.917	1151.38
788.175	1053.38
788.433	920.38
788.691	834.38
788.949	785.38
789.207	778.38
789.465	679.38
789.723	643.38
789.98	592.38
790.238	649.38
790.496	611.38
790.753	578.38
791.011	617.38
791.268	551.38
791.526	549.38
791.783	553.38
792.041	544.38
792.298	460.38
792.556	516.38
792.813	518.38
793.07	495.38
793.327	481.38
793.584	560.38
793.841	468.38
794.099	494.38
794.356	578.38
794.613	463.38
794.869	496.38
795.126	470.38
795.383	464.38
795.64	489.38
795.897	442.38
796.153	494.38
796.41	490.38
796.667	468.38
796.923	470.38
797.18	488.38
797.436	504.38
797.693	486.38
797.949	524.38
798.206	569.38
798.462	477.38
798.718	543.38
798.974	533.38
799.231	568.38
799.487	559.38
799.743	573.38
799.999	606.38
800.255	633.38
800.511	617.38
800.767	683.38
801.023	679.38
801.279	741.38
801.534	786.38
801.79	909.38
802.046	961.38
802.302	1174.38
802.557	1384.38
802.813	1792.38
803.068	2287.38
803.324	3255.38
803.579	4580.38
803.835	6451.38
804.09	8995.38
804.345	11762.38
804.601	15048.38
804.856	18303.38
805.111	21253.38
805.366	23392.38
805.621	25186.38
805.876	26454.38
806.131	27270.38
806.386	27832.38
806.641	28421.38
806.896	28853.38
807.151	29538.38
807.406	30032.38
807.661	30627.38
807.915	31328.38
808.17	31860.38
808.425	32186.38
808.679	32428.38
808.934	32859.38
809.188	33366.38
809.443	33670.38
809.697	34147.38
809.951	34358.38
810.206	34725.38
810.46	35050.38
810.714	35403.38
810.968	35736.38
811.223	36032.38
811.477	36446.38
811.731	36567.38
811.985	36936.38
812.239	37195.38
812.493	37413.38
812.747	37653.38
813	37622.38
813.254	37988.38
813.508	38081.38
813.762	38410.38
814.015	38520.38
814.269	38942.38
814.522	39298.38
814.776	39763.38
815.03	40278.38
815.283	40819.38
815.536	41605.38
815.79	42337.38
816.043	42839.38
816.296	43587.38
816.55	43975.38
816.803	44789.38
817.056	45185.38
817.309	45723.38
817.562	46076.38
817.815	46819.38
818.068	47065.38
818.321	47850.38
818.574	48462.38
818.827	49004.38
819.079	49623.38
819.332	50624.38
819.585	51109.38
819.838	51730.38
820.09	52096.38
820.343	52398.38
820.595	52808.38
820.848	53159.38
821.1	53466.38
821.353	53428.38
821.605	53382.38
821.857	53523.38
822.11	53303.38
822.362	53161.38
822.614	53091.38
822.866	53094.38
823.118	53055.38
823.37	53355.38
823.622	53388.38
823.874	53559.38
824.126	53549.38
824.378	53695.38
824.63	53903.38
824.882	54134.38
825.134	54057.38
825.385	54081.38
825.637	53933.38
825.888	53796.38
826.14	53728.38
826.392	53625.38
826.643	53290.38
826.895	53106.38
827.146	53001.38
827.397	52846.38
827.649	52750.38
827.9	52831.38
828.151	52983.38
828.402	52898.38
828.653	53418.38
828.905	53293.38
829.156	53409.38
829.407	53300.38
829.658	53349.38
829.909	53287.38
830.159	53263.38
830.41	52928.38
830.661	52760.38
830.912	52283.38
831.162	52278.38
831.413	52054.38
831.664	52127.38
831.914	51918.38
832.165	51896.38
832.415	51917.38
832.666	51946.38
832.916	51752.38
833.167	51956.38
833.417	51824.38
833.667	51659.38
833.917	51511.38
834.168	51421.38
834.418	51368.38
834.668	51179.38
834.918	50769.38
835.168	50638.38
835.418	50416.38
835.668	50234.38
835.918	50103.38
836.167	50228.38
836.417	49922.38
836.667	49835.38
836.917	49913.38
837.166	49662.38
837.416	49809.38
837.666	49721.38
837.915	49462.38
838.165	49516.38
838.414	49276.38
838.663	49184.38
838.913	49239.38
839.162	48886.38
839.411	48900.38
839.661	48708.38
839.91	48440.38
840.159	48420.38
840.408	48348.38
840.657	48311.38
840.906	48298.38
841.155	48246.38
841.404	48197.38
841.653	48383.38
841.902	48403.38
842.15	48535.38
842.399	48415.38
842.648	48235.38
842.897	48057.38
843.145	47785.38
843.394	47614.38
843.642	47403.38
843.891	47183.38
844.139	46894.38
844.388	46721.38
844.636	46410.38
844.884	46332.38
845.133	46159.38
845.381	46193.38
845.629	46150.38
845.877	45962.38
846.125	46115.38
846.373	46096.38
846.621	45715.38
846.869	45684.38
847.117	45275.38
847.365	45174.38
847.613	44917.38
847.861	44698.38
848.108	44631.38
848.356	44491.38
848.604	44469.38
848.851	44365.38
849.099	44555.38
849.346	44608.38
849.594	44644.38
849.841	44724.38
850.089	44931.38
850.336	44948.38
850.583	44914.38
850.831	44678.38
851.078	44384.38
851.325	44274.38
851.572	44129.38
851.819	43752.38
852.066	43126.38
852.313	42677.38
852.56	42272.38
852.807	42147.38
853.054	41891.38
853.301	41893.38
853.548	41862.38
853.794	42093.38
854.041	42169.38
854.288	42368.38
854.534	42648.38
854.781	42465.38
855.028	42435.38
855.274	42212.38
855.52	42011.38
855.767	41645.38
856.013	41585.38
856.26	41683.38
856.506	41280.38
856.752	41135.38
856.998	41213.38
857.244	41170.38
857.49	41404.38
857.736	41364.38
857.982	41415.38
858.228	41434.38
858.474	41107.38
858.72	40794.38
858.966	40491.38
859.212	40128.38
859.458	39658.38
859.703	39333.38
859.949	38988.38
860.195	38648.38
860.44	38417.38
860.686	38361.38
860.931	38153.38
861.177	37942.38
861.422	38012.38
861.667	37902.38
861.913	37688.38
862.158	37854.38
862.403	38099.38
862.648	37887.38
862.893	38089.38
863.138	37994.38
863.384	37977.38
863.629	37777.38
863.873	37932.38
864.118	37771.38
864.363	37490.38
864.608	37250.38
864.853	37233.38
865.098	37026.38
865.342	36786.38
865.587	36589.38
865.832	36598.38
866.076	36367.38
866.321	36260.38
866.565	36340.38
866.81	36098.38
867.054	35957.38
867.298	35810.38
867.543	35696.38
867.787	35546.38
868.031	35421.38
868.275	35333.38
868.519	35267.38
868.764	35191.38
869.008	35120.38
869.252	34941.38
869.496	34711.38
869.739	34737.38
869.983	34713.38
870.227	34754.38
870.471	34427.38
870.715	34666.38
870.958	34702.38
871.202	34741.38
871.446	34689.38
871.689	34595.38
871.933	34724.38
872.176	34575.38
872.42	34434.38
872.663	34331.38
872.906	34384.38
873.15	33955.38
873.393	33814.38
873.636	33771.38
873.879	33309.38
874.122	33094.38
874.366	32771.38
874.609	32472.38
874.852	32304.38
875.095	32073.38
875.337	32084.38
875.58	31884.38
875.823	31867.38
876.066	31773.38
876.309	31560.38
876.551	31389.38
876.794	31306.38
877.037	31347.38
877.279	31073.38
877.522	31113.38
877.764	31048.38
878.007	31009.38
878.249	31057.38
878.491	30912.38
878.734	30911.38
878.976	30836.38
879.218	30559.38
879.46	30590.38
879.702	30226.38
879.945	29954.38
880.187	29672.38
880.429	29605.38
880.671	29439.38
880.912	29331.38
881.154	29188.38
881.396	29070.38
881.638	29099.38
881.88	29144.38
882.121	28825.38
882.363	28707.38
882.605	28700.38
882.846	28607.38
883.088	28696.38
883.329	28453.38
883.571	28359.38
883.812	28424.38
884.053	28539.38
884.295	28602.38
884.536	28720.38
884.777	28585.38
885.018	28630.38
885.259	28522.38
885.5	28362.38
885.742	28616.38
885.982	28246.38
886.223	28034.38
886.464	27894.38
886.705	27760.38
886.946	27602.38
887.187	27378.38
887.428	27088.38
887.668	26888.38
887.909	26589.38
888.15	26383.38
888.39	26186.38
888.631	26058.38
888.871	25794.38
889.111	25685.38
889.352	25556.38
889.592	25434.38
889.833	25105.38
890.073	24929.38
890.313	24875.38
890.553	24670.38
890.793	24535.38
891.033	24398.38
891.273	24301.38
891.513	24240.38
891.753	24177.38
891.993	24040.38
892.233	24200.38
892.473	24289.38
892.713	24183.38
892.952	24027.38
893.192	24193.38
893.432	24054.38
893.671	24036.38
893.911	23735.38
894.15	23700.38
894.39	23590.38
894.629	23334.38
894.869	23450.38
895.108	23094.38
895.347	22948.38
895.587	22997.38
895.826	22783.38
896.065	22656.38
896.304	22632.38
896.543	22639.38
896.782	22484.38
897.021	22409.38
897.26	22331.38
897.499	22381.38
897.738	22332.38
897.977	22049.38
898.216	21893.38
898.454	21636.38
898.693	21516.38
898.932	21477.38
899.17	21358.38
899.409	21327.38
899.647	21189.38
899.886	21179.38
900.124	21145.38
900.363	21102.38
900.601	21138.38
900.839	21154.38
901.078	21125.38
901.316	21141.38
901.554	21051.38
901.792	21284.38
902.03	21182.38
902.268	21131.38
902.506	21009.38
902.744	20849.38
902.982	20655.38
903.22	20471.38
903.458	20285.38
903.695	20021.38
903.933	19742.38
904.171	19585.38
904.409	19168.38
904.646	19042.38
904.884	18673.38
905.121	18692.38
905.359	18389.38
905.596	18248.38
905.833	18008.38
906.071	17994.38
906.308	17974.38
906.545	17906.38
906.783	17855.38
907.02	17749.38
907.257	17694.38
907.494	17621.38
907.731	17654.38
907.968	17508.38
908.205	17397.38
908.442	17267.38
908.679	17154.38
908.915	17071.38
909.152	16989.38
909.389	16726.38
909.626	16699.38
909.862	16484.38
910.099	16476.38
910.335	16454.38
910.572	16258.38
910.808	16301.38
911.045	16085.38
911.281	16016.38
911.518	16042.38
911.754	15944.38
911.99	15981.38
912.226	15733.38
912.463	15509.38
912.699	15375.38
912.935	15278.38
913.171	15177.38
913.407	15019.38
913.643	14915.38
913.879	14796.38
914.114	14591.38
914.35	14537.38
914.586	14407.38
914.822	14259.38
915.057	14176.38
915.293	14028.38
915.529	13923.38
915.764	13941.38
916	13937.38
916.235	13952.38
916.471	13855.38
916.706	13714.38
916.941	13760.38
917.177	13732.38
917.412	13711.38
917.647	13711.38
917.882	13624.38
918.117	13686.38
918.352	13582.38
918.588	13459.38
918.823	13337.38
919.057	13211.38
919.292	12976.38
919.527	13018.38
919.762	12860.38
919.997	12688.38
920.232	12526.38
920.466	12483.38
920.701	12321.38
920.935	12208.38
921.17	12103.38
921.405	12086.38
921.639	12066.38
921.873	12011.38
922.108	11979.38
922.342	11944.38
922.576	11835.38
922.811	11803.38
923.045	11721.38
923.279	11704.38
923.513	11535.38
923.747	11596.38
923.981	11449.38
924.215	11363.38
924.449	11307.38
924.683	11207.38
924.917	11097.38
925.151	11140.38
925.385	11127.38
925.618	10981.38
925.852	10918.38
926.086	10895.38
926.319	10924.38
926.553	10808.38
926.786	10902.38
927.02	10816.38
927.253	10827.38
927.486	10812.38
927.72	10751.38
927.953	10664.38
928.186	10693.38
928.42	10677.38
928.653	10575.38
928.886	10476.38
929.119	10506.38
929.352	10391.38
929.585	10382.38
929.818	10213.38
930.051	10194.38
930.284	10090.38
930.516	9960.38
930.749	9919.38
930.982	9923.38
931.215	9810.38
931.447	9764.38
931.68	9714.38
931.912	9650.38
932.145	9690.38
932.377	9695.38
932.61	9849.38
932.842	9535.38
933.074	9601.38
933.307	9597.38
933.539	9657.38
933.771	9729.38
934.003	9532.38
934.236	9654.38
934.468	9621.38
934.7	9476.38
934.932	9504.38
935.164	9404.38
935.395	9360.38
935.627	9311.38
935.859	9349.38
936.091	9256.38
936.323	9323.38
936.554	9238.38
936.786	9189.38
937.017	9115.38
937.249	9110.38
937.481	9034.38
937.712	9023.38
937.943	9018.38
938.175	8956.38
938.406	8939.38
938.637	9001.38
938.869	8885.38
939.1	8861.38
939.331	8809.38
939.562	8841.38
939.793	8730.38
940.024	8715.38
940.255	8743.38
940.486	8643.38
940.717	8576.38
940.948	8572.38
941.179	8478.38
941.409	8430.38
941.64	8477.38
941.871	8485.38
942.102	8407.38
942.332	8420.38
942.563	8546.38
942.793	8446.38
943.024	8366.38
943.254	8399.38
943.484	8414.38
943.715	8449.38
943.945	8377.38
944.175	8372.38
944.405	8310.38
944.636	8325.38
944.866	8273.38
945.096	8323.38
945.326	8168.38
945.556	8221.38
945.786	8218.38
946.016	8098.38
946.245	8036.38
946.475	7933.38
946.705	7951.38
946.935	7931.38
947.164	7820.38
947.394	7724.38
947.624	7698.38
947.853	7764.38
948.083	7726.38
948.312	7642.38
948.542	7474.38
948.771	7534.38
949	7513.38
949.23	7520.38
949.459	7475.38
949.688	7572.38
949.917	7510.38
950.146	7452.38
950.375	7503.38
950.604	7369.38
950.833	7419.38
951.062	7394.38
951.291	7368.38
951.52	7257.38
951.749	7351.38
951.978	7247.38
952.206	7278.38
952.435	7155.38
952.664	7179.38
952.892	7177.38
953.121	7155.38
953.349	7220.38
953.578	7062.38
953.806	6984.38
954.035	6914.38
954.263	6940.38
954.491	6854.38
954.719	6866.38
954.948	6775.38
955.176	6780.38
955.404	6728.38
955.632	6770.38
955.86	6732.38
956.088	6668.38
956.316	6634.38
956.544	6685.38
956.772	6513.38
956.999	6549.38
957.227	6624.38
957.455	6360.38
957.683	6421.38
957.91	6330.38
958.138	6339.38
958.365	6316.38
958.593	6277.38
958.82	6202.38
959.048	6244.38
959.275	6226.38
959.502	6165.38
959.73	6137.38
959.957	6163.38
960.184	6219.38
960.411	6073.38
960.638	6151.38
960.865	6060.38
961.092	6120.38
961.319	6005.38
961.546	6063.38
961.773	6013.38
962	6014.38
962.227	6098.38
962.454	5998.38
962.68	5966.38
962.907	5900.38
963.134	5877.38
963.36	5812.38
963.587	5829.38
963.813	5797.38
964.04	5793.38
964.266	5556.38
964.493	5720.38
964.719	5666.38
964.945	5634.38
965.171	5485.38
965.398	5571.38
965.624	5593.38
965.85	5437.38
966.076	5376.38
966.302	5450.38
966.528	5345.38
966.754	5354.38
966.98	5292.38
967.206	5290.38
967.431	5276.38
967.657	5293.38
967.883	5284.38
968.109	5256.38
968.334	5206.38
968.56	5190.38
968.785	5181.38
969.011	5180.38
969.236	5131.38
969.462	5096.38
969.687	5085.38
969.912	5140.38
970.138	5094.38
970.363	5044.38
970.588	5063.38
970.813	4999.38
971.038	4959.38
971.263	4985.38
971.488	4908.38
971.713	4958.38
971.938	4922.38
972.163	4830.38
972.388	4775.38
972.613	4806.38
972.838	4788.38
973.062	4759.38
973.287	4757.38
973.512	4669.38
973.736	4663.38
973.961	4649.38
974.185	4585.38
974.41	4589.38
974.634	4545.38
974.858	4454.38
975.083	4570.38
975.307	4516.38
975.531	4450.38
975.755	4378.38
975.98	4381.38
976.204	4330.38
976.428	4251.38
976.652	4259.38
976.876	4251.38
977.1	4263.38
977.324	4179.38
977.547	4240.38
977.771	4252.38
977.995	4209.38
978.219	4130.38
978.442	4166.38
978.666	4138.38
978.89	4152.38
979.113	4137.38
979.337	4116.38
979.56	4056.38
979.783	4094.38
980.007	3975.38
980.23	4036.38
980.453	3977.38
980.677	4014.38
980.9	3980.38
981.123	3888.38
981.346	3978.38
981.569	3895.38
981.792	3914.38
982.015	3846.38
982.238	3815.38
982.461	3809.38
982.684	3779.38
982.907	3750.38
983.129	3718.38
983.352	3709.38
983.575	3691.38
983.797	3714.38
984.02	3634.38
984.242	3621.38
984.465	3636.38
984.687	3641.38
984.91	3660.38
985.132	3632.38
985.354	3631.38
985.577	3526.38
985.799	3553.38
986.021	3427.38
986.243	3458.38
986.465	3454.38
986.687	3488.38
986.909	3515.38
987.131	3450.38
987.353	3350.38
987.575	3403.38
987.797	3364.38
988.019	3332.38
988.241	3350.38
988.462	3319.38
988.684	3377.38
988.906	3357.38
989.127	3391.38
989.349	3260.38
989.57	3291.38
989.792	3346.38
990.013	3303.38
990.234	3282.38
990.456	3369.38
990.677	3302.38
990.898	3204.38
991.119	3203.38
991.341	3203.38
991.562	3127.38
991.783	3147.38
992.004	3039.38
992.225	3042.38
992.446	3112.38
992.667	3002.38
992.887	3086.38
993.108	2975.38
993.329	3085.38
993.55	2986.38
993.77	2940.38
993.991	2929.38
994.212	2940.38
994.432	2901.38
994.653	2908.38
994.873	2873.38
995.093	2752.38
995.314	2829.38
995.534	2855.38
995.754	2876.38
995.975	2876.38
996.195	2774.38
996.415	2824.38
996.635	2775.38
996.855	2801.38
997.075	2765.38
997.295	2758.38
997.515	2723.38
997.735	2788.38
997.955	2744.38
998.174	2743.38
998.394	2677.38
998.614	2761.38
998.834	2655.38
999.053	2774.38
999.273	2698.38
999.492	2733.38
999.712	2652.38
999.931	2631.38
1000.151	2671.38
1000.37	2633.38
1000.589	2647.38
1000.809	2579.38
1001.028	2721.38
1001.247	2573.38
1001.466	2483.38
1001.685	2635.38
1001.904	2585.38
1002.123	2539.38
1002.342	2519.38
1002.561	2484.38
1002.78	2435.38
1002.999	2528.38
1003.218	2450.38
1003.436	2451.38
1003.655	2486.38
1003.874	2380.38
1004.092	2391.38
1004.311	2410.38
1004.53	2394.38
1004.748	2450.38
1004.966	2409.38
1005.185	2407.38
1005.403	2390.38
1005.622	2352.38
1005.84	2410.38
1006.058	2343.38
1006.276	2357.38
1006.494	2709.38
1006.712	2329.38
1006.931	2398.38
1007.149	2277.38
1007.367	2283.38
1007.584	2336.38
1007.802	2364.38
1008.02	2297.38
1008.238	2394.38
1008.456	2377.38
1008.673	2244.38
1008.891	2337.38
1009.109	2303.38
1009.326	2336.38
1009.544	2440.38
1009.761	2360.38
1009.979	2413.38
1010.196	2396.38
1010.413	2547.38
1010.631	2580.38
1010.848	2606.38
1011.065	2604.38
1011.282	2574.38
1011.5	2474.38
1011.717	2594.38
1011.934	2513.38
1012.151	2559.38
1012.368	2506.38
1012.585	2472.38
1012.801	2501.38
1013.018	2491.38
1013.235	2449.38
1013.452	2459.38
1013.669	2458.38
1013.885	2452.38
1014.102	2474.38
1014.318	2445.38
1014.535	2357.38
1014.751	2421.38
1014.968	2441.38
1015.184	2445.38
1015.401	2353.38
1015.617	2389.38
1015.833	2302.38
1016.049	2300.38
1016.266	2297.38
1016.482	2268.38
1016.698	2230.38
1016.914	2239.38
1017.13	2203.38
1017.346	2182.38
1017.562	2215.38
1017.778	2186.38
1017.993	2124.38
1018.209	2183.38
1018.425	2193.38
1018.641	2110.38
1018.856	2133.38
1019.072	2135.38
1019.288	2156.38
1019.503	2121.38
1019.719	2068.38
1019.934	2044.38
1020.149	2120.38
1020.365	2074.38
1020.58	2003.38
1020.795	2039.38
1021.011	1972.38
1021.226	1933.38
1021.441	1954.38
1021.656	1861.38
1021.871	1786.38
1022.086	1770.38
1022.301	1732.38
1022.516	1729.38
1022.731	1761.38
1022.946	1681.38
1023.16	1673.38
1023.375	1651.38
1023.59	1628.38
1023.804	1596.38
1024.019	1671.38
1024.234	1523.38
1024.448	1533.38
1024.663	1450.38
1024.877	1503.38
1025.092	1490.38
1025.306	1477.38
1025.52	1385.38
1025.734	1438.38
1025.949	1358.38
1026.163	1299.38
1026.377	1232.38
1026.591	1319.38
1026.805	1201.38
1027.019	1191.38
1027.233	1165.38
1027.447	1117.38
1027.661	1198.38
1027.875	1142.38
1028.088	1105.38
1028.302	1052.38
1028.516	1019.38
1028.73	1018.38
1028.943	981.38
1029.157	957.38
1029.37	859.38
1029.584	-1.62
1029.797	-2.62
1030.011	-1.62
1030.224	-2.62
