Data from QEP037381__530__17-36-27-570.txt Node

Date: Fri Dec 16 17:36:27 EST 2022
User: dcclab
Spectrometer: QEP03738
Trigger mode: 4
Integration Time (sec): 1.000000E1
Scans to average: 1
Electric dark correction enabled: true
Nonlinearity correction enabled: false
Boxcar width: 0
XAxis mode: Wavelengths
Number of Pixels in Spectrum: 1044
>>>>>Begin Spectral Data<<<<<
784.041	13.38
784.3	-0.62
784.558	-0.62
784.817	-2.62
785.075	98541.38
785.334	16620.38
785.592	7657.38
785.851	5265.38
786.109	3954.38
786.368	3106.38
786.626	2500.38
786.884	2077.38
787.143	1735.38
787.401	1454.38
787.659	1318.38
787.917	1124.38
788.175	1028.38
788.433	896.38
788.691	825.38
788.949	763.38
789.207	736.38
789.465	648.38
789.723	611.38
789.98	567.38
790.238	593.38
790.496	578.38
790.753	558.38
791.011	601.38
791.268	550.38
791.526	511.38
791.783	531.38
792.041	510.38
792.298	430.38
792.556	508.38
792.813	484.38
793.07	454.38
793.327	450.38
793.584	534.38
793.841	439.38
794.099	458.38
794.356	529.38
794.613	436.38
794.869	470.38
795.126	422.38
795.383	402.38
795.64	444.38
795.897	374.38
796.153	457.38
796.41	424.38
796.667	415.38
796.923	434.38
797.18	434.38
797.436	451.38
797.693	420.38
797.949	476.38
798.206	510.38
798.462	413.38
798.718	470.38
798.974	459.38
799.231	493.38
799.487	477.38
799.743	494.38
799.999	519.38
800.255	524.38
800.511	502.38
800.767	545.38
801.023	523.38
801.279	575.38
801.534	623.38
801.79	662.38
802.046	681.38
802.302	853.38
802.557	949.38
802.813	1178.38
803.068	1455.38
803.324	1991.38
803.579	2738.38
803.835	3813.38
804.09	5193.38
804.345	6866.38
804.601	8657.38
804.856	10426.38
805.111	12116.38
805.366	13412.38
805.621	14342.38
805.876	15059.38
806.131	15375.38
806.386	15701.38
806.641	16016.38
806.896	16240.38
807.151	16713.38
807.406	16947.38
807.661	17256.38
807.915	17482.38
808.17	17817.38
808.425	18089.38
808.679	18143.38
808.934	18414.38
809.188	18612.38
809.443	18856.38
809.697	19035.38
809.951	19158.38
810.206	19459.38
810.46	19617.38
810.714	19888.38
810.968	20012.38
811.223	20044.38
811.477	20315.38
811.731	20509.38
811.985	20561.38
812.239	20606.38
812.493	20738.38
812.747	20883.38
813	20897.38
813.254	20958.38
813.508	21172.38
813.762	21146.38
814.015	21288.38
814.269	21529.38
814.522	21779.38
814.776	21989.38
815.03	22255.38
815.283	22530.38
815.536	23019.38
815.79	23238.38
816.043	23669.38
816.296	23898.38
816.55	24231.38
816.803	24464.38
817.056	24844.38
817.309	25090.38
817.562	25301.38
817.815	25601.38
818.068	25858.38
818.321	26099.38
818.574	26455.38
818.827	26722.38
819.079	26994.38
819.332	27608.38
819.585	27868.38
819.838	28271.38
820.09	28464.38
820.343	28564.38
820.595	28734.38
820.848	28965.38
821.1	28910.38
821.353	29079.38
821.605	29014.38
821.857	29025.38
822.11	28785.38
822.362	28867.38
822.614	28737.38
822.866	28816.38
823.118	28683.38
823.37	28829.38
823.622	28915.38
823.874	29140.38
824.126	29164.38
824.378	29027.38
824.63	29272.38
824.882	29364.38
825.134	29239.38
825.385	29185.38
825.637	29176.38
825.888	29110.38
826.14	29048.38
826.392	28929.38
826.643	28711.38
826.895	28709.38
827.146	28398.38
827.397	28379.38
827.649	28455.38
827.9	28415.38
828.151	28585.38
828.402	28514.38
828.653	28655.38
828.905	28597.38
829.156	28792.38
829.407	28581.38
829.658	28769.38
829.909	28749.38
830.159	28746.38
830.41	28508.38
830.661	28308.38
830.912	28278.38
831.162	28113.38
831.413	27976.38
831.664	28180.38
831.914	28061.38
832.165	27951.38
832.415	27969.38
832.666	27940.38
832.916	27973.38
833.167	27930.38
833.417	27877.38
833.667	27758.38
833.917	27729.38
834.168	27714.38
834.418	27466.38
834.668	27387.38
834.918	27326.38
835.168	27141.38
835.418	27117.38
835.668	27035.38
835.918	26973.38
836.167	26900.38
836.417	26815.38
836.667	26708.38
836.917	26776.38
837.166	26774.38
837.416	26751.38
837.666	26689.38
837.915	26671.38
838.165	26582.38
838.414	26453.38
838.663	26260.38
838.913	26358.38
839.162	26171.38
839.411	26297.38
839.661	26173.38
839.91	26078.38
840.159	26017.38
840.408	26008.38
840.657	25995.38
840.906	26168.38
841.155	26002.38
841.404	26027.38
841.653	25911.38
841.902	25940.38
842.15	25839.38
842.399	26109.38
842.648	25887.38
842.897	25888.38
843.145	25589.38
843.394	25527.38
843.642	25413.38
843.891	25334.38
844.139	25106.38
844.388	24962.38
844.636	24855.38
844.884	24774.38
845.133	24760.38
845.381	24763.38
845.629	24728.38
845.877	24609.38
846.125	24743.38
846.373	24508.38
846.621	24547.38
846.869	24435.38
847.117	24181.38
847.365	24145.38
847.613	24024.38
847.861	24030.38
848.108	24000.38
848.356	23766.38
848.604	23807.38
848.851	23822.38
849.099	23901.38
849.346	23835.38
849.594	23988.38
849.841	24039.38
850.089	24029.38
850.336	24057.38
850.583	24017.38
850.831	23861.38
851.078	23806.38
851.325	23692.38
851.572	23820.38
851.819	23558.38
852.066	23210.38
852.313	22730.38
852.56	22574.38
852.807	22464.38
853.054	22405.38
853.301	22451.38
853.548	22332.38
853.794	22537.38
854.041	22658.38
854.288	22644.38
854.534	22877.38
854.781	22869.38
855.028	22601.38
855.274	22670.38
855.52	22624.38
855.767	22404.38
856.013	22411.38
856.26	22661.38
856.506	22085.38
856.752	22120.38
856.998	22173.38
857.244	22133.38
857.49	22302.38
857.736	22319.38
857.982	22184.38
858.228	22259.38
858.474	22011.38
858.72	21875.38
858.966	21698.38
859.212	21519.38
859.458	21249.38
859.703	20978.38
859.949	20886.38
860.195	20767.38
860.44	20592.38
860.686	20519.38
860.931	20541.38
861.177	20264.38
861.422	20247.38
861.667	20256.38
861.913	20094.38
862.158	20161.38
862.403	20274.38
862.648	20366.38
862.893	20353.38
863.138	20261.38
863.384	20125.38
863.629	20210.38
863.873	20177.38
864.118	20111.38
864.363	20050.38
864.608	19939.38
864.853	19876.38
865.098	19695.38
865.342	19716.38
865.587	19588.38
865.832	19526.38
866.076	19483.38
866.321	19391.38
866.565	19353.38
866.81	19255.38
867.054	19200.38
867.298	19060.38
867.543	19037.38
867.787	19143.38
868.031	18990.38
868.275	18923.38
868.519	18912.38
868.764	18903.38
869.008	18744.38
869.252	18748.38
869.496	18614.38
869.739	18681.38
869.983	18640.38
870.227	18734.38
870.471	18570.38
870.715	18658.38
870.958	18833.38
871.202	18680.38
871.446	18726.38
871.689	18593.38
871.933	18769.38
872.176	18728.38
872.42	18552.38
872.663	18561.38
872.906	18541.38
873.15	18431.38
873.393	18407.38
873.636	18434.38
873.879	18151.38
874.122	18016.38
874.366	17698.38
874.609	17671.38
874.852	17443.38
875.095	17349.38
875.337	17284.38
875.58	17067.38
875.823	17135.38
876.066	17183.38
876.309	17160.38
876.551	16866.38
876.794	16868.38
877.037	16729.38
877.279	16756.38
877.522	16768.38
877.764	16768.38
878.007	16810.38
878.249	16731.38
878.491	16673.38
878.734	16666.38
878.976	16596.38
879.218	16469.38
879.46	16425.38
879.702	16242.38
879.945	16052.38
880.187	15888.38
880.429	15849.38
880.671	15765.38
880.912	15740.38
881.154	15716.38
881.396	15598.38
881.638	15608.38
881.88	15633.38
882.121	15549.38
882.363	15540.38
882.605	15560.38
882.846	15469.38
883.088	15447.38
883.329	15311.38
883.571	15397.38
883.812	15506.38
884.053	15656.38
884.295	15927.38
884.536	16008.38
884.777	15893.38
885.018	15726.38
885.259	15740.38
885.5	15700.38
885.742	15874.38
885.982	15593.38
886.223	15516.38
886.464	15483.38
886.705	15210.38
886.946	15172.38
887.187	14951.38
887.428	14833.38
887.668	14539.38
887.909	14472.38
888.15	14231.38
888.39	14247.38
888.631	14061.38
888.871	13892.38
889.111	13854.38
889.352	13824.38
889.592	13650.38
889.833	13549.38
890.073	13425.38
890.313	13360.38
890.553	13237.38
890.793	13215.38
891.033	13119.38
891.273	13113.38
891.513	13043.38
891.753	13077.38
891.993	13005.38
892.233	13002.38
892.473	13177.38
892.713	13073.38
892.952	13036.38
893.192	13058.38
893.432	13005.38
893.671	12951.38
893.911	12932.38
894.15	12849.38
894.39	12697.38
894.629	12617.38
894.869	12597.38
895.108	12481.38
895.347	12406.38
895.587	12360.38
895.826	12345.38
896.065	12383.38
896.304	12371.38
896.543	12315.38
896.782	12265.38
897.021	12274.38
897.26	12205.38
897.499	12237.38
897.738	12272.38
897.977	12128.38
898.216	12056.38
898.454	11924.38
898.693	11772.38
898.932	11769.38
899.17	11725.38
899.409	11651.38
899.647	11614.38
899.886	11581.38
900.124	11575.38
900.363	11634.38
900.601	11519.38
900.839	11664.38
901.078	11698.38
901.316	11618.38
901.554	11744.38
901.792	11725.38
902.03	11761.38
902.268	11725.38
902.506	11797.38
902.744	11630.38
902.982	11507.38
903.22	11422.38
903.458	11199.38
903.695	11031.38
903.933	10908.38
904.171	10744.38
904.409	10584.38
904.646	10526.38
904.884	10361.38
905.121	10236.38
905.359	10127.38
905.596	10077.38
905.833	9916.38
906.071	9912.38
906.308	9902.38
906.545	9836.38
906.783	9756.38
907.02	9754.38
907.257	9679.38
907.494	9692.38
907.731	9748.38
907.968	9654.38
908.205	9540.38
908.442	9462.38
908.679	9419.38
908.915	9321.38
909.152	9293.38
909.389	9156.38
909.626	9070.38
909.862	9074.38
910.099	9093.38
910.335	8955.38
910.572	8866.38
910.808	8903.38
911.045	8810.38
911.281	8835.38
911.518	8857.38
911.754	8752.38
911.99	8772.38
912.226	8629.38
912.463	8535.38
912.699	8460.38
912.935	8447.38
913.171	8336.38
913.407	8297.38
913.643	8262.38
913.879	8171.38
914.114	8057.38
914.35	8040.38
914.586	7965.38
914.822	7875.38
915.057	7881.38
915.293	7745.38
915.529	7655.38
915.764	7734.38
916	7719.38
916.235	7629.38
916.471	7692.38
916.706	7600.38
916.941	7590.38
917.177	7590.38
917.412	7636.38
917.647	7639.38
917.882	7595.38
918.117	7531.38
918.352	7534.38
918.588	7536.38
918.823	7426.38
919.057	7353.38
919.292	7209.38
919.527	7281.38
919.762	7167.38
919.997	7043.38
920.232	7014.38
920.466	6989.38
920.701	6821.38
920.935	6838.38
921.17	6774.38
921.405	6716.38
921.639	6742.38
921.873	6704.38
922.108	6647.38
922.342	6630.38
922.576	6570.38
922.811	6535.38
923.045	6604.38
923.279	6551.38
923.513	6411.38
923.747	6494.38
923.981	6484.38
924.215	6342.38
924.449	6332.38
924.683	6263.38
924.917	6261.38
925.151	6212.38
925.385	6264.38
925.618	6202.38
925.852	6190.38
926.086	6139.38
926.319	6134.38
926.553	6108.38
926.786	6103.38
927.02	6100.38
927.253	6109.38
927.486	6060.38
927.72	6016.38
927.953	6010.38
928.186	5972.38
928.42	6002.38
928.653	5946.38
928.886	5904.38
929.119	5946.38
929.352	5871.38
929.585	5863.38
929.818	5774.38
930.051	5736.38
930.284	5744.38
930.516	5602.38
930.749	5638.38
930.982	5611.38
931.215	5585.38
931.447	5472.38
931.68	5504.38
931.912	5465.38
932.145	5433.38
932.377	5476.38
932.61	5604.38
932.842	5381.38
933.074	5472.38
933.307	5412.38
933.539	5497.38
933.771	5502.38
934.003	5421.38
934.236	5485.38
934.468	5475.38
934.7	5367.38
934.932	5427.38
935.164	5385.38
935.395	5300.38
935.627	5297.38
935.859	5332.38
936.091	5262.38
936.323	5297.38
936.554	5273.38
936.786	5222.38
937.017	5165.38
937.249	5188.38
937.481	5121.38
937.712	5160.38
937.943	5178.38
938.175	5167.38
938.406	5146.38
938.637	5147.38
938.869	5019.38
939.1	5071.38
939.331	5039.38
939.562	5045.38
939.793	5046.38
940.024	5031.38
940.255	5066.38
940.486	4971.38
940.717	4945.38
940.948	4902.38
941.179	4861.38
941.409	4900.38
941.64	4887.38
941.871	4878.38
942.102	4860.38
942.332	4805.38
942.563	4888.38
942.793	4850.38
943.024	4795.38
943.254	4797.38
943.484	4827.38
943.715	4850.38
943.945	4824.38
944.175	4755.38
944.405	4777.38
944.636	4735.38
944.866	4755.38
945.096	4798.38
945.326	4654.38
945.556	4766.38
945.786	4702.38
946.016	4692.38
946.245	4557.38
946.475	4567.38
946.705	4552.38
946.935	4547.38
947.164	4554.38
947.394	4447.38
947.624	4483.38
947.853	4480.38
948.083	4433.38
948.312	4400.38
948.542	4391.38
948.771	4282.38
949	4358.38
949.23	4360.38
949.459	4374.38
949.688	4430.38
949.917	4339.38
950.146	4301.38
950.375	4364.38
950.604	4293.38
950.833	4360.38
951.062	4346.38
951.291	4271.38
951.52	4268.38
951.749	4230.38
951.978	4199.38
952.206	4204.38
952.435	4179.38
952.664	4192.38
952.892	4168.38
953.121	4161.38
953.349	4179.38
953.578	4126.38
953.806	4073.38
954.035	3966.38
954.263	4085.38
954.491	4003.38
954.719	4056.38
954.948	3927.38
955.176	3976.38
955.404	3852.38
955.632	3906.38
955.86	3969.38
956.088	3902.38
956.316	3881.38
956.544	3912.38
956.772	3858.38
956.999	3810.38
957.227	3889.38
957.455	3788.38
957.683	3766.38
957.91	3685.38
958.138	3691.38
958.365	3669.38
958.593	3677.38
958.82	3610.38
959.048	3690.38
959.275	3652.38
959.502	3629.38
959.73	3547.38
959.957	3614.38
960.184	3635.38
960.411	3584.38
960.638	3622.38
960.865	3577.38
961.092	3627.38
961.319	3487.38
961.546	3616.38
961.773	3611.38
962	3535.38
962.227	3570.38
962.454	3510.38
962.68	3514.38
962.907	3511.38
963.134	3467.38
963.36	3414.38
963.587	3429.38
963.813	3377.38
964.04	3404.38
964.266	3362.38
964.493	3413.38
964.719	3407.38
964.945	3337.38
965.171	3224.38
965.398	3304.38
965.624	3286.38
965.85	3230.38
966.076	3224.38
966.302	3291.38
966.528	3190.38
966.754	3229.38
966.98	3208.38
967.206	3212.38
967.431	3123.38
967.657	3212.38
967.883	3175.38
968.109	3173.38
968.334	3107.38
968.56	3111.38
968.785	3107.38
969.011	3064.38
969.236	3112.38
969.462	3042.38
969.687	3064.38
969.912	3051.38
970.138	3066.38
970.363	3022.38
970.588	3066.38
970.813	2984.38
971.038	2991.38
971.263	3015.38
971.488	2988.38
971.713	3000.38
971.938	2984.38
972.163	2884.38
972.388	2882.38
972.613	2857.38
972.838	2914.38
973.062	2852.38
973.287	2898.38
973.512	2807.38
973.736	2851.38
973.961	2816.38
974.185	2784.38
974.41	2791.38
974.634	2699.38
974.858	2691.38
975.083	2754.38
975.307	2768.38
975.531	2644.38
975.755	2618.38
975.98	2636.38
976.204	2570.38
976.428	2579.38
976.652	2593.38
976.876	2550.38
977.1	2595.38
977.324	2537.38
977.547	2572.38
977.771	2627.38
977.995	2523.38
978.219	2533.38
978.442	2615.38
978.666	2527.38
978.89	2526.38
979.113	2555.38
979.337	2502.38
979.56	2466.38
979.783	2560.38
980.007	2421.38
980.23	2469.38
980.453	2444.38
980.677	2481.38
980.9	2464.38
981.123	2388.38
981.346	2440.38
981.569	2440.38
981.792	2426.38
982.015	2405.38
982.238	2341.38
982.461	2336.38
982.684	2328.38
982.907	2301.38
983.129	2279.38
983.352	2335.38
983.575	2299.38
983.797	2322.38
984.02	2258.38
984.242	2235.38
984.465	2263.38
984.687	2280.38
984.91	2298.38
985.132	2245.38
985.354	2236.38
985.577	2218.38
985.799	2209.38
986.021	2144.38
986.243	2139.38
986.465	2164.38
986.687	2189.38
986.909	2258.38
987.131	2194.38
987.353	2139.38
987.575	2181.38
987.797	2144.38
988.019	2049.38
988.241	2133.38
988.462	2111.38
988.684	2138.38
988.906	2199.38
989.127	2201.38
989.349	2051.38
989.57	2092.38
989.792	2092.38
990.013	2126.38
990.234	2126.38
990.456	2131.38
990.677	2127.38
990.898	2044.38
991.119	2049.38
991.341	2081.38
991.562	2015.38
991.783	2037.38
992.004	1978.38
992.225	1955.38
992.446	2021.38
992.667	1896.38
992.887	1978.38
993.108	1871.38
993.329	1991.38
993.55	1972.38
993.77	1882.38
993.991	1878.38
994.212	1929.38
994.432	1922.38
994.653	1894.38
994.873	1900.38
995.093	1791.38
995.314	1803.38
995.534	1893.38
995.754	1900.38
995.975	1911.38
996.195	1798.38
996.415	1853.38
996.635	1845.38
996.855	1826.38
997.075	1806.38
997.295	1762.38
997.515	1793.38
997.735	1817.38
997.955	1793.38
998.174	1801.38
998.394	1776.38
998.614	1823.38
998.834	1765.38
999.053	1854.38
999.273	1808.38
999.492	1864.38
999.712	1794.38
999.931	1778.38
1000.151	1788.38
1000.37	1754.38
1000.589	1789.38
1000.809	1750.38
1001.028	1829.38
1001.247	1784.38
1001.466	1683.38
1001.685	1792.38
1001.904	1747.38
1002.123	1717.38
1002.342	1720.38
1002.561	1686.38
1002.78	1710.38
1002.999	1793.38
1003.218	1708.38
1003.436	1685.38
1003.655	1699.38
1003.874	1652.38
1004.092	1671.38
1004.311	1689.38
1004.53	1670.38
1004.748	1734.38
1004.966	1663.38
1005.185	1692.38
1005.403	1721.38
1005.622	1674.38
1005.84	1757.38
1006.058	1662.38
1006.276	1689.38
1006.494	2031.38
1006.712	1645.38
1006.931	1731.38
1007.149	1597.38
1007.367	1649.38
1007.584	1658.38
1007.802	1692.38
1008.02	1623.38
1008.238	1742.38
1008.456	1722.38
1008.673	1586.38
1008.891	1705.38
1009.109	1658.38
1009.326	1716.38
1009.544	1791.38
1009.761	1700.38
1009.979	1776.38
1010.196	1795.38
1010.413	1894.38
1010.631	1935.38
1010.848	1980.38
1011.065	1999.38
1011.282	1928.38
1011.5	1882.38
1011.717	1960.38
1011.934	1924.38
1012.151	1941.38
1012.368	1930.38
1012.585	1856.38
1012.801	1926.38
1013.018	1908.38
1013.235	1872.38
1013.452	1873.38
1013.669	1892.38
1013.885	1863.38
1014.102	1889.38
1014.318	1891.38
1014.535	1841.38
1014.751	1873.38
1014.968	1836.38
1015.184	1899.38
1015.401	1776.38
1015.617	1818.38
1015.833	1752.38
1016.049	1764.38
1016.266	1760.38
1016.482	1762.38
1016.698	1664.38
1016.914	1733.38
1017.13	1679.38
1017.346	1661.38
1017.562	1712.38
1017.778	1662.38
1017.993	1641.38
1018.209	1715.38
1018.425	1652.38
1018.641	1638.38
1018.856	1616.38
1019.072	1619.38
1019.288	1679.38
1019.503	1620.38
1019.719	1554.38
1019.934	1575.38
1020.149	1653.38
1020.365	1562.38
1020.58	1506.38
1020.795	1591.38
1021.011	1491.38
1021.226	1467.38
1021.441	1520.38
1021.656	1412.38
1021.871	1373.38
1022.086	1329.38
1022.301	1354.38
1022.516	1319.38
1022.731	1377.38
1022.946	1291.38
1023.16	1280.38
1023.375	1246.38
1023.59	1224.38
1023.804	1182.38
1024.019	1294.38
1024.234	1153.38
1024.448	1184.38
1024.663	1119.38
1024.877	1130.38
1025.092	1122.38
1025.306	1123.38
1025.52	1020.38
1025.734	1100.38
1025.949	1044.38
1026.163	982.38
1026.377	960.38
1026.591	976.38
1026.805	911.38
1027.019	902.38
1027.233	878.38
1027.447	823.38
1027.661	928.38
1027.875	840.38
1028.088	868.38
1028.302	804.38
1028.516	784.38
1028.73	799.38
1028.943	772.38
1029.157	712.38
1029.37	688.38
1029.584	-3.62
1029.797	-1.62
1030.011	-3.62
1030.224	-0.62
