Data from QEP037381__545__17-38-57-572.txt Node

Date: Fri Dec 16 17:38:57 EST 2022
User: dcclab
Spectrometer: QEP03738
Trigger mode: 4
Integration Time (sec): 1.000000E1
Scans to average: 1
Electric dark correction enabled: true
Nonlinearity correction enabled: false
Boxcar width: 0
XAxis mode: Wavelengths
Number of Pixels in Spectrum: 1044
>>>>>Begin Spectral Data<<<<<
784.041	10.38
784.3	-1.62
784.558	0.38
784.817	-5.62
785.075	97306.38
785.334	16482.38
785.592	7653.38
785.851	5323.38
786.109	3986.38
786.368	3092.38
786.626	2524.38
786.884	2065.38
787.143	1770.38
787.401	1437.38
787.659	1316.38
787.917	1127.38
788.175	1041.38
788.433	912.38
788.691	826.38
788.949	772.38
789.207	750.38
789.465	650.38
789.723	615.38
789.98	573.38
790.238	615.38
790.496	574.38
790.753	563.38
791.011	607.38
791.268	543.38
791.526	512.38
791.783	535.38
792.041	516.38
792.298	431.38
792.556	499.38
792.813	476.38
793.07	465.38
793.327	451.38
793.584	523.38
793.841	446.38
794.099	469.38
794.356	528.38
794.613	420.38
794.869	469.38
795.126	438.38
795.383	411.38
795.64	434.38
795.897	400.38
796.153	442.38
796.41	421.38
796.667	415.38
796.923	434.38
797.18	427.38
797.436	452.38
797.693	403.38
797.949	463.38
798.206	475.38
798.462	408.38
798.718	464.38
798.974	442.38
799.231	496.38
799.487	483.38
799.743	485.38
799.999	494.38
800.255	488.38
800.511	487.38
800.767	551.38
801.023	525.38
801.279	552.38
801.534	582.38
801.79	658.38
802.046	666.38
802.302	792.38
802.557	884.38
802.813	1109.38
803.068	1347.38
803.324	1857.38
803.579	2526.38
803.835	3486.38
804.09	4823.38
804.345	6287.38
804.601	7959.38
804.856	9685.38
805.111	11145.38
805.366	12320.38
805.621	13148.38
805.876	13832.38
806.131	14157.38
806.386	14550.38
806.641	14770.38
806.896	15054.38
807.151	15450.38
807.406	15618.38
807.661	15959.38
807.915	16261.38
808.17	16427.38
808.425	16593.38
808.679	16885.38
808.934	17080.38
809.188	17265.38
809.443	17524.38
809.697	17638.38
809.951	17825.38
810.206	17988.38
810.46	18206.38
810.714	18389.38
810.968	18645.38
811.223	18629.38
811.477	18940.38
811.731	19093.38
811.985	19138.38
812.239	19260.38
812.493	19380.38
812.747	19386.38
813	19473.38
813.254	19580.38
813.508	19778.38
813.762	19846.38
814.015	20014.38
814.269	20100.38
814.522	20394.38
814.776	20603.38
815.03	20841.38
815.283	21169.38
815.536	21456.38
815.79	21930.38
816.043	22233.38
816.296	22437.38
816.55	22870.38
816.803	23012.38
817.056	23320.38
817.309	23670.38
817.562	23902.38
817.815	24031.38
818.068	24344.38
818.321	24656.38
818.574	24961.38
818.827	25273.38
819.079	25556.38
819.332	25992.38
819.585	26426.38
819.838	26790.38
820.09	26755.38
820.343	27004.38
820.595	27213.38
820.848	27371.38
821.1	27491.38
821.353	27486.38
821.605	27474.38
821.857	27450.38
822.11	27317.38
822.362	27296.38
822.614	27208.38
822.866	27291.38
823.118	27367.38
823.37	27510.38
823.622	27419.38
823.874	27524.38
824.126	27801.38
824.378	27675.38
824.63	27829.38
824.882	27864.38
825.134	27760.38
825.385	27798.38
825.637	27826.38
825.888	27610.38
826.14	27575.38
826.392	27512.38
826.643	27357.38
826.895	27295.38
827.146	27169.38
827.397	27145.38
827.649	27136.38
827.9	26974.38
828.151	27130.38
828.402	27227.38
828.653	27368.38
828.905	27417.38
829.156	27349.38
829.407	27278.38
829.658	27401.38
829.909	27348.38
830.159	27298.38
830.41	27305.38
830.661	27141.38
830.912	26946.38
831.162	26888.38
831.413	26762.38
831.664	26834.38
831.914	26748.38
832.165	26731.38
832.415	26744.38
832.666	26793.38
832.916	26724.38
833.167	26812.38
833.417	26721.38
833.667	26615.38
833.917	26549.38
834.168	26462.38
834.418	26482.38
834.668	26421.38
834.918	26220.38
835.168	26052.38
835.418	26005.38
835.668	26016.38
835.918	25959.38
836.167	25920.38
836.417	25675.38
836.667	25734.38
836.917	25608.38
837.166	25714.38
837.416	25702.38
837.666	25632.38
837.915	25483.38
838.165	25506.38
838.414	25475.38
838.663	25323.38
838.913	25557.38
839.162	25391.38
839.411	25210.38
839.661	25184.38
839.91	25129.38
840.159	25096.38
840.408	25115.38
840.657	25112.38
840.906	25157.38
841.155	25141.38
841.404	25038.38
841.653	25100.38
841.902	25049.38
842.15	25234.38
842.399	25158.38
842.648	25128.38
842.897	24924.38
843.145	24847.38
843.394	24706.38
843.642	24567.38
843.891	24390.38
844.139	24271.38
844.388	24204.38
844.636	24041.38
844.884	24002.38
845.133	24128.38
845.381	24012.38
845.629	24092.38
845.877	24003.38
846.125	23994.38
846.373	23986.38
846.621	23769.38
846.869	23803.38
847.117	23708.38
847.365	23561.38
847.613	23419.38
847.861	23367.38
848.108	23327.38
848.356	23276.38
848.604	23132.38
848.851	23232.38
849.099	23179.38
849.346	23188.38
849.594	23419.38
849.841	23484.38
850.089	23383.38
850.336	23498.38
850.583	23576.38
850.831	23233.38
851.078	23157.38
851.325	23256.38
851.572	23396.38
851.819	23140.38
852.066	22682.38
852.313	22285.38
852.56	22109.38
852.807	22028.38
853.054	21998.38
853.301	21910.38
853.548	22042.38
853.794	22082.38
854.041	22207.38
854.288	22283.38
854.534	22453.38
854.781	22340.38
855.028	22281.38
855.274	22252.38
855.52	22164.38
855.767	21963.38
856.013	22059.38
856.26	22339.38
856.506	21694.38
856.752	21673.38
856.998	21820.38
857.244	21789.38
857.49	21898.38
857.736	21862.38
857.982	21931.38
858.228	21773.38
858.474	21705.38
858.72	21598.38
858.966	21386.38
859.212	21176.38
859.458	20905.38
859.703	20791.38
859.949	20562.38
860.195	20402.38
860.44	20417.38
860.686	20256.38
860.931	20318.38
861.177	20081.38
861.422	20025.38
861.667	19810.38
861.913	19915.38
862.158	19998.38
862.403	20130.38
862.648	20068.38
862.893	20095.38
863.138	20137.38
863.384	20035.38
863.629	19949.38
863.873	19986.38
864.118	19959.38
864.363	19750.38
864.608	19730.38
864.853	19782.38
865.098	19617.38
865.342	19528.38
865.587	19364.38
865.832	19407.38
866.076	19416.38
866.321	19357.38
866.565	19268.38
866.81	19212.38
867.054	19126.38
867.298	19029.38
867.543	18993.38
867.787	19048.38
868.031	18973.38
868.275	18926.38
868.519	18859.38
868.764	18837.38
869.008	18742.38
869.252	18791.38
869.496	18741.38
869.739	18687.38
869.983	18621.38
870.227	18674.38
870.471	18571.38
870.715	18797.38
870.958	18858.38
871.202	18723.38
871.446	18856.38
871.689	18750.38
871.933	18844.38
872.176	18822.38
872.42	18786.38
872.663	18738.38
872.906	18622.38
873.15	18565.38
873.393	18419.38
873.636	18372.38
873.879	18187.38
874.122	18003.38
874.366	17855.38
874.609	17795.38
874.852	17573.38
875.095	17590.38
875.337	17530.38
875.58	17357.38
875.823	17313.38
876.066	17274.38
876.309	17225.38
876.551	17077.38
876.794	17009.38
877.037	16985.38
877.279	16892.38
877.522	16936.38
877.764	16937.38
878.007	16834.38
878.249	16894.38
878.491	16816.38
878.734	16822.38
878.976	16649.38
879.218	16522.38
879.46	16543.38
879.702	16528.38
879.945	16377.38
880.187	16200.38
880.429	16012.38
880.671	16020.38
880.912	15899.38
881.154	15945.38
881.396	15816.38
881.638	15866.38
881.88	15917.38
882.121	15791.38
882.363	15796.38
882.605	15715.38
882.846	15687.38
883.088	15638.38
883.329	15674.38
883.571	15663.38
883.812	15711.38
884.053	15872.38
884.295	16135.38
884.536	16261.38
884.777	16236.38
885.018	16091.38
885.259	16120.38
885.5	16065.38
885.742	16219.38
885.982	15973.38
886.223	15801.38
886.464	15707.38
886.705	15533.38
886.946	15517.38
887.187	15160.38
887.428	15095.38
887.668	14835.38
887.909	14705.38
888.15	14500.38
888.39	14472.38
888.631	14380.38
888.871	14217.38
889.111	14076.38
889.352	14029.38
889.592	13845.38
889.833	13806.38
890.073	13729.38
890.313	13777.38
890.553	13516.38
890.793	13547.38
891.033	13400.38
891.273	13329.38
891.513	13318.38
891.753	13354.38
891.993	13196.38
892.233	13333.38
892.473	13435.38
892.713	13309.38
892.952	13310.38
893.192	13315.38
893.432	13355.38
893.671	13297.38
893.911	13326.38
894.15	13161.38
894.39	13032.38
894.629	13033.38
894.869	12987.38
895.108	12928.38
895.347	12764.38
895.587	12828.38
895.826	12700.38
896.065	12642.38
896.304	12729.38
896.543	12737.38
896.782	12625.38
897.021	12648.38
897.26	12637.38
897.499	12643.38
897.738	12566.38
897.977	12531.38
898.216	12384.38
898.454	12314.38
898.693	12162.38
898.932	12230.38
899.17	12201.38
899.409	12167.38
899.647	12153.38
899.886	12089.38
900.124	12147.38
900.363	12038.38
900.601	12185.38
900.839	12218.38
901.078	12111.38
901.316	12237.38
901.554	12178.38
901.792	12343.38
902.03	12262.38
902.268	12328.38
902.506	12347.38
902.744	12167.38
902.982	12152.38
903.22	11876.38
903.458	11724.38
903.695	11576.38
903.933	11399.38
904.171	11255.38
904.409	10973.38
904.646	10895.38
904.884	10768.38
905.121	10703.38
905.359	10494.38
905.596	10395.38
905.833	10195.38
906.071	10251.38
906.308	10270.38
906.545	10244.38
906.783	10080.38
907.02	10140.38
907.257	10052.38
907.494	10036.38
907.731	10039.38
907.968	10002.38
908.205	9902.38
908.442	9799.38
908.679	9779.38
908.915	9697.38
909.152	9669.38
909.389	9439.38
909.626	9452.38
909.862	9377.38
910.099	9413.38
910.335	9353.38
910.572	9281.38
910.808	9312.38
911.045	9232.38
911.281	9147.38
911.518	9168.38
911.754	9131.38
911.99	9082.38
912.226	8983.38
912.463	8900.38
912.699	8813.38
912.935	8791.38
913.171	8654.38
913.407	8626.38
913.643	8620.38
913.879	8489.38
914.114	8427.38
914.35	8294.38
914.586	8269.38
914.822	8224.38
915.057	8221.38
915.293	8034.38
915.529	8000.38
915.764	8053.38
916	8017.38
916.235	7999.38
916.471	8034.38
916.706	7992.38
916.941	7961.38
917.177	7857.38
917.412	7906.38
917.647	7941.38
917.882	7845.38
918.117	7893.38
918.352	7808.38
918.588	7826.38
918.823	7724.38
919.057	7702.38
919.292	7474.38
919.527	7615.38
919.762	7458.38
919.997	7376.38
920.232	7260.38
920.466	7287.38
920.701	7168.38
920.935	7126.38
921.17	7051.38
921.405	7052.38
921.639	7013.38
921.873	6953.38
922.108	7054.38
922.342	7011.38
922.576	6858.38
922.811	6883.38
923.045	6843.38
923.279	6906.38
923.513	6760.38
923.747	6834.38
923.981	6704.38
924.215	6696.38
924.449	6684.38
924.683	6579.38
924.917	6562.38
925.151	6567.38
925.385	6524.38
925.618	6506.38
925.852	6470.38
926.086	6376.38
926.319	6475.38
926.553	6380.38
926.786	6402.38
927.02	6391.38
927.253	6425.38
927.486	6450.38
927.72	6364.38
927.953	6413.38
928.186	6399.38
928.42	6352.38
928.653	6265.38
928.886	6261.38
929.119	6221.38
929.352	6218.38
929.585	6178.38
929.818	6092.38
930.051	6069.38
930.284	6031.38
930.516	5946.38
930.749	5891.38
930.982	5979.38
931.215	5889.38
931.447	5831.38
931.68	5832.38
931.912	5791.38
932.145	5778.38
932.377	5791.38
932.61	5926.38
932.842	5726.38
933.074	5802.38
933.307	5723.38
933.539	5821.38
933.771	5831.38
934.003	5776.38
934.236	5852.38
934.468	5815.38
934.7	5743.38
934.932	5782.38
935.164	5705.38
935.395	5658.38
935.627	5685.38
935.859	5676.38
936.091	5637.38
936.323	5640.38
936.554	5649.38
936.786	5560.38
937.017	5503.38
937.249	5521.38
937.481	5431.38
937.712	5562.38
937.943	5542.38
938.175	5428.38
938.406	5445.38
938.637	5489.38
938.869	5370.38
939.1	5436.38
939.331	5366.38
939.562	5392.38
939.793	5345.38
940.024	5392.38
940.255	5353.38
940.486	5277.38
940.717	5260.38
940.948	5250.38
941.179	5191.38
941.409	5213.38
941.64	5167.38
941.871	5183.38
942.102	5184.38
942.332	5179.38
942.563	5229.38
942.793	5175.38
943.024	5099.38
943.254	5153.38
943.484	5193.38
943.715	5182.38
943.945	5144.38
944.175	5093.38
944.405	5078.38
944.636	5067.38
944.866	5096.38
945.096	5111.38
945.326	5056.38
945.556	5097.38
945.786	5041.38
946.016	4999.38
946.245	4901.38
946.475	4872.38
946.705	4918.38
946.935	4893.38
947.164	4852.38
947.394	4772.38
947.624	4810.38
947.853	4837.38
948.083	4795.38
948.312	4709.38
948.542	4665.38
948.771	4646.38
949	4682.38
949.23	4690.38
949.459	4662.38
949.688	4727.38
949.917	4592.38
950.146	4654.38
950.375	4684.38
950.604	4544.38
950.833	4620.38
951.062	4596.38
951.291	4624.38
951.52	4556.38
951.749	4566.38
951.978	4495.38
952.206	4540.38
952.435	4491.38
952.664	4526.38
952.892	4494.38
953.121	4477.38
953.349	4505.38
953.578	4433.38
953.806	4464.38
954.035	4352.38
954.263	4316.38
954.491	4300.38
954.719	4366.38
954.948	4255.38
955.176	4287.38
955.404	4219.38
955.632	4228.38
955.86	4247.38
956.088	4186.38
956.316	4242.38
956.544	4192.38
956.772	4140.38
956.999	4120.38
957.227	4167.38
957.455	4083.38
957.683	4033.38
957.91	3966.38
958.138	3928.38
958.365	4020.38
958.593	3962.38
958.82	3951.38
959.048	4006.38
959.275	3864.38
959.502	3927.38
959.73	3877.38
959.957	3871.38
960.184	3924.38
960.411	3878.38
960.638	3935.38
960.865	3849.38
961.092	3854.38
961.319	3822.38
961.546	3895.38
961.773	3869.38
962	3797.38
962.227	3878.38
962.454	3791.38
962.68	3785.38
962.907	3789.38
963.134	3706.38
963.36	3767.38
963.587	3728.38
963.813	3644.38
964.04	3703.38
964.266	3641.38
964.493	3691.38
964.719	3684.38
964.945	3634.38
965.171	3517.38
965.398	3595.38
965.624	3603.38
965.85	3506.38
966.076	3498.38
966.302	3478.38
966.528	3463.38
966.754	3515.38
966.98	3508.38
967.206	3445.38
967.431	3389.38
967.657	3448.38
967.883	3414.38
968.109	3434.38
968.334	3325.38
968.56	3365.38
968.785	3352.38
969.011	3300.38
969.236	3390.38
969.462	3297.38
969.687	3292.38
969.912	3371.38
970.138	3381.38
970.363	3279.38
970.588	3289.38
970.813	3232.38
971.038	3216.38
971.263	3218.38
971.488	3276.38
971.713	3217.38
971.938	3210.38
972.163	3124.38
972.388	3173.38
972.613	3121.38
972.838	3147.38
973.062	3141.38
973.287	3123.38
973.512	3064.38
973.736	3084.38
973.961	3043.38
974.185	2984.38
974.41	3023.38
974.634	2983.38
974.858	2944.38
975.083	2983.38
975.307	3011.38
975.531	2904.38
975.755	2912.38
975.98	2871.38
976.204	2839.38
976.428	2809.38
976.652	2802.38
976.876	2796.38
977.1	2838.38
977.324	2768.38
977.547	2827.38
977.771	2846.38
977.995	2795.38
978.219	2707.38
978.442	2828.38
978.666	2725.38
978.89	2747.38
979.113	2757.38
979.337	2723.38
979.56	2694.38
979.783	2774.38
980.007	2666.38
980.23	2681.38
980.453	2653.38
980.677	2703.38
980.9	2627.38
981.123	2564.38
981.346	2654.38
981.569	2648.38
981.792	2638.38
982.015	2614.38
982.238	2558.38
982.461	2579.38
982.684	2533.38
982.907	2491.38
983.129	2483.38
983.352	2511.38
983.575	2526.38
983.797	2533.38
984.02	2444.38
984.242	2459.38
984.465	2485.38
984.687	2454.38
984.91	2474.38
985.132	2477.38
985.354	2472.38
985.577	2425.38
985.799	2373.38
986.021	2338.38
986.243	2372.38
986.465	2382.38
986.687	2392.38
986.909	2451.38
987.131	2343.38
987.353	2317.38
987.575	2378.38
987.797	2336.38
988.019	2253.38
988.241	2313.38
988.462	2267.38
988.684	2303.38
988.906	2395.38
989.127	2401.38
989.349	2229.38
989.57	2256.38
989.792	2306.38
990.013	2294.38
990.234	2313.38
990.456	2346.38
990.677	2296.38
990.898	2253.38
991.119	2221.38
991.341	2262.38
991.562	2198.38
991.783	2223.38
992.004	2161.38
992.225	2112.38
992.446	2177.38
992.667	2113.38
992.887	2118.38
993.108	2042.38
993.329	2175.38
993.55	2142.38
993.77	2072.38
993.991	2052.38
994.212	2088.38
994.432	2076.38
994.653	2065.38
994.873	2032.38
995.093	1964.38
995.314	1985.38
995.534	2036.38
995.754	2082.38
995.975	2060.38
996.195	1960.38
996.415	1996.38
996.635	1980.38
996.855	2022.38
997.075	1989.38
997.295	2016.38
997.515	1972.38
997.735	2030.38
997.955	1954.38
998.174	1959.38
998.394	1939.38
998.614	1980.38
998.834	1947.38
999.053	2008.38
999.273	1959.38
999.492	2019.38
999.712	1915.38
999.931	1905.38
1000.151	1969.38
1000.37	1918.38
1000.589	1966.38
1000.809	1892.38
1001.028	1988.38
1001.247	1910.38
1001.466	1822.38
1001.685	1968.38
1001.904	1883.38
1002.123	1880.38
1002.342	1848.38
1002.561	1789.38
1002.78	1868.38
1002.999	1890.38
1003.218	1843.38
1003.436	1802.38
1003.655	1879.38
1003.874	1790.38
1004.092	1791.38
1004.311	1845.38
1004.53	1812.38
1004.748	1871.38
1004.966	1782.38
1005.185	1837.38
1005.403	1817.38
1005.622	1797.38
1005.84	1888.38
1006.058	1768.38
1006.276	1792.38
1006.494	2148.38
1006.712	1799.38
1006.931	1859.38
1007.149	1759.38
1007.367	1761.38
1007.584	1803.38
1007.802	1806.38
1008.02	1788.38
1008.238	1880.38
1008.456	1865.38
1008.673	1738.38
1008.891	1860.38
1009.109	1837.38
1009.326	1842.38
1009.544	1943.38
1009.761	1842.38
1009.979	1909.38
1010.196	1937.38
1010.413	2025.38
1010.631	2076.38
1010.848	2135.38
1011.065	2136.38
1011.282	2088.38
1011.5	2003.38
1011.717	2130.38
1011.934	2071.38
1012.151	2068.38
1012.368	2047.38
1012.585	2012.38
1012.801	2073.38
1013.018	2049.38
1013.235	2005.38
1013.452	2030.38
1013.669	2064.38
1013.885	2011.38
1014.102	2063.38
1014.318	2028.38
1014.535	1982.38
1014.751	2034.38
1014.968	2013.38
1015.184	2051.38
1015.401	1937.38
1015.617	1994.38
1015.833	1905.38
1016.049	1953.38
1016.266	1903.38
1016.482	1917.38
1016.698	1889.38
1016.914	1888.38
1017.13	1831.38
1017.346	1834.38
1017.562	1881.38
1017.778	1822.38
1017.993	1819.38
1018.209	1890.38
1018.425	1837.38
1018.641	1804.38
1018.856	1763.38
1019.072	1820.38
1019.288	1831.38
1019.503	1769.38
1019.719	1740.38
1019.934	1738.38
1020.149	1809.38
1020.365	1757.38
1020.58	1695.38
1020.795	1735.38
1021.011	1691.38
1021.226	1651.38
1021.441	1653.38
1021.656	1555.38
1021.871	1485.38
1022.086	1502.38
1022.301	1491.38
1022.516	1455.38
1022.731	1500.38
1022.946	1445.38
1023.16	1400.38
1023.375	1374.38
1023.59	1353.38
1023.804	1324.38
1024.019	1405.38
1024.234	1259.38
1024.448	1319.38
1024.663	1205.38
1024.877	1212.38
1025.092	1265.38
1025.306	1243.38
1025.52	1154.38
1025.734	1232.38
1025.949	1142.38
1026.163	1093.38
1026.377	1047.38
1026.591	1075.38
1026.805	1011.38
1027.019	1017.38
1027.233	951.38
1027.447	940.38
1027.661	1015.38
1027.875	953.38
1028.088	981.38
1028.302	877.38
1028.516	870.38
1028.73	843.38
1028.943	860.38
1029.157	799.38
1029.37	744.38
1029.584	-0.62
1029.797	0.38
1030.011	-0.62
1030.224	-2.62
