Data from QEP037381__546__17-39-07-571.txt Node

Date: Fri Dec 16 17:39:07 EST 2022
User: dcclab
Spectrometer: QEP03738
Trigger mode: 4
Integration Time (sec): 1.000000E1
Scans to average: 1
Electric dark correction enabled: true
Nonlinearity correction enabled: false
Boxcar width: 0
XAxis mode: Wavelengths
Number of Pixels in Spectrum: 1044
>>>>>Begin Spectral Data<<<<<
784.041	13.88
784.3	-3.12
784.558	-2.12
784.817	-7.12
785.075	95302.88
785.334	16035.88
785.592	7477.88
785.851	5180.88
786.109	3910.88
786.368	3029.88
786.626	2511.88
786.884	2082.88
787.143	1742.88
787.401	1412.88
787.659	1287.88
787.917	1118.88
788.175	1023.88
788.433	887.88
788.691	811.88
788.949	746.88
789.207	728.88
789.465	634.88
789.723	603.88
789.98	575.88
790.238	605.88
790.496	562.88
790.753	544.88
791.011	594.88
791.268	536.88
791.526	516.88
791.783	526.88
792.041	522.88
792.298	421.88
792.556	502.88
792.813	482.88
793.07	463.88
793.327	461.88
793.584	526.88
793.841	438.88
794.099	484.88
794.356	537.88
794.613	427.88
794.869	460.88
795.126	434.88
795.383	418.88
795.64	443.88
795.897	377.88
796.153	436.88
796.41	436.88
796.667	406.88
796.923	422.88
797.18	422.88
797.436	458.88
797.693	422.88
797.949	473.88
798.206	509.88
798.462	412.88
798.718	471.88
798.974	446.88
799.231	489.88
799.487	488.88
799.743	489.88
799.999	533.88
800.255	514.88
800.511	498.88
800.767	544.88
801.023	547.88
801.279	565.88
801.534	621.88
801.79	679.88
802.046	703.88
802.302	834.88
802.557	945.88
802.813	1185.88
803.068	1480.88
803.324	2029.88
803.579	2726.88
803.835	3798.88
804.09	5235.88
804.345	6845.88
804.601	8673.88
804.856	10548.88
805.111	12146.88
805.366	13514.88
805.621	14468.88
805.876	15077.88
806.131	15479.88
806.386	15906.88
806.641	16255.88
806.896	16414.88
807.151	16792.88
807.406	16993.88
807.661	17450.88
807.915	17801.88
808.17	17964.88
808.425	18280.88
808.679	18465.88
808.934	18805.88
809.188	18940.88
809.443	19158.88
809.697	19327.88
809.951	19498.88
810.206	19609.88
810.46	19840.88
810.714	20043.88
810.968	20391.88
811.223	20626.88
811.477	20746.88
811.731	20885.88
811.985	20944.88
812.239	21157.88
812.493	21239.88
812.747	21251.88
813	21333.88
813.254	21428.88
813.508	21621.88
813.762	21719.88
814.015	21639.88
814.269	22037.88
814.522	22237.88
814.776	22516.88
815.03	22726.88
815.283	23028.88
815.536	23533.88
815.79	23856.88
816.043	24237.88
816.296	24636.88
816.55	24836.88
816.803	25212.88
817.056	25590.88
817.309	25747.88
817.562	26156.88
817.815	26472.88
818.068	26676.88
818.321	26978.88
818.574	27358.88
818.827	27693.88
819.079	27991.88
819.332	28587.88
819.585	28850.88
819.838	29257.88
820.09	29524.88
820.343	29634.88
820.595	29859.88
820.848	30047.88
821.1	30198.88
821.353	30181.88
821.605	29986.88
821.857	30056.88
822.11	29951.88
822.362	29994.88
822.614	29790.88
822.866	29986.88
823.118	29875.88
823.37	29934.88
823.622	29983.88
823.874	30112.88
824.126	30205.88
824.378	30263.88
824.63	30394.88
824.882	30515.88
825.134	30528.88
825.385	30347.88
825.637	30371.88
825.888	30260.88
826.14	30165.88
826.392	30172.88
826.643	29948.88
826.895	29827.88
827.146	29745.88
827.397	29754.88
827.649	29780.88
827.9	29642.88
828.151	29755.88
828.402	29793.88
828.653	29886.88
828.905	29922.88
829.156	30005.88
829.407	29979.88
829.658	30091.88
829.909	30097.88
830.159	29940.88
830.41	29832.88
830.661	29667.88
830.912	29518.88
831.162	29495.88
831.413	29345.88
831.664	29323.88
831.914	29203.88
832.165	29253.88
832.415	29222.88
832.666	29193.88
832.916	29396.88
833.167	29330.88
833.417	29312.88
833.667	29108.88
833.917	28986.88
834.168	29063.88
834.418	28908.88
834.668	28836.88
834.918	28523.88
835.168	28431.88
835.418	28392.88
835.668	28324.88
835.918	28292.88
836.167	28241.88
836.417	28072.88
836.667	28217.88
836.917	28037.88
837.166	28000.88
837.416	28076.88
837.666	28088.88
837.915	27898.88
838.165	27875.88
838.414	27813.88
838.663	27711.88
838.913	27882.88
839.162	27588.88
839.411	27711.88
839.661	27513.88
839.91	27427.88
840.159	27302.88
840.408	27372.88
840.657	27432.88
840.906	27462.88
841.155	27366.88
841.404	27324.88
841.653	27478.88
841.902	27282.88
842.15	27424.88
842.399	27384.88
842.648	27425.88
842.897	27358.88
843.145	27091.88
843.394	26878.88
843.642	26829.88
843.891	26688.88
844.139	26511.88
844.388	26366.88
844.636	26134.88
844.884	26334.88
845.133	26262.88
845.381	26146.88
845.629	26120.88
845.877	26095.88
846.125	26148.88
846.373	26113.88
846.621	25983.88
846.869	25994.88
847.117	25706.88
847.365	25552.88
847.613	25478.88
847.861	25406.88
848.108	25395.88
848.356	25331.88
848.604	25182.88
848.851	25145.88
849.099	25291.88
849.346	25262.88
849.594	25473.88
849.841	25544.88
850.089	25525.88
850.336	25603.88
850.583	25531.88
850.831	25456.88
851.078	25319.88
851.325	25236.88
851.572	25444.88
851.819	25167.88
852.066	24663.88
852.313	24272.88
852.56	24117.88
852.807	24110.88
853.054	23936.88
853.301	23867.88
853.548	23941.88
853.794	24085.88
854.041	24078.88
854.288	24102.88
854.534	24266.88
854.781	24254.88
855.028	24178.88
855.274	24178.88
855.52	23997.88
855.767	23806.88
856.013	23942.88
856.26	24106.88
856.506	23620.88
856.752	23606.88
856.998	23670.88
857.244	23645.88
857.49	23774.88
857.736	23715.88
857.982	23789.88
858.228	23743.88
858.474	23522.88
858.72	23425.88
858.966	23206.88
859.212	23007.88
859.458	22789.88
859.703	22470.88
859.949	22413.88
860.195	22285.88
860.44	22125.88
860.686	22047.88
860.931	21957.88
861.177	21837.88
861.422	21633.88
861.667	21582.88
861.913	21643.88
862.158	21750.88
862.403	21711.88
862.648	21714.88
862.893	21716.88
863.138	21713.88
863.384	21736.88
863.629	21814.88
863.873	21747.88
864.118	21672.88
864.363	21558.88
864.608	21402.88
864.853	21413.88
865.098	21211.88
865.342	21136.88
865.587	21117.88
865.832	21037.88
866.076	20952.88
866.321	20946.88
866.565	20875.88
866.81	20758.88
867.054	20773.88
867.298	20673.88
867.543	20581.88
867.787	20621.88
868.031	20454.88
868.275	20446.88
868.519	20410.88
868.764	20378.88
869.008	20362.88
869.252	20365.88
869.496	20240.88
869.739	20262.88
869.983	20070.88
870.227	20202.88
870.471	20108.88
870.715	20279.88
870.958	20245.88
871.202	20200.88
871.446	20235.88
871.689	20358.88
871.933	20315.88
872.176	20247.88
872.42	20212.88
872.663	20043.88
872.906	20072.88
873.15	19871.88
873.393	19810.88
873.636	19772.88
873.879	19551.88
874.122	19404.88
874.366	19096.88
874.609	19120.88
874.852	18963.88
875.095	18847.88
875.337	18804.88
875.58	18556.88
875.823	18623.88
876.066	18624.88
876.309	18630.88
876.551	18368.88
876.794	18257.88
877.037	18250.88
877.279	18230.88
877.522	18207.88
877.764	18303.88
878.007	18184.88
878.249	18231.88
878.491	18074.88
878.734	18105.88
878.976	18069.88
879.218	17824.88
879.46	17811.88
879.702	17775.88
879.945	17647.88
880.187	17418.88
880.429	17337.88
880.671	17209.88
880.912	17163.88
881.154	17145.88
881.396	17006.88
881.638	17017.88
881.88	16969.88
882.121	16963.88
882.363	16957.88
882.605	16896.88
882.846	16881.88
883.088	16859.88
883.329	16783.88
883.571	16823.88
883.812	16823.88
884.053	17074.88
884.295	17193.88
884.536	17488.88
884.777	17179.88
885.018	17167.88
885.259	17199.88
885.5	17083.88
885.742	17278.88
885.982	16979.88
886.223	16853.88
886.464	16770.88
886.705	16618.88
886.946	16446.88
887.187	16231.88
887.428	16072.88
887.668	15877.88
887.909	15668.88
888.15	15459.88
888.39	15402.88
888.631	15403.88
888.871	15245.88
889.111	15115.88
889.352	15005.88
889.592	14905.88
889.833	14772.88
890.073	14672.88
890.313	14605.88
890.553	14441.88
890.793	14459.88
891.033	14298.88
891.273	14263.88
891.513	14303.88
891.753	14274.88
891.993	14155.88
892.233	14233.88
892.473	14275.88
892.713	14228.88
892.952	14219.88
893.192	14244.88
893.432	14209.88
893.671	14163.88
893.911	14090.88
894.15	14008.88
894.39	13948.88
894.629	13863.88
894.869	13825.88
895.108	13662.88
895.347	13643.88
895.587	13585.88
895.826	13571.88
896.065	13593.88
896.304	13568.88
896.543	13509.88
896.782	13478.88
897.021	13432.88
897.26	13387.88
897.499	13484.88
897.738	13390.88
897.977	13240.88
898.216	13103.88
898.454	13004.88
898.693	12971.88
898.932	12946.88
899.17	12912.88
899.409	12869.88
899.647	12803.88
899.886	12781.88
900.124	12842.88
900.363	12711.88
900.601	12848.88
900.839	12775.88
901.078	12855.88
901.316	12819.88
901.554	12966.88
901.792	12918.88
902.03	12880.88
902.268	12993.88
902.506	12896.88
902.744	12687.88
902.982	12700.88
903.22	12433.88
903.458	12311.88
903.695	12219.88
903.933	12024.88
904.171	11768.88
904.409	11587.88
904.646	11492.88
904.884	11326.88
905.121	11278.88
905.359	11055.88
905.596	10965.88
905.833	10821.88
906.071	10767.88
906.308	10844.88
906.545	10785.88
906.783	10708.88
907.02	10646.88
907.257	10582.88
907.494	10587.88
907.731	10583.88
907.968	10508.88
908.205	10411.88
908.442	10367.88
908.679	10277.88
908.915	10229.88
909.152	10152.88
909.389	9928.88
909.626	9904.88
909.862	9878.88
910.099	9817.88
910.335	9843.88
910.572	9729.88
910.808	9725.88
911.045	9638.88
911.281	9643.88
911.518	9615.88
911.754	9519.88
911.99	9465.88
912.226	9468.88
912.463	9351.88
912.699	9238.88
912.935	9177.88
913.171	9165.88
913.407	9028.88
913.643	9014.88
913.879	8945.88
914.114	8871.88
914.35	8708.88
914.586	8752.88
914.822	8627.88
915.057	8540.88
915.293	8456.88
915.529	8441.88
915.764	8460.88
916	8366.88
916.235	8422.88
916.471	8357.88
916.706	8297.88
916.941	8319.88
917.177	8265.88
917.412	8286.88
917.647	8264.88
917.882	8203.88
918.117	8225.88
918.352	8207.88
918.588	8239.88
918.823	8034.88
919.057	8032.88
919.292	7891.88
919.527	7960.88
919.762	7746.88
919.997	7725.88
920.232	7638.88
920.466	7662.88
920.701	7513.88
920.935	7472.88
921.17	7442.88
921.405	7277.88
921.639	7352.88
921.873	7258.88
922.108	7315.88
922.342	7289.88
922.576	7189.88
922.811	7156.88
923.045	7192.88
923.279	7143.88
923.513	7024.88
923.747	7055.88
923.981	7002.88
924.215	6948.88
924.449	6897.88
924.683	6780.88
924.917	6777.88
925.151	6816.88
925.385	6809.88
925.618	6717.88
925.852	6754.88
926.086	6595.88
926.319	6694.88
926.553	6717.88
926.786	6721.88
927.02	6607.88
927.253	6713.88
927.486	6676.88
927.72	6595.88
927.953	6647.88
928.186	6555.88
928.42	6568.88
928.653	6463.88
928.886	6489.88
929.119	6471.88
929.352	6428.88
929.585	6391.88
929.818	6351.88
930.051	6282.88
930.284	6250.88
930.516	6160.88
930.749	6115.88
930.982	6140.88
931.215	6142.88
931.447	5993.88
931.68	6049.88
931.912	6048.88
932.145	6036.88
932.377	6057.88
932.61	6109.88
932.842	5974.88
933.074	6008.88
933.307	5964.88
933.539	6045.88
933.771	6021.88
934.003	5992.88
934.236	6065.88
934.468	6059.88
934.7	6044.88
934.932	6085.88
935.164	6046.88
935.395	5993.88
935.627	5998.88
935.859	5952.88
936.091	5807.88
936.323	5822.88
936.554	5803.88
936.786	5768.88
937.017	5680.88
937.249	5689.88
937.481	5638.88
937.712	5686.88
937.943	5676.88
938.175	5667.88
938.406	5613.88
938.637	5658.88
938.869	5561.88
939.1	5657.88
939.331	5552.88
939.562	5538.88
939.793	5525.88
940.024	5520.88
940.255	5473.88
940.486	5494.88
940.717	5413.88
940.948	5348.88
941.179	5399.88
941.409	5349.88
941.64	5319.88
941.871	5301.88
942.102	5324.88
942.332	5345.88
942.563	5345.88
942.793	5288.88
943.024	5251.88
943.254	5287.88
943.484	5354.88
943.715	5320.88
943.945	5287.88
944.175	5270.88
944.405	5190.88
944.636	5238.88
944.866	5244.88
945.096	5210.88
945.326	5150.88
945.556	5221.88
945.786	5245.88
946.016	5099.88
946.245	5035.88
946.475	5039.88
946.705	5003.88
946.935	5033.88
947.164	4968.88
947.394	4901.88
947.624	4887.88
947.853	4900.88
948.083	4892.88
948.312	4909.88
948.542	4758.88
948.771	4803.88
949	4773.88
949.23	4777.88
949.459	4788.88
949.688	4826.88
949.917	4727.88
950.146	4747.88
950.375	4801.88
950.604	4678.88
950.833	4803.88
951.062	4741.88
951.291	4698.88
951.52	4691.88
951.749	4680.88
951.978	4625.88
952.206	4622.88
952.435	4583.88
952.664	4668.88
952.892	4648.88
953.121	4598.88
953.349	4576.88
953.578	4553.88
953.806	4536.88
954.035	4462.88
954.263	4508.88
954.491	4386.88
954.719	4406.88
954.948	4424.88
955.176	4358.88
955.404	4285.88
955.632	4352.88
955.86	4312.88
956.088	4301.88
956.316	4336.88
956.544	4326.88
956.772	4220.88
956.999	4221.88
957.227	4230.88
957.455	4148.88
957.683	4162.88
957.91	4128.88
958.138	4047.88
958.365	4033.88
958.593	4073.88
958.82	3980.88
959.048	4042.88
959.275	4048.88
959.502	3988.88
959.73	3995.88
959.957	3994.88
960.184	4000.88
960.411	3928.88
960.638	4035.88
960.865	3964.88
961.092	3976.88
961.319	3824.88
961.546	3923.88
961.773	3924.88
962	3896.88
962.227	3917.88
962.454	3903.88
962.68	3877.88
962.907	3872.88
963.134	3790.88
963.36	3739.88
963.587	3819.88
963.813	3742.88
964.04	3723.88
964.266	3714.88
964.493	3775.88
964.719	3730.88
964.945	3689.88
965.171	3612.88
965.398	3643.88
965.624	3637.88
965.85	3523.88
966.076	3524.88
966.302	3556.88
966.528	3507.88
966.754	3584.88
966.98	3532.88
967.206	3559.88
967.431	3460.88
967.657	3539.88
967.883	3511.88
968.109	3514.88
968.334	3407.88
968.56	3423.88
968.785	3432.88
969.011	3358.88
969.236	3447.88
969.462	3330.88
969.687	3365.88
969.912	3418.88
970.138	3451.88
970.363	3319.88
970.588	3358.88
970.813	3266.88
971.038	3280.88
971.263	3325.88
971.488	3275.88
971.713	3307.88
971.938	3276.88
972.163	3192.88
972.388	3212.88
972.613	3230.88
972.838	3170.88
973.062	3153.88
973.287	3200.88
973.512	3069.88
973.736	3150.88
973.961	3132.88
974.185	3096.88
974.41	3044.88
974.634	2968.88
974.858	2977.88
975.083	3037.88
975.307	3019.88
975.531	2969.88
975.755	2882.88
975.98	2926.88
976.204	2878.88
976.428	2868.88
976.652	2879.88
976.876	2816.88
977.1	2885.88
977.324	2780.88
977.547	2841.88
977.771	2844.88
977.995	2775.88
978.219	2742.88
978.442	2885.88
978.666	2755.88
978.89	2785.88
979.113	2781.88
979.337	2781.88
979.56	2711.88
979.783	2831.88
980.007	2685.88
980.23	2681.88
980.453	2703.88
980.677	2760.88
980.9	2679.88
981.123	2600.88
981.346	2668.88
981.569	2688.88
981.792	2659.88
982.015	2616.88
982.238	2594.88
982.461	2602.88
982.684	2571.88
982.907	2542.88
983.129	2516.88
983.352	2540.88
983.575	2546.88
983.797	2546.88
984.02	2497.88
984.242	2522.88
984.465	2467.88
984.687	2490.88
984.91	2484.88
985.132	2477.88
985.354	2495.88
985.577	2438.88
985.799	2439.88
986.021	2360.88
986.243	2367.88
986.465	2392.88
986.687	2411.88
986.909	2470.88
987.131	2380.88
987.353	2343.88
987.575	2362.88
987.797	2317.88
988.019	2298.88
988.241	2346.88
988.462	2313.88
988.684	2363.88
988.906	2409.88
989.127	2391.88
989.349	2266.88
989.57	2266.88
989.792	2331.88
990.013	2353.88
990.234	2281.88
990.456	2325.88
990.677	2349.88
990.898	2255.88
991.119	2261.88
991.341	2256.88
991.562	2230.88
991.783	2245.88
992.004	2168.88
992.225	2149.88
992.446	2202.88
992.667	2126.88
992.887	2206.88
993.108	2096.88
993.329	2223.88
993.55	2117.88
993.77	2058.88
993.991	2065.88
994.212	2091.88
994.432	2080.88
994.653	2089.88
994.873	2081.88
995.093	1976.88
995.314	2022.88
995.534	2049.88
995.754	2072.88
995.975	2079.88
996.195	1962.88
996.415	2021.88
996.635	2001.88
996.855	2013.88
997.075	2016.88
997.295	1964.88
997.515	1958.88
997.735	2013.88
997.955	1957.88
998.174	1949.88
998.394	1961.88
998.614	1992.88
998.834	1930.88
999.053	2015.88
999.273	1976.88
999.492	1981.88
999.712	1928.88
999.931	1908.88
1000.151	1967.88
1000.37	1906.88
1000.589	1981.88
1000.809	1899.88
1001.028	1980.88
1001.247	1937.88
1001.466	1811.88
1001.685	1973.88
1001.904	1892.88
1002.123	1868.88
1002.342	1865.88
1002.561	1843.88
1002.78	1820.88
1002.999	1920.88
1003.218	1842.88
1003.436	1807.88
1003.655	1844.88
1003.874	1805.88
1004.092	1803.88
1004.311	1871.88
1004.53	1808.88
1004.748	1895.88
1004.966	1801.88
1005.185	1852.88
1005.403	1829.88
1005.622	1805.88
1005.84	1884.88
1006.058	1771.88
1006.276	1794.88
1006.494	2167.88
1006.712	1784.88
1006.931	1865.88
1007.149	1757.88
1007.367	1738.88
1007.584	1799.88
1007.802	1823.88
1008.02	1782.88
1008.238	1871.88
1008.456	1855.88
1008.673	1744.88
1008.891	1847.88
1009.109	1771.88
1009.326	1835.88
1009.544	1913.88
1009.761	1807.88
1009.979	1938.88
1010.196	1937.88
1010.413	2008.88
1010.631	2073.88
1010.848	2145.88
1011.065	2123.88
1011.282	2077.88
1011.5	2009.88
1011.717	2103.88
1011.934	2068.88
1012.151	2075.88
1012.368	2049.88
1012.585	2013.88
1012.801	2045.88
1013.018	2041.88
1013.235	2018.88
1013.452	1990.88
1013.669	2000.88
1013.885	1985.88
1014.102	2049.88
1014.318	1997.88
1014.535	1972.88
1014.751	2013.88
1014.968	1977.88
1015.184	2047.88
1015.401	1931.88
1015.617	1988.88
1015.833	1862.88
1016.049	1915.88
1016.266	1907.88
1016.482	1895.88
1016.698	1806.88
1016.914	1880.88
1017.13	1805.88
1017.346	1787.88
1017.562	1856.88
1017.778	1795.88
1017.993	1749.88
1018.209	1841.88
1018.425	1778.88
1018.641	1760.88
1018.856	1741.88
1019.072	1782.88
1019.288	1858.88
1019.503	1782.88
1019.719	1679.88
1019.934	1689.88
1020.149	1802.88
1020.365	1730.88
1020.58	1667.88
1020.795	1690.88
1021.011	1658.88
1021.226	1634.88
1021.441	1614.88
1021.656	1575.88
1021.871	1475.88
1022.086	1449.88
1022.301	1448.88
1022.516	1456.88
1022.731	1468.88
1022.946	1401.88
1023.16	1384.88
1023.375	1363.88
1023.59	1340.88
1023.804	1289.88
1024.019	1392.88
1024.234	1245.88
1024.448	1275.88
1024.663	1211.88
1024.877	1235.88
1025.092	1233.88
1025.306	1247.88
1025.52	1146.88
1025.734	1215.88
1025.949	1128.88
1026.163	1096.88
1026.377	1044.88
1026.591	1081.88
1026.805	1004.88
1027.019	997.88
1027.233	950.88
1027.447	904.88
1027.661	990.88
1027.875	951.88
1028.088	917.88
1028.302	865.88
1028.516	864.88
1028.73	850.88
1028.943	844.88
1029.157	782.88
1029.37	733.88
1029.584	-0.12
1029.797	-2.12
1030.011	0.88
1030.224	-0.12
