Data from QEP037381__529__17-36-17-569.txt Node

Date: Fri Dec 16 17:36:17 EST 2022
User: dcclab
Spectrometer: QEP03738
Trigger mode: 4
Integration Time (sec): 1.000000E1
Scans to average: 1
Electric dark correction enabled: true
Nonlinearity correction enabled: false
Boxcar width: 0
XAxis mode: Wavelengths
Number of Pixels in Spectrum: 1044
>>>>>Begin Spectral Data<<<<<
784.041	14.25
784.3	-2.75
784.558	-2.75
784.817	-0.75
785.075	97664.25
785.334	16460.25
785.592	7548.25
785.851	5162.25
786.109	3911.25
786.368	3005.25
786.626	2465.25
786.884	2036.25
787.143	1693.25
787.401	1421.25
787.659	1275.25
787.917	1113.25
788.175	1019.25
788.433	894.25
788.691	806.25
788.949	764.25
789.207	734.25
789.465	615.25
789.723	603.25
789.98	567.25
790.238	606.25
790.496	571.25
790.753	528.25
791.011	585.25
791.268	528.25
791.526	499.25
791.783	540.25
792.041	502.25
792.298	442.25
792.556	503.25
792.813	481.25
793.07	458.25
793.327	445.25
793.584	529.25
793.841	448.25
794.099	473.25
794.356	536.25
794.613	423.25
794.869	470.25
795.126	431.25
795.383	411.25
795.64	430.25
795.897	402.25
796.153	458.25
796.41	441.25
796.667	421.25
796.923	425.25
797.18	423.25
797.436	462.25
797.693	422.25
797.949	459.25
798.206	498.25
798.462	413.25
798.718	467.25
798.974	431.25
799.231	489.25
799.487	489.25
799.743	498.25
799.999	533.25
800.255	504.25
800.511	491.25
800.767	546.25
801.023	529.25
801.279	576.25
801.534	591.25
801.79	650.25
802.046	684.25
802.302	845.25
802.557	927.25
802.813	1132.25
803.068	1413.25
803.324	1961.25
803.579	2687.25
803.835	3720.25
804.09	5159.25
804.345	6715.25
804.601	8478.25
804.856	10359.25
805.111	11894.25
805.366	13090.25
805.621	14105.25
805.876	14787.25
806.131	15178.25
806.386	15533.25
806.641	15812.25
806.896	16068.25
807.151	16410.25
807.406	16648.25
807.661	16951.25
807.915	17325.25
808.17	17557.25
808.425	17859.25
808.679	17973.25
808.934	18159.25
809.188	18380.25
809.443	18625.25
809.697	18920.25
809.951	19042.25
810.206	19149.25
810.46	19386.25
810.714	19606.25
810.968	19853.25
811.223	19895.25
811.477	20121.25
811.731	20293.25
811.985	20309.25
812.239	20443.25
812.493	20552.25
812.747	20655.25
813	20724.25
813.254	20853.25
813.508	20928.25
813.762	21078.25
814.015	21186.25
814.269	21290.25
814.522	21535.25
814.776	21739.25
815.03	22094.25
815.283	22323.25
815.536	22690.25
815.79	23130.25
816.043	23541.25
816.296	23803.25
816.55	24093.25
816.803	24350.25
817.056	24755.25
817.309	24924.25
817.562	25313.25
817.815	25572.25
818.068	25752.25
818.321	26075.25
818.574	26344.25
818.827	26636.25
819.079	27001.25
819.332	27426.25
819.585	27857.25
819.838	28093.25
820.09	28310.25
820.343	28565.25
820.595	28621.25
820.848	28854.25
821.1	28953.25
821.353	28923.25
821.605	29021.25
821.857	29034.25
822.11	28901.25
822.362	28799.25
822.614	28672.25
822.866	28838.25
823.118	28746.25
823.37	28962.25
823.622	28875.25
823.874	29014.25
824.126	29068.25
824.378	29116.25
824.63	29189.25
824.882	29337.25
825.134	29198.25
825.385	29271.25
825.637	29184.25
825.888	29022.25
826.14	28953.25
826.392	29004.25
826.643	28723.25
826.895	28662.25
827.146	28434.25
827.397	28435.25
827.649	28434.25
827.9	28397.25
828.151	28332.25
828.402	28575.25
828.653	28561.25
828.905	28648.25
829.156	28700.25
829.407	28451.25
829.658	28524.25
829.909	28658.25
830.159	28523.25
830.41	28530.25
830.661	28269.25
830.912	28125.25
831.162	27944.25
831.413	27933.25
831.664	27922.25
831.914	27836.25
832.165	27956.25
832.415	27827.25
832.666	27886.25
832.916	27890.25
833.167	27718.25
833.417	27776.25
833.667	27780.25
833.917	27577.25
834.168	27645.25
834.418	27477.25
834.668	27426.25
834.918	27192.25
835.168	27166.25
835.418	27005.25
835.668	27011.25
835.918	26793.25
836.167	26845.25
836.417	26676.25
836.667	26714.25
836.917	26658.25
837.166	26508.25
837.416	26629.25
837.666	26507.25
837.915	26433.25
838.165	26407.25
838.414	26224.25
838.663	26241.25
838.913	26214.25
839.162	26033.25
839.411	26075.25
839.661	25932.25
839.91	25877.25
840.159	25716.25
840.408	25833.25
840.657	25889.25
840.906	25754.25
841.155	25849.25
841.404	25751.25
841.653	25891.25
841.902	25708.25
842.15	25779.25
842.399	25757.25
842.648	25741.25
842.897	25678.25
843.145	25586.25
843.394	25301.25
843.642	25163.25
843.891	25036.25
844.139	24914.25
844.388	24789.25
844.636	24572.25
844.884	24677.25
845.133	24604.25
845.381	24574.25
845.629	24657.25
845.877	24510.25
846.125	24438.25
846.373	24436.25
846.621	24302.25
846.869	24334.25
847.117	24155.25
847.365	24024.25
847.613	23865.25
847.861	23791.25
848.108	23753.25
848.356	23712.25
848.604	23711.25
848.851	23639.25
849.099	23653.25
849.346	23700.25
849.594	23886.25
849.841	23817.25
850.089	23831.25
850.336	23874.25
850.583	23782.25
850.831	23708.25
851.078	23517.25
851.325	23601.25
851.572	23705.25
851.819	23424.25
852.066	22966.25
852.313	22734.25
852.56	22452.25
852.807	22283.25
853.054	22231.25
853.301	22239.25
853.548	22291.25
853.794	22397.25
854.041	22389.25
854.288	22397.25
854.534	22687.25
854.781	22686.25
855.028	22528.25
855.274	22487.25
855.52	22308.25
855.767	22175.25
856.013	22122.25
856.26	22376.25
856.506	21849.25
856.752	22039.25
856.998	21838.25
857.244	21945.25
857.49	22085.25
857.736	22112.25
857.982	22083.25
858.228	21961.25
858.474	21752.25
858.72	21663.25
858.966	21491.25
859.212	21273.25
859.458	20961.25
859.703	20920.25
859.949	20654.25
860.195	20568.25
860.44	20408.25
860.686	20334.25
860.931	20287.25
861.177	20185.25
861.422	20165.25
861.667	20053.25
861.913	19995.25
862.158	20038.25
862.403	20125.25
862.648	20128.25
862.893	20240.25
863.138	20119.25
863.384	19971.25
863.629	20054.25
863.873	19910.25
864.118	19862.25
864.363	19820.25
864.608	19757.25
864.853	19674.25
865.098	19590.25
865.342	19523.25
865.587	19368.25
865.832	19355.25
866.076	19329.25
866.321	19230.25
866.565	19264.25
866.81	19068.25
867.054	19087.25
867.298	19027.25
867.543	18857.25
867.787	18955.25
868.031	18778.25
868.275	18774.25
868.519	18756.25
868.764	18712.25
869.008	18537.25
869.252	18557.25
869.496	18548.25
869.739	18380.25
869.983	18464.25
870.227	18485.25
870.471	18433.25
870.715	18500.25
870.958	18520.25
871.202	18458.25
871.446	18553.25
871.689	18481.25
871.933	18537.25
872.176	18512.25
872.42	18449.25
872.663	18409.25
872.906	18287.25
873.15	18251.25
873.393	18101.25
873.636	18152.25
873.879	17840.25
874.122	17674.25
874.366	17394.25
874.609	17300.25
874.852	17252.25
875.095	17166.25
875.337	17130.25
875.58	17025.25
875.823	16985.25
876.066	16910.25
876.309	16983.25
876.551	16731.25
876.794	16697.25
877.037	16676.25
877.279	16529.25
877.522	16570.25
877.764	16627.25
878.007	16519.25
878.249	16483.25
878.491	16431.25
878.734	16531.25
878.976	16402.25
879.218	16247.25
879.46	16191.25
879.702	16121.25
879.945	16098.25
880.187	15847.25
880.429	15767.25
880.671	15600.25
880.912	15620.25
881.154	15623.25
881.396	15488.25
881.638	15472.25
881.88	15427.25
882.121	15415.25
882.363	15347.25
882.605	15427.25
882.846	15295.25
883.088	15333.25
883.329	15264.25
883.571	15178.25
883.812	15249.25
884.053	15507.25
884.295	15653.25
884.536	15803.25
884.777	15686.25
885.018	15662.25
885.259	15605.25
885.5	15431.25
885.742	15649.25
885.982	15430.25
886.223	15171.25
886.464	15209.25
886.705	15013.25
886.946	14988.25
887.187	14711.25
887.428	14639.25
887.668	14454.25
887.909	14244.25
888.15	14139.25
888.39	14015.25
888.631	13933.25
888.871	13904.25
889.111	13704.25
889.352	13650.25
889.592	13432.25
889.833	13357.25
890.073	13349.25
890.313	13322.25
890.553	13122.25
890.793	13113.25
891.033	13064.25
891.273	12924.25
891.513	12895.25
891.753	12901.25
891.993	12887.25
892.233	12910.25
892.473	12968.25
892.713	12949.25
892.952	12877.25
893.192	12930.25
893.432	12927.25
893.671	12921.25
893.911	12818.25
894.15	12671.25
894.39	12640.25
894.629	12481.25
894.869	12506.25
895.108	12432.25
895.347	12277.25
895.587	12389.25
895.826	12218.25
896.065	12212.25
896.304	12267.25
896.543	12233.25
896.782	12040.25
897.021	12162.25
897.26	12149.25
897.499	12112.25
897.738	12078.25
897.977	11939.25
898.216	11854.25
898.454	11787.25
898.693	11684.25
898.932	11692.25
899.17	11572.25
899.409	11544.25
899.647	11509.25
899.886	11474.25
900.124	11488.25
900.363	11386.25
900.601	11551.25
900.839	11573.25
901.078	11522.25
901.316	11607.25
901.554	11570.25
901.792	11603.25
902.03	11600.25
902.268	11625.25
902.506	11637.25
902.744	11521.25
902.982	11379.25
903.22	11270.25
903.458	11068.25
903.695	11053.25
903.933	10836.25
904.171	10558.25
904.409	10489.25
904.646	10394.25
904.884	10223.25
905.121	10190.25
905.359	10051.25
905.596	10006.25
905.833	9851.25
906.071	9727.25
906.308	9846.25
906.545	9781.25
906.783	9713.25
907.02	9656.25
907.257	9590.25
907.494	9508.25
907.731	9594.25
907.968	9527.25
908.205	9448.25
908.442	9353.25
908.679	9349.25
908.915	9280.25
909.152	9263.25
909.389	9041.25
909.626	9027.25
909.862	8954.25
910.099	8944.25
910.335	8903.25
910.572	8797.25
910.808	8862.25
911.045	8765.25
911.281	8758.25
911.518	8797.25
911.754	8685.25
911.99	8637.25
912.226	8544.25
912.463	8505.25
912.699	8428.25
912.935	8394.25
913.171	8278.25
913.407	8172.25
913.643	8196.25
913.879	8131.25
914.114	8033.25
914.35	7936.25
914.586	7886.25
914.822	7773.25
915.057	7815.25
915.293	7673.25
915.529	7643.25
915.764	7679.25
916	7596.25
916.235	7614.25
916.471	7631.25
916.706	7551.25
916.941	7485.25
917.177	7490.25
917.412	7554.25
917.647	7538.25
917.882	7438.25
918.117	7481.25
918.352	7451.25
918.588	7488.25
918.823	7251.25
919.057	7272.25
919.292	7079.25
919.527	7211.25
919.762	7050.25
919.997	7010.25
920.232	6923.25
920.466	6891.25
920.701	6781.25
920.935	6764.25
921.17	6683.25
921.405	6678.25
921.639	6736.25
921.873	6609.25
922.108	6656.25
922.342	6652.25
922.576	6508.25
922.811	6441.25
923.045	6554.25
923.279	6541.25
923.513	6358.25
923.747	6417.25
923.981	6435.25
924.215	6278.25
924.449	6262.25
924.683	6208.25
924.917	6191.25
925.151	6130.25
925.385	6184.25
925.618	6193.25
925.852	6115.25
926.086	6046.25
926.319	6140.25
926.553	6032.25
926.786	6071.25
927.02	6077.25
927.253	6139.25
927.486	6072.25
927.72	5978.25
927.953	6060.25
928.186	6014.25
928.42	5987.25
928.653	5869.25
928.886	5816.25
929.119	5883.25
929.352	5832.25
929.585	5775.25
929.818	5766.25
930.051	5757.25
930.284	5689.25
930.516	5617.25
930.749	5539.25
930.982	5572.25
931.215	5553.25
931.447	5504.25
931.68	5440.25
931.912	5423.25
932.145	5453.25
932.377	5461.25
932.61	5563.25
932.842	5327.25
933.074	5455.25
933.307	5401.25
933.539	5472.25
933.771	5436.25
934.003	5401.25
934.236	5459.25
934.468	5431.25
934.7	5376.25
934.932	5391.25
935.164	5298.25
935.395	5312.25
935.627	5303.25
935.859	5313.25
936.091	5210.25
936.323	5283.25
936.554	5293.25
936.786	5219.25
937.017	5142.25
937.249	5151.25
937.481	5081.25
937.712	5111.25
937.943	5073.25
938.175	5062.25
938.406	5057.25
938.637	5126.25
938.869	5023.25
939.1	5036.25
939.331	4998.25
939.562	5072.25
939.793	4981.25
940.024	5048.25
940.255	4973.25
940.486	4948.25
940.717	4925.25
940.948	4797.25
941.179	4851.25
941.409	4829.25
941.64	4801.25
941.871	4855.25
942.102	4768.25
942.332	4834.25
942.563	4805.25
942.793	4779.25
943.024	4771.25
943.254	4813.25
943.484	4823.25
943.715	4792.25
943.945	4786.25
944.175	4705.25
944.405	4690.25
944.636	4682.25
944.866	4716.25
945.096	4745.25
945.326	4652.25
945.556	4722.25
945.786	4655.25
946.016	4600.25
946.245	4558.25
946.475	4555.25
946.705	4503.25
946.935	4557.25
947.164	4479.25
947.394	4451.25
947.624	4446.25
947.853	4465.25
948.083	4416.25
948.312	4389.25
948.542	4290.25
948.771	4281.25
949	4293.25
949.23	4301.25
949.459	4293.25
949.688	4328.25
949.917	4292.25
950.146	4277.25
950.375	4386.25
950.604	4247.25
950.833	4319.25
951.062	4278.25
951.291	4222.25
951.52	4136.25
951.749	4239.25
951.978	4177.25
952.206	4171.25
952.435	4133.25
952.664	4156.25
952.892	4154.25
953.121	4120.25
953.349	4145.25
953.578	4065.25
953.806	4097.25
954.035	3988.25
954.263	4052.25
954.491	3971.25
954.719	3937.25
954.948	3984.25
955.176	3934.25
955.404	3858.25
955.632	3971.25
955.86	3909.25
956.088	3851.25
956.316	3923.25
956.544	3877.25
956.772	3843.25
956.999	3778.25
957.227	3880.25
957.455	3719.25
957.683	3773.25
957.91	3689.25
958.138	3693.25
958.365	3660.25
958.593	3660.25
958.82	3605.25
959.048	3648.25
959.275	3628.25
959.502	3583.25
959.73	3585.25
959.957	3614.25
960.184	3658.25
960.411	3544.25
960.638	3638.25
960.865	3577.25
961.092	3591.25
961.319	3492.25
961.546	3564.25
961.773	3616.25
962	3532.25
962.227	3545.25
962.454	3522.25
962.68	3497.25
962.907	3491.25
963.134	3507.25
963.36	3414.25
963.587	3486.25
963.813	3374.25
964.04	3401.25
964.266	3331.25
964.493	3395.25
964.719	3376.25
964.945	3351.25
965.171	3228.25
965.398	3304.25
965.624	3329.25
965.85	3217.25
966.076	3211.25
966.302	3251.25
966.528	3209.25
966.754	3212.25
966.98	3205.25
967.206	3179.25
967.431	3136.25
967.657	3198.25
967.883	3156.25
968.109	3141.25
968.334	3089.25
968.56	3078.25
968.785	3098.25
969.011	3090.25
969.236	3099.25
969.462	3040.25
969.687	3003.25
969.912	3059.25
970.138	3113.25
970.363	2992.25
970.588	3008.25
970.813	2970.25
971.038	2958.25
971.263	2975.25
971.488	2958.25
971.713	2988.25
971.938	3006.25
972.163	2870.25
972.388	2922.25
972.613	2887.25
972.838	2906.25
973.062	2879.25
973.287	2874.25
973.512	2772.25
973.736	2819.25
973.961	2814.25
974.185	2756.25
974.41	2835.25
974.634	2725.25
974.858	2702.25
975.083	2735.25
975.307	2756.25
975.531	2669.25
975.755	2625.25
975.98	2638.25
976.204	2565.25
976.428	2596.25
976.652	2598.25
976.876	2569.25
977.1	2600.25
977.324	2526.25
977.547	2571.25
977.771	2585.25
977.995	2536.25
978.219	2512.25
978.442	2570.25
978.666	2500.25
978.89	2513.25
979.113	2522.25
979.337	2502.25
979.56	2490.25
979.783	2548.25
980.007	2412.25
980.23	2455.25
980.453	2407.25
980.677	2437.25
980.9	2474.25
981.123	2347.25
981.346	2465.25
981.569	2403.25
981.792	2435.25
982.015	2377.25
982.238	2337.25
982.461	2367.25
982.684	2327.25
982.907	2313.25
983.129	2283.25
983.352	2346.25
983.575	2296.25
983.797	2272.25
984.02	2267.25
984.242	2222.25
984.465	2244.25
984.687	2270.25
984.91	2267.25
985.132	2252.25
985.354	2284.25
985.577	2229.25
985.799	2220.25
986.021	2142.25
986.243	2140.25
986.465	2159.25
986.687	2220.25
986.909	2239.25
987.131	2190.25
987.353	2110.25
987.575	2166.25
987.797	2100.25
988.019	2064.25
988.241	2129.25
988.462	2071.25
988.684	2125.25
988.906	2141.25
989.127	2159.25
989.349	2064.25
989.57	2076.25
989.792	2135.25
990.013	2113.25
990.234	2117.25
990.456	2122.25
990.677	2118.25
990.898	2056.25
991.119	2052.25
991.341	2076.25
991.562	2014.25
991.783	2041.25
992.004	1957.25
992.225	1940.25
992.446	1977.25
992.667	1905.25
992.887	1993.25
993.108	1873.25
993.329	1969.25
993.55	1950.25
993.77	1901.25
993.991	1886.25
994.212	1907.25
994.432	1881.25
994.653	1934.25
994.873	1904.25
995.093	1758.25
995.314	1802.25
995.534	1881.25
995.754	1911.25
995.975	1922.25
996.195	1782.25
996.415	1844.25
996.635	1809.25
996.855	1816.25
997.075	1833.25
997.295	1836.25
997.515	1773.25
997.735	1815.25
997.955	1820.25
998.174	1788.25
998.394	1762.25
998.614	1783.25
998.834	1761.25
999.053	1839.25
999.273	1786.25
999.492	1833.25
999.712	1793.25
999.931	1741.25
1000.151	1797.25
1000.37	1752.25
1000.589	1805.25
1000.809	1727.25
1001.028	1820.25
1001.247	1769.25
1001.466	1621.25
1001.685	1798.25
1001.904	1742.25
1002.123	1737.25
1002.342	1737.25
1002.561	1654.25
1002.78	1699.25
1002.999	1750.25
1003.218	1707.25
1003.436	1636.25
1003.655	1712.25
1003.874	1655.25
1004.092	1682.25
1004.311	1703.25
1004.53	1679.25
1004.748	1734.25
1004.966	1638.25
1005.185	1685.25
1005.403	1684.25
1005.622	1673.25
1005.84	1732.25
1006.058	1638.25
1006.276	1641.25
1006.494	2045.25
1006.712	1649.25
1006.931	1723.25
1007.149	1614.25
1007.367	1628.25
1007.584	1660.25
1007.802	1664.25
1008.02	1626.25
1008.238	1735.25
1008.456	1690.25
1008.673	1590.25
1008.891	1688.25
1009.109	1647.25
1009.326	1664.25
1009.544	1783.25
1009.761	1666.25
1009.979	1781.25
1010.196	1769.25
1010.413	1853.25
1010.631	1857.25
1010.848	1923.25
1011.065	1939.25
1011.282	1867.25
1011.5	1805.25
1011.717	1944.25
1011.934	1863.25
1012.151	1893.25
1012.368	1849.25
1012.585	1826.25
1012.801	1886.25
1013.018	1831.25
1013.235	1828.25
1013.452	1828.25
1013.669	1871.25
1013.885	1802.25
1014.102	1851.25
1014.318	1807.25
1014.535	1779.25
1014.751	1812.25
1014.968	1799.25
1015.184	1817.25
1015.401	1777.25
1015.617	1765.25
1015.833	1726.25
1016.049	1758.25
1016.266	1700.25
1016.482	1710.25
1016.698	1629.25
1016.914	1710.25
1017.13	1604.25
1017.346	1644.25
1017.562	1683.25
1017.778	1611.25
1017.993	1612.25
1018.209	1658.25
1018.425	1639.25
1018.641	1607.25
1018.856	1567.25
1019.072	1615.25
1019.288	1594.25
1019.503	1588.25
1019.719	1524.25
1019.934	1515.25
1020.149	1629.25
1020.365	1549.25
1020.58	1504.25
1020.795	1534.25
1021.011	1475.25
1021.226	1445.25
1021.441	1478.25
1021.656	1385.25
1021.871	1311.25
1022.086	1331.25
1022.301	1316.25
1022.516	1280.25
1022.731	1340.25
1022.946	1267.25
1023.16	1233.25
1023.375	1223.25
1023.59	1191.25
1023.804	1169.25
1024.019	1269.25
1024.234	1129.25
1024.448	1151.25
1024.663	1105.25
1024.877	1094.25
1025.092	1108.25
1025.306	1141.25
1025.52	1023.25
1025.734	1114.25
1025.949	1048.25
1026.163	993.25
1026.377	937.25
1026.591	977.25
1026.805	919.25
1027.019	906.25
1027.233	879.25
1027.447	827.25
1027.661	919.25
1027.875	880.25
1028.088	948.25
1028.302	818.25
1028.516	778.25
1028.73	781.25
1028.943	755.25
1029.157	708.25
1029.37	671.25
1029.584	-0.75
1029.797	-2.75
1030.011	-0.75
1030.224	-3.75
