Data from QEP037381__527__17-35-57-569.txt Node

Date: Fri Dec 16 17:35:57 EST 2022
User: dcclab
Spectrometer: QEP03738
Trigger mode: 4
Integration Time (sec): 1.000000E1
Scans to average: 1
Electric dark correction enabled: true
Nonlinearity correction enabled: false
Boxcar width: 0
XAxis mode: Wavelengths
Number of Pixels in Spectrum: 1044
>>>>>Begin Spectral Data<<<<<
784.041	13.75
784.3	3.75
784.558	-3.25
784.817	-4.25
785.075	98025.75
785.334	16543.75
785.592	7522.75
785.851	5175.75
786.109	3905.75
786.368	3063.75
786.626	2442.75
786.884	2042.75
787.143	1711.75
787.401	1429.75
787.659	1294.75
787.917	1108.75
788.175	1031.75
788.433	908.75
788.691	827.75
788.949	771.75
789.207	717.75
789.465	639.75
789.723	623.75
789.98	569.75
790.238	603.75
790.496	567.75
790.753	558.75
791.011	597.75
791.268	542.75
791.526	508.75
791.783	531.75
792.041	527.75
792.298	445.75
792.556	518.75
792.813	482.75
793.07	455.75
793.327	445.75
793.584	526.75
793.841	454.75
794.099	474.75
794.356	517.75
794.613	443.75
794.869	480.75
795.126	440.75
795.383	413.75
795.64	450.75
795.897	392.75
796.153	452.75
796.41	444.75
796.667	426.75
796.923	436.75
797.18	448.75
797.436	463.75
797.693	422.75
797.949	464.75
798.206	501.75
798.462	416.75
798.718	489.75
798.974	457.75
799.231	514.75
799.487	489.75
799.743	500.75
799.999	517.75
800.255	529.75
800.511	520.75
800.767	551.75
801.023	555.75
801.279	600.75
801.534	628.75
801.79	675.75
802.046	729.75
802.302	855.75
802.557	965.75
802.813	1215.75
803.068	1501.75
803.324	2127.75
803.579	2836.75
803.835	3974.75
804.09	5524.75
804.345	7385.75
804.601	9290.75
804.856	11348.75
805.111	13216.75
805.366	14626.75
805.621	15708.75
805.876	16468.75
806.131	16974.75
806.386	17336.75
806.641	17612.75
806.896	17985.75
807.151	18294.75
807.406	18656.75
807.661	19011.75
807.915	19374.75
808.17	19724.75
808.425	19978.75
808.679	20174.75
808.934	20471.75
809.188	20563.75
809.443	20744.75
809.697	20956.75
809.951	21189.75
810.206	21507.75
810.46	21699.75
810.714	21878.75
810.968	22150.75
811.223	22245.75
811.477	22494.75
811.731	22753.75
811.985	22890.75
812.239	22883.75
812.493	23084.75
812.747	23157.75
813	23212.75
813.254	23321.75
813.508	23452.75
813.762	23544.75
814.015	23616.75
814.269	23936.75
814.522	24145.75
814.776	24469.75
815.03	24686.75
815.283	25117.75
815.536	25634.75
815.79	25909.75
816.043	26348.75
816.296	26744.75
816.55	27023.75
816.803	27260.75
817.056	27861.75
817.309	28101.75
817.562	28335.75
817.815	28636.75
818.068	28751.75
818.321	29264.75
818.574	29544.75
818.827	30070.75
819.079	30359.75
819.332	30856.75
819.585	31177.75
819.838	31666.75
820.09	31860.75
820.343	32090.75
820.595	32272.75
820.848	32432.75
821.1	32635.75
821.353	32594.75
821.605	32530.75
821.857	32569.75
822.11	32386.75
822.362	32228.75
822.614	32255.75
822.866	32179.75
823.118	32292.75
823.37	32382.75
823.622	32434.75
823.874	32494.75
824.126	32633.75
824.378	32638.75
824.63	32751.75
824.882	32900.75
825.134	32861.75
825.385	32923.75
825.637	32689.75
825.888	32627.75
826.14	32540.75
826.392	32525.75
826.643	32250.75
826.895	32162.75
827.146	32008.75
827.397	31875.75
827.649	32067.75
827.9	31859.75
828.151	31915.75
828.402	32050.75
828.653	32165.75
828.905	32144.75
829.156	32272.75
829.407	32076.75
829.658	32071.75
829.909	32187.75
830.159	32103.75
830.41	31998.75
830.661	31726.75
830.912	31627.75
831.162	31533.75
831.413	31390.75
831.664	31464.75
831.914	31318.75
832.165	31319.75
832.415	31291.75
832.666	31455.75
832.916	31320.75
833.167	31325.75
833.417	31221.75
833.667	31168.75
833.917	31017.75
834.168	31032.75
834.418	30921.75
834.668	30795.75
834.918	30530.75
835.168	30538.75
835.418	30327.75
835.668	30158.75
835.918	30152.75
836.167	30057.75
836.417	30056.75
836.667	29930.75
836.917	29990.75
837.166	29832.75
837.416	29840.75
837.666	29861.75
837.915	29724.75
838.165	29626.75
838.414	29651.75
838.663	29507.75
838.913	29502.75
839.162	29306.75
839.411	29398.75
839.661	29145.75
839.91	29172.75
840.159	28932.75
840.408	29031.75
840.657	29062.75
840.906	29120.75
841.155	29053.75
841.404	28929.75
841.653	28938.75
841.902	28878.75
842.15	29015.75
842.399	28992.75
842.648	28964.75
842.897	28872.75
843.145	28653.75
843.394	28432.75
843.642	28301.75
843.891	28113.75
844.139	28153.75
844.388	27880.75
844.636	27691.75
844.884	27690.75
845.133	27615.75
845.381	27741.75
845.629	27618.75
845.877	27683.75
846.125	27574.75
846.373	27420.75
846.621	27248.75
846.869	27274.75
847.117	27091.75
847.365	26920.75
847.613	26795.75
847.861	26843.75
848.108	26775.75
848.356	26595.75
848.604	26624.75
848.851	26505.75
849.099	26595.75
849.346	26662.75
849.594	26686.75
849.841	26700.75
850.089	26794.75
850.336	26865.75
850.583	26746.75
850.831	26569.75
851.078	26483.75
851.325	26617.75
851.572	26600.75
851.819	26332.75
852.066	25678.75
852.313	25463.75
852.56	25139.75
852.807	25035.75
853.054	24965.75
853.301	24976.75
853.548	24969.75
853.794	25096.75
854.041	25141.75
854.288	25240.75
854.534	25473.75
854.781	25266.75
855.028	25251.75
855.274	25106.75
855.52	25033.75
855.767	24770.75
856.013	24797.75
856.26	25103.75
856.506	24481.75
856.752	24484.75
856.998	24565.75
857.244	24610.75
857.49	24624.75
857.736	24777.75
857.982	24714.75
858.228	24621.75
858.474	24463.75
858.72	24244.75
858.966	24112.75
859.212	23853.75
859.458	23629.75
859.703	23399.75
859.949	23179.75
860.195	23024.75
860.44	22884.75
860.686	22713.75
860.931	22634.75
861.177	22578.75
861.422	22361.75
861.667	22466.75
861.913	22473.75
862.158	22507.75
862.403	22492.75
862.648	22565.75
862.893	22648.75
863.138	22647.75
863.384	22505.75
863.629	22466.75
863.873	22472.75
864.118	22378.75
864.363	22171.75
864.608	22219.75
864.853	22064.75
865.098	21976.75
865.342	21867.75
865.587	21679.75
865.832	21787.75
866.076	21695.75
866.321	21468.75
866.565	21548.75
866.81	21364.75
867.054	21311.75
867.298	21286.75
867.543	21162.75
867.787	21240.75
868.031	21078.75
868.275	21162.75
868.519	20961.75
868.764	20937.75
869.008	20927.75
869.252	20839.75
869.496	20828.75
869.739	20734.75
869.983	20690.75
870.227	20700.75
870.471	20515.75
870.715	20652.75
870.958	20703.75
871.202	20779.75
871.446	20762.75
871.689	20836.75
871.933	20762.75
872.176	20765.75
872.42	20636.75
872.663	20509.75
872.906	20529.75
873.15	20355.75
873.393	20239.75
873.636	20236.75
873.879	19958.75
874.122	19754.75
874.366	19555.75
874.609	19555.75
874.852	19406.75
875.095	19235.75
875.337	19153.75
875.58	19085.75
875.823	19052.75
876.066	18975.75
876.309	18951.75
876.551	18711.75
876.794	18682.75
877.037	18652.75
877.279	18494.75
877.522	18552.75
877.764	18670.75
878.007	18504.75
878.249	18479.75
878.491	18433.75
878.734	18412.75
878.976	18440.75
879.218	18258.75
879.46	18151.75
879.702	18127.75
879.945	17934.75
880.187	17733.75
880.429	17695.75
880.671	17470.75
880.912	17436.75
881.154	17502.75
881.396	17263.75
881.638	17336.75
881.88	17334.75
882.121	17185.75
882.363	17263.75
882.605	17217.75
882.846	17200.75
883.088	17143.75
883.329	17078.75
883.571	17037.75
883.812	17116.75
884.053	17270.75
884.295	17520.75
884.536	17560.75
884.777	17423.75
885.018	17466.75
885.259	17328.75
885.5	17258.75
885.742	17372.75
885.982	17208.75
886.223	17038.75
886.464	16963.75
886.705	16753.75
886.946	16807.75
887.187	16429.75
887.428	16319.75
887.668	16102.75
887.909	15939.75
888.15	15808.75
888.39	15658.75
888.631	15585.75
888.871	15565.75
889.111	15332.75
889.352	15236.75
889.592	15137.75
889.833	14922.75
890.073	14966.75
890.313	14901.75
890.553	14706.75
890.793	14683.75
891.033	14658.75
891.273	14452.75
891.513	14506.75
891.753	14433.75
891.993	14383.75
892.233	14414.75
892.473	14474.75
892.713	14363.75
892.952	14444.75
893.192	14398.75
893.432	14471.75
893.671	14444.75
893.911	14201.75
894.15	14214.75
894.39	14065.75
894.629	14071.75
894.869	14012.75
895.108	13892.75
895.347	13751.75
895.587	13807.75
895.826	13708.75
896.065	13675.75
896.304	13729.75
896.543	13648.75
896.782	13461.75
897.021	13615.75
897.26	13528.75
897.499	13472.75
897.738	13504.75
897.977	13371.75
898.216	13267.75
898.454	13167.75
898.693	13060.75
898.932	13017.75
899.17	12947.75
899.409	12915.75
899.647	12858.75
899.886	12849.75
900.124	12871.75
900.363	12839.75
900.601	12882.75
900.839	12837.75
901.078	12902.75
901.316	12865.75
901.554	12975.75
901.792	13015.75
902.03	12951.75
902.268	12989.75
902.506	12975.75
902.744	12844.75
902.982	12786.75
903.22	12515.75
903.458	12316.75
903.695	12244.75
903.933	12094.75
904.171	11893.75
904.409	11730.75
904.646	11597.75
904.884	11443.75
905.121	11393.75
905.359	11220.75
905.596	11156.75
905.833	10913.75
906.071	10884.75
906.308	10950.75
906.545	10891.75
906.783	10877.75
907.02	10781.75
907.257	10740.75
907.494	10791.75
907.731	10757.75
907.968	10632.75
908.205	10565.75
908.442	10451.75
908.679	10446.75
908.915	10404.75
909.152	10291.75
909.389	10170.75
909.626	10117.75
909.862	10015.75
910.099	9900.75
910.335	9999.75
910.572	9829.75
910.808	9822.75
911.045	9774.75
911.281	9831.75
911.518	9775.75
911.754	9703.75
911.99	9616.75
912.226	9516.75
912.463	9426.75
912.699	9477.75
912.935	9350.75
913.171	9266.75
913.407	9192.75
913.643	9129.75
913.879	9010.75
914.114	8953.75
914.35	8848.75
914.586	8831.75
914.822	8709.75
915.057	8689.75
915.293	8548.75
915.529	8493.75
915.764	8575.75
916	8502.75
916.235	8480.75
916.471	8504.75
916.706	8393.75
916.941	8377.75
917.177	8366.75
917.412	8418.75
917.647	8443.75
917.882	8341.75
918.117	8375.75
918.352	8343.75
918.588	8279.75
918.823	8196.75
919.057	8133.75
919.292	7986.75
919.527	8030.75
919.762	7890.75
919.997	7819.75
920.232	7680.75
920.466	7660.75
920.701	7573.75
920.935	7579.75
921.17	7483.75
921.405	7386.75
921.639	7497.75
921.873	7334.75
922.108	7364.75
922.342	7307.75
922.576	7285.75
922.811	7270.75
923.045	7251.75
923.279	7331.75
923.513	7148.75
923.747	7154.75
923.981	7069.75
924.215	7006.75
924.449	7013.75
924.683	6931.75
924.917	6925.75
925.151	6931.75
925.385	6899.75
925.618	6821.75
925.852	6816.75
926.086	6737.75
926.319	6784.75
926.553	6755.75
926.786	6808.75
927.02	6724.75
927.253	6768.75
927.486	6732.75
927.72	6635.75
927.953	6717.75
928.186	6671.75
928.42	6716.75
928.653	6571.75
928.886	6505.75
929.119	6517.75
929.352	6488.75
929.585	6429.75
929.818	6414.75
930.051	6355.75
930.284	6376.75
930.516	6177.75
930.749	6221.75
930.982	6187.75
931.215	6125.75
931.447	6125.75
931.68	6133.75
931.912	6071.75
932.145	6061.75
932.377	6037.75
932.61	6155.75
932.842	5926.75
933.074	6023.75
933.307	6009.75
933.539	6080.75
933.771	6078.75
934.003	6015.75
934.236	6058.75
934.468	6036.75
934.7	5971.75
934.932	6018.75
935.164	5906.75
935.395	5855.75
935.627	5826.75
935.859	5877.75
936.091	5802.75
936.323	5895.75
936.554	5787.75
936.786	5798.75
937.017	5708.75
937.249	5700.75
937.481	5674.75
937.712	5688.75
937.943	5683.75
938.175	5625.75
938.406	5705.75
938.637	5697.75
938.869	5540.75
939.1	5623.75
939.331	5608.75
939.562	5582.75
939.793	5576.75
940.024	5548.75
940.255	5553.75
940.486	5485.75
940.717	5413.75
940.948	5440.75
941.179	5348.75
941.409	5386.75
941.64	5416.75
941.871	5349.75
942.102	5333.75
942.332	5356.75
942.563	5406.75
942.793	5354.75
943.024	5327.75
943.254	5292.75
943.484	5387.75
943.715	5360.75
943.945	5312.75
944.175	5206.75
944.405	5234.75
944.636	5212.75
944.866	5232.75
945.096	5265.75
945.326	5187.75
945.556	5228.75
945.786	5228.75
946.016	5150.75
946.245	5064.75
946.475	5023.75
946.705	5080.75
946.935	5011.75
947.164	4988.75
947.394	4906.75
947.624	4935.75
947.853	4959.75
948.083	4926.75
948.312	4859.75
948.542	4812.75
948.771	4786.75
949	4777.75
949.23	4785.75
949.459	4737.75
949.688	4856.75
949.917	4787.75
950.146	4775.75
950.375	4809.75
950.604	4700.75
950.833	4834.75
951.062	4746.75
951.291	4733.75
951.52	4659.75
951.749	4694.75
951.978	4592.75
952.206	4600.75
952.435	4616.75
952.664	4660.75
952.892	4661.75
953.121	4628.75
953.349	4612.75
953.578	4568.75
953.806	4502.75
954.035	4441.75
954.263	4469.75
954.491	4418.75
954.719	4467.75
954.948	4395.75
955.176	4341.75
955.404	4315.75
955.632	4364.75
955.86	4297.75
956.088	4346.75
956.316	4303.75
956.544	4321.75
956.772	4247.75
956.999	4223.75
957.227	4302.75
957.455	4172.75
957.683	4172.75
957.91	4133.75
958.138	4049.75
958.365	4060.75
958.593	4033.75
958.82	3987.75
959.048	4094.75
959.275	4027.75
959.502	4009.75
959.73	3969.75
959.957	3950.75
960.184	4027.75
960.411	3951.75
960.638	3992.75
960.865	3957.75
961.092	3996.75
961.319	3870.75
961.546	3903.75
961.773	3952.75
962	3879.75
962.227	3900.75
962.454	3926.75
962.68	3836.75
962.907	3832.75
963.134	3825.75
963.36	3782.75
963.587	3821.75
963.813	3716.75
964.04	3800.75
964.266	3668.75
964.493	3785.75
964.719	3728.75
964.945	3709.75
965.171	3611.75
965.398	3638.75
965.624	3648.75
965.85	3556.75
966.076	3540.75
966.302	3558.75
966.528	3502.75
966.754	3544.75
966.98	3552.75
967.206	3512.75
967.431	3412.75
967.657	3529.75
967.883	3451.75
968.109	3446.75
968.334	3410.75
968.56	3430.75
968.785	3406.75
969.011	3362.75
969.236	3429.75
969.462	3340.75
969.687	3331.75
969.912	3388.75
970.138	3445.75
970.363	3321.75
970.588	3334.75
970.813	3293.75
971.038	3280.75
971.263	3286.75
971.488	3285.75
971.713	3312.75
971.938	3284.75
972.163	3137.75
972.388	3168.75
972.613	3197.75
972.838	3213.75
973.062	3141.75
973.287	3159.75
973.512	3096.75
973.736	3099.75
973.961	3091.75
974.185	3100.75
974.41	3113.75
974.634	2982.75
974.858	2993.75
975.083	3047.75
975.307	3049.75
975.531	2946.75
975.755	2897.75
975.98	2896.75
976.204	2858.75
976.428	2858.75
976.652	2854.75
976.876	2861.75
977.1	2855.75
977.324	2833.75
977.547	2873.75
977.771	2872.75
977.995	2794.75
978.219	2724.75
978.442	2864.75
978.666	2772.75
978.89	2814.75
979.113	2781.75
979.337	2759.75
979.56	2732.75
979.783	2814.75
980.007	2692.75
980.23	2726.75
980.453	2701.75
980.677	2684.75
980.9	2691.75
981.123	2595.75
981.346	2656.75
981.569	2631.75
981.792	2669.75
982.015	2612.75
982.238	2597.75
982.461	2585.75
982.684	2557.75
982.907	2514.75
983.129	2529.75
983.352	2545.75
983.575	2540.75
983.797	2512.75
984.02	2480.75
984.242	2458.75
984.465	2472.75
984.687	2490.75
984.91	2489.75
985.132	2455.75
985.354	2438.75
985.577	2422.75
985.799	2413.75
986.021	2315.75
986.243	2368.75
986.465	2386.75
986.687	2431.75
986.909	2463.75
987.131	2386.75
987.353	2324.75
987.575	2358.75
987.797	2300.75
988.019	2282.75
988.241	2340.75
988.462	2301.75
988.684	2344.75
988.906	2349.75
989.127	2405.75
989.349	2234.75
989.57	2293.75
989.792	2295.75
990.013	2312.75
990.234	2278.75
990.456	2337.75
990.677	2303.75
990.898	2261.75
991.119	2238.75
991.341	2275.75
991.562	2195.75
991.783	2240.75
992.004	2132.75
992.225	2118.75
992.446	2200.75
992.667	2112.75
992.887	2148.75
993.108	2063.75
993.329	2174.75
993.55	2111.75
993.77	2084.75
993.991	2036.75
994.212	2099.75
994.432	2063.75
994.653	2072.75
994.873	2057.75
995.093	1932.75
995.314	1986.75
995.534	2078.75
995.754	2073.75
995.975	2062.75
996.195	1961.75
996.415	2011.75
996.635	1966.75
996.855	1988.75
997.075	1968.75
997.295	1958.75
997.515	1943.75
997.735	1991.75
997.955	1938.75
998.174	1935.75
998.394	1937.75
998.614	1942.75
998.834	1920.75
999.053	1962.75
999.273	1950.75
999.492	1990.75
999.712	1928.75
999.931	1900.75
1000.151	1943.75
1000.37	1899.75
1000.589	1972.75
1000.809	1854.75
1001.028	1970.75
1001.247	1916.75
1001.466	1794.75
1001.685	1910.75
1001.904	1865.75
1002.123	1850.75
1002.342	1870.75
1002.561	1803.75
1002.78	1813.75
1002.999	1889.75
1003.218	1821.75
1003.436	1805.75
1003.655	1859.75
1003.874	1791.75
1004.092	1814.75
1004.311	1834.75
1004.53	1795.75
1004.748	1862.75
1004.966	1782.75
1005.185	1827.75
1005.403	1816.75
1005.622	1808.75
1005.84	1871.75
1006.058	1758.75
1006.276	1786.75
1006.494	2162.75
1006.712	1770.75
1006.931	1830.75
1007.149	1715.75
1007.367	1744.75
1007.584	1785.75
1007.802	1803.75
1008.02	1755.75
1008.238	1828.75
1008.456	1845.75
1008.673	1704.75
1008.891	1823.75
1009.109	1773.75
1009.326	1815.75
1009.544	1896.75
1009.761	1795.75
1009.979	1877.75
1010.196	1884.75
1010.413	2003.75
1010.631	2029.75
1010.848	2034.75
1011.065	2034.75
1011.282	2018.75
1011.5	1956.75
1011.717	2073.75
1011.934	1989.75
1012.151	2049.75
1012.368	2024.75
1012.585	1960.75
1012.801	2013.75
1013.018	1964.75
1013.235	1921.75
1013.452	1964.75
1013.669	1988.75
1013.885	1958.75
1014.102	1966.75
1014.318	1959.75
1014.535	1889.75
1014.751	1984.75
1014.968	1939.75
1015.184	1962.75
1015.401	1890.75
1015.617	1890.75
1015.833	1830.75
1016.049	1867.75
1016.266	1818.75
1016.482	1837.75
1016.698	1736.75
1016.914	1823.75
1017.13	1739.75
1017.346	1743.75
1017.562	1820.75
1017.778	1768.75
1017.993	1724.75
1018.209	1801.75
1018.425	1744.75
1018.641	1722.75
1018.856	1708.75
1019.072	1728.75
1019.288	1788.75
1019.503	1744.75
1019.719	1616.75
1019.934	1651.75
1020.149	1722.75
1020.365	1684.75
1020.58	1619.75
1020.795	1655.75
1021.011	1573.75
1021.226	1569.75
1021.441	1583.75
1021.656	1523.75
1021.871	1450.75
1022.086	1418.75
1022.301	1421.75
1022.516	1406.75
1022.731	1441.75
1022.946	1367.75
1023.16	1356.75
1023.375	1300.75
1023.59	1304.75
1023.804	1268.75
1024.019	1376.75
1024.234	1232.75
1024.448	1240.75
1024.663	1154.75
1024.877	1161.75
1025.092	1206.75
1025.306	1225.75
1025.52	1124.75
1025.734	1192.75
1025.949	1090.75
1026.163	1073.75
1026.377	1010.75
1026.591	1040.75
1026.805	979.75
1027.019	984.75
1027.233	911.75
1027.447	882.75
1027.661	960.75
1027.875	925.75
1028.088	900.75
1028.302	837.75
1028.516	830.75
1028.73	809.75
1028.943	807.75
1029.157	739.75
1029.37	693.75
1029.584	-4.25
1029.797	-0.25
1030.011	-3.25
1030.224	-2.25
