Data from QEP037381__528__17-36-07-570.txt Node

Date: Fri Dec 16 17:36:07 EST 2022
User: dcclab
Spectrometer: QEP03738
Trigger mode: 4
Integration Time (sec): 1.000000E1
Scans to average: 1
Electric dark correction enabled: true
Nonlinearity correction enabled: false
Boxcar width: 0
XAxis mode: Wavelengths
Number of Pixels in Spectrum: 1044
>>>>>Begin Spectral Data<<<<<
784.041	15.38
784.3	1.38
784.558	-0.62
784.817	-4.62
785.075	95920.38
785.334	16362.38
785.592	7634.38
785.851	5268.38
786.109	3949.38
786.368	3075.38
786.626	2471.38
786.884	2101.38
787.143	1733.38
787.401	1443.38
787.659	1318.38
787.917	1132.38
788.175	1054.38
788.433	925.38
788.691	824.38
788.949	786.38
789.207	729.38
789.465	650.38
789.723	637.38
789.98	560.38
790.238	623.38
790.496	581.38
790.753	546.38
791.011	614.38
791.268	538.38
791.526	530.38
791.783	550.38
792.041	530.38
792.298	431.38
792.556	499.38
792.813	487.38
793.07	462.38
793.327	451.38
793.584	530.38
793.841	448.38
794.099	474.38
794.356	515.38
794.613	443.38
794.869	484.38
795.126	442.38
795.383	436.38
795.64	450.38
795.897	398.38
796.153	444.38
796.41	447.38
796.667	447.38
796.923	430.38
797.18	431.38
797.436	465.38
797.693	428.38
797.949	480.38
798.206	521.38
798.462	439.38
798.718	478.38
798.974	468.38
799.231	519.38
799.487	505.38
799.743	513.38
799.999	537.38
800.255	544.38
800.511	522.38
800.767	570.38
801.023	551.38
801.279	630.38
801.534	646.38
801.79	706.38
802.046	755.38
802.302	886.38
802.557	1046.38
802.813	1290.38
803.068	1608.38
803.324	2237.38
803.579	3098.38
803.835	4364.38
804.09	6007.38
804.345	7896.38
804.601	10117.38
804.856	12350.38
805.111	14327.38
805.366	15840.38
805.621	17178.38
805.876	17987.38
806.131	18495.38
806.386	18794.38
806.641	19185.38
806.896	19507.38
807.151	19934.38
807.406	20255.38
807.661	20785.38
807.915	21135.38
808.17	21425.38
808.425	21774.38
808.679	21919.38
808.934	22248.38
809.188	22432.38
809.443	22662.38
809.697	23019.38
809.951	23132.38
810.206	23468.38
810.46	23641.38
810.714	23949.38
810.968	24038.38
811.223	24241.38
811.477	24528.38
811.731	24615.38
811.985	24830.38
812.239	24956.38
812.493	25172.38
812.747	25235.38
813	25225.38
813.254	25375.38
813.508	25508.38
813.762	25648.38
814.015	25870.38
814.269	26000.38
814.522	26197.38
814.776	26536.38
815.03	27059.38
815.283	27270.38
815.536	27848.38
815.79	28256.38
816.043	28848.38
816.296	29147.38
816.55	29499.38
816.803	29897.38
817.056	30375.38
817.309	30416.38
817.562	30898.38
817.815	31162.38
818.068	31529.38
818.321	31789.38
818.574	32307.38
818.827	32818.38
819.079	33145.38
819.332	33752.38
819.585	33986.38
819.838	34619.38
820.09	34643.38
820.343	34928.38
820.595	35257.38
820.848	35498.38
821.1	35591.38
821.353	35621.38
821.605	35521.38
821.857	35586.38
822.11	35510.38
822.362	35367.38
822.614	35318.38
822.866	35281.38
823.118	35347.38
823.37	35310.38
823.622	35598.38
823.874	35616.38
824.126	35803.38
824.378	35735.38
824.63	35925.38
824.882	35892.38
825.134	35865.38
825.385	35907.38
825.637	35825.38
825.888	35710.38
826.14	35540.38
826.392	35617.38
826.643	35294.38
826.895	35289.38
827.146	35169.38
827.397	35127.38
827.649	35126.38
827.9	34954.38
828.151	35093.38
828.402	35120.38
828.653	35184.38
828.905	35345.38
829.156	35302.38
829.407	35202.38
829.658	35280.38
829.909	35313.38
830.159	34977.38
830.41	34856.38
830.661	34800.38
830.912	34623.38
831.162	34548.38
831.413	34396.38
831.664	34381.38
831.914	34359.38
832.165	34331.38
832.415	34222.38
832.666	34340.38
832.916	34375.38
833.167	34223.38
833.417	34251.38
833.667	34248.38
833.917	33968.38
834.168	34010.38
834.418	33712.38
834.668	33664.38
834.918	33391.38
835.168	33362.38
835.418	33228.38
835.668	33211.38
835.918	33077.38
836.167	32991.38
836.417	32900.38
836.667	32855.38
836.917	32627.38
837.166	32572.38
837.416	32738.38
837.666	32636.38
837.915	32456.38
838.165	32499.38
838.414	32463.38
838.663	32140.38
838.913	32292.38
839.162	32178.38
839.411	32098.38
839.661	32003.38
839.91	31925.38
840.159	31689.38
840.408	31805.38
840.657	31733.38
840.906	31719.38
841.155	31796.38
841.404	31637.38
841.653	31683.38
841.902	31649.38
842.15	31728.38
842.399	31736.38
842.648	31637.38
842.897	31482.38
843.145	31326.38
843.394	31087.38
843.642	31044.38
843.891	30937.38
844.139	30596.38
844.388	30426.38
844.636	30337.38
844.884	30382.38
845.133	30225.38
845.381	30187.38
845.629	30222.38
845.877	30172.38
846.125	30006.38
846.373	29985.38
846.621	29934.38
846.869	29867.38
847.117	29639.38
847.365	29439.38
847.613	29325.38
847.861	29322.38
848.108	29015.38
848.356	29119.38
848.604	29035.38
848.851	28916.38
849.099	29052.38
849.346	29215.38
849.594	29154.38
849.841	29206.38
850.089	29285.38
850.336	29244.38
850.583	29216.38
850.831	29020.38
851.078	28952.38
851.325	28977.38
851.572	28926.38
851.819	28636.38
852.066	28103.38
852.313	27800.38
852.56	27486.38
852.807	27573.38
853.054	27352.38
853.301	27176.38
853.548	27270.38
853.794	27338.38
854.041	27457.38
854.288	27471.38
854.534	27746.38
854.781	27648.38
855.028	27518.38
855.274	27440.38
855.52	27298.38
855.767	27041.38
856.013	26986.38
856.26	27275.38
856.506	26667.38
856.752	26711.38
856.998	26741.38
857.244	26847.38
857.49	26897.38
857.736	26937.38
857.982	26841.38
858.228	26799.38
858.474	26626.38
858.72	26526.38
858.966	26278.38
859.212	25954.38
859.458	25845.38
859.703	25352.38
859.949	25195.38
860.195	25041.38
860.44	24822.38
860.686	24723.38
860.931	24792.38
861.177	24524.38
861.422	24570.38
861.667	24367.38
861.913	24441.38
862.158	24419.38
862.403	24550.38
862.648	24678.38
862.893	24574.38
863.138	24516.38
863.384	24499.38
863.629	24505.38
863.873	24455.38
864.118	24312.38
864.363	24152.38
864.608	24122.38
864.853	24094.38
865.098	23847.38
865.342	23818.38
865.587	23656.38
865.832	23711.38
866.076	23541.38
866.321	23482.38
866.565	23342.38
866.81	23292.38
867.054	23232.38
867.298	23125.38
867.543	22988.38
867.787	22934.38
868.031	22984.38
868.275	22839.38
868.519	22872.38
868.764	22681.38
869.008	22651.38
869.252	22582.38
869.496	22503.38
869.739	22467.38
869.983	22442.38
870.227	22446.38
870.471	22319.38
870.715	22422.38
870.958	22427.38
871.202	22453.38
871.446	22542.38
871.689	22458.38
871.933	22414.38
872.176	22372.38
872.42	22417.38
872.663	22243.38
872.906	22150.38
873.15	22013.38
873.393	21992.38
873.636	21746.38
873.879	21538.38
874.122	21358.38
874.366	21211.38
874.609	20973.38
874.852	20883.38
875.095	20721.38
875.337	20651.38
875.58	20547.38
875.823	20486.38
876.066	20520.38
876.309	20431.38
876.551	20253.38
876.794	20122.38
877.037	20143.38
877.279	19999.38
877.522	19910.38
877.764	19992.38
878.007	20027.38
878.249	20046.38
878.491	19867.38
878.734	19965.38
878.976	19886.38
879.218	19805.38
879.46	19708.38
879.702	19465.38
879.945	19429.38
880.187	19182.38
880.429	19046.38
880.671	18859.38
880.912	19007.38
881.154	18851.38
881.396	18788.38
881.638	18704.38
881.88	18716.38
882.121	18696.38
882.363	18597.38
882.605	18533.38
882.846	18519.38
883.088	18417.38
883.329	18322.38
883.571	18240.38
883.812	18372.38
884.053	18527.38
884.295	18641.38
884.536	18806.38
884.777	18587.38
885.018	18549.38
885.259	18543.38
885.5	18526.38
885.742	18754.38
885.982	18367.38
886.223	18175.38
886.464	18089.38
886.705	17974.38
886.946	17873.38
887.187	17607.38
887.428	17618.38
887.668	17282.38
887.909	17168.38
888.15	16960.38
888.39	16909.38
888.631	16839.38
888.871	16683.38
889.111	16554.38
889.352	16444.38
889.592	16368.38
889.833	16206.38
890.073	15977.38
890.313	16096.38
890.553	15908.38
890.793	15785.38
891.033	15705.38
891.273	15538.38
891.513	15545.38
891.753	15550.38
891.993	15523.38
892.233	15447.38
892.473	15625.38
892.713	15585.38
892.952	15519.38
893.192	15545.38
893.432	15437.38
893.671	15412.38
893.911	15405.38
894.15	15299.38
894.39	15127.38
894.629	15115.38
894.869	15005.38
895.108	14899.38
895.347	14785.38
895.587	14779.38
895.826	14671.38
896.065	14677.38
896.304	14651.38
896.543	14706.38
896.782	14578.38
897.021	14544.38
897.26	14413.38
897.499	14516.38
897.738	14471.38
897.977	14389.38
898.216	14186.38
898.454	14034.38
898.693	13964.38
898.932	13972.38
899.17	13838.38
899.409	13747.38
899.647	13713.38
899.886	13697.38
900.124	13739.38
900.363	13699.38
900.601	13706.38
900.839	13693.38
901.078	13728.38
901.316	13623.38
901.554	13803.38
901.792	13834.38
902.03	13736.38
902.268	13758.38
902.506	13760.38
902.744	13643.38
902.982	13559.38
903.22	13364.38
903.458	13104.38
903.695	13068.38
903.933	12871.38
904.171	12688.38
904.409	12528.38
904.646	12358.38
904.884	12108.38
905.121	12206.38
905.359	11970.38
905.596	11875.38
905.833	11788.38
906.071	11662.38
906.308	11675.38
906.545	11613.38
906.783	11558.38
907.02	11591.38
907.257	11514.38
907.494	11464.38
907.731	11447.38
907.968	11361.38
908.205	11232.38
908.442	11221.38
908.679	11171.38
908.915	11069.38
909.152	10950.38
909.389	10897.38
909.626	10809.38
909.862	10708.38
910.099	10674.38
910.335	10734.38
910.572	10551.38
910.808	10529.38
911.045	10440.38
911.281	10446.38
911.518	10455.38
911.754	10391.38
911.99	10293.38
912.226	10211.38
912.463	10079.38
912.699	10077.38
912.935	10004.38
913.171	9887.38
913.407	9808.38
913.643	9722.38
913.879	9620.38
914.114	9501.38
914.35	9563.38
914.586	9398.38
914.822	9286.38
915.057	9244.38
915.293	9175.38
915.529	9089.38
915.764	9150.38
916	9174.38
916.235	9076.38
916.471	9090.38
916.706	8914.38
916.941	9014.38
917.177	8957.38
917.412	8957.38
917.647	8952.38
917.882	8925.38
918.117	8884.38
918.352	8848.38
918.588	8857.38
918.823	8714.38
919.057	8649.38
919.292	8506.38
919.527	8537.38
919.762	8391.38
919.997	8378.38
920.232	8251.38
920.466	8225.38
920.701	8051.38
920.935	8011.38
921.17	7946.38
921.405	7900.38
921.639	7963.38
921.873	7863.38
922.108	7820.38
922.342	7843.38
922.576	7816.38
922.811	7723.38
923.045	7771.38
923.279	7767.38
923.513	7583.38
923.747	7621.38
923.981	7591.38
924.215	7544.38
924.449	7466.38
924.683	7379.38
924.917	7343.38
925.151	7295.38
925.385	7293.38
925.618	7215.38
925.852	7253.38
926.086	7160.38
926.319	7186.38
926.553	7218.38
926.786	7219.38
927.02	7203.38
927.253	7149.38
927.486	7215.38
927.72	7085.38
927.953	7115.38
928.186	7050.38
928.42	7129.38
928.653	6934.38
928.886	7004.38
929.119	6963.38
929.352	6914.38
929.585	6890.38
929.818	6785.38
930.051	6780.38
930.284	6709.38
930.516	6590.38
930.749	6558.38
930.982	6535.38
931.215	6513.38
931.447	6467.38
931.68	6421.38
931.912	6438.38
932.145	6370.38
932.377	6422.38
932.61	6548.38
932.842	6363.38
933.074	6456.38
933.307	6290.38
933.539	6453.38
933.771	6430.38
934.003	6349.38
934.236	6435.38
934.468	6493.38
934.7	6320.38
934.932	6329.38
935.164	6302.38
935.395	6247.38
935.627	6227.38
935.859	6200.38
936.091	6144.38
936.323	6150.38
936.554	6182.38
936.786	6099.38
937.017	6013.38
937.249	6077.38
937.481	6014.38
937.712	6043.38
937.943	6060.38
938.175	5953.38
938.406	5960.38
938.637	6012.38
938.869	5917.38
939.1	5980.38
939.331	5937.38
939.562	5922.38
939.793	5851.38
940.024	5856.38
940.255	5843.38
940.486	5788.38
940.717	5765.38
940.948	5708.38
941.179	5685.38
941.409	5751.38
941.64	5637.38
941.871	5694.38
942.102	5628.38
942.332	5660.38
942.563	5691.38
942.793	5647.38
943.024	5582.38
943.254	5643.38
943.484	5608.38
943.715	5660.38
943.945	5605.38
944.175	5559.38
944.405	5500.38
944.636	5555.38
944.866	5528.38
945.096	5582.38
945.326	5453.38
945.556	5555.38
945.786	5492.38
946.016	5426.38
946.245	5372.38
946.475	5363.38
946.705	5310.38
946.935	5315.38
947.164	5276.38
947.394	5210.38
947.624	5229.38
947.853	5225.38
948.083	5145.38
948.312	5137.38
948.542	5081.38
948.771	5034.38
949	5064.38
949.23	5013.38
949.459	5069.38
949.688	5059.38
949.917	5053.38
950.146	5020.38
950.375	5070.38
950.604	4952.38
950.833	5044.38
951.062	5034.38
951.291	4984.38
951.52	4937.38
951.749	4970.38
951.978	4872.38
952.206	4911.38
952.435	4858.38
952.664	4891.38
952.892	4870.38
953.121	4842.38
953.349	4847.38
953.578	4829.38
953.806	4753.38
954.035	4711.38
954.263	4712.38
954.491	4651.38
954.719	4728.38
954.948	4652.38
955.176	4596.38
955.404	4554.38
955.632	4573.38
955.86	4569.38
956.088	4573.38
956.316	4550.38
956.544	4547.38
956.772	4441.38
956.999	4413.38
957.227	4525.38
957.455	4350.38
957.683	4458.38
957.91	4343.38
958.138	4298.38
958.365	4274.38
958.593	4274.38
958.82	4228.38
959.048	4264.38
959.275	4236.38
959.502	4229.38
959.73	4145.38
959.957	4197.38
960.184	4250.38
960.411	4182.38
960.638	4223.38
960.865	4168.38
961.092	4178.38
961.319	4044.38
961.546	4173.38
961.773	4157.38
962	4116.38
962.227	4153.38
962.454	4077.38
962.68	4070.38
962.907	4064.38
963.134	3994.38
963.36	4059.38
963.587	4006.38
963.813	3942.38
964.04	3937.38
964.266	3884.38
964.493	3971.38
964.719	3885.38
964.945	3902.38
965.171	3801.38
965.398	3811.38
965.624	3810.38
965.85	3748.38
966.076	3756.38
966.302	3726.38
966.528	3726.38
966.754	3719.38
966.98	3708.38
967.206	3704.38
967.431	3625.38
967.657	3727.38
967.883	3658.38
968.109	3662.38
968.334	3581.38
968.56	3564.38
968.785	3585.38
969.011	3494.38
969.236	3587.38
969.462	3539.38
969.687	3502.38
969.912	3531.38
970.138	3560.38
970.363	3507.38
970.588	3509.38
970.813	3465.38
971.038	3421.38
971.263	3502.38
971.488	3444.38
971.713	3450.38
971.938	3411.38
972.163	3321.38
972.388	3352.38
972.613	3321.38
972.838	3323.38
973.062	3305.38
973.287	3296.38
973.512	3244.38
973.736	3256.38
973.961	3216.38
974.185	3208.38
974.41	3230.38
974.634	3162.38
974.858	3130.38
975.083	3157.38
975.307	3149.38
975.531	3085.38
975.755	3071.38
975.98	3035.38
976.204	3020.38
976.428	2972.38
976.652	2975.38
976.876	2993.38
977.1	2995.38
977.324	2943.38
977.547	2992.38
977.771	2952.38
977.995	2972.38
978.219	2905.38
978.442	2976.38
978.666	2950.38
978.89	2916.38
979.113	2908.38
979.337	2933.38
979.56	2860.38
979.783	2906.38
980.007	2802.38
980.23	2855.38
980.453	2825.38
980.677	2836.38
980.9	2832.38
981.123	2709.38
981.346	2817.38
981.569	2806.38
981.792	2772.38
982.015	2722.38
982.238	2689.38
982.461	2704.38
982.684	2666.38
982.907	2673.38
983.129	2634.38
983.352	2625.38
983.575	2651.38
983.797	2652.38
984.02	2562.38
984.242	2576.38
984.465	2587.38
984.687	2601.38
984.91	2607.38
985.132	2546.38
985.354	2582.38
985.577	2526.38
985.799	2523.38
986.021	2461.38
986.243	2465.38
986.465	2483.38
986.687	2527.38
986.909	2576.38
987.131	2499.38
987.353	2448.38
987.575	2455.38
987.797	2437.38
988.019	2335.38
988.241	2409.38
988.462	2355.38
988.684	2406.38
988.906	2430.38
989.127	2433.38
989.349	2362.38
989.57	2381.38
989.792	2379.38
990.013	2424.38
990.234	2411.38
990.456	2451.38
990.677	2392.38
990.898	2336.38
991.119	2279.38
991.341	2344.38
991.562	2300.38
991.783	2299.38
992.004	2239.38
992.225	2222.38
992.446	2277.38
992.667	2182.38
992.887	2233.38
993.108	2105.38
993.329	2299.38
993.55	2190.38
993.77	2099.38
993.991	2132.38
994.212	2164.38
994.432	2128.38
994.653	2139.38
994.873	2134.38
995.093	2017.38
995.314	2075.38
995.534	2121.38
995.754	2120.38
995.975	2118.38
996.195	2056.38
996.415	2065.38
996.635	2059.38
996.855	2059.38
997.075	2030.38
997.295	2017.38
997.515	2004.38
997.735	2074.38
997.955	2003.38
998.174	2010.38
998.394	1975.38
998.614	2039.38
998.834	1975.38
999.053	2047.38
999.273	2012.38
999.492	2063.38
999.712	2001.38
999.931	1957.38
1000.151	2021.38
1000.37	1988.38
1000.589	1986.38
1000.809	1958.38
1001.028	2035.38
1001.247	1975.38
1001.466	1865.38
1001.685	2006.38
1001.904	1901.38
1002.123	1895.38
1002.342	1907.38
1002.561	1855.38
1002.78	1895.38
1002.999	1950.38
1003.218	1887.38
1003.436	1846.38
1003.655	1895.38
1003.874	1805.38
1004.092	1835.38
1004.311	1865.38
1004.53	1821.38
1004.748	1921.38
1004.966	1836.38
1005.185	1872.38
1005.403	1869.38
1005.622	1815.38
1005.84	1898.38
1006.058	1801.38
1006.276	1817.38
1006.494	2183.38
1006.712	1791.38
1006.931	1878.38
1007.149	1786.38
1007.367	1798.38
1007.584	1849.38
1007.802	1843.38
1008.02	1789.38
1008.238	1884.38
1008.456	1883.38
1008.673	1756.38
1008.891	1866.38
1009.109	1806.38
1009.326	1824.38
1009.544	1918.38
1009.761	1817.38
1009.979	1902.38
1010.196	1903.38
1010.413	2000.38
1010.631	2039.38
1010.848	2047.38
1011.065	2060.38
1011.282	2004.38
1011.5	1952.38
1011.717	2047.38
1011.934	2014.38
1012.151	2010.38
1012.368	2026.38
1012.585	1969.38
1012.801	1991.38
1013.018	1962.38
1013.235	1940.38
1013.452	1943.38
1013.669	1959.38
1013.885	1937.38
1014.102	1960.38
1014.318	1946.38
1014.535	1878.38
1014.751	1934.38
1014.968	1913.38
1015.184	1951.38
1015.401	1864.38
1015.617	1910.38
1015.833	1819.38
1016.049	1833.38
1016.266	1830.38
1016.482	1838.38
1016.698	1757.38
1016.914	1795.38
1017.13	1754.38
1017.346	1728.38
1017.562	1808.38
1017.778	1755.38
1017.993	1704.38
1018.209	1762.38
1018.425	1730.38
1018.641	1684.38
1018.856	1683.38
1019.072	1711.38
1019.288	1726.38
1019.503	1681.38
1019.719	1607.38
1019.934	1632.38
1020.149	1689.38
1020.365	1647.38
1020.58	1603.38
1020.795	1634.38
1021.011	1573.38
1021.226	1554.38
1021.441	1569.38
1021.656	1462.38
1021.871	1412.38
1022.086	1414.38
1022.301	1420.38
1022.516	1389.38
1022.731	1402.38
1022.946	1344.38
1023.16	1342.38
1023.375	1316.38
1023.59	1283.38
1023.804	1243.38
1024.019	1341.38
1024.234	1230.38
1024.448	1253.38
1024.663	1177.38
1024.877	1175.38
1025.092	1183.38
1025.306	1206.38
1025.52	1097.38
1025.734	1182.38
1025.949	1088.38
1026.163	1082.38
1026.377	1007.38
1026.591	1048.38
1026.805	980.38
1027.019	982.38
1027.233	933.38
1027.447	890.38
1027.661	976.38
1027.875	893.38
1028.088	920.38
1028.302	850.38
1028.516	835.38
1028.73	829.38
1028.943	803.38
1029.157	751.38
1029.37	724.38
1029.584	-1.62
1029.797	-2.62
1030.011	-4.62
1030.224	-2.62
