Data from QEP037381__59__13-31-01-035.txt Node

Date: Wed Dec 21 13:31:01 EST 2022
User: dcclab
Spectrometer: QEP03738
Trigger mode: 4
Integration Time (sec): 1.000000E1
Scans to average: 1
Electric dark correction enabled: true
Nonlinearity correction enabled: false
Boxcar width: 0
XAxis mode: Wavelengths
Number of Pixels in Spectrum: 1044
>>>>>Begin Spectral Data<<<<<
784.041	12.62
784.3	0.62
784.558	-1.38
784.817	-2.38
785.075	91685.62
785.334	15927.62
785.592	7481.62
785.851	5163.62
786.109	3912.62
786.368	3070.62
786.626	2468.62
786.884	2026.62
787.143	1703.62
787.401	1429.62
787.659	1308.62
787.917	1105.62
788.175	1028.62
788.433	876.62
788.691	814.62
788.949	763.62
789.207	708.62
789.465	631.62
789.723	607.62
789.98	563.62
790.238	596.62
790.496	551.62
790.753	537.62
791.011	578.62
791.268	506.62
791.526	499.62
791.783	508.62
792.041	488.62
792.298	401.62
792.556	471.62
792.813	460.62
793.07	435.62
793.327	421.62
793.584	488.62
793.841	422.62
794.099	451.62
794.356	496.62
794.613	392.62
794.869	425.62
795.126	398.62
795.383	377.62
795.64	396.62
795.897	348.62
796.153	406.62
796.41	396.62
796.667	384.62
796.923	382.62
797.18	375.62
797.436	404.62
797.693	376.62
797.949	423.62
798.206	457.62
798.462	352.62
798.718	437.62
798.974	386.62
799.231	442.62
799.487	404.62
799.743	409.62
799.999	439.62
800.255	436.62
800.511	419.62
800.767	449.62
801.023	412.62
801.279	440.62
801.534	466.62
801.79	496.62
802.046	493.62
802.302	589.62
802.557	636.62
802.813	738.62
803.068	841.62
803.324	1107.62
803.579	1389.62
803.835	1834.62
804.09	2496.62
804.345	3133.62
804.601	3836.62
804.856	4575.62
805.111	5273.62
805.366	5731.62
805.621	6155.62
805.876	6361.62
806.131	6554.62
806.386	6640.62
806.641	6712.62
806.896	6793.62
807.151	6990.62
807.406	7044.62
807.661	7170.62
807.915	7278.62
808.17	7479.62
808.425	7471.62
808.679	7551.62
808.934	7672.62
809.188	7636.62
809.443	7837.62
809.697	7854.62
809.951	7957.62
810.206	7975.62
810.46	8095.62
810.714	8205.62
810.968	8249.62
811.223	8314.62
811.477	8442.62
811.731	8486.62
811.985	8474.62
812.239	8437.62
812.493	8427.62
812.747	8461.62
813	8495.62
813.254	8562.62
813.508	8722.62
813.762	8712.62
814.015	8675.62
814.269	8762.62
814.522	8802.62
814.776	8886.62
815.03	9051.62
815.283	9130.62
815.536	9277.62
815.79	9457.62
816.043	9559.62
816.296	9689.62
816.55	9719.62
816.803	9880.62
817.056	10090.62
817.309	10129.62
817.562	10220.62
817.815	10355.62
818.068	10373.62
818.321	10396.62
818.574	10650.62
818.827	10740.62
819.079	10879.62
819.332	11263.62
819.585	11284.62
819.838	11513.62
820.09	11367.62
820.343	11384.62
820.595	11431.62
820.848	11541.62
821.1	11541.62
821.353	11585.62
821.605	11545.62
821.857	11546.62
822.11	11429.62
822.362	11462.62
822.614	11424.62
822.866	11477.62
823.118	11396.62
823.37	11542.62
823.622	11567.62
823.874	11618.62
824.126	11717.62
824.378	11614.62
824.63	11631.62
824.882	11708.62
825.134	11657.62
825.385	11580.62
825.637	11537.62
825.888	11443.62
826.14	11503.62
826.392	11421.62
826.643	11310.62
826.895	11370.62
827.146	11185.62
827.397	11193.62
827.649	11300.62
827.9	11165.62
828.151	11227.62
828.402	11270.62
828.653	11289.62
828.905	11390.62
829.156	11414.62
829.407	11412.62
829.658	11487.62
829.909	11650.62
830.159	11769.62
830.41	11742.62
830.661	11627.62
830.912	11409.62
831.162	11398.62
831.413	11475.62
831.664	11493.62
831.914	11451.62
832.165	11451.62
832.415	11305.62
832.666	11292.62
832.916	11424.62
833.167	11313.62
833.417	11355.62
833.667	11306.62
833.917	11338.62
834.168	11309.62
834.418	11304.62
834.668	11248.62
834.918	11152.62
835.168	11124.62
835.418	11112.62
835.668	11052.62
835.918	11077.62
836.167	10946.62
836.417	10888.62
836.667	10963.62
836.917	11005.62
837.166	10934.62
837.416	11049.62
837.666	11139.62
837.915	11061.62
838.165	10990.62
838.414	10918.62
838.663	10984.62
838.913	11082.62
839.162	10956.62
839.411	11091.62
839.661	11018.62
839.91	11022.62
840.159	10969.62
840.408	11120.62
840.657	11177.62
840.906	11078.62
841.155	11197.62
841.404	11002.62
841.653	11130.62
841.902	11093.62
842.15	11269.62
842.399	11264.62
842.648	11249.62
842.897	11223.62
843.145	11093.62
843.394	11040.62
843.642	11002.62
843.891	10929.62
844.139	10779.62
844.388	10622.62
844.636	10541.62
844.884	10670.62
845.133	10711.62
845.381	10701.62
845.629	10724.62
845.877	10652.62
846.125	10690.62
846.373	10766.62
846.621	10667.62
846.869	10628.62
847.117	10593.62
847.365	10416.62
847.613	10420.62
847.861	10404.62
848.108	10671.62
848.356	10601.62
848.604	10474.62
848.851	10482.62
849.099	10539.62
849.346	10601.62
849.594	10608.62
849.841	10606.62
850.089	10743.62
850.336	10807.62
850.583	10809.62
850.831	10759.62
851.078	10685.62
851.325	10710.62
851.572	10904.62
851.819	10766.62
852.066	10426.62
852.313	10192.62
852.56	10048.62
852.807	10109.62
853.054	10074.62
853.301	10159.62
853.548	10146.62
853.794	10228.62
854.041	10339.62
854.288	10401.62
854.534	10457.62
854.781	10499.62
855.028	10411.62
855.274	10542.62
855.52	10471.62
855.767	10535.62
856.013	10718.62
856.26	10995.62
856.506	10530.62
856.752	10450.62
856.998	10428.62
857.244	10480.62
857.49	10558.62
857.736	10549.62
857.982	10583.62
858.228	10484.62
858.474	10323.62
858.72	10246.62
858.966	10106.62
859.212	9977.62
859.458	9839.62
859.703	9786.62
859.949	9537.62
860.195	9706.62
860.44	9637.62
860.686	9604.62
860.931	9752.62
861.177	9521.62
861.422	9419.62
861.667	9258.62
861.913	9239.62
862.158	9267.62
862.403	9252.62
862.648	9184.62
862.893	9357.62
863.138	9283.62
863.384	9246.62
863.629	9253.62
863.873	9222.62
864.118	9210.62
864.363	9193.62
864.608	9196.62
864.853	9148.62
865.098	9058.62
865.342	9025.62
865.587	8954.62
865.832	9005.62
866.076	9043.62
866.321	9034.62
866.565	8956.62
866.81	8909.62
867.054	8901.62
867.298	8863.62
867.543	8827.62
867.787	8907.62
868.031	8834.62
868.275	8920.62
868.519	8906.62
868.764	8917.62
869.008	8906.62
869.252	8980.62
869.496	8992.62
869.739	9000.62
869.983	9092.62
870.227	9139.62
870.471	9143.62
870.715	9258.62
870.958	9364.62
871.202	9377.62
871.446	9365.62
871.689	9435.62
871.933	9401.62
872.176	9397.62
872.42	9374.62
872.663	9345.62
872.906	9388.62
873.15	9503.62
873.393	9672.62
873.636	9788.62
873.879	9624.62
874.122	9446.62
874.366	9173.62
874.609	9057.62
874.852	8878.62
875.095	8757.62
875.337	8674.62
875.58	8548.62
875.823	8611.62
876.066	8614.62
876.309	8598.62
876.551	8432.62
876.794	8390.62
877.037	8417.62
877.279	8295.62
877.522	8298.62
877.764	8382.62
878.007	8252.62
878.249	8243.62
878.491	8147.62
878.734	8148.62
878.976	8110.62
879.218	8010.62
879.46	8026.62
879.702	8002.62
879.945	7831.62
880.187	7762.62
880.429	7733.62
880.671	7720.62
880.912	7671.62
881.154	7603.62
881.396	7617.62
881.638	7663.62
881.88	7715.62
882.121	7575.62
882.363	7664.62
882.605	7762.62
882.846	7778.62
883.088	7839.62
883.329	7901.62
883.571	8073.62
883.812	8453.62
884.053	8994.62
884.295	9457.62
884.536	9911.62
884.777	9720.62
885.018	9590.62
885.259	9410.62
885.5	9211.62
885.742	9385.62
885.982	9081.62
886.223	8939.62
886.464	8834.62
886.705	8549.62
886.946	8417.62
887.187	8000.62
887.428	7876.62
887.668	7551.62
887.909	7380.62
888.15	7225.62
888.39	7121.62
888.631	7083.62
888.871	6976.62
889.111	6841.62
889.352	6764.62
889.592	6719.62
889.833	6672.62
890.073	6599.62
890.313	6678.62
890.553	6500.62
890.793	6430.62
891.033	6462.62
891.273	6392.62
891.513	6382.62
891.753	6422.62
891.993	6378.62
892.233	6366.62
892.473	6489.62
892.713	6474.62
892.952	6429.62
893.192	6385.62
893.432	6444.62
893.671	6503.62
893.911	6417.62
894.15	6412.62
894.39	6244.62
894.629	6245.62
894.869	6317.62
895.108	6272.62
895.347	6184.62
895.587	6248.62
895.826	6139.62
896.065	6190.62
896.304	6222.62
896.543	6268.62
896.782	6135.62
897.021	6201.62
897.26	6140.62
897.499	6250.62
897.738	6231.62
897.977	6198.62
898.216	6151.62
898.454	6106.62
898.693	6094.62
898.932	6132.62
899.17	6064.62
899.409	6095.62
899.647	6111.62
899.886	6071.62
900.124	6175.62
900.363	6130.62
900.601	6253.62
900.839	6287.62
901.078	6376.62
901.316	6495.62
901.554	6664.62
901.792	6760.62
902.03	6716.62
902.268	6758.62
902.506	6813.62
902.744	6661.62
902.982	6662.62
903.22	6421.62
903.458	6238.62
903.695	6105.62
903.933	5918.62
904.171	5713.62
904.409	5595.62
904.646	5510.62
904.884	5379.62
905.121	5392.62
905.359	5355.62
905.596	5234.62
905.833	5128.62
906.071	5092.62
906.308	5146.62
906.545	5109.62
906.783	4985.62
907.02	5024.62
907.257	4970.62
907.494	4997.62
907.731	4965.62
907.968	4980.62
908.205	4932.62
908.442	4886.62
908.679	4879.62
908.915	4885.62
909.152	4766.62
909.389	4684.62
909.626	4655.62
909.862	4646.62
910.099	4651.62
910.335	4644.62
910.572	4577.62
910.808	4573.62
911.045	4546.62
911.281	4496.62
911.518	4554.62
911.754	4507.62
911.99	4479.62
912.226	4417.62
912.463	4371.62
912.699	4368.62
912.935	4360.62
913.171	4293.62
913.407	4232.62
913.643	4241.62
913.879	4199.62
914.114	4220.62
914.35	4127.62
914.586	4112.62
914.822	4090.62
915.057	4149.62
915.293	4012.62
915.529	3982.62
915.764	4059.62
916	3993.62
916.235	4020.62
916.471	4040.62
916.706	3925.62
916.941	3940.62
917.177	3932.62
917.412	3971.62
917.647	3995.62
917.882	3933.62
918.117	3968.62
918.352	3982.62
918.588	3954.62
918.823	3832.62
919.057	3852.62
919.292	3762.62
919.527	3862.62
919.762	3774.62
919.997	3788.62
920.232	3725.62
920.466	3728.62
920.701	3609.62
920.935	3605.62
921.17	3600.62
921.405	3537.62
921.639	3605.62
921.873	3568.62
922.108	3587.62
922.342	3592.62
922.576	3491.62
922.811	3537.62
923.045	3533.62
923.279	3557.62
923.513	3436.62
923.747	3542.62
923.981	3487.62
924.215	3414.62
924.449	3379.62
924.683	3358.62
924.917	3333.62
925.151	3313.62
925.385	3405.62
925.618	3376.62
925.852	3348.62
926.086	3302.62
926.319	3346.62
926.553	3320.62
926.786	3350.62
927.02	3298.62
927.253	3363.62
927.486	3334.62
927.72	3279.62
927.953	3293.62
928.186	3274.62
928.42	3318.62
928.653	3282.62
928.886	3250.62
929.119	3283.62
929.352	3295.62
929.585	3245.62
929.818	3148.62
930.051	3195.62
930.284	3159.62
930.516	3088.62
930.749	3112.62
930.982	3129.62
931.215	3118.62
931.447	3069.62
931.68	3102.62
931.912	3053.62
932.145	3065.62
932.377	3094.62
932.61	3164.62
932.842	2985.62
933.074	3095.62
933.307	3038.62
933.539	3119.62
933.771	3123.62
934.003	3060.62
934.236	3109.62
934.468	3147.62
934.7	3004.62
934.932	3096.62
935.164	3034.62
935.395	3002.62
935.627	3012.62
935.859	3069.62
936.091	2982.62
936.323	3024.62
936.554	3037.62
936.786	3052.62
937.017	2946.62
937.249	2956.62
937.481	2873.62
937.712	3006.62
937.943	2923.62
938.175	2959.62
938.406	2902.62
938.637	3013.62
938.869	2918.62
939.1	2986.62
939.331	2876.62
939.562	2936.62
939.793	2895.62
940.024	2904.62
940.255	2960.62
940.486	2884.62
940.717	2858.62
940.948	2863.62
941.179	2829.62
941.409	2834.62
941.64	2832.62
941.871	2866.62
942.102	2799.62
942.332	2853.62
942.563	2866.62
942.793	2818.62
943.024	2795.62
943.254	2838.62
943.484	2886.62
943.715	2885.62
943.945	2840.62
944.175	2777.62
944.405	2750.62
944.636	2774.62
944.866	2817.62
945.096	2815.62
945.326	2754.62
945.556	2819.62
945.786	2825.62
946.016	2803.62
946.245	2698.62
946.475	2711.62
946.705	2731.62
946.935	2739.62
947.164	2718.62
947.394	2642.62
947.624	2639.62
947.853	2704.62
948.083	2654.62
948.312	2654.62
948.542	2582.62
948.771	2568.62
949	2596.62
949.23	2616.62
949.459	2611.62
949.688	2652.62
949.917	2577.62
950.146	2613.62
950.375	2628.62
950.604	2572.62
950.833	2655.62
951.062	2653.62
951.291	2583.62
951.52	2578.62
951.749	2568.62
951.978	2509.62
952.206	2551.62
952.435	2536.62
952.664	2578.62
952.892	2600.62
953.121	2542.62
953.349	2571.62
953.578	2519.62
953.806	2500.62
954.035	2465.62
954.263	2477.62
954.491	2478.62
954.719	2515.62
954.948	2429.62
955.176	2455.62
955.404	2336.62
955.632	2432.62
955.86	2408.62
956.088	2426.62
956.316	2449.62
956.544	2437.62
956.772	2343.62
956.999	2377.62
957.227	2467.62
957.455	2328.62
957.683	2365.62
957.91	2264.62
958.138	2315.62
958.365	2324.62
958.593	2310.62
958.82	2234.62
959.048	2301.62
959.275	2301.62
959.502	2282.62
959.73	2260.62
959.957	2315.62
960.184	2302.62
960.411	2258.62
960.638	2310.62
960.865	2264.62
961.092	2285.62
961.319	2196.62
961.546	2287.62
961.773	2290.62
962	2234.62
962.227	2283.62
962.454	2283.62
962.68	2230.62
962.907	2252.62
963.134	2212.62
963.36	2219.62
963.587	2232.62
963.813	2127.62
964.04	2214.62
964.266	2133.62
964.493	2224.62
964.719	2182.62
964.945	2208.62
965.171	2062.62
965.398	2147.62
965.624	2177.62
965.85	2102.62
966.076	2068.62
966.302	2133.62
966.528	2099.62
966.754	2146.62
966.98	2087.62
967.206	2121.62
967.431	2032.62
967.657	2115.62
967.883	2100.62
968.109	2087.62
968.334	2065.62
968.56	2046.62
968.785	2033.62
969.011	2000.62
969.236	2042.62
969.462	1983.62
969.687	1998.62
969.912	2039.62
970.138	2056.62
970.363	1966.62
970.588	2021.62
970.813	1982.62
971.038	1955.62
971.263	1975.62
971.488	2004.62
971.713	2008.62
971.938	2000.62
972.163	1913.62
972.388	1919.62
972.613	1919.62
972.838	1951.62
973.062	1922.62
973.287	1924.62
973.512	1860.62
973.736	1929.62
973.961	1860.62
974.185	1868.62
974.41	1895.62
974.634	1811.62
974.858	1843.62
975.083	1870.62
975.307	1883.62
975.531	1821.62
975.755	1784.62
975.98	1820.62
976.204	1708.62
976.428	1734.62
976.652	1768.62
976.876	1744.62
977.1	1761.62
977.324	1714.62
977.547	1807.62
977.771	1751.62
977.995	1753.62
978.219	1687.62
978.442	1791.62
978.666	1755.62
978.89	1747.62
979.113	1732.62
979.337	1723.62
979.56	1707.62
979.783	1785.62
980.007	1718.62
980.23	1715.62
980.453	1684.62
980.677	1729.62
980.9	1697.62
981.123	1606.62
981.346	1710.62
981.569	1698.62
981.792	1703.62
982.015	1658.62
982.238	1667.62
982.461	1685.62
982.684	1652.62
982.907	1608.62
983.129	1611.62
983.352	1659.62
983.575	1635.62
983.797	1637.62
984.02	1584.62
984.242	1602.62
984.465	1600.62
984.687	1638.62
984.91	1675.62
985.132	1640.62
985.354	1662.62
985.577	1601.62
985.799	1616.62
986.021	1539.62
986.243	1596.62
986.465	1557.62
986.687	1596.62
986.909	1656.62
987.131	1599.62
987.353	1555.62
987.575	1598.62
987.797	1578.62
988.019	1518.62
988.241	1568.62
988.462	1519.62
988.684	1576.62
988.906	1616.62
989.127	1651.62
989.349	1504.62
989.57	1551.62
989.792	1596.62
990.013	1573.62
990.234	1630.62
990.456	1661.62
990.677	1622.62
990.898	1548.62
991.119	1545.62
991.341	1582.62
991.562	1519.62
991.783	1554.62
992.004	1519.62
992.225	1478.62
992.446	1555.62
992.667	1472.62
992.887	1528.62
993.108	1411.62
993.329	1583.62
993.55	1508.62
993.77	1433.62
993.991	1457.62
994.212	1496.62
994.432	1474.62
994.653	1506.62
994.873	1477.62
995.093	1405.62
995.314	1459.62
995.534	1511.62
995.754	1532.62
995.975	1538.62
996.195	1449.62
996.415	1524.62
996.635	1488.62
996.855	1502.62
997.075	1486.62
997.295	1501.62
997.515	1464.62
997.735	1540.62
997.955	1528.62
998.174	1507.62
998.394	1491.62
998.614	1554.62
998.834	1468.62
999.053	1571.62
999.273	1523.62
999.492	1538.62
999.712	1493.62
999.931	1441.62
1000.151	1466.62
1000.37	1447.62
1000.589	1497.62
1000.809	1441.62
1001.028	1541.62
1001.247	1488.62
1001.466	1374.62
1001.685	1502.62
1001.904	1450.62
1002.123	1457.62
1002.342	1434.62
1002.561	1384.62
1002.78	1411.62
1002.999	1475.62
1003.218	1421.62
1003.436	1436.62
1003.655	1446.62
1003.874	1421.62
1004.092	1410.62
1004.311	1456.62
1004.53	1427.62
1004.748	1486.62
1004.966	1393.62
1005.185	1473.62
1005.403	1475.62
1005.622	1468.62
1005.84	1532.62
1006.058	1432.62
1006.276	1472.62
1006.494	1961.62
1006.712	1494.62
1006.931	1544.62
1007.149	1502.62
1007.367	1488.62
1007.584	1528.62
1007.802	1596.62
1008.02	1580.62
1008.238	1683.62
1008.456	1689.62
1008.673	1597.62
1008.891	1751.62
1009.109	1760.62
1009.326	1839.62
1009.544	1942.62
1009.761	1920.62
1009.979	2111.62
1010.196	2224.62
1010.413	2440.62
1010.631	2576.62
1010.848	2695.62
1011.065	2744.62
1011.282	2671.62
1011.5	2633.62
1011.717	2737.62
1011.934	2670.62
1012.151	2666.62
1012.368	2636.62
1012.585	2586.62
1012.801	2667.62
1013.018	2657.62
1013.235	2603.62
1013.452	2619.62
1013.669	2666.62
1013.885	2672.62
1014.102	2724.62
1014.318	2747.62
1014.535	2685.62
1014.751	2696.62
1014.968	2661.62
1015.184	2698.62
1015.401	2591.62
1015.617	2608.62
1015.833	2519.62
1016.049	2531.62
1016.266	2479.62
1016.482	2476.62
1016.698	2394.62
1016.914	2440.62
1017.13	2355.62
1017.346	2329.62
1017.562	2352.62
1017.778	2325.62
1017.993	2291.62
1018.209	2316.62
1018.425	2289.62
1018.641	2265.62
1018.856	2262.62
1019.072	2265.62
1019.288	2293.62
1019.503	2274.62
1019.719	2196.62
1019.934	2138.62
1020.149	2226.62
1020.365	2162.62
1020.58	2061.62
1020.795	2087.62
1021.011	1974.62
1021.226	1943.62
1021.441	1898.62
1021.656	1782.62
1021.871	1716.62
1022.086	1709.62
1022.301	1675.62
1022.516	1662.62
1022.731	1692.62
1022.946	1556.62
1023.16	1544.62
1023.375	1508.62
1023.59	1460.62
1023.804	1410.62
1024.019	1485.62
1024.234	1322.62
1024.448	1311.62
1024.663	1240.62
1024.877	1246.62
1025.092	1238.62
1025.306	1239.62
1025.52	1135.62
1025.734	1205.62
1025.949	1089.62
1026.163	1064.62
1026.377	1004.62
1026.591	1044.62
1026.805	949.62
1027.019	943.62
1027.233	927.62
1027.447	859.62
1027.661	968.62
1027.875	892.62
1028.088	925.62
1028.302	841.62
1028.516	810.62
1028.73	789.62
1028.943	773.62
1029.157	723.62
1029.37	673.62
1029.584	0.62
1029.797	-5.38
1030.011	-0.38
1030.224	-4.38
