Data from QEP037381__56__13-30-31-040.txt Node

Date: Wed Dec 21 13:30:31 EST 2022
User: dcclab
Spectrometer: QEP03738
Trigger mode: 4
Integration Time (sec): 1.000000E1
Scans to average: 1
Electric dark correction enabled: true
Nonlinearity correction enabled: false
Boxcar width: 0
XAxis mode: Wavelengths
Number of Pixels in Spectrum: 1044
>>>>>Begin Spectral Data<<<<<
784.041	13.62
784.3	1.62
784.558	-1.38
784.817	-5.38
785.075	88883.62
785.334	15634.62
785.592	7373.62
785.851	5124.62
786.109	3907.62
786.368	3002.62
786.626	2461.62
786.884	2039.62
787.143	1742.62
787.401	1418.62
787.659	1294.62
787.917	1107.62
788.175	999.62
788.433	887.62
788.691	813.62
788.949	749.62
789.207	703.62
789.465	633.62
789.723	603.62
789.98	542.62
790.238	591.62
790.496	554.62
790.753	512.62
791.011	591.62
791.268	508.62
791.526	496.62
791.783	515.62
792.041	485.62
792.298	406.62
792.556	481.62
792.813	465.62
793.07	434.62
793.327	417.62
793.584	512.62
793.841	418.62
794.099	438.62
794.356	502.62
794.613	399.62
794.869	451.62
795.126	398.62
795.383	377.62
795.64	413.62
795.897	359.62
796.153	428.62
796.41	405.62
796.667	386.62
796.923	400.62
797.18	391.62
797.436	422.62
797.693	383.62
797.949	433.62
798.206	464.62
798.462	372.62
798.718	432.62
798.974	405.62
799.231	438.62
799.487	431.62
799.743	435.62
799.999	458.62
800.255	447.62
800.511	421.62
800.767	456.62
801.023	444.62
801.279	460.62
801.534	490.62
801.79	511.62
802.046	523.62
802.302	617.62
802.557	675.62
802.813	799.62
803.068	872.62
803.324	1189.62
803.579	1530.62
803.835	2073.62
804.09	2761.62
804.345	3546.62
804.601	4349.62
804.856	5286.62
805.111	6139.62
805.366	6758.62
805.621	7149.62
805.876	7591.62
806.131	7705.62
806.386	7853.62
806.641	8020.62
806.896	8166.62
807.151	8297.62
807.406	8421.62
807.661	8499.62
807.915	8723.62
808.17	8876.62
808.425	9006.62
808.679	9029.62
808.934	9133.62
809.188	9191.62
809.443	9363.62
809.697	9402.62
809.951	9519.62
810.206	9562.62
810.46	9743.62
810.714	9826.62
810.968	9912.62
811.223	9888.62
811.477	10064.62
811.731	10232.62
811.985	10198.62
812.239	10095.62
812.493	10171.62
812.747	10250.62
813	10256.62
813.254	10307.62
813.508	10415.62
813.762	10374.62
814.015	10446.62
814.269	10617.62
814.522	10701.62
814.776	10806.62
815.03	10948.62
815.283	11097.62
815.536	11229.62
815.79	11445.62
816.043	11649.62
816.296	11755.62
816.55	11921.62
816.803	11990.62
817.056	12245.62
817.309	12288.62
817.562	12396.62
817.815	12572.62
818.068	12620.62
818.321	12745.62
818.574	12949.62
818.827	13096.62
819.079	13280.62
819.332	13603.62
819.585	13750.62
819.838	13942.62
820.09	13837.62
820.343	13968.62
820.595	14108.62
820.848	14082.62
821.1	14220.62
821.353	14227.62
821.605	14093.62
821.857	14176.62
822.11	14040.62
822.362	14026.62
822.614	13998.62
822.866	14051.62
823.118	14090.62
823.37	14174.62
823.622	14183.62
823.874	14143.62
824.126	14345.62
824.378	14289.62
824.63	14326.62
824.882	14328.62
825.134	14315.62
825.385	14340.62
825.637	14314.62
825.888	14214.62
826.14	14191.62
826.392	14122.62
826.643	14062.62
826.895	14030.62
827.146	13946.62
827.397	13793.62
827.649	13975.62
827.9	13865.62
828.151	13834.62
828.402	13867.62
828.653	13959.62
828.905	14116.62
829.156	14092.62
829.407	14115.62
829.658	14237.62
829.909	14404.62
830.159	14410.62
830.41	14295.62
830.661	14197.62
830.912	14100.62
831.162	14027.62
831.413	14113.62
831.664	14038.62
831.914	14033.62
832.165	13980.62
832.415	13996.62
832.666	14032.62
832.916	14046.62
833.167	14026.62
833.417	14109.62
833.667	13989.62
833.917	13959.62
834.168	13967.62
834.418	13965.62
834.668	13831.62
834.918	13789.62
835.168	13810.62
835.418	13620.62
835.668	13677.62
835.918	13603.62
836.167	13586.62
836.417	13461.62
836.667	13584.62
836.917	13603.62
837.166	13592.62
837.416	13664.62
837.666	13669.62
837.915	13700.62
838.165	13568.62
838.414	13495.62
838.663	13532.62
838.913	13641.62
839.162	13572.62
839.411	13606.62
839.661	13519.62
839.91	13557.62
840.159	13503.62
840.408	13597.62
840.657	13653.62
840.906	13638.62
841.155	13675.62
841.404	13573.62
841.653	13658.62
841.902	13625.62
842.15	13799.62
842.399	13711.62
842.648	13792.62
842.897	13708.62
843.145	13504.62
843.394	13529.62
843.642	13413.62
843.891	13349.62
844.139	13250.62
844.388	13192.62
844.636	13060.62
844.884	13040.62
845.133	13096.62
845.381	13139.62
845.629	13225.62
845.877	13092.62
846.125	13174.62
846.373	13130.62
846.621	12974.62
846.869	13119.62
847.117	12860.62
847.365	12828.62
847.613	12880.62
847.861	12847.62
848.108	12961.62
848.356	12888.62
848.604	12776.62
848.851	12888.62
849.099	12891.62
849.346	12973.62
849.594	13004.62
849.841	13079.62
850.089	13162.62
850.336	13259.62
850.583	13270.62
850.831	13228.62
851.078	13115.62
851.325	13030.62
851.572	13204.62
851.819	13080.62
852.066	12700.62
852.313	12567.62
852.56	12339.62
852.807	12454.62
853.054	12353.62
853.301	12365.62
853.548	12434.62
853.794	12574.62
854.041	12612.62
854.288	12565.62
854.534	12810.62
854.781	12777.62
855.028	12841.62
855.274	12829.62
855.52	12761.62
855.767	12673.62
856.013	12985.62
856.26	13063.62
856.506	12658.62
856.752	12598.62
856.998	12650.62
857.244	12670.62
857.49	12889.62
857.736	12693.62
857.982	12825.62
858.228	12661.62
858.474	12559.62
858.72	12472.62
858.966	12329.62
859.212	12208.62
859.458	12018.62
859.703	11916.62
859.949	11813.62
860.195	11809.62
860.44	11749.62
860.686	11751.62
860.931	11798.62
861.177	11674.62
861.422	11490.62
861.667	11336.62
861.913	11374.62
862.158	11405.62
862.403	11464.62
862.648	11411.62
862.893	11453.62
863.138	11426.62
863.384	11391.62
863.629	11378.62
863.873	11434.62
864.118	11449.62
864.363	11378.62
864.608	11388.62
864.853	11328.62
865.098	11168.62
865.342	11144.62
865.587	11106.62
865.832	11182.62
866.076	11135.62
866.321	11132.62
866.565	11090.62
866.81	11065.62
867.054	11107.62
867.298	11044.62
867.543	10934.62
867.787	11010.62
868.031	10980.62
868.275	10969.62
868.519	10974.62
868.764	11036.62
869.008	10983.62
869.252	11024.62
869.496	11020.62
869.739	11113.62
869.983	11122.62
870.227	11195.62
870.471	11174.62
870.715	11340.62
870.958	11360.62
871.202	11357.62
871.446	11467.62
871.689	11315.62
871.933	11342.62
872.176	11347.62
872.42	11356.62
872.663	11291.62
872.906	11411.62
873.15	11338.62
873.393	11495.62
873.636	11543.62
873.879	11388.62
874.122	11221.62
874.366	11030.62
874.609	10840.62
874.852	10718.62
875.095	10652.62
875.337	10640.62
875.58	10428.62
875.823	10456.62
876.066	10429.62
876.309	10435.62
876.551	10282.62
876.794	10211.62
877.037	10293.62
877.279	10200.62
877.522	10265.62
877.764	10239.62
878.007	10157.62
878.249	10107.62
878.491	10043.62
878.734	10078.62
878.976	10005.62
879.218	9920.62
879.46	9931.62
879.702	9766.62
879.945	9716.62
880.187	9614.62
880.429	9557.62
880.671	9548.62
880.912	9554.62
881.154	9525.62
881.396	9426.62
881.638	9463.62
881.88	9529.62
882.121	9470.62
882.363	9504.62
882.605	9477.62
882.846	9519.62
883.088	9563.62
883.329	9604.62
883.571	9825.62
883.812	9979.62
884.053	10457.62
884.295	10839.62
884.536	11199.62
884.777	11011.62
885.018	10902.62
885.259	10751.62
885.5	10640.62
885.742	10860.62
885.982	10575.62
886.223	10384.62
886.464	10327.62
886.705	10081.62
886.946	9933.62
887.187	9619.62
887.428	9455.62
887.668	9179.62
887.909	9009.62
888.15	8911.62
888.39	8833.62
888.631	8848.62
888.871	8691.62
889.111	8635.62
889.352	8485.62
889.592	8434.62
889.833	8350.62
890.073	8276.62
890.313	8272.62
890.553	8137.62
890.793	8134.62
891.033	8060.62
891.273	8049.62
891.513	8059.62
891.753	8165.62
891.993	8028.62
892.233	8036.62
892.473	8138.62
892.713	8064.62
892.952	8075.62
893.192	8135.62
893.432	8056.62
893.671	8174.62
893.911	8115.62
894.15	8058.62
894.39	7945.62
894.629	7923.62
894.869	7939.62
895.108	7784.62
895.347	7870.62
895.587	7837.62
895.826	7800.62
896.065	7758.62
896.304	7840.62
896.543	7801.62
896.782	7752.62
897.021	7805.62
897.26	7715.62
897.499	7833.62
897.738	7831.62
897.977	7751.62
898.216	7669.62
898.454	7610.62
898.693	7617.62
898.932	7678.62
899.17	7587.62
899.409	7589.62
899.647	7541.62
899.886	7531.62
900.124	7576.62
900.363	7609.62
900.601	7657.62
900.839	7745.62
901.078	7787.62
901.316	7930.62
901.554	8009.62
901.792	8099.62
902.03	8069.62
902.268	8152.62
902.506	8168.62
902.744	8086.62
902.982	7965.62
903.22	7730.62
903.458	7607.62
903.695	7472.62
903.933	7356.62
904.171	7134.62
904.409	6910.62
904.646	6921.62
904.884	6753.62
905.121	6700.62
905.359	6599.62
905.596	6645.62
905.833	6449.62
906.071	6392.62
906.308	6429.62
906.545	6363.62
906.783	6296.62
907.02	6315.62
907.257	6303.62
907.494	6286.62
907.731	6308.62
907.968	6270.62
908.205	6178.62
908.442	6126.62
908.679	6145.62
908.915	6119.62
909.152	6115.62
909.389	5943.62
909.626	5933.62
909.862	5907.62
910.099	5805.62
910.335	5930.62
910.572	5770.62
910.808	5791.62
911.045	5785.62
911.281	5730.62
911.518	5782.62
911.754	5718.62
911.99	5675.62
912.226	5647.62
912.463	5554.62
912.699	5596.62
912.935	5504.62
913.171	5457.62
913.407	5407.62
913.643	5434.62
913.879	5397.62
914.114	5317.62
914.35	5241.62
914.586	5242.62
914.822	5185.62
915.057	5198.62
915.293	5075.62
915.529	5083.62
915.764	5115.62
916	5142.62
916.235	5089.62
916.471	5058.62
916.706	5001.62
916.941	5027.62
917.177	5022.62
917.412	5046.62
917.647	5050.62
917.882	4965.62
918.117	5064.62
918.352	4974.62
918.588	5030.62
918.823	4899.62
919.057	4920.62
919.292	4762.62
919.527	4874.62
919.762	4740.62
919.997	4801.62
920.232	4691.62
920.466	4728.62
920.701	4563.62
920.935	4602.62
921.17	4603.62
921.405	4490.62
921.639	4568.62
921.873	4526.62
922.108	4543.62
922.342	4549.62
922.576	4399.62
922.811	4484.62
923.045	4459.62
923.279	4484.62
923.513	4328.62
923.747	4442.62
923.981	4360.62
924.215	4262.62
924.449	4330.62
924.683	4260.62
924.917	4286.62
925.151	4266.62
925.385	4301.62
925.618	4228.62
925.852	4254.62
926.086	4168.62
926.319	4248.62
926.553	4208.62
926.786	4235.62
927.02	4193.62
927.253	4287.62
927.486	4209.62
927.72	4189.62
927.953	4199.62
928.186	4165.62
928.42	4158.62
928.653	4128.62
928.886	4139.62
929.119	4178.62
929.352	4095.62
929.585	4093.62
929.818	3974.62
930.051	4029.62
930.284	4018.62
930.516	3921.62
930.749	3908.62
930.982	3900.62
931.215	3938.62
931.447	3863.62
931.68	3892.62
931.912	3824.62
932.145	3847.62
932.377	3945.62
932.61	4038.62
932.842	3843.62
933.074	3880.62
933.307	3835.62
933.539	3904.62
933.771	3910.62
934.003	3846.62
934.236	3911.62
934.468	3920.62
934.7	3840.62
934.932	3867.62
935.164	3822.62
935.395	3797.62
935.627	3838.62
935.859	3835.62
936.091	3768.62
936.323	3768.62
936.554	3858.62
936.786	3744.62
937.017	3710.62
937.249	3737.62
937.481	3659.62
937.712	3709.62
937.943	3716.62
938.175	3732.62
938.406	3684.62
938.637	3752.62
938.869	3647.62
939.1	3690.62
939.331	3670.62
939.562	3682.62
939.793	3660.62
940.024	3699.62
940.255	3660.62
940.486	3629.62
940.717	3616.62
940.948	3525.62
941.179	3516.62
941.409	3540.62
941.64	3526.62
941.871	3558.62
942.102	3550.62
942.332	3543.62
942.563	3589.62
942.793	3537.62
943.024	3523.62
943.254	3561.62
943.484	3553.62
943.715	3639.62
943.945	3548.62
944.175	3490.62
944.405	3485.62
944.636	3486.62
944.866	3530.62
945.096	3526.62
945.326	3464.62
945.556	3467.62
945.786	3531.62
946.016	3467.62
946.245	3379.62
946.475	3439.62
946.705	3411.62
946.935	3397.62
947.164	3403.62
947.394	3318.62
947.624	3337.62
947.853	3403.62
948.083	3341.62
948.312	3287.62
948.542	3257.62
948.771	3213.62
949	3269.62
949.23	3251.62
949.459	3260.62
949.688	3328.62
949.917	3257.62
950.146	3238.62
950.375	3313.62
950.604	3202.62
950.833	3256.62
951.062	3277.62
951.291	3214.62
951.52	3203.62
951.749	3239.62
951.978	3170.62
952.206	3152.62
952.435	3155.62
952.664	3204.62
952.892	3189.62
953.121	3155.62
953.349	3192.62
953.578	3171.62
953.806	3154.62
954.035	3078.62
954.263	3149.62
954.491	3077.62
954.719	3108.62
954.948	3071.62
955.176	3079.62
955.404	2981.62
955.632	3018.62
955.86	3022.62
956.088	3006.62
956.316	3043.62
956.544	3033.62
956.772	2995.62
956.999	2978.62
957.227	3006.62
957.455	2881.62
957.683	2928.62
957.91	2865.62
958.138	2862.62
958.365	2886.62
958.593	2831.62
958.82	2798.62
959.048	2882.62
959.275	2870.62
959.502	2821.62
959.73	2832.62
959.957	2836.62
960.184	2839.62
960.411	2779.62
960.638	2905.62
960.865	2836.62
961.092	2804.62
961.319	2726.62
961.546	2844.62
961.773	2817.62
962	2792.62
962.227	2808.62
962.454	2760.62
962.68	2756.62
962.907	2788.62
963.134	2749.62
963.36	2744.62
963.587	2758.62
963.813	2667.62
964.04	2746.62
964.266	2671.62
964.493	2739.62
964.719	2673.62
964.945	2677.62
965.171	2595.62
965.398	2648.62
965.624	2704.62
965.85	2562.62
966.076	2589.62
966.302	2584.62
966.528	2576.62
966.754	2586.62
966.98	2579.62
967.206	2582.62
967.431	2513.62
967.657	2615.62
967.883	2543.62
968.109	2565.62
968.334	2475.62
968.56	2472.62
968.785	2485.62
969.011	2450.62
969.236	2510.62
969.462	2476.62
969.687	2434.62
969.912	2519.62
970.138	2527.62
970.363	2458.62
970.588	2482.62
970.813	2458.62
971.038	2387.62
971.263	2414.62
971.488	2395.62
971.713	2475.62
971.938	2428.62
972.163	2356.62
972.388	2377.62
972.613	2362.62
972.838	2365.62
973.062	2321.62
973.287	2348.62
973.512	2308.62
973.736	2343.62
973.961	2304.62
974.185	2286.62
974.41	2330.62
974.634	2217.62
974.858	2247.62
975.083	2290.62
975.307	2258.62
975.531	2227.62
975.755	2168.62
975.98	2177.62
976.204	2108.62
976.428	2088.62
976.652	2138.62
976.876	2103.62
977.1	2139.62
977.324	2124.62
977.547	2149.62
977.771	2139.62
977.995	2147.62
978.219	2067.62
978.442	2192.62
978.666	2152.62
978.89	2119.62
979.113	2120.62
979.337	2098.62
979.56	2074.62
979.783	2167.62
980.007	2056.62
980.23	2070.62
980.453	2045.62
980.677	2060.62
980.9	2052.62
981.123	1927.62
981.346	2034.62
981.569	2048.62
981.792	2053.62
982.015	2009.62
982.238	1980.62
982.461	1993.62
982.684	1970.62
982.907	1950.62
983.129	1941.62
983.352	1960.62
983.575	1977.62
983.797	1928.62
984.02	1904.62
984.242	1921.62
984.465	1899.62
984.687	1936.62
984.91	1967.62
985.132	1930.62
985.354	1948.62
985.577	1907.62
985.799	1894.62
986.021	1769.62
986.243	1869.62
986.465	1874.62
986.687	1950.62
986.909	1926.62
987.131	1884.62
987.353	1829.62
987.575	1865.62
987.797	1847.62
988.019	1781.62
988.241	1848.62
988.462	1810.62
988.684	1885.62
988.906	1916.62
989.127	1922.62
989.349	1785.62
989.57	1827.62
989.792	1851.62
990.013	1855.62
990.234	1886.62
990.456	1862.62
990.677	1864.62
990.898	1824.62
991.119	1809.62
991.341	1846.62
991.562	1760.62
991.783	1834.62
992.004	1773.62
992.225	1727.62
992.446	1773.62
992.667	1704.62
992.887	1757.62
993.108	1668.62
993.329	1800.62
993.55	1744.62
993.77	1683.62
993.991	1691.62
994.212	1730.62
994.432	1726.62
994.653	1720.62
994.873	1715.62
995.093	1605.62
995.314	1687.62
995.534	1709.62
995.754	1752.62
995.975	1753.62
996.195	1645.62
996.415	1716.62
996.635	1688.62
996.855	1739.62
997.075	1677.62
997.295	1661.62
997.515	1676.62
997.735	1741.62
997.955	1692.62
998.174	1688.62
998.394	1659.62
998.614	1709.62
998.834	1670.62
999.053	1740.62
999.273	1689.62
999.492	1721.62
999.712	1660.62
999.931	1622.62
1000.151	1654.62
1000.37	1658.62
1000.589	1714.62
1000.809	1600.62
1001.028	1747.62
1001.247	1669.62
1001.466	1545.62
1001.685	1689.62
1001.904	1615.62
1002.123	1613.62
1002.342	1622.62
1002.561	1566.62
1002.78	1593.62
1002.999	1644.62
1003.218	1607.62
1003.436	1536.62
1003.655	1609.62
1003.874	1550.62
1004.092	1590.62
1004.311	1619.62
1004.53	1573.62
1004.748	1680.62
1004.966	1590.62
1005.185	1612.62
1005.403	1623.62
1005.622	1607.62
1005.84	1655.62
1006.058	1567.62
1006.276	1601.62
1006.494	2089.62
1006.712	1593.62
1006.931	1668.62
1007.149	1578.62
1007.367	1611.62
1007.584	1644.62
1007.802	1688.62
1008.02	1685.62
1008.238	1756.62
1008.456	1781.62
1008.673	1666.62
1008.891	1781.62
1009.109	1783.62
1009.326	1859.62
1009.544	1963.62
1009.761	1940.62
1009.979	2067.62
1010.196	2125.62
1010.413	2279.62
1010.631	2395.62
1010.848	2534.62
1011.065	2540.62
1011.282	2500.62
1011.5	2437.62
1011.717	2541.62
1011.934	2526.62
1012.151	2488.62
1012.368	2474.62
1012.585	2444.62
1012.801	2479.62
1013.018	2466.62
1013.235	2435.62
1013.452	2446.62
1013.669	2519.62
1013.885	2510.62
1014.102	2516.62
1014.318	2528.62
1014.535	2475.62
1014.751	2530.62
1014.968	2497.62
1015.184	2494.62
1015.401	2413.62
1015.617	2401.62
1015.833	2350.62
1016.049	2350.62
1016.266	2332.62
1016.482	2331.62
1016.698	2233.62
1016.914	2259.62
1017.13	2199.62
1017.346	2207.62
1017.562	2239.62
1017.778	2192.62
1017.993	2133.62
1018.209	2234.62
1018.425	2166.62
1018.641	2136.62
1018.856	2139.62
1019.072	2147.62
1019.288	2212.62
1019.503	2150.62
1019.719	2045.62
1019.934	2058.62
1020.149	2134.62
1020.365	2079.62
1020.58	1983.62
1020.795	1995.62
1021.011	1908.62
1021.226	1840.62
1021.441	1868.62
1021.656	1742.62
1021.871	1662.62
1022.086	1664.62
1022.301	1639.62
1022.516	1645.62
1022.731	1650.62
1022.946	1562.62
1023.16	1519.62
1023.375	1471.62
1023.59	1439.62
1023.804	1399.62
1024.019	1481.62
1024.234	1320.62
1024.448	1337.62
1024.663	1281.62
1024.877	1257.62
1025.092	1257.62
1025.306	1244.62
1025.52	1132.62
1025.734	1249.62
1025.949	1138.62
1026.163	1122.62
1026.377	1041.62
1026.591	1070.62
1026.805	1005.62
1027.019	993.62
1027.233	932.62
1027.447	890.62
1027.661	991.62
1027.875	942.62
1028.088	928.62
1028.302	823.62
1028.516	821.62
1028.73	830.62
1028.943	798.62
1029.157	751.62
1029.37	698.62
1029.584	-3.38
1029.797	-2.38
1030.011	-2.38
1030.224	-0.38
