Data from QEP037381__10__13-22-51-058.txt Node

Date: Wed Dec 21 13:22:51 EST 2022
User: dcclab
Spectrometer: QEP03738
Trigger mode: 4
Integration Time (sec): 1.000000E1
Scans to average: 1
Electric dark correction enabled: true
Nonlinearity correction enabled: false
Boxcar width: 0
XAxis mode: Wavelengths
Number of Pixels in Spectrum: 1044
>>>>>Begin Spectral Data<<<<<
784.041	13.5
784.3	2.5
784.558	-4.5
784.817	-6.5
785.075	93531.5
785.334	15700.5
785.592	7209.5
785.851	4922.5
786.109	3769.5
786.368	2949.5
786.626	2358.5
786.884	1976.5
787.143	1665.5
787.401	1396.5
787.659	1243.5
787.917	1085.5
788.175	1002.5
788.433	871.5
788.691	795.5
788.949	737.5
789.207	714.5
789.465	617.5
789.723	612.5
789.98	570.5
790.238	610.5
790.496	559.5
790.753	543.5
791.011	593.5
791.268	539.5
791.526	515.5
791.783	522.5
792.041	530.5
792.298	433.5
792.556	508.5
792.813	469.5
793.07	452.5
793.327	450.5
793.584	510.5
793.841	446.5
794.099	470.5
794.356	514.5
794.613	427.5
794.869	468.5
795.126	444.5
795.383	406.5
795.64	428.5
795.897	388.5
796.153	460.5
796.41	447.5
796.667	412.5
796.923	420.5
797.18	433.5
797.436	461.5
797.693	428.5
797.949	472.5
798.206	523.5
798.462	419.5
798.718	473.5
798.974	465.5
799.231	497.5
799.487	492.5
799.743	493.5
799.999	541.5
800.255	545.5
800.511	525.5
800.767	580.5
801.023	543.5
801.279	596.5
801.534	622.5
801.79	689.5
802.046	724.5
802.302	854.5
802.557	999.5
802.813	1234.5
803.068	1526.5
803.324	2115.5
803.579	2888.5
803.835	4022.5
804.09	5644.5
804.345	7375.5
804.601	9376.5
804.856	11402.5
805.111	13205.5
805.366	14613.5
805.621	15551.5
805.876	16358.5
806.131	16846.5
806.386	17214.5
806.641	17468.5
806.896	17751.5
807.151	18069.5
807.406	18412.5
807.661	18711.5
807.915	19052.5
808.17	19401.5
808.425	19462.5
808.679	19682.5
808.934	19820.5
809.188	20080.5
809.443	20302.5
809.697	20598.5
809.951	20687.5
810.206	20875.5
810.46	21094.5
810.714	21220.5
810.968	21378.5
811.223	21543.5
811.477	21669.5
811.731	21892.5
811.985	22035.5
812.239	21987.5
812.493	22113.5
812.747	22265.5
813	22248.5
813.254	22385.5
813.508	22550.5
813.762	22607.5
814.015	22690.5
814.269	22921.5
814.522	23179.5
814.776	23446.5
815.03	23753.5
815.283	24183.5
815.536	24402.5
815.79	24798.5
816.043	25225.5
816.296	25403.5
816.55	25964.5
816.803	26189.5
817.056	26428.5
817.309	26803.5
817.562	27061.5
817.815	27231.5
818.068	27371.5
818.321	27831.5
818.574	28030.5
818.827	28496.5
819.079	28786.5
819.332	29264.5
819.585	29565.5
819.838	29921.5
820.09	30118.5
820.343	30211.5
820.595	30367.5
820.848	30725.5
821.1	30694.5
821.353	30945.5
821.605	30672.5
821.857	30795.5
822.11	30470.5
822.362	30507.5
822.614	30400.5
822.866	30515.5
823.118	30466.5
823.37	30496.5
823.622	30720.5
823.874	30601.5
824.126	30793.5
824.378	30730.5
824.63	30839.5
824.882	30876.5
825.134	30912.5
825.385	31002.5
825.637	30784.5
825.888	30822.5
826.14	30568.5
826.392	30553.5
826.643	30401.5
826.895	30441.5
827.146	30219.5
827.397	30055.5
827.649	30129.5
827.9	30222.5
828.151	30194.5
828.402	30190.5
828.653	30283.5
828.905	30336.5
829.156	30462.5
829.407	30300.5
829.658	30326.5
829.909	30460.5
830.159	30343.5
830.41	30163.5
830.661	29969.5
830.912	29921.5
831.162	29771.5
831.413	29678.5
831.664	29836.5
831.914	29591.5
832.165	29657.5
832.415	29540.5
832.666	29648.5
832.916	29729.5
833.167	29599.5
833.417	29540.5
833.667	29505.5
833.917	29380.5
834.168	29335.5
834.418	29221.5
834.668	29087.5
834.918	28872.5
835.168	28942.5
835.418	28728.5
835.668	28792.5
835.918	28722.5
836.167	28525.5
836.417	28455.5
836.667	28425.5
836.917	28406.5
837.166	28473.5
837.416	28345.5
837.666	28344.5
837.915	28352.5
838.165	28108.5
838.414	28162.5
838.663	28118.5
838.913	28010.5
839.162	27853.5
839.411	27968.5
839.661	27848.5
839.91	27749.5
840.159	27677.5
840.408	27858.5
840.657	27772.5
840.906	27701.5
841.155	27813.5
841.404	27708.5
841.653	27669.5
841.902	27679.5
842.15	27805.5
842.399	27726.5
842.648	27718.5
842.897	27583.5
843.145	27345.5
843.394	27246.5
843.642	27127.5
843.891	26974.5
844.139	26859.5
844.388	26710.5
844.636	26611.5
844.884	26660.5
845.133	26579.5
845.381	26447.5
845.629	26572.5
845.877	26422.5
846.125	26376.5
846.373	26278.5
846.621	26251.5
846.869	26070.5
847.117	25993.5
847.365	25920.5
847.613	25728.5
847.861	25640.5
848.108	25576.5
848.356	25587.5
848.604	25523.5
848.851	25511.5
849.099	25639.5
849.346	25694.5
849.594	25887.5
849.841	25880.5
850.089	25827.5
850.336	25846.5
850.583	25803.5
850.831	25747.5
851.078	25486.5
851.325	25481.5
851.572	25370.5
851.819	25177.5
852.066	24794.5
852.313	24527.5
852.56	24407.5
852.807	24355.5
853.054	24152.5
853.301	24133.5
853.548	24145.5
853.794	24288.5
854.041	24400.5
854.288	24357.5
854.534	24618.5
854.781	24526.5
855.028	24450.5
855.274	24395.5
855.52	24383.5
855.767	24221.5
856.013	24156.5
856.26	24477.5
856.506	23900.5
856.752	23869.5
856.998	23945.5
857.244	23976.5
857.49	24105.5
857.736	24124.5
857.982	24068.5
858.228	23911.5
858.474	23820.5
858.72	23717.5
858.966	23515.5
859.212	23189.5
859.458	23014.5
859.703	22687.5
859.949	22456.5
860.195	22480.5
860.44	22286.5
860.686	22178.5
860.931	22274.5
861.177	21915.5
861.422	21902.5
861.667	21964.5
861.913	21903.5
862.158	21852.5
862.403	21976.5
862.648	22015.5
862.893	22055.5
863.138	21983.5
863.384	21992.5
863.629	21830.5
863.873	21933.5
864.118	21683.5
864.363	21684.5
864.608	21613.5
864.853	21590.5
865.098	21367.5
865.342	21264.5
865.587	21228.5
865.832	21149.5
866.076	21205.5
866.321	21051.5
866.565	21070.5
866.81	20793.5
867.054	20786.5
867.298	20722.5
867.543	20597.5
867.787	20597.5
868.031	20600.5
868.275	20559.5
868.519	20478.5
868.764	20448.5
869.008	20427.5
869.252	20387.5
869.496	20210.5
869.739	20200.5
869.983	20218.5
870.227	20254.5
870.471	20117.5
870.715	20228.5
870.958	20278.5
871.202	20254.5
871.446	20293.5
871.689	20263.5
871.933	20304.5
872.176	20338.5
872.42	20229.5
872.663	20082.5
872.906	20103.5
873.15	20021.5
873.393	19981.5
873.636	19856.5
873.879	19621.5
874.122	19538.5
874.366	19208.5
874.609	19042.5
874.852	18905.5
875.095	18841.5
875.337	18699.5
875.58	18542.5
875.823	18547.5
876.066	18607.5
876.309	18509.5
876.551	18289.5
876.794	18207.5
877.037	18186.5
877.279	18120.5
877.522	18160.5
877.764	18241.5
878.007	18153.5
878.249	18134.5
878.491	18032.5
878.734	18010.5
878.976	17910.5
879.218	17854.5
879.46	17842.5
879.702	17672.5
879.945	17487.5
880.187	17351.5
880.429	17231.5
880.671	17259.5
880.912	17065.5
881.154	17034.5
881.396	16938.5
881.638	17004.5
881.88	16922.5
882.121	16793.5
882.363	16847.5
882.605	16804.5
882.846	16790.5
883.088	16689.5
883.329	16690.5
883.571	16790.5
883.812	16789.5
884.053	16971.5
884.295	17201.5
884.536	17396.5
884.777	17258.5
885.018	17119.5
885.259	17128.5
885.5	16925.5
885.742	17218.5
885.982	16875.5
886.223	16828.5
886.464	16726.5
886.705	16537.5
886.946	16445.5
887.187	16130.5
887.428	16140.5
887.668	15779.5
887.909	15604.5
888.15	15382.5
888.39	15368.5
888.631	15260.5
888.871	15246.5
889.111	15011.5
889.352	14954.5
889.592	14833.5
889.833	14638.5
890.073	14637.5
890.313	14528.5
890.553	14328.5
890.793	14342.5
891.033	14273.5
891.273	14139.5
891.513	14101.5
891.753	14137.5
891.993	14042.5
892.233	14057.5
892.473	14160.5
892.713	14164.5
892.952	14020.5
893.192	14066.5
893.432	14017.5
893.671	14012.5
893.911	13849.5
894.15	13941.5
894.39	13716.5
894.629	13646.5
894.869	13596.5
895.108	13498.5
895.347	13318.5
895.587	13474.5
895.826	13376.5
896.065	13298.5
896.304	13289.5
896.543	13267.5
896.782	13098.5
897.021	13219.5
897.26	13059.5
897.499	13039.5
897.738	13051.5
897.977	13001.5
898.216	12807.5
898.454	12731.5
898.693	12568.5
898.932	12608.5
899.17	12472.5
899.409	12434.5
899.647	12342.5
899.886	12406.5
900.124	12412.5
900.363	12331.5
900.601	12389.5
900.839	12354.5
901.078	12422.5
901.316	12441.5
901.554	12528.5
901.792	12542.5
902.03	12477.5
902.268	12473.5
902.506	12445.5
902.744	12314.5
902.982	12266.5
903.22	12124.5
903.458	12008.5
903.695	11916.5
903.933	11730.5
904.171	11518.5
904.409	11363.5
904.646	11173.5
904.884	11065.5
905.121	10954.5
905.359	10789.5
905.596	10737.5
905.833	10603.5
906.071	10558.5
906.308	10681.5
906.545	10626.5
906.783	10576.5
907.02	10541.5
907.257	10458.5
907.494	10489.5
907.731	10457.5
907.968	10444.5
908.205	10311.5
908.442	10171.5
908.679	10181.5
908.915	10142.5
909.152	10083.5
909.389	9913.5
909.626	9875.5
909.862	9776.5
910.099	9799.5
910.335	9755.5
910.572	9629.5
910.808	9622.5
911.045	9516.5
911.281	9517.5
911.518	9602.5
911.754	9483.5
911.99	9472.5
912.226	9335.5
912.463	9312.5
912.699	9183.5
912.935	9092.5
913.171	9040.5
913.407	8922.5
913.643	8932.5
913.879	8843.5
914.114	8769.5
914.35	8620.5
914.586	8569.5
914.822	8459.5
915.057	8532.5
915.293	8379.5
915.529	8367.5
915.764	8389.5
916	8370.5
916.235	8307.5
916.471	8298.5
916.706	8198.5
916.941	8206.5
917.177	8181.5
917.412	8249.5
917.647	8169.5
917.882	8142.5
918.117	8196.5
918.352	8089.5
918.588	8198.5
918.823	8019.5
919.057	7974.5
919.292	7804.5
919.527	7833.5
919.762	7643.5
919.997	7627.5
920.232	7577.5
920.466	7536.5
920.701	7337.5
920.935	7388.5
921.17	7307.5
921.405	7336.5
921.639	7356.5
921.873	7242.5
922.108	7225.5
922.342	7206.5
922.576	7194.5
922.811	7113.5
923.045	7195.5
923.279	7101.5
923.513	6999.5
923.747	7030.5
923.981	6980.5
924.215	6830.5
924.449	6805.5
924.683	6777.5
924.917	6746.5
925.151	6636.5
925.385	6760.5
925.618	6681.5
925.852	6667.5
926.086	6600.5
926.319	6628.5
926.553	6598.5
926.786	6636.5
927.02	6579.5
927.253	6590.5
927.486	6632.5
927.72	6495.5
927.953	6551.5
928.186	6466.5
928.42	6547.5
928.653	6444.5
928.886	6362.5
929.119	6404.5
929.352	6346.5
929.585	6310.5
929.818	6253.5
930.051	6223.5
930.284	6175.5
930.516	6037.5
930.749	5999.5
930.982	6036.5
931.215	6055.5
931.447	5971.5
931.68	5937.5
931.912	5938.5
932.145	5893.5
932.377	5943.5
932.61	6092.5
932.842	5835.5
933.074	5881.5
933.307	5889.5
933.539	5942.5
933.771	5914.5
934.003	5860.5
934.236	5939.5
934.468	5957.5
934.7	5838.5
934.932	5874.5
935.164	5806.5
935.395	5768.5
935.627	5815.5
935.859	5766.5
936.091	5697.5
936.323	5698.5
936.554	5760.5
936.786	5648.5
937.017	5594.5
937.249	5580.5
937.481	5511.5
937.712	5606.5
937.943	5583.5
938.175	5568.5
938.406	5525.5
938.637	5583.5
938.869	5447.5
939.1	5519.5
939.331	5467.5
939.562	5502.5
939.793	5438.5
940.024	5486.5
940.255	5425.5
940.486	5364.5
940.717	5327.5
940.948	5300.5
941.179	5288.5
941.409	5298.5
941.64	5266.5
941.871	5276.5
942.102	5266.5
942.332	5276.5
942.563	5274.5
942.793	5229.5
943.024	5163.5
943.254	5228.5
943.484	5279.5
943.715	5235.5
943.945	5207.5
944.175	5161.5
944.405	5154.5
944.636	5118.5
944.866	5156.5
945.096	5192.5
945.326	5118.5
945.556	5238.5
945.786	5204.5
946.016	5113.5
946.245	5007.5
946.475	4988.5
946.705	4957.5
946.935	4933.5
947.164	4967.5
947.394	4854.5
947.624	4832.5
947.853	4906.5
948.083	4825.5
948.312	4788.5
948.542	4760.5
948.771	4737.5
949	4716.5
949.23	4750.5
949.459	4717.5
949.688	4760.5
949.917	4699.5
950.146	4773.5
950.375	4758.5
950.604	4660.5
950.833	4782.5
951.062	4720.5
951.291	4706.5
951.52	4610.5
951.749	4635.5
951.978	4613.5
952.206	4624.5
952.435	4580.5
952.664	4610.5
952.892	4568.5
953.121	4559.5
953.349	4560.5
953.578	4582.5
953.806	4554.5
954.035	4444.5
954.263	4452.5
954.491	4369.5
954.719	4447.5
954.948	4375.5
955.176	4387.5
955.404	4305.5
955.632	4368.5
955.86	4331.5
956.088	4315.5
956.316	4359.5
956.544	4356.5
956.772	4267.5
956.999	4218.5
957.227	4227.5
957.455	4172.5
957.683	4151.5
957.91	4142.5
958.138	4083.5
958.365	4096.5
958.593	4030.5
958.82	4020.5
959.048	4099.5
959.275	4044.5
959.502	3992.5
959.73	3972.5
959.957	4031.5
960.184	4033.5
960.411	3998.5
960.638	4030.5
960.865	3986.5
961.092	3994.5
961.319	3858.5
961.546	3944.5
961.773	3977.5
962	3913.5
962.227	3983.5
962.454	3930.5
962.68	3914.5
962.907	3917.5
963.134	3827.5
963.36	3851.5
963.587	3861.5
963.813	3736.5
964.04	3814.5
964.266	3680.5
964.493	3773.5
964.719	3720.5
964.945	3712.5
965.171	3657.5
965.398	3711.5
965.624	3703.5
965.85	3577.5
966.076	3589.5
966.302	3612.5
966.528	3569.5
966.754	3577.5
966.98	3609.5
967.206	3562.5
967.431	3469.5
967.657	3575.5
967.883	3539.5
968.109	3536.5
968.334	3470.5
968.56	3436.5
968.785	3449.5
969.011	3430.5
969.236	3464.5
969.462	3405.5
969.687	3384.5
969.912	3422.5
970.138	3442.5
970.363	3352.5
970.588	3380.5
970.813	3342.5
971.038	3293.5
971.263	3380.5
971.488	3315.5
971.713	3323.5
971.938	3341.5
972.163	3207.5
972.388	3272.5
972.613	3269.5
972.838	3239.5
973.062	3191.5
973.287	3184.5
973.512	3139.5
973.736	3115.5
973.961	3113.5
974.185	3126.5
974.41	3134.5
974.634	3046.5
974.858	3068.5
975.083	3037.5
975.307	3056.5
975.531	2999.5
975.755	2976.5
975.98	2941.5
976.204	2919.5
976.428	2851.5
976.652	2863.5
976.876	2874.5
977.1	2919.5
977.324	2871.5
977.547	2902.5
977.771	2907.5
977.995	2873.5
978.219	2797.5
978.442	2926.5
978.666	2843.5
978.89	2817.5
979.113	2828.5
979.337	2819.5
979.56	2775.5
979.783	2827.5
980.007	2743.5
980.23	2772.5
980.453	2742.5
980.677	2747.5
980.9	2756.5
981.123	2606.5
981.346	2750.5
981.569	2681.5
981.792	2709.5
982.015	2655.5
982.238	2590.5
982.461	2668.5
982.684	2626.5
982.907	2551.5
983.129	2523.5
983.352	2579.5
983.575	2568.5
983.797	2548.5
984.02	2523.5
984.242	2506.5
984.465	2533.5
984.687	2536.5
984.91	2540.5
985.132	2487.5
985.354	2520.5
985.577	2498.5
985.799	2491.5
986.021	2370.5
986.243	2419.5
986.465	2430.5
986.687	2468.5
986.909	2507.5
987.131	2467.5
987.353	2400.5
987.575	2400.5
987.797	2384.5
988.019	2292.5
988.241	2359.5
988.462	2330.5
988.684	2385.5
988.906	2393.5
989.127	2423.5
989.349	2288.5
989.57	2303.5
989.792	2359.5
990.013	2389.5
990.234	2353.5
990.456	2392.5
990.677	2357.5
990.898	2281.5
991.119	2268.5
991.341	2338.5
991.562	2235.5
991.783	2277.5
992.004	2189.5
992.225	2161.5
992.446	2212.5
992.667	2145.5
992.887	2226.5
993.108	2120.5
993.329	2260.5
993.55	2202.5
993.77	2103.5
993.991	2093.5
994.212	2183.5
994.432	2122.5
994.653	2110.5
994.873	2096.5
995.093	1975.5
995.314	2034.5
995.534	2104.5
995.754	2094.5
995.975	2111.5
996.195	2045.5
996.415	2056.5
996.635	2068.5
996.855	2100.5
997.075	2042.5
997.295	2017.5
997.515	1994.5
997.735	2065.5
997.955	2031.5
998.174	2022.5
998.394	1994.5
998.614	2011.5
998.834	1983.5
999.053	2035.5
999.273	1993.5
999.492	2027.5
999.712	1965.5
999.931	1952.5
1000.151	1973.5
1000.37	1977.5
1000.589	2009.5
1000.809	1934.5
1001.028	2028.5
1001.247	1976.5
1001.466	1832.5
1001.685	1978.5
1001.904	1936.5
1002.123	1909.5
1002.342	1926.5
1002.561	1843.5
1002.78	1866.5
1002.999	1939.5
1003.218	1886.5
1003.436	1835.5
1003.655	1887.5
1003.874	1815.5
1004.092	1822.5
1004.311	1867.5
1004.53	1846.5
1004.748	1904.5
1004.966	1827.5
1005.185	1837.5
1005.403	1844.5
1005.622	1826.5
1005.84	1906.5
1006.058	1807.5
1006.276	1852.5
1006.494	2289.5
1006.712	1824.5
1006.931	1889.5
1007.149	1815.5
1007.367	1777.5
1007.584	1834.5
1007.802	1859.5
1008.02	1818.5
1008.238	1896.5
1008.456	1890.5
1008.673	1777.5
1008.891	1868.5
1009.109	1825.5
1009.326	1880.5
1009.544	1971.5
1009.761	1861.5
1009.979	1962.5
1010.196	1971.5
1010.413	2078.5
1010.631	2139.5
1010.848	2171.5
1011.065	2177.5
1011.282	2142.5
1011.5	2075.5
1011.717	2172.5
1011.934	2113.5
1012.151	2146.5
1012.368	2089.5
1012.585	2075.5
1012.801	2110.5
1013.018	2075.5
1013.235	2058.5
1013.452	2069.5
1013.669	2082.5
1013.885	2073.5
1014.102	2108.5
1014.318	2049.5
1014.535	2002.5
1014.751	2052.5
1014.968	2023.5
1015.184	2065.5
1015.401	1924.5
1015.617	2009.5
1015.833	1936.5
1016.049	1933.5
1016.266	1876.5
1016.482	1894.5
1016.698	1849.5
1016.914	1886.5
1017.13	1815.5
1017.346	1818.5
1017.562	1865.5
1017.778	1766.5
1017.993	1759.5
1018.209	1834.5
1018.425	1821.5
1018.641	1760.5
1018.856	1733.5
1019.072	1772.5
1019.288	1811.5
1019.503	1729.5
1019.719	1676.5
1019.934	1673.5
1020.149	1763.5
1020.365	1692.5
1020.58	1625.5
1020.795	1670.5
1021.011	1580.5
1021.226	1586.5
1021.441	1592.5
1021.656	1492.5
1021.871	1455.5
1022.086	1405.5
1022.301	1404.5
1022.516	1414.5
1022.731	1466.5
1022.946	1375.5
1023.16	1333.5
1023.375	1305.5
1023.59	1305.5
1023.804	1249.5
1024.019	1342.5
1024.234	1204.5
1024.448	1223.5
1024.663	1162.5
1024.877	1194.5
1025.092	1168.5
1025.306	1174.5
1025.52	1063.5
1025.734	1153.5
1025.949	1081.5
1026.163	1039.5
1026.377	988.5
1026.591	1024.5
1026.805	950.5
1027.019	968.5
1027.233	891.5
1027.447	860.5
1027.661	950.5
1027.875	884.5
1028.088	895.5
1028.302	807.5
1028.516	788.5
1028.73	783.5
1028.943	789.5
1029.157	726.5
1029.37	683.5
1029.584	-1.5
1029.797	0.5
1030.011	-0.5
1030.224	-3.5
