Data from QEP037381__47__13-29-01-039.txt Node

Date: Wed Dec 21 13:29:01 EST 2022
User: dcclab
Spectrometer: QEP03738
Trigger mode: 4
Integration Time (sec): 1.000000E1
Scans to average: 1
Electric dark correction enabled: true
Nonlinearity correction enabled: false
Boxcar width: 0
XAxis mode: Wavelengths
Number of Pixels in Spectrum: 1044
>>>>>Begin Spectral Data<<<<<
784.041	12.62
784.3	0.62
784.558	-4.38
784.817	-3.38
785.075	89020.62
785.334	15443.62
785.592	7199.62
785.851	5006.62
786.109	3805.62
786.368	2976.62
786.626	2394.62
786.884	2007.62
787.143	1702.62
787.401	1404.62
787.659	1278.62
787.917	1076.62
788.175	995.62
788.433	865.62
788.691	796.62
788.949	733.62
789.207	711.62
789.465	616.62
789.723	595.62
789.98	568.62
790.238	585.62
790.496	552.62
790.753	508.62
791.011	586.62
791.268	518.62
791.526	486.62
791.783	502.62
792.041	498.62
792.298	412.62
792.556	480.62
792.813	462.62
793.07	435.62
793.327	426.62
793.584	502.62
793.841	429.62
794.099	446.62
794.356	490.62
794.613	398.62
794.869	437.62
795.126	410.62
795.383	398.62
795.64	398.62
795.897	373.62
796.153	418.62
796.41	409.62
796.667	395.62
796.923	403.62
797.18	401.62
797.436	418.62
797.693	395.62
797.949	433.62
798.206	475.62
798.462	361.62
798.718	433.62
798.974	423.62
799.231	434.62
799.487	436.62
799.743	442.62
799.999	467.62
800.255	454.62
800.511	437.62
800.767	461.62
801.023	459.62
801.279	476.62
801.534	503.62
801.79	544.62
802.046	541.62
802.302	656.62
802.557	709.62
802.813	839.62
803.068	980.62
803.324	1314.62
803.579	1768.62
803.835	2297.62
804.09	3116.62
804.345	3998.62
804.601	4972.62
804.856	6063.62
805.111	6907.62
805.366	7638.62
805.621	8173.62
805.876	8607.62
806.131	8905.62
806.386	8930.62
806.641	9122.62
806.896	9264.62
807.151	9497.62
807.406	9599.62
807.661	9799.62
807.915	9950.62
808.17	10078.62
808.425	10258.62
808.679	10258.62
808.934	10392.62
809.188	10550.62
809.443	10617.62
809.697	10792.62
809.951	10860.62
810.206	10881.62
810.46	11055.62
810.714	11110.62
810.968	11328.62
811.223	11308.62
811.477	11423.62
811.731	11597.62
811.985	11487.62
812.239	11574.62
812.493	11664.62
812.747	11634.62
813	11684.62
813.254	11751.62
813.508	11879.62
813.762	11866.62
814.015	11954.62
814.269	11949.62
814.522	12112.62
814.776	12258.62
815.03	12390.62
815.283	12612.62
815.536	12815.62
815.79	12989.62
816.043	13206.62
816.296	13328.62
816.55	13454.62
816.803	13571.62
817.056	13874.62
817.309	13956.62
817.562	14094.62
817.815	14267.62
818.068	14311.62
818.321	14396.62
818.574	14602.62
818.827	14830.62
819.079	14980.62
819.332	15473.62
819.585	15482.62
819.838	15728.62
820.09	15648.62
820.343	15817.62
820.595	15901.62
820.848	16044.62
821.1	16025.62
821.353	16052.62
821.605	16049.62
821.857	16017.62
822.11	15855.62
822.362	15861.62
822.614	15812.62
822.866	15906.62
823.118	15813.62
823.37	16005.62
823.622	16062.62
823.874	16002.62
824.126	16159.62
824.378	16051.62
824.63	16149.62
824.882	16233.62
825.134	16109.62
825.385	16133.62
825.637	16028.62
825.888	15967.62
826.14	16073.62
826.392	15871.62
826.643	15836.62
826.895	15898.62
827.146	15672.62
827.397	15651.62
827.649	15763.62
827.9	15669.62
828.151	15622.62
828.402	15675.62
828.653	15723.62
828.905	15857.62
829.156	15931.62
829.407	15821.62
829.658	15947.62
829.909	16158.62
830.159	16223.62
830.41	16096.62
830.661	16012.62
830.912	15797.62
831.162	15776.62
831.413	15756.62
831.664	15824.62
831.914	15712.62
832.165	15650.62
832.415	15678.62
832.666	15572.62
832.916	15774.62
833.167	15705.62
833.417	15744.62
833.667	15646.62
833.917	15593.62
834.168	15570.62
834.418	15628.62
834.668	15426.62
834.918	15447.62
835.168	15354.62
835.418	15312.62
835.668	15278.62
835.918	15247.62
836.167	15223.62
836.417	15140.62
836.667	15122.62
836.917	15176.62
837.166	15153.62
837.416	15187.62
837.666	15252.62
837.915	15185.62
838.165	15180.62
838.414	15085.62
838.663	15052.62
838.913	15173.62
839.162	15171.62
839.411	15184.62
839.661	15114.62
839.91	15112.62
840.159	15071.62
840.408	15090.62
840.657	15185.62
840.906	15122.62
841.155	15142.62
841.404	15110.62
841.653	15144.62
841.902	15175.62
842.15	15263.62
842.399	15247.62
842.648	15315.62
842.897	15273.62
843.145	15080.62
843.394	14973.62
843.642	14937.62
843.891	14799.62
844.139	14643.62
844.388	14664.62
844.636	14476.62
844.884	14517.62
845.133	14536.62
845.381	14595.62
845.629	14486.62
845.877	14539.62
846.125	14528.62
846.373	14586.62
846.621	14492.62
846.869	14486.62
847.117	14346.62
847.365	14279.62
847.613	14234.62
847.861	14226.62
848.108	14220.62
848.356	14212.62
848.604	14157.62
848.851	14199.62
849.099	14267.62
849.346	14338.62
849.594	14368.62
849.841	14383.62
850.089	14457.62
850.336	14518.62
850.583	14665.62
850.831	14542.62
851.078	14335.62
851.325	14403.62
851.572	14431.62
851.819	14338.62
852.066	14003.62
852.313	13810.62
852.56	13620.62
852.807	13546.62
853.054	13576.62
853.301	13603.62
853.548	13670.62
853.794	13811.62
854.041	13842.62
854.288	13883.62
854.534	14026.62
854.781	13972.62
855.028	13990.62
855.274	14030.62
855.52	13994.62
855.767	14008.62
856.013	14167.62
856.26	14379.62
856.506	13972.62
856.752	13821.62
856.998	13899.62
857.244	13930.62
857.49	13890.62
857.736	13979.62
857.982	14001.62
858.228	13961.62
858.474	13695.62
858.72	13625.62
858.966	13493.62
859.212	13351.62
859.458	13168.62
859.703	13113.62
859.949	12832.62
860.195	12865.62
860.44	12854.62
860.686	12818.62
860.931	12864.62
861.177	12789.62
861.422	12627.62
861.667	12459.62
861.913	12485.62
862.158	12392.62
862.403	12472.62
862.648	12572.62
862.893	12604.62
863.138	12530.62
863.384	12432.62
863.629	12486.62
863.873	12431.62
864.118	12453.62
864.363	12311.62
864.608	12347.62
864.853	12368.62
865.098	12176.62
865.342	12134.62
865.587	12097.62
865.832	12083.62
866.076	12220.62
866.321	12021.62
866.565	12156.62
866.81	11976.62
867.054	12045.62
867.298	11979.62
867.543	11908.62
867.787	11937.62
868.031	11933.62
868.275	11913.62
868.519	11853.62
868.764	11966.62
869.008	11905.62
869.252	11929.62
869.496	11843.62
869.739	11912.62
869.983	12091.62
870.227	12134.62
870.471	12097.62
870.715	12151.62
870.958	12246.62
871.202	12317.62
871.446	12315.62
871.689	12298.62
871.933	12246.62
872.176	12248.62
872.42	12204.62
872.663	12211.62
872.906	12288.62
873.15	12362.62
873.393	12396.62
873.636	12496.62
873.879	12294.62
874.122	12154.62
874.366	11906.62
874.609	11734.62
874.852	11603.62
875.095	11463.62
875.337	11481.62
875.58	11239.62
875.823	11191.62
876.066	11311.62
876.309	11199.62
876.551	11078.62
876.794	11049.62
877.037	11126.62
877.279	10969.62
877.522	10948.62
877.764	10992.62
878.007	10904.62
878.249	10874.62
878.491	10774.62
878.734	10872.62
878.976	10819.62
879.218	10677.62
879.46	10658.62
879.702	10568.62
879.945	10458.62
880.187	10320.62
880.429	10286.62
880.671	10272.62
880.912	10252.62
881.154	10189.62
881.396	10065.62
881.638	10183.62
881.88	10158.62
882.121	10192.62
882.363	10144.62
882.605	10239.62
882.846	10237.62
883.088	10226.62
883.329	10315.62
883.571	10451.62
883.812	10818.62
884.053	11265.62
884.295	11651.62
884.536	12001.62
884.777	11883.62
885.018	11743.62
885.259	11587.62
885.5	11466.62
885.742	11689.62
885.982	11308.62
886.223	11079.62
886.464	10988.62
886.705	10750.62
886.946	10629.62
887.187	10260.62
887.428	10154.62
887.668	9927.62
887.909	9689.62
888.15	9409.62
888.39	9454.62
888.631	9367.62
888.871	9249.62
889.111	9172.62
889.352	9099.62
889.592	8994.62
889.833	8915.62
890.073	8843.62
890.313	8857.62
890.553	8674.62
890.793	8684.62
891.033	8578.62
891.273	8565.62
891.513	8525.62
891.753	8618.62
891.993	8579.62
892.233	8536.62
892.473	8605.62
892.713	8563.62
892.952	8607.62
893.192	8591.62
893.432	8530.62
893.671	8580.62
893.911	8551.62
894.15	8479.62
894.39	8375.62
894.629	8360.62
894.869	8369.62
895.108	8308.62
895.347	8211.62
895.587	8324.62
895.826	8194.62
896.065	8192.62
896.304	8252.62
896.543	8199.62
896.782	8075.62
897.021	8198.62
897.26	8181.62
897.499	8266.62
897.738	8259.62
897.977	8137.62
898.216	8121.62
898.454	7983.62
898.693	7985.62
898.932	8032.62
899.17	7989.62
899.409	7955.62
899.647	7927.62
899.886	7993.62
900.124	8012.62
900.363	8040.62
900.601	8022.62
900.839	8138.62
901.078	8187.62
901.316	8238.62
901.554	8381.62
901.792	8439.62
902.03	8448.62
902.268	8465.62
902.506	8525.62
902.744	8324.62
902.982	8373.62
903.22	8043.62
903.458	7962.62
903.695	7804.62
903.933	7662.62
904.171	7427.62
904.409	7281.62
904.646	7215.62
904.884	7123.62
905.121	7084.62
905.359	6937.62
905.596	6890.62
905.833	6754.62
906.071	6691.62
906.308	6801.62
906.545	6699.62
906.783	6637.62
907.02	6596.62
907.257	6533.62
907.494	6593.62
907.731	6555.62
907.968	6588.62
908.205	6528.62
908.442	6433.62
908.679	6443.62
908.915	6417.62
909.152	6368.62
909.389	6257.62
909.626	6225.62
909.862	6185.62
910.099	6152.62
910.335	6245.62
910.572	6043.62
910.808	6143.62
911.045	6042.62
911.281	6056.62
911.518	6014.62
911.754	5969.62
911.99	5938.62
912.226	5977.62
912.463	5838.62
912.699	5826.62
912.935	5799.62
913.171	5739.62
913.407	5662.62
913.643	5689.62
913.879	5611.62
914.114	5616.62
914.35	5481.62
914.586	5492.62
914.822	5381.62
915.057	5521.62
915.293	5309.62
915.529	5302.62
915.764	5416.62
916	5371.62
916.235	5310.62
916.471	5333.62
916.706	5219.62
916.941	5272.62
917.177	5214.62
917.412	5268.62
917.647	5258.62
917.882	5236.62
918.117	5287.62
918.352	5234.62
918.588	5245.62
918.823	5096.62
919.057	5127.62
919.292	4994.62
919.527	5090.62
919.762	4951.62
919.997	4997.62
920.232	4896.62
920.466	4887.62
920.701	4782.62
920.935	4798.62
921.17	4778.62
921.405	4731.62
921.639	4707.62
921.873	4708.62
922.108	4692.62
922.342	4751.62
922.576	4626.62
922.811	4637.62
923.045	4671.62
923.279	4689.62
923.513	4521.62
923.747	4569.62
923.981	4573.62
924.215	4525.62
924.449	4476.62
924.683	4432.62
924.917	4425.62
925.151	4398.62
925.385	4463.62
925.618	4449.62
925.852	4427.62
926.086	4339.62
926.319	4380.62
926.553	4371.62
926.786	4358.62
927.02	4326.62
927.253	4399.62
927.486	4393.62
927.72	4305.62
927.953	4356.62
928.186	4296.62
928.42	4322.62
928.653	4290.62
928.886	4235.62
929.119	4259.62
929.352	4236.62
929.585	4165.62
929.818	4129.62
930.051	4154.62
930.284	4183.62
930.516	4078.62
930.749	4064.62
930.982	4080.62
931.215	4066.62
931.447	3974.62
931.68	3994.62
931.912	4019.62
932.145	4006.62
932.377	3989.62
932.61	4110.62
932.842	3950.62
933.074	4001.62
933.307	3955.62
933.539	4024.62
933.771	4022.62
934.003	3988.62
934.236	4002.62
934.468	4013.62
934.7	3933.62
934.932	3991.62
935.164	3935.62
935.395	3864.62
935.627	3903.62
935.859	3930.62
936.091	3826.62
936.323	3919.62
936.554	3958.62
936.786	3867.62
937.017	3776.62
937.249	3807.62
937.481	3776.62
937.712	3847.62
937.943	3830.62
938.175	3745.62
938.406	3772.62
938.637	3873.62
938.869	3697.62
939.1	3789.62
939.331	3745.62
939.562	3797.62
939.793	3748.62
940.024	3740.62
940.255	3776.62
940.486	3703.62
940.717	3667.62
940.948	3660.62
941.179	3607.62
941.409	3619.62
941.64	3646.62
941.871	3634.62
942.102	3615.62
942.332	3636.62
942.563	3645.62
942.793	3620.62
943.024	3576.62
943.254	3596.62
943.484	3623.62
943.715	3665.62
943.945	3589.62
944.175	3572.62
944.405	3529.62
944.636	3554.62
944.866	3543.62
945.096	3602.62
945.326	3495.62
945.556	3607.62
945.786	3537.62
946.016	3520.62
946.245	3432.62
946.475	3488.62
946.705	3481.62
946.935	3426.62
947.164	3461.62
947.394	3431.62
947.624	3431.62
947.853	3439.62
948.083	3402.62
948.312	3326.62
948.542	3297.62
948.771	3291.62
949	3290.62
949.23	3305.62
949.459	3311.62
949.688	3367.62
949.917	3324.62
950.146	3345.62
950.375	3349.62
950.604	3258.62
950.833	3342.62
951.062	3311.62
951.291	3304.62
951.52	3236.62
951.749	3256.62
951.978	3209.62
952.206	3206.62
952.435	3225.62
952.664	3286.62
952.892	3230.62
953.121	3271.62
953.349	3237.62
953.578	3186.62
953.806	3175.62
954.035	3110.62
954.263	3121.62
954.491	3086.62
954.719	3142.62
954.948	3080.62
955.176	3055.62
955.404	2974.62
955.632	3048.62
955.86	3029.62
956.088	2980.62
956.316	3008.62
956.544	3037.62
956.772	3037.62
956.999	2972.62
957.227	3046.62
957.455	2962.62
957.683	2937.62
957.91	2882.62
958.138	2868.62
958.365	2887.62
958.593	2847.62
958.82	2835.62
959.048	2908.62
959.275	2849.62
959.502	2867.62
959.73	2841.62
959.957	2859.62
960.184	2861.62
960.411	2788.62
960.638	2926.62
960.865	2812.62
961.092	2811.62
961.319	2735.62
961.546	2851.62
961.773	2832.62
962	2798.62
962.227	2864.62
962.454	2815.62
962.68	2760.62
962.907	2787.62
963.134	2711.62
963.36	2751.62
963.587	2779.62
963.813	2704.62
964.04	2715.62
964.266	2629.62
964.493	2732.62
964.719	2647.62
964.945	2684.62
965.171	2578.62
965.398	2613.62
965.624	2646.62
965.85	2570.62
966.076	2594.62
966.302	2649.62
966.528	2563.62
966.754	2607.62
966.98	2589.62
967.206	2563.62
967.431	2536.62
967.657	2587.62
967.883	2555.62
968.109	2533.62
968.334	2482.62
968.56	2494.62
968.785	2483.62
969.011	2470.62
969.236	2502.62
969.462	2416.62
969.687	2456.62
969.912	2508.62
970.138	2543.62
970.363	2426.62
970.588	2434.62
970.813	2444.62
971.038	2384.62
971.263	2447.62
971.488	2435.62
971.713	2458.62
971.938	2417.62
972.163	2303.62
972.388	2356.62
972.613	2323.62
972.838	2354.62
973.062	2315.62
973.287	2373.62
973.512	2262.62
973.736	2299.62
973.961	2283.62
974.185	2279.62
974.41	2332.62
974.634	2210.62
974.858	2212.62
975.083	2219.62
975.307	2288.62
975.531	2225.62
975.755	2156.62
975.98	2157.62
976.204	2094.62
976.428	2080.62
976.652	2089.62
976.876	2112.62
977.1	2127.62
977.324	2073.62
977.547	2130.62
977.771	2121.62
977.995	2125.62
978.219	2039.62
978.442	2172.62
978.666	2090.62
978.89	2092.62
979.113	2102.62
979.337	2037.62
979.56	2034.62
979.783	2146.62
980.007	2028.62
980.23	2043.62
980.453	2015.62
980.677	2028.62
980.9	2031.62
981.123	1924.62
981.346	2055.62
981.569	2028.62
981.792	2033.62
982.015	1968.62
982.238	1943.62
982.461	1968.62
982.684	1948.62
982.907	1906.62
983.129	1916.62
983.352	1927.62
983.575	1923.62
983.797	1929.62
984.02	1866.62
984.242	1898.62
984.465	1930.62
984.687	1917.62
984.91	1927.62
985.132	1903.62
985.354	1910.62
985.577	1903.62
985.799	1875.62
986.021	1799.62
986.243	1841.62
986.465	1830.62
986.687	1903.62
986.909	1923.62
987.131	1834.62
987.353	1830.62
987.575	1856.62
987.797	1816.62
988.019	1744.62
988.241	1793.62
988.462	1775.62
988.684	1837.62
988.906	1841.62
989.127	1871.62
989.349	1737.62
989.57	1803.62
989.792	1811.62
990.013	1847.62
990.234	1830.62
990.456	1873.62
990.677	1827.62
990.898	1776.62
991.119	1772.62
991.341	1825.62
991.562	1742.62
991.783	1775.62
992.004	1716.62
992.225	1693.62
992.446	1704.62
992.667	1650.62
992.887	1729.62
993.108	1669.62
993.329	1755.62
993.55	1723.62
993.77	1682.62
993.991	1645.62
994.212	1681.62
994.432	1661.62
994.653	1698.62
994.873	1661.62
995.093	1575.62
995.314	1607.62
995.534	1666.62
995.754	1691.62
995.975	1707.62
996.195	1599.62
996.415	1681.62
996.635	1647.62
996.855	1671.62
997.075	1621.62
997.295	1638.62
997.515	1631.62
997.735	1682.62
997.955	1657.62
998.174	1602.62
998.394	1605.62
998.614	1674.62
998.834	1622.62
999.053	1694.62
999.273	1652.62
999.492	1700.62
999.712	1612.62
999.931	1593.62
1000.151	1636.62
1000.37	1598.62
1000.589	1612.62
1000.809	1565.62
1001.028	1678.62
1001.247	1582.62
1001.466	1490.62
1001.685	1639.62
1001.904	1588.62
1002.123	1559.62
1002.342	1564.62
1002.561	1522.62
1002.78	1541.62
1002.999	1617.62
1003.218	1531.62
1003.436	1524.62
1003.655	1590.62
1003.874	1521.62
1004.092	1546.62
1004.311	1566.62
1004.53	1521.62
1004.748	1628.62
1004.966	1526.62
1005.185	1577.62
1005.403	1583.62
1005.622	1579.62
1005.84	1617.62
1006.058	1527.62
1006.276	1532.62
1006.494	2054.62
1006.712	1557.62
1006.931	1618.62
1007.149	1522.62
1007.367	1562.62
1007.584	1610.62
1007.802	1657.62
1008.02	1598.62
1008.238	1708.62
1008.456	1723.62
1008.673	1606.62
1008.891	1723.62
1009.109	1718.62
1009.326	1796.62
1009.544	1902.62
1009.761	1847.62
1009.979	1987.62
1010.196	2015.62
1010.413	2204.62
1010.631	2284.62
1010.848	2374.62
1011.065	2397.62
1011.282	2336.62
1011.5	2306.62
1011.717	2386.62
1011.934	2318.62
1012.151	2311.62
1012.368	2304.62
1012.585	2291.62
1012.801	2329.62
1013.018	2286.62
1013.235	2259.62
1013.452	2304.62
1013.669	2338.62
1013.885	2311.62
1014.102	2385.62
1014.318	2320.62
1014.535	2288.62
1014.751	2349.62
1014.968	2310.62
1015.184	2320.62
1015.401	2242.62
1015.617	2265.62
1015.833	2205.62
1016.049	2165.62
1016.266	2147.62
1016.482	2113.62
1016.698	2069.62
1016.914	2105.62
1017.13	2050.62
1017.346	2012.62
1017.562	2116.62
1017.778	1994.62
1017.993	1948.62
1018.209	2033.62
1018.425	2012.62
1018.641	2005.62
1018.856	1974.62
1019.072	1989.62
1019.288	2022.62
1019.503	1987.62
1019.719	1885.62
1019.934	1885.62
1020.149	1950.62
1020.365	1852.62
1020.58	1817.62
1020.795	1831.62
1021.011	1738.62
1021.226	1710.62
1021.441	1703.62
1021.656	1611.62
1021.871	1563.62
1022.086	1521.62
1022.301	1471.62
1022.516	1466.62
1022.731	1527.62
1022.946	1437.62
1023.16	1390.62
1023.375	1370.62
1023.59	1329.62
1023.804	1284.62
1024.019	1355.62
1024.234	1193.62
1024.448	1248.62
1024.663	1176.62
1024.877	1188.62
1025.092	1197.62
1025.306	1179.62
1025.52	1065.62
1025.734	1119.62
1025.949	1062.62
1026.163	1039.62
1026.377	941.62
1026.591	994.62
1026.805	914.62
1027.019	927.62
1027.233	884.62
1027.447	825.62
1027.661	929.62
1027.875	874.62
1028.088	885.62
1028.302	784.62
1028.516	772.62
1028.73	765.62
1028.943	736.62
1029.157	693.62
1029.37	677.62
1029.584	-2.38
1029.797	-1.38
1030.011	-0.38
1030.224	-1.38
