Data from QEP037381__36__13-27-11-046.txt Node

Date: Wed Dec 21 13:27:11 EST 2022
User: dcclab
Spectrometer: QEP03738
Trigger mode: 4
Integration Time (sec): 1.000000E1
Scans to average: 1
Electric dark correction enabled: true
Nonlinearity correction enabled: false
Boxcar width: 0
XAxis mode: Wavelengths
Number of Pixels in Spectrum: 1044
>>>>>Begin Spectral Data<<<<<
784.041	12.5
784.3	0.5
784.558	0.5
784.817	-3.5
785.075	90405.5
785.334	15510.5
785.592	7201.5
785.851	4930.5
786.109	3742.5
786.368	2932.5
786.626	2374.5
786.884	1979.5
787.143	1674.5
787.401	1353.5
787.659	1258.5
787.917	1069.5
788.175	997.5
788.433	873.5
788.691	794.5
788.949	730.5
789.207	712.5
789.465	621.5
789.723	594.5
789.98	539.5
790.238	588.5
790.496	548.5
790.753	516.5
791.011	570.5
791.268	504.5
791.526	509.5
791.783	516.5
792.041	494.5
792.298	404.5
792.556	471.5
792.813	452.5
793.07	415.5
793.327	430.5
793.584	511.5
793.841	420.5
794.099	452.5
794.356	501.5
794.613	402.5
794.869	430.5
795.126	394.5
795.383	389.5
795.64	414.5
795.897	364.5
796.153	408.5
796.41	410.5
796.667	400.5
796.923	396.5
797.18	393.5
797.436	428.5
797.693	373.5
797.949	431.5
798.206	455.5
798.462	362.5
798.718	429.5
798.974	402.5
799.231	457.5
799.487	433.5
799.743	432.5
799.999	469.5
800.255	443.5
800.511	441.5
800.767	463.5
801.023	456.5
801.279	477.5
801.534	505.5
801.79	543.5
802.046	531.5
802.302	623.5
802.557	703.5
802.813	830.5
803.068	953.5
803.324	1279.5
803.579	1673.5
803.835	2251.5
804.09	3003.5
804.345	3864.5
804.601	4826.5
804.856	5853.5
805.111	6739.5
805.366	7360.5
805.621	7843.5
805.876	8230.5
806.131	8452.5
806.386	8666.5
806.641	8757.5
806.896	8917.5
807.151	9115.5
807.406	9243.5
807.661	9428.5
807.915	9587.5
808.17	9703.5
808.425	9815.5
808.679	9890.5
808.934	10051.5
809.188	10085.5
809.443	10201.5
809.697	10376.5
809.951	10441.5
810.206	10504.5
810.46	10604.5
810.714	10668.5
810.968	10861.5
811.223	10908.5
811.477	10996.5
811.731	11098.5
811.985	11088.5
812.239	11163.5
812.493	11178.5
812.747	11212.5
813	11126.5
813.254	11221.5
813.508	11414.5
813.762	11450.5
814.015	11421.5
814.269	11533.5
814.522	11554.5
814.776	11736.5
815.03	11935.5
815.283	12051.5
815.536	12288.5
815.79	12494.5
816.043	12667.5
816.296	12701.5
816.55	12977.5
816.803	13114.5
817.056	13343.5
817.309	13416.5
817.562	13532.5
817.815	13708.5
818.068	13785.5
818.321	13831.5
818.574	14057.5
818.827	14321.5
819.079	14465.5
819.332	14828.5
819.585	14979.5
819.838	15123.5
820.09	15217.5
820.343	15292.5
820.595	15214.5
820.848	15365.5
821.1	15565.5
821.353	15446.5
821.605	15442.5
821.857	15407.5
822.11	15265.5
822.362	15265.5
822.614	15265.5
822.866	15312.5
823.118	15276.5
823.37	15395.5
823.622	15420.5
823.874	15495.5
824.126	15594.5
824.378	15492.5
824.63	15519.5
824.882	15689.5
825.134	15517.5
825.385	15534.5
825.637	15500.5
825.888	15430.5
826.14	15259.5
826.392	15309.5
826.643	15287.5
826.895	15180.5
827.146	15063.5
827.397	15104.5
827.649	15118.5
827.9	15050.5
828.151	15015.5
828.402	15084.5
828.653	15232.5
828.905	15120.5
829.156	15261.5
829.407	15204.5
829.658	15352.5
829.909	15587.5
830.159	15554.5
830.41	15457.5
830.661	15359.5
830.912	15263.5
831.162	15106.5
831.413	15166.5
831.664	15193.5
831.914	15238.5
832.165	15073.5
832.415	15058.5
832.666	15097.5
832.916	15222.5
833.167	15073.5
833.417	15125.5
833.667	14982.5
833.917	14937.5
834.168	14951.5
834.418	14953.5
834.668	14920.5
834.918	14797.5
835.168	14729.5
835.418	14723.5
835.668	14689.5
835.918	14631.5
836.167	14668.5
836.417	14571.5
836.667	14644.5
836.917	14583.5
837.166	14642.5
837.416	14689.5
837.666	14620.5
837.915	14672.5
838.165	14586.5
838.414	14654.5
838.663	14524.5
838.913	14549.5
839.162	14536.5
839.411	14554.5
839.661	14568.5
839.91	14546.5
840.159	14478.5
840.408	14608.5
840.657	14550.5
840.906	14587.5
841.155	14596.5
841.404	14596.5
841.653	14640.5
841.902	14636.5
842.15	14665.5
842.399	14807.5
842.648	14670.5
842.897	14706.5
843.145	14507.5
843.394	14444.5
843.642	14409.5
843.891	14358.5
844.139	14134.5
844.388	13971.5
844.636	14000.5
844.884	14094.5
845.133	14036.5
845.381	14001.5
845.629	14056.5
845.877	14075.5
846.125	14052.5
846.373	13988.5
846.621	14015.5
846.869	13977.5
847.117	13852.5
847.365	13694.5
847.613	13705.5
847.861	13704.5
848.108	13743.5
848.356	13727.5
848.604	13685.5
848.851	13754.5
849.099	13685.5
849.346	13779.5
849.594	13877.5
849.841	13958.5
850.089	13812.5
850.336	13994.5
850.583	13992.5
850.831	14130.5
851.078	13903.5
851.325	13885.5
851.572	14009.5
851.819	13845.5
852.066	13515.5
852.313	13313.5
852.56	13112.5
852.807	13164.5
853.054	13169.5
853.301	13120.5
853.548	13166.5
853.794	13321.5
854.041	13278.5
854.288	13388.5
854.534	13613.5
854.781	13539.5
855.028	13433.5
855.274	13555.5
855.52	13463.5
855.767	13384.5
856.013	13709.5
856.26	13928.5
856.506	13402.5
856.752	13347.5
856.998	13405.5
857.244	13434.5
857.49	13485.5
857.736	13518.5
857.982	13507.5
858.228	13399.5
858.474	13194.5
858.72	13124.5
858.966	13067.5
859.212	12823.5
859.458	12684.5
859.703	12536.5
859.949	12417.5
860.195	12421.5
860.44	12387.5
860.686	12350.5
860.931	12409.5
861.177	12214.5
861.422	12136.5
861.667	11993.5
861.913	12014.5
862.158	11981.5
862.403	12004.5
862.648	12033.5
862.893	12153.5
863.138	12034.5
863.384	11975.5
863.629	12019.5
863.873	11985.5
864.118	11975.5
864.363	11887.5
864.608	11954.5
864.853	11856.5
865.098	11767.5
865.342	11681.5
865.587	11648.5
865.832	11727.5
866.076	11689.5
866.321	11646.5
866.565	11676.5
866.81	11578.5
867.054	11549.5
867.298	11439.5
867.543	11433.5
867.787	11531.5
868.031	11543.5
868.275	11472.5
868.519	11450.5
868.764	11495.5
869.008	11488.5
869.252	11477.5
869.496	11534.5
869.739	11573.5
869.983	11575.5
870.227	11692.5
870.471	11598.5
870.715	11710.5
870.958	11810.5
871.202	11850.5
871.446	11862.5
871.689	11922.5
871.933	11855.5
872.176	11827.5
872.42	11816.5
872.663	11736.5
872.906	11809.5
873.15	11887.5
873.393	12029.5
873.636	11981.5
873.879	11860.5
874.122	11685.5
874.366	11431.5
874.609	11300.5
874.852	11195.5
875.095	11064.5
875.337	11004.5
875.58	10859.5
875.823	10823.5
876.066	10825.5
876.309	10828.5
876.551	10686.5
876.794	10656.5
877.037	10640.5
877.279	10581.5
877.522	10539.5
877.764	10592.5
878.007	10557.5
878.249	10491.5
878.491	10435.5
878.734	10472.5
878.976	10349.5
879.218	10271.5
879.46	10211.5
879.702	10185.5
879.945	10104.5
880.187	9984.5
880.429	9860.5
880.671	9906.5
880.912	9832.5
881.154	9862.5
881.396	9765.5
881.638	9826.5
881.88	9906.5
882.121	9784.5
882.363	9747.5
882.605	9867.5
882.846	9789.5
883.088	9844.5
883.329	9959.5
883.571	10107.5
883.812	10433.5
884.053	10750.5
884.295	11358.5
884.536	11589.5
884.777	11495.5
885.018	11329.5
885.259	11195.5
885.5	10981.5
885.742	11230.5
885.982	10965.5
886.223	10802.5
886.464	10648.5
886.705	10354.5
886.946	10240.5
887.187	9931.5
887.428	9742.5
887.668	9464.5
887.909	9261.5
888.15	9137.5
888.39	9058.5
888.631	9024.5
888.871	8892.5
889.111	8845.5
889.352	8745.5
889.592	8571.5
889.833	8570.5
890.073	8494.5
890.313	8452.5
890.553	8271.5
890.793	8290.5
891.033	8270.5
891.273	8211.5
891.513	8200.5
891.753	8213.5
891.993	8150.5
892.233	8211.5
892.473	8296.5
892.713	8288.5
892.952	8212.5
893.192	8273.5
893.432	8148.5
893.671	8232.5
893.911	8140.5
894.15	8110.5
894.39	8031.5
894.629	8014.5
894.869	8083.5
895.108	7979.5
895.347	7928.5
895.587	7911.5
895.826	7838.5
896.065	7879.5
896.304	7931.5
896.543	7887.5
896.782	7795.5
897.021	7882.5
897.26	7833.5
897.499	7853.5
897.738	7908.5
897.977	7770.5
898.216	7738.5
898.454	7696.5
898.693	7645.5
898.932	7696.5
899.17	7568.5
899.409	7615.5
899.647	7628.5
899.886	7603.5
900.124	7691.5
900.363	7711.5
900.601	7725.5
900.839	7744.5
901.078	7868.5
901.316	8002.5
901.554	8023.5
901.792	8130.5
902.03	8121.5
902.268	8179.5
902.506	8135.5
902.744	8073.5
902.982	8038.5
903.22	7883.5
903.458	7607.5
903.695	7465.5
903.933	7323.5
904.171	7160.5
904.409	7038.5
904.646	6902.5
904.884	6729.5
905.121	6741.5
905.359	6614.5
905.596	6548.5
905.833	6464.5
906.071	6436.5
906.308	6456.5
906.545	6391.5
906.783	6361.5
907.02	6380.5
907.257	6301.5
907.494	6307.5
907.731	6319.5
907.968	6266.5
908.205	6183.5
908.442	6196.5
908.679	6169.5
908.915	6069.5
909.152	6041.5
909.389	5942.5
909.626	5930.5
909.862	5912.5
910.099	5902.5
910.335	5913.5
910.572	5738.5
910.808	5812.5
911.045	5764.5
911.281	5726.5
911.518	5805.5
911.754	5704.5
911.99	5691.5
912.226	5655.5
912.463	5568.5
912.699	5528.5
912.935	5501.5
913.171	5449.5
913.407	5419.5
913.643	5414.5
913.879	5339.5
914.114	5257.5
914.35	5272.5
914.586	5174.5
914.822	5189.5
915.057	5200.5
915.293	5042.5
915.529	5036.5
915.764	5090.5
916	5023.5
916.235	5087.5
916.471	5095.5
916.706	4962.5
916.941	5040.5
917.177	4967.5
917.412	5028.5
917.647	5036.5
917.882	4983.5
918.117	5005.5
918.352	4956.5
918.588	4993.5
918.823	4946.5
919.057	4847.5
919.292	4725.5
919.527	4849.5
919.762	4705.5
919.997	4736.5
920.232	4617.5
920.466	4661.5
920.701	4471.5
920.935	4561.5
921.17	4502.5
921.405	4472.5
921.639	4559.5
921.873	4458.5
922.108	4429.5
922.342	4511.5
922.576	4378.5
922.811	4372.5
923.045	4417.5
923.279	4469.5
923.513	4285.5
923.747	4325.5
923.981	4291.5
924.215	4240.5
924.449	4285.5
924.683	4251.5
924.917	4202.5
925.151	4198.5
925.385	4226.5
925.618	4206.5
925.852	4169.5
926.086	4085.5
926.319	4153.5
926.553	4115.5
926.786	4169.5
927.02	4130.5
927.253	4163.5
927.486	4158.5
927.72	4060.5
927.953	4139.5
928.186	4029.5
928.42	4097.5
928.653	4052.5
928.886	4013.5
929.119	4017.5
929.352	4043.5
929.585	3980.5
929.818	3916.5
930.051	3945.5
930.284	3919.5
930.516	3847.5
930.749	3832.5
930.982	3877.5
931.215	3853.5
931.447	3769.5
931.68	3759.5
931.912	3724.5
932.145	3757.5
932.377	3758.5
932.61	3912.5
932.842	3740.5
933.074	3788.5
933.307	3728.5
933.539	3828.5
933.771	3787.5
934.003	3800.5
934.236	3924.5
934.468	3953.5
934.7	3894.5
934.932	3949.5
935.164	3906.5
935.395	3830.5
935.627	3806.5
935.859	3773.5
936.091	3663.5
936.323	3722.5
936.554	3699.5
936.786	3654.5
937.017	3605.5
937.249	3690.5
937.481	3565.5
937.712	3626.5
937.943	3640.5
938.175	3569.5
938.406	3611.5
938.637	3676.5
938.869	3577.5
939.1	3621.5
939.331	3601.5
939.562	3682.5
939.793	3729.5
940.024	3990.5
940.255	4552.5
940.486	5172.5
940.717	5500.5
940.948	5265.5
941.179	4837.5
941.409	4475.5
941.64	4061.5
941.871	3816.5
942.102	3617.5
942.332	3523.5
942.563	3544.5
942.793	3489.5
943.024	3414.5
943.254	3461.5
943.484	3499.5
943.715	3473.5
943.945	3418.5
944.175	3336.5
944.405	3357.5
944.636	3378.5
944.866	3405.5
945.096	3436.5
945.326	3297.5
945.556	3345.5
945.786	3400.5
946.016	3333.5
946.245	3264.5
946.475	3250.5
946.705	3278.5
946.935	3247.5
947.164	3254.5
947.394	3200.5
947.624	3199.5
947.853	3282.5
948.083	3241.5
948.312	3167.5
948.542	3112.5
948.771	3083.5
949	3074.5
949.23	3099.5
949.459	3106.5
949.688	3182.5
949.917	3144.5
950.146	3115.5
950.375	3206.5
950.604	3029.5
950.833	3147.5
951.062	3160.5
951.291	3085.5
951.52	3060.5
951.749	3075.5
951.978	3040.5
952.206	3032.5
952.435	3022.5
952.664	3030.5
952.892	3076.5
953.121	3036.5
953.349	3032.5
953.578	3020.5
953.806	2961.5
954.035	2907.5
954.263	2960.5
954.491	2931.5
954.719	2942.5
954.948	2903.5
955.176	2903.5
955.404	2831.5
955.632	2896.5
955.86	2877.5
956.088	2889.5
956.316	2809.5
956.544	2884.5
956.772	2847.5
956.999	2804.5
957.227	2867.5
957.455	2793.5
957.683	2791.5
957.91	2727.5
958.138	2712.5
958.365	2724.5
958.593	2743.5
958.82	2666.5
959.048	2698.5
959.275	2719.5
959.502	2660.5
959.73	2632.5
959.957	2662.5
960.184	2722.5
960.411	2662.5
960.638	2723.5
960.865	2642.5
961.092	2704.5
961.319	2555.5
961.546	2651.5
961.773	2684.5
962	2632.5
962.227	2693.5
962.454	2644.5
962.68	2613.5
962.907	2617.5
963.134	2535.5
963.36	2604.5
963.587	2616.5
963.813	2558.5
964.04	2551.5
964.266	2510.5
964.493	2572.5
964.719	2541.5
964.945	2563.5
965.171	2448.5
965.398	2473.5
965.624	2501.5
965.85	2423.5
966.076	2434.5
966.302	2476.5
966.528	2427.5
966.754	2469.5
966.98	2452.5
967.206	2453.5
967.431	2347.5
967.657	2452.5
967.883	2390.5
968.109	2400.5
968.334	2356.5
968.56	2316.5
968.785	2359.5
969.011	2293.5
969.236	2383.5
969.462	2332.5
969.687	2330.5
969.912	2403.5
970.138	2390.5
970.363	2285.5
970.588	2323.5
970.813	2295.5
971.038	2251.5
971.263	2315.5
971.488	2286.5
971.713	2320.5
971.938	2314.5
972.163	2205.5
972.388	2265.5
972.613	2204.5
972.838	2230.5
973.062	2208.5
973.287	2187.5
973.512	2140.5
973.736	2161.5
973.961	2188.5
974.185	2164.5
974.41	2198.5
974.634	2084.5
974.858	2093.5
975.083	2123.5
975.307	2132.5
975.531	2117.5
975.755	2043.5
975.98	2067.5
976.204	1999.5
976.428	2001.5
976.652	2014.5
976.876	1983.5
977.1	2029.5
977.324	1977.5
977.547	2018.5
977.771	2049.5
977.995	1992.5
978.219	1953.5
978.442	2084.5
978.666	1983.5
978.89	2021.5
979.113	2000.5
979.337	1962.5
979.56	1932.5
979.783	2016.5
980.007	1927.5
980.23	1935.5
980.453	1921.5
980.677	1950.5
980.9	1945.5
981.123	1846.5
981.346	1923.5
981.569	1915.5
981.792	1929.5
982.015	1904.5
982.238	1848.5
982.461	1887.5
982.684	1853.5
982.907	1810.5
983.129	1818.5
983.352	1887.5
983.575	1821.5
983.797	1862.5
984.02	1792.5
984.242	1790.5
984.465	1816.5
984.687	1810.5
984.91	1847.5
985.132	1837.5
985.354	1843.5
985.577	1797.5
985.799	1804.5
986.021	1710.5
986.243	1747.5
986.465	1762.5
986.687	1805.5
986.909	1840.5
987.131	1759.5
987.353	1727.5
987.575	1787.5
987.797	1711.5
988.019	1650.5
988.241	1719.5
988.462	1663.5
988.684	1753.5
988.906	1731.5
989.127	1778.5
989.349	1677.5
989.57	1727.5
989.792	1762.5
990.013	1767.5
990.234	1737.5
990.456	1796.5
990.677	1788.5
990.898	1700.5
991.119	1704.5
991.341	1725.5
991.562	1634.5
991.783	1699.5
992.004	1633.5
992.225	1623.5
992.446	1655.5
992.667	1571.5
992.887	1683.5
993.108	1559.5
993.329	1692.5
993.55	1633.5
993.77	1549.5
993.991	1595.5
994.212	1598.5
994.432	1615.5
994.653	1625.5
994.873	1609.5
995.093	1489.5
995.314	1533.5
995.534	1622.5
995.754	1643.5
995.975	1654.5
996.195	1573.5
996.415	1592.5
996.635	1570.5
996.855	1623.5
997.075	1575.5
997.295	1611.5
997.515	1556.5
997.735	1633.5
997.955	1598.5
998.174	1569.5
998.394	1568.5
998.614	1623.5
998.834	1542.5
999.053	1623.5
999.273	1604.5
999.492	1612.5
999.712	1556.5
999.931	1524.5
1000.151	1566.5
1000.37	1529.5
1000.589	1582.5
1000.809	1501.5
1001.028	1612.5
1001.247	1543.5
1001.466	1428.5
1001.685	1617.5
1001.904	1505.5
1002.123	1514.5
1002.342	1516.5
1002.561	1476.5
1002.78	1521.5
1002.999	1556.5
1003.218	1482.5
1003.436	1494.5
1003.655	1513.5
1003.874	1433.5
1004.092	1487.5
1004.311	1534.5
1004.53	1483.5
1004.748	1567.5
1004.966	1483.5
1005.185	1530.5
1005.403	1522.5
1005.622	1526.5
1005.84	1590.5
1006.058	1475.5
1006.276	1500.5
1006.494	1990.5
1006.712	1522.5
1006.931	1594.5
1007.149	1500.5
1007.367	1499.5
1007.584	1566.5
1007.802	1598.5
1008.02	1541.5
1008.238	1645.5
1008.456	1668.5
1008.673	1537.5
1008.891	1671.5
1009.109	1654.5
1009.326	1734.5
1009.544	1839.5
1009.761	1777.5
1009.979	1905.5
1010.196	1941.5
1010.413	2110.5
1010.631	2177.5
1010.848	2267.5
1011.065	2319.5
1011.282	2261.5
1011.5	2201.5
1011.717	2305.5
1011.934	2231.5
1012.151	2268.5
1012.368	2252.5
1012.585	2200.5
1012.801	2242.5
1013.018	2185.5
1013.235	2203.5
1013.452	2226.5
1013.669	2237.5
1013.885	2257.5
1014.102	2272.5
1014.318	2256.5
1014.535	2228.5
1014.751	2249.5
1014.968	2258.5
1015.184	2269.5
1015.401	2129.5
1015.617	2206.5
1015.833	2139.5
1016.049	2115.5
1016.266	2067.5
1016.482	2078.5
1016.698	2008.5
1016.914	2014.5
1017.13	1987.5
1017.346	1966.5
1017.562	2019.5
1017.778	1957.5
1017.993	1907.5
1018.209	1973.5
1018.425	1917.5
1018.641	1883.5
1018.856	1882.5
1019.072	1941.5
1019.288	1949.5
1019.503	1906.5
1019.719	1837.5
1019.934	1817.5
1020.149	1890.5
1020.365	1817.5
1020.58	1748.5
1020.795	1794.5
1021.011	1701.5
1021.226	1652.5
1021.441	1646.5
1021.656	1572.5
1021.871	1482.5
1022.086	1491.5
1022.301	1441.5
1022.516	1428.5
1022.731	1486.5
1022.946	1421.5
1023.16	1364.5
1023.375	1315.5
1023.59	1300.5
1023.804	1228.5
1024.019	1320.5
1024.234	1187.5
1024.448	1226.5
1024.663	1107.5
1024.877	1141.5
1025.092	1135.5
1025.306	1135.5
1025.52	1027.5
1025.734	1123.5
1025.949	1043.5
1026.163	979.5
1026.377	930.5
1026.591	996.5
1026.805	897.5
1027.019	902.5
1027.233	847.5
1027.447	796.5
1027.661	896.5
1027.875	843.5
1028.088	836.5
1028.302	774.5
1028.516	755.5
1028.73	755.5
1028.943	737.5
1029.157	686.5
1029.37	654.5
1029.584	-1.5
1029.797	-2.5
1030.011	-2.5
1030.224	-3.5
