Data from QEP037381__17__13-24-01-055.txt Node

Date: Wed Dec 21 13:24:01 EST 2022
User: dcclab
Spectrometer: QEP03738
Trigger mode: 4
Integration Time (sec): 1.000000E1
Scans to average: 1
Electric dark correction enabled: true
Nonlinearity correction enabled: false
Boxcar width: 0
XAxis mode: Wavelengths
Number of Pixels in Spectrum: 1044
>>>>>Begin Spectral Data<<<<<
784.041	10.5
784.3	1.5
784.558	-3.5
784.817	-6.5
785.075	91186.5
785.334	15666.5
785.592	7244.5
785.851	4949.5
786.109	3779.5
786.368	2930.5
786.626	2335.5
786.884	1990.5
787.143	1627.5
787.401	1347.5
787.659	1223.5
787.917	1052.5
788.175	989.5
788.433	874.5
788.691	769.5
788.949	735.5
789.207	688.5
789.465	611.5
789.723	583.5
789.98	530.5
790.238	576.5
790.496	551.5
790.753	518.5
791.011	566.5
791.268	493.5
791.526	498.5
791.783	508.5
792.041	486.5
792.298	407.5
792.556	489.5
792.813	449.5
793.07	437.5
793.327	428.5
793.584	500.5
793.841	432.5
794.099	446.5
794.356	507.5
794.613	406.5
794.869	434.5
795.126	400.5
795.383	384.5
795.64	409.5
795.897	363.5
796.153	424.5
796.41	427.5
796.667	401.5
796.923	396.5
797.18	397.5
797.436	426.5
797.693	384.5
797.949	441.5
798.206	462.5
798.462	376.5
798.718	429.5
798.974	409.5
799.231	469.5
799.487	440.5
799.743	445.5
799.999	475.5
800.255	460.5
800.511	441.5
800.767	482.5
801.023	471.5
801.279	501.5
801.534	524.5
801.79	556.5
802.046	555.5
802.302	654.5
802.557	724.5
802.813	887.5
803.068	1042.5
803.324	1409.5
803.579	1867.5
803.835	2475.5
804.09	3378.5
804.345	4413.5
804.601	5462.5
804.856	6549.5
805.111	7666.5
805.366	8326.5
805.621	8970.5
805.876	9389.5
806.131	9626.5
806.386	9758.5
806.641	9858.5
806.896	10111.5
807.151	10352.5
807.406	10478.5
807.661	10624.5
807.915	10773.5
808.17	10995.5
808.425	11064.5
808.679	11119.5
808.934	11288.5
809.188	11345.5
809.443	11427.5
809.697	11581.5
809.951	11626.5
810.206	11764.5
810.46	11910.5
810.714	12022.5
810.968	12119.5
811.223	12152.5
811.477	12282.5
811.731	12388.5
811.985	12381.5
812.239	12438.5
812.493	12482.5
812.747	12513.5
813	12459.5
813.254	12603.5
813.508	12685.5
813.762	12724.5
814.015	12736.5
814.269	12877.5
814.522	12983.5
814.776	13057.5
815.03	13307.5
815.283	13411.5
815.536	13611.5
815.79	13858.5
816.043	13987.5
816.296	14208.5
816.55	14379.5
816.803	14495.5
817.056	14711.5
817.309	14894.5
817.562	15005.5
817.815	15156.5
818.068	15070.5
818.321	15290.5
818.574	15534.5
818.827	15671.5
819.079	15920.5
819.332	16236.5
819.585	16420.5
819.838	16630.5
820.09	16593.5
820.343	16736.5
820.595	16745.5
820.848	16874.5
821.1	17029.5
821.353	16935.5
821.605	16850.5
821.857	16869.5
822.11	16778.5
822.362	16838.5
822.614	16806.5
822.866	16720.5
823.118	16793.5
823.37	16916.5
823.622	16886.5
823.874	16949.5
824.126	17037.5
824.378	17001.5
824.63	17110.5
824.882	16955.5
825.134	16965.5
825.385	16982.5
825.637	16850.5
825.888	16772.5
826.14	16896.5
826.392	16774.5
826.643	16600.5
826.895	16669.5
827.146	16477.5
827.397	16434.5
827.649	16559.5
827.9	16421.5
828.151	16397.5
828.402	16425.5
828.653	16497.5
828.905	16593.5
829.156	16731.5
829.407	16609.5
829.658	16674.5
829.909	16714.5
830.159	16792.5
830.41	16664.5
830.661	16573.5
830.912	16474.5
831.162	16326.5
831.413	16382.5
831.664	16383.5
831.914	16378.5
832.165	16335.5
832.415	16360.5
832.666	16271.5
832.916	16372.5
833.167	16230.5
833.417	16278.5
833.667	16202.5
833.917	16097.5
834.168	16238.5
834.418	16051.5
834.668	16086.5
834.918	15963.5
835.168	15916.5
835.418	15716.5
835.668	15798.5
835.918	15703.5
836.167	15688.5
836.417	15580.5
836.667	15639.5
836.917	15523.5
837.166	15585.5
837.416	15734.5
837.666	15631.5
837.915	15504.5
838.165	15513.5
838.414	15470.5
838.663	15439.5
838.913	15529.5
839.162	15437.5
839.411	15538.5
839.661	15352.5
839.91	15417.5
840.159	15445.5
840.408	15454.5
840.657	15382.5
840.906	15407.5
841.155	15484.5
841.404	15427.5
841.653	15380.5
841.902	15342.5
842.15	15395.5
842.399	15455.5
842.648	15421.5
842.897	15315.5
843.145	15215.5
843.394	15114.5
843.642	15084.5
843.891	14975.5
844.139	14892.5
844.388	14795.5
844.636	14655.5
844.884	14732.5
845.133	14726.5
845.381	14753.5
845.629	14676.5
845.877	14622.5
846.125	14705.5
846.373	14725.5
846.621	14612.5
846.869	14590.5
847.117	14409.5
847.365	14436.5
847.613	14277.5
847.861	14325.5
848.108	14418.5
848.356	14317.5
848.604	14316.5
848.851	14315.5
849.099	14275.5
849.346	14251.5
849.594	14301.5
849.841	14404.5
850.089	14412.5
850.336	14391.5
850.583	14504.5
850.831	14339.5
851.078	14344.5
851.325	14261.5
851.572	14388.5
851.819	14183.5
852.066	13920.5
852.313	13766.5
852.56	13624.5
852.807	13557.5
853.054	13488.5
853.301	13536.5
853.548	13565.5
853.794	13667.5
854.041	13667.5
854.288	13713.5
854.534	13871.5
854.781	13810.5
855.028	13797.5
855.274	13845.5
855.52	13701.5
855.767	13699.5
856.013	13841.5
856.26	14034.5
856.506	13559.5
856.752	13565.5
856.998	13577.5
857.244	13564.5
857.49	13704.5
857.736	13708.5
857.982	13672.5
858.228	13704.5
858.474	13475.5
858.72	13330.5
858.966	13248.5
859.212	13094.5
859.458	12967.5
859.703	12801.5
859.949	12673.5
860.195	12613.5
860.44	12534.5
860.686	12502.5
860.931	12620.5
861.177	12425.5
861.422	12380.5
861.667	12286.5
861.913	12230.5
862.158	12256.5
862.403	12303.5
862.648	12399.5
862.893	12395.5
863.138	12257.5
863.384	12211.5
863.629	12271.5
863.873	12270.5
864.118	12173.5
864.363	12145.5
864.608	12129.5
864.853	12120.5
865.098	11998.5
865.342	11951.5
865.587	11786.5
865.832	11858.5
866.076	11900.5
866.321	11770.5
866.565	11729.5
866.81	11757.5
867.054	11599.5
867.298	11694.5
867.543	11631.5
867.787	11680.5
868.031	11703.5
868.275	11574.5
868.519	11554.5
868.764	11578.5
869.008	11567.5
869.252	11511.5
869.496	11577.5
869.739	11509.5
869.983	11575.5
870.227	11576.5
870.471	11532.5
870.715	11635.5
870.958	11679.5
871.202	11700.5
871.446	11711.5
871.689	11700.5
871.933	11744.5
872.176	11603.5
872.42	11614.5
872.663	11557.5
872.906	11662.5
873.15	11568.5
873.393	11606.5
873.636	11679.5
873.879	11557.5
874.122	11413.5
874.366	11180.5
874.609	11033.5
874.852	10901.5
875.095	10904.5
875.337	10772.5
875.58	10662.5
875.823	10737.5
876.066	10701.5
876.309	10659.5
876.551	10584.5
876.794	10500.5
877.037	10520.5
877.279	10384.5
877.522	10401.5
877.764	10432.5
878.007	10399.5
878.249	10382.5
878.491	10338.5
878.734	10321.5
878.976	10269.5
879.218	10137.5
879.46	10201.5
879.702	10145.5
879.945	10056.5
880.187	9893.5
880.429	9913.5
880.671	9812.5
880.912	9760.5
881.154	9720.5
881.396	9623.5
881.638	9683.5
881.88	9732.5
882.121	9610.5
882.363	9632.5
882.605	9811.5
882.846	9677.5
883.088	9711.5
883.329	9709.5
883.571	9785.5
883.812	9946.5
884.053	10202.5
884.295	10457.5
884.536	10771.5
884.777	10624.5
885.018	10517.5
885.259	10456.5
885.5	10274.5
885.742	10603.5
885.982	10281.5
886.223	10139.5
886.464	9992.5
886.705	9916.5
886.946	9715.5
887.187	9528.5
887.428	9417.5
887.668	9167.5
887.909	9037.5
888.15	8852.5
888.39	8890.5
888.631	8825.5
888.871	8736.5
889.111	8654.5
889.352	8518.5
889.592	8529.5
889.833	8412.5
890.073	8336.5
890.313	8407.5
890.553	8250.5
890.793	8167.5
891.033	8134.5
891.273	8166.5
891.513	8094.5
891.753	8131.5
891.993	8051.5
892.233	8055.5
892.473	8158.5
892.713	8142.5
892.952	8077.5
893.192	8082.5
893.432	8051.5
893.671	8108.5
893.911	8019.5
894.15	8004.5
894.39	7855.5
894.629	7906.5
894.869	7884.5
895.108	7841.5
895.347	7736.5
895.587	7756.5
895.826	7737.5
896.065	7665.5
896.304	7750.5
896.543	7726.5
896.782	7563.5
897.021	7705.5
897.26	7630.5
897.499	7622.5
897.738	7544.5
897.977	7540.5
898.216	7504.5
898.454	7456.5
898.693	7463.5
898.932	7423.5
899.17	7348.5
899.409	7365.5
899.647	7303.5
899.886	7271.5
900.124	7354.5
900.363	7368.5
900.601	7418.5
900.839	7431.5
901.078	7410.5
901.316	7482.5
901.554	7507.5
901.792	7590.5
902.03	7622.5
902.268	7598.5
902.506	7553.5
902.744	7515.5
902.982	7462.5
903.22	7275.5
903.458	7178.5
903.695	7061.5
903.933	6985.5
904.171	6790.5
904.409	6709.5
904.646	6648.5
904.884	6510.5
905.121	6480.5
905.359	6409.5
905.596	6336.5
905.833	6315.5
906.071	6227.5
906.308	6271.5
906.545	6249.5
906.783	6149.5
907.02	6168.5
907.257	6174.5
907.494	6193.5
907.731	6156.5
907.968	6140.5
908.205	6051.5
908.442	5950.5
908.679	5965.5
908.915	5958.5
909.152	5924.5
909.389	5782.5
909.626	5802.5
909.862	5737.5
910.099	5755.5
910.335	5752.5
910.572	5636.5
910.808	5670.5
911.045	5670.5
911.281	5612.5
911.518	5610.5
911.754	5537.5
911.99	5540.5
912.226	5510.5
912.463	5462.5
912.699	5444.5
912.935	5383.5
913.171	5375.5
913.407	5279.5
913.643	5329.5
913.879	5170.5
914.114	5181.5
914.35	5105.5
914.586	5094.5
914.822	5024.5
915.057	5047.5
915.293	4954.5
915.529	4973.5
915.764	5020.5
916	4974.5
916.235	4920.5
916.471	4977.5
916.706	4870.5
916.941	4895.5
917.177	4874.5
917.412	4894.5
917.647	4920.5
917.882	4802.5
918.117	4916.5
918.352	4835.5
918.588	4791.5
918.823	4761.5
919.057	4706.5
919.292	4586.5
919.527	4725.5
919.762	4589.5
919.997	4588.5
920.232	4519.5
920.466	4534.5
920.701	4318.5
920.935	4443.5
921.17	4369.5
921.405	4350.5
921.639	4364.5
921.873	4353.5
922.108	4332.5
922.342	4351.5
922.576	4227.5
922.811	4258.5
923.045	4257.5
923.279	4315.5
923.513	4142.5
923.747	4215.5
923.981	4165.5
924.215	4158.5
924.449	4098.5
924.683	4067.5
924.917	4061.5
925.151	4035.5
925.385	4084.5
925.618	4060.5
925.852	4034.5
926.086	3961.5
926.319	3996.5
926.553	4040.5
926.786	4002.5
927.02	4005.5
927.253	4069.5
927.486	4031.5
927.72	3962.5
927.953	3984.5
928.186	3944.5
928.42	3975.5
928.653	3853.5
928.886	3839.5
929.119	3915.5
929.352	3857.5
929.585	3894.5
929.818	3810.5
930.051	3798.5
930.284	3791.5
930.516	3676.5
930.749	3675.5
930.982	3705.5
931.215	3687.5
931.447	3607.5
931.68	3628.5
931.912	3608.5
932.145	3633.5
932.377	3664.5
932.61	3793.5
932.842	3537.5
933.074	3657.5
933.307	3622.5
933.539	3699.5
933.771	3660.5
934.003	3632.5
934.236	3657.5
934.468	3716.5
934.7	3517.5
934.932	3584.5
935.164	3555.5
935.395	3553.5
935.627	3519.5
935.859	3531.5
936.091	3491.5
936.323	3541.5
936.554	3569.5
936.786	3473.5
937.017	3424.5
937.249	3490.5
937.481	3372.5
937.712	3460.5
937.943	3410.5
938.175	3431.5
938.406	3417.5
938.637	3460.5
938.869	3393.5
939.1	3412.5
939.331	3411.5
939.562	3404.5
939.793	3398.5
940.024	3387.5
940.255	3417.5
940.486	3293.5
940.717	3314.5
940.948	3318.5
941.179	3255.5
941.409	3303.5
941.64	3245.5
941.871	3259.5
942.102	3224.5
942.332	3247.5
942.563	3314.5
942.793	3285.5
943.024	3210.5
943.254	3288.5
943.484	3277.5
943.715	3285.5
943.945	3306.5
944.175	3250.5
944.405	3157.5
944.636	3182.5
944.866	3249.5
945.096	3239.5
945.326	3153.5
945.556	3237.5
945.786	3196.5
946.016	3145.5
946.245	3076.5
946.475	3131.5
946.705	3097.5
946.935	3105.5
947.164	3130.5
947.394	3040.5
947.624	3062.5
947.853	3101.5
948.083	3063.5
948.312	3029.5
948.542	2980.5
948.771	2970.5
949	2953.5
949.23	2990.5
949.459	3000.5
949.688	3034.5
949.917	2993.5
950.146	2981.5
950.375	3050.5
950.604	2910.5
950.833	3036.5
951.062	2996.5
951.291	2933.5
951.52	2909.5
951.749	2937.5
951.978	2909.5
952.206	2878.5
952.435	2869.5
952.664	2916.5
952.892	2913.5
953.121	2885.5
953.349	2894.5
953.578	2889.5
953.806	2829.5
954.035	2799.5
954.263	2850.5
954.491	2794.5
954.719	2834.5
954.948	2747.5
955.176	2744.5
955.404	2714.5
955.632	2787.5
955.86	2743.5
956.088	2719.5
956.316	2758.5
956.544	2769.5
956.772	2682.5
956.999	2695.5
957.227	2769.5
957.455	2678.5
957.683	2672.5
957.91	2607.5
958.138	2588.5
958.365	2580.5
958.593	2546.5
958.82	2544.5
959.048	2584.5
959.275	2557.5
959.502	2581.5
959.73	2549.5
959.957	2570.5
960.184	2591.5
960.411	2508.5
960.638	2609.5
960.865	2551.5
961.092	2573.5
961.319	2437.5
961.546	2590.5
961.773	2553.5
962	2530.5
962.227	2549.5
962.454	2504.5
962.68	2487.5
962.907	2507.5
963.134	2451.5
963.36	2466.5
963.587	2502.5
963.813	2423.5
964.04	2458.5
964.266	2380.5
964.493	2478.5
964.719	2438.5
964.945	2421.5
965.171	2318.5
965.398	2390.5
965.624	2389.5
965.85	2332.5
966.076	2346.5
966.302	2360.5
966.528	2338.5
966.754	2327.5
966.98	2350.5
967.206	2323.5
967.431	2253.5
967.657	2340.5
967.883	2338.5
968.109	2317.5
968.334	2230.5
968.56	2218.5
968.785	2230.5
969.011	2198.5
969.236	2283.5
969.462	2205.5
969.687	2210.5
969.912	2277.5
970.138	2289.5
970.363	2191.5
970.588	2220.5
970.813	2194.5
971.038	2135.5
971.263	2180.5
971.488	2192.5
971.713	2212.5
971.938	2207.5
972.163	2092.5
972.388	2141.5
972.613	2128.5
972.838	2140.5
973.062	2118.5
973.287	2123.5
973.512	2060.5
973.736	2082.5
973.961	2061.5
974.185	2061.5
974.41	2097.5
974.634	1987.5
974.858	2003.5
975.083	2030.5
975.307	2028.5
975.531	1992.5
975.755	1937.5
975.98	1967.5
976.204	1915.5
976.428	1927.5
976.652	1899.5
976.876	1885.5
977.1	1949.5
977.324	1851.5
977.547	1942.5
977.771	1927.5
977.995	1862.5
978.219	1859.5
978.442	1973.5
978.666	1920.5
978.89	1893.5
979.113	1893.5
979.337	1864.5
979.56	1836.5
979.783	1926.5
980.007	1810.5
980.23	1855.5
980.453	1805.5
980.677	1832.5
980.9	1833.5
981.123	1730.5
981.346	1848.5
981.569	1828.5
981.792	1817.5
982.015	1801.5
982.238	1755.5
982.461	1753.5
982.684	1745.5
982.907	1703.5
983.129	1701.5
983.352	1783.5
983.575	1745.5
983.797	1764.5
984.02	1727.5
984.242	1705.5
984.465	1712.5
984.687	1749.5
984.91	1755.5
985.132	1754.5
985.354	1743.5
985.577	1720.5
985.799	1715.5
986.021	1630.5
986.243	1698.5
986.465	1650.5
986.687	1687.5
986.909	1763.5
987.131	1689.5
987.353	1641.5
987.575	1657.5
987.797	1645.5
988.019	1589.5
988.241	1665.5
988.462	1609.5
988.684	1636.5
988.906	1659.5
989.127	1727.5
989.349	1591.5
989.57	1614.5
989.792	1650.5
990.013	1698.5
990.234	1688.5
990.456	1694.5
990.677	1656.5
990.898	1607.5
991.119	1615.5
991.341	1654.5
991.562	1561.5
991.783	1620.5
992.004	1548.5
992.225	1534.5
992.446	1579.5
992.667	1524.5
992.887	1585.5
993.108	1461.5
993.329	1597.5
993.55	1535.5
993.77	1487.5
993.991	1460.5
994.212	1509.5
994.432	1513.5
994.653	1521.5
994.873	1506.5
995.093	1387.5
995.314	1428.5
995.534	1516.5
995.754	1545.5
995.975	1552.5
996.195	1443.5
996.415	1505.5
996.635	1481.5
996.855	1477.5
997.075	1453.5
997.295	1485.5
997.515	1448.5
997.735	1496.5
997.955	1483.5
998.174	1450.5
998.394	1441.5
998.614	1492.5
998.834	1438.5
999.053	1502.5
999.273	1462.5
999.492	1531.5
999.712	1470.5
999.931	1425.5
1000.151	1491.5
1000.37	1448.5
1000.589	1514.5
1000.809	1436.5
1001.028	1533.5
1001.247	1462.5
1001.466	1361.5
1001.685	1496.5
1001.904	1433.5
1002.123	1450.5
1002.342	1426.5
1002.561	1384.5
1002.78	1433.5
1002.999	1458.5
1003.218	1416.5
1003.436	1388.5
1003.655	1432.5
1003.874	1372.5
1004.092	1391.5
1004.311	1455.5
1004.53	1359.5
1004.748	1463.5
1004.966	1393.5
1005.185	1434.5
1005.403	1435.5
1005.622	1414.5
1005.84	1491.5
1006.058	1389.5
1006.276	1420.5
1006.494	1928.5
1006.712	1407.5
1006.931	1443.5
1007.149	1382.5
1007.367	1391.5
1007.584	1418.5
1007.802	1457.5
1008.02	1424.5
1008.238	1525.5
1008.456	1523.5
1008.673	1396.5
1008.891	1521.5
1009.109	1474.5
1009.326	1521.5
1009.544	1628.5
1009.761	1525.5
1009.979	1651.5
1010.196	1660.5
1010.413	1763.5
1010.631	1837.5
1010.848	1875.5
1011.065	1924.5
1011.282	1843.5
1011.5	1791.5
1011.717	1887.5
1011.934	1820.5
1012.151	1871.5
1012.368	1861.5
1012.585	1793.5
1012.801	1842.5
1013.018	1801.5
1013.235	1804.5
1013.452	1813.5
1013.669	1804.5
1013.885	1813.5
1014.102	1841.5
1014.318	1819.5
1014.535	1784.5
1014.751	1797.5
1014.968	1787.5
1015.184	1849.5
1015.401	1729.5
1015.617	1734.5
1015.833	1693.5
1016.049	1701.5
1016.266	1692.5
1016.482	1656.5
1016.698	1623.5
1016.914	1633.5
1017.13	1610.5
1017.346	1574.5
1017.562	1651.5
1017.778	1595.5
1017.993	1540.5
1018.209	1612.5
1018.425	1576.5
1018.641	1554.5
1018.856	1546.5
1019.072	1541.5
1019.288	1579.5
1019.503	1562.5
1019.719	1462.5
1019.934	1453.5
1020.149	1535.5
1020.365	1475.5
1020.58	1421.5
1020.795	1458.5
1021.011	1399.5
1021.226	1360.5
1021.441	1391.5
1021.656	1289.5
1021.871	1232.5
1022.086	1245.5
1022.301	1216.5
1022.516	1203.5
1022.731	1247.5
1022.946	1170.5
1023.16	1134.5
1023.375	1114.5
1023.59	1084.5
1023.804	1054.5
1024.019	1158.5
1024.234	1037.5
1024.448	1063.5
1024.663	984.5
1024.877	985.5
1025.092	985.5
1025.306	991.5
1025.52	906.5
1025.734	999.5
1025.949	925.5
1026.163	906.5
1026.377	814.5
1026.591	881.5
1026.805	805.5
1027.019	802.5
1027.233	755.5
1027.447	700.5
1027.661	795.5
1027.875	747.5
1028.088	768.5
1028.302	689.5
1028.516	674.5
1028.73	671.5
1028.943	664.5
1029.157	616.5
1029.37	574.5
1029.584	-0.5
1029.797	-1.5
1030.011	-0.5
1030.224	0.5
