Data from QEP037381__13__13-23-21-057.txt Node

Date: Wed Dec 21 13:23:21 EST 2022
User: dcclab
Spectrometer: QEP03738
Trigger mode: 4
Integration Time (sec): 1.000000E1
Scans to average: 1
Electric dark correction enabled: true
Nonlinearity correction enabled: false
Boxcar width: 0
XAxis mode: Wavelengths
Number of Pixels in Spectrum: 1044
>>>>>Begin Spectral Data<<<<<
784.041	15.12
784.3	-1.88
784.558	-1.88
784.817	-4.88
785.075	92428.12
785.334	15967.12
785.592	7428.12
785.851	5126.12
786.109	3851.12
786.368	3038.12
786.626	2424.12
786.884	2029.12
787.143	1707.12
787.401	1379.12
787.659	1265.12
787.917	1104.12
788.175	1023.12
788.433	884.12
788.691	800.12
788.949	730.12
789.207	711.12
789.465	618.12
789.723	593.12
789.98	542.12
790.238	603.12
790.496	566.12
790.753	530.12
791.011	576.12
791.268	513.12
791.526	486.12
791.783	499.12
792.041	506.12
792.298	417.12
792.556	474.12
792.813	460.12
793.07	438.12
793.327	442.12
793.584	506.12
793.841	417.12
794.099	456.12
794.356	501.12
794.613	399.12
794.869	446.12
795.126	401.12
795.383	387.12
795.64	407.12
795.897	374.12
796.153	443.12
796.41	409.12
796.667	399.12
796.923	407.12
797.18	386.12
797.436	423.12
797.693	392.12
797.949	431.12
798.206	468.12
798.462	388.12
798.718	441.12
798.974	421.12
799.231	443.12
799.487	443.12
799.743	451.12
799.999	465.12
800.255	465.12
800.511	441.12
800.767	494.12
801.023	468.12
801.279	505.12
801.534	524.12
801.79	568.12
802.046	572.12
802.302	672.12
802.557	738.12
802.813	891.12
803.068	1054.12
803.324	1411.12
803.579	1901.12
803.835	2534.12
804.09	3483.12
804.345	4443.12
804.601	5602.12
804.856	6684.12
805.111	7600.12
805.366	8387.12
805.621	8863.12
805.876	9298.12
806.131	9505.12
806.386	9682.12
806.641	9820.12
806.896	9932.12
807.151	10218.12
807.406	10267.12
807.661	10475.12
807.915	10709.12
808.17	10771.12
808.425	10877.12
808.679	10939.12
808.934	11160.12
809.188	11185.12
809.443	11307.12
809.697	11448.12
809.951	11416.12
810.206	11563.12
810.46	11795.12
810.714	11725.12
810.968	11844.12
811.223	11982.12
811.477	12004.12
811.731	12182.12
811.985	12290.12
812.239	12184.12
812.493	12221.12
812.747	12330.12
813	12217.12
813.254	12352.12
813.508	12460.12
813.762	12461.12
814.015	12536.12
814.269	12631.12
814.522	12710.12
814.776	12785.12
815.03	12942.12
815.283	13118.12
815.536	13331.12
815.79	13514.12
816.043	13642.12
816.296	13899.12
816.55	14042.12
816.803	14204.12
817.056	14396.12
817.309	14519.12
817.562	14661.12
817.815	14841.12
818.068	14829.12
818.321	15070.12
818.574	15203.12
818.827	15294.12
819.079	15540.12
819.332	15885.12
819.585	16033.12
819.838	16274.12
820.09	16179.12
820.343	16359.12
820.595	16318.12
820.848	16409.12
821.1	16523.12
821.353	16588.12
821.605	16439.12
821.857	16485.12
822.11	16306.12
822.362	16385.12
822.614	16282.12
822.866	16322.12
823.118	16265.12
823.37	16495.12
823.622	16408.12
823.874	16498.12
824.126	16568.12
824.378	16497.12
824.63	16635.12
824.882	16636.12
825.134	16485.12
825.385	16564.12
825.637	16471.12
825.888	16306.12
826.14	16280.12
826.392	16362.12
826.643	16183.12
826.895	16083.12
827.146	15939.12
827.397	16006.12
827.649	16031.12
827.9	16003.12
828.151	15868.12
828.402	16027.12
828.653	16045.12
828.905	16070.12
829.156	16131.12
829.407	16204.12
829.658	16180.12
829.909	16211.12
830.159	16338.12
830.41	16201.12
830.661	16136.12
830.912	15895.12
831.162	15926.12
831.413	15914.12
831.664	16004.12
831.914	15846.12
832.165	15846.12
832.415	15764.12
832.666	15792.12
832.916	15842.12
833.167	15849.12
833.417	15794.12
833.667	15726.12
833.917	15765.12
834.168	15694.12
834.418	15723.12
834.668	15599.12
834.918	15508.12
835.168	15408.12
835.418	15372.12
835.668	15445.12
835.918	15276.12
836.167	15255.12
836.417	15118.12
836.667	15244.12
836.917	15197.12
837.166	15111.12
837.416	15206.12
837.666	15184.12
837.915	15140.12
838.165	15096.12
838.414	15012.12
838.663	15030.12
838.913	15102.12
839.162	14997.12
839.411	15078.12
839.661	14883.12
839.91	14939.12
840.159	14986.12
840.408	14960.12
840.657	14930.12
840.906	14846.12
841.155	14943.12
841.404	14937.12
841.653	14887.12
841.902	14853.12
842.15	14957.12
842.399	15060.12
842.648	14976.12
842.897	14947.12
843.145	14789.12
843.394	14683.12
843.642	14557.12
843.891	14534.12
844.139	14455.12
844.388	14322.12
844.636	14170.12
844.884	14268.12
845.133	14216.12
845.381	14195.12
845.629	14250.12
845.877	14249.12
846.125	14315.12
846.373	14191.12
846.621	14055.12
846.869	14063.12
847.117	14089.12
847.365	13927.12
847.613	13870.12
847.861	13880.12
848.108	13884.12
848.356	13864.12
848.604	13797.12
848.851	13753.12
849.099	13899.12
849.346	13839.12
849.594	14002.12
849.841	14020.12
850.089	13983.12
850.336	13938.12
850.583	14070.12
850.831	13960.12
851.078	13884.12
851.325	13779.12
851.572	13832.12
851.819	13694.12
852.066	13491.12
852.313	13355.12
852.56	13125.12
852.807	13116.12
853.054	13028.12
853.301	13082.12
853.548	13108.12
853.794	13272.12
854.041	13277.12
854.288	13223.12
854.534	13466.12
854.781	13454.12
855.028	13436.12
855.274	13374.12
855.52	13389.12
855.767	13350.12
856.013	13382.12
856.26	13686.12
856.506	13140.12
856.752	13150.12
856.998	13112.12
857.244	13209.12
857.49	13228.12
857.736	13237.12
857.982	13239.12
858.228	13169.12
858.474	13041.12
858.72	12986.12
858.966	12775.12
859.212	12656.12
859.458	12554.12
859.703	12459.12
859.949	12253.12
860.195	12206.12
860.44	12237.12
860.686	12243.12
860.931	12216.12
861.177	12112.12
861.422	11993.12
861.667	11849.12
861.913	11873.12
862.158	11876.12
862.403	11851.12
862.648	11888.12
862.893	12019.12
863.138	11923.12
863.384	11951.12
863.629	11951.12
863.873	11912.12
864.118	11831.12
864.363	11742.12
864.608	11769.12
864.853	11769.12
865.098	11531.12
865.342	11592.12
865.587	11533.12
865.832	11544.12
866.076	11541.12
866.321	11461.12
866.565	11375.12
866.81	11302.12
867.054	11294.12
867.298	11302.12
867.543	11202.12
867.787	11254.12
868.031	11265.12
868.275	11202.12
868.519	11177.12
868.764	11232.12
869.008	11095.12
869.252	11236.12
869.496	11124.12
869.739	11156.12
869.983	11197.12
870.227	11142.12
870.471	11182.12
870.715	11365.12
870.958	11236.12
871.202	11321.12
871.446	11314.12
871.689	11373.12
871.933	11331.12
872.176	11387.12
872.42	11266.12
872.663	11249.12
872.906	11329.12
873.15	11283.12
873.393	11279.12
873.636	11297.12
873.879	11272.12
874.122	11104.12
874.366	10895.12
874.609	10797.12
874.852	10641.12
875.095	10592.12
875.337	10465.12
875.58	10323.12
875.823	10380.12
876.066	10429.12
876.309	10300.12
876.551	10205.12
876.794	10169.12
877.037	10151.12
877.279	10082.12
877.522	10111.12
877.764	10091.12
878.007	10051.12
878.249	10009.12
878.491	9978.12
878.734	9979.12
878.976	9955.12
879.218	9876.12
879.46	9881.12
879.702	9862.12
879.945	9699.12
880.187	9615.12
880.429	9565.12
880.671	9543.12
880.912	9419.12
881.154	9405.12
881.396	9346.12
881.638	9432.12
881.88	9401.12
882.121	9402.12
882.363	9414.12
882.605	9412.12
882.846	9383.12
883.088	9407.12
883.329	9361.12
883.571	9461.12
883.812	9641.12
884.053	9983.12
884.295	10200.12
884.536	10427.12
884.777	10353.12
885.018	10243.12
885.259	10183.12
885.5	10009.12
885.742	10274.12
885.982	9985.12
886.223	9845.12
886.464	9785.12
886.705	9555.12
886.946	9499.12
887.187	9166.12
887.428	9228.12
887.668	8871.12
887.909	8823.12
888.15	8612.12
888.39	8637.12
888.631	8537.12
888.871	8501.12
889.111	8444.12
889.352	8301.12
889.592	8249.12
889.833	8185.12
890.073	8119.12
890.313	8212.12
890.553	7933.12
890.793	7911.12
891.033	7957.12
891.273	7894.12
891.513	7922.12
891.753	7862.12
891.993	7858.12
892.233	7869.12
892.473	7970.12
892.713	7921.12
892.952	7791.12
893.192	7873.12
893.432	7936.12
893.671	7824.12
893.911	7770.12
894.15	7736.12
894.39	7666.12
894.629	7635.12
894.869	7636.12
895.108	7585.12
895.347	7557.12
895.587	7577.12
895.826	7468.12
896.065	7485.12
896.304	7416.12
896.543	7467.12
896.782	7410.12
897.021	7404.12
897.26	7372.12
897.499	7421.12
897.738	7387.12
897.977	7338.12
898.216	7300.12
898.454	7182.12
898.693	7199.12
898.932	7116.12
899.17	7088.12
899.409	7066.12
899.647	7115.12
899.886	7063.12
900.124	7105.12
900.363	7060.12
900.601	7101.12
900.839	7140.12
901.078	7119.12
901.316	7253.12
901.554	7221.12
901.792	7404.12
902.03	7335.12
902.268	7326.12
902.506	7378.12
902.744	7252.12
902.982	7183.12
903.22	7046.12
903.458	6956.12
903.695	6932.12
903.933	6769.12
904.171	6635.12
904.409	6531.12
904.646	6506.12
904.884	6295.12
905.121	6348.12
905.359	6167.12
905.596	6176.12
905.833	6099.12
906.071	6055.12
906.308	6063.12
906.545	5999.12
906.783	5956.12
907.02	5984.12
907.257	5991.12
907.494	6026.12
907.731	5922.12
907.968	5948.12
908.205	5840.12
908.442	5847.12
908.679	5845.12
908.915	5772.12
909.152	5731.12
909.389	5662.12
909.626	5656.12
909.862	5570.12
910.099	5518.12
910.335	5583.12
910.572	5494.12
910.808	5476.12
911.045	5478.12
911.281	5435.12
911.518	5524.12
911.754	5384.12
911.99	5363.12
912.226	5357.12
912.463	5277.12
912.699	5259.12
912.935	5206.12
913.171	5237.12
913.407	5126.12
913.643	5135.12
913.879	5112.12
914.114	5093.12
914.35	5009.12
914.586	4923.12
914.822	4903.12
915.057	4932.12
915.293	4807.12
915.529	4794.12
915.764	4850.12
916	4808.12
916.235	4811.12
916.471	4820.12
916.706	4707.12
916.941	4736.12
917.177	4723.12
917.412	4801.12
917.647	4753.12
917.882	4710.12
918.117	4791.12
918.352	4690.12
918.588	4756.12
918.823	4594.12
919.057	4627.12
919.292	4491.12
919.527	4550.12
919.762	4482.12
919.997	4513.12
920.232	4451.12
920.466	4437.12
920.701	4258.12
920.935	4368.12
921.17	4277.12
921.405	4212.12
921.639	4295.12
921.873	4210.12
922.108	4255.12
922.342	4248.12
922.576	4179.12
922.811	4194.12
923.045	4196.12
923.279	4188.12
923.513	4076.12
923.747	4167.12
923.981	4102.12
924.215	4036.12
924.449	3993.12
924.683	3975.12
924.917	3956.12
925.151	3945.12
925.385	3999.12
925.618	3994.12
925.852	3934.12
926.086	3858.12
926.319	3960.12
926.553	3923.12
926.786	3911.12
927.02	3924.12
927.253	3949.12
927.486	3911.12
927.72	3829.12
927.953	3902.12
928.186	3886.12
928.42	3900.12
928.653	3812.12
928.886	3792.12
929.119	3798.12
929.352	3773.12
929.585	3781.12
929.818	3712.12
930.051	3735.12
930.284	3725.12
930.516	3618.12
930.749	3581.12
930.982	3607.12
931.215	3620.12
931.447	3555.12
931.68	3551.12
931.912	3541.12
932.145	3551.12
932.377	3521.12
932.61	3675.12
932.842	3495.12
933.074	3544.12
933.307	3494.12
933.539	3542.12
933.771	3582.12
934.003	3536.12
934.236	3558.12
934.468	3566.12
934.7	3501.12
934.932	3564.12
935.164	3465.12
935.395	3431.12
935.627	3469.12
935.859	3491.12
936.091	3360.12
936.323	3490.12
936.554	3459.12
936.786	3417.12
937.017	3359.12
937.249	3379.12
937.481	3295.12
937.712	3359.12
937.943	3384.12
938.175	3377.12
938.406	3321.12
938.637	3360.12
938.869	3296.12
939.1	3353.12
939.331	3313.12
939.562	3330.12
939.793	3328.12
940.024	3334.12
940.255	3287.12
940.486	3262.12
940.717	3256.12
940.948	3244.12
941.179	3203.12
941.409	3169.12
941.64	3196.12
941.871	3195.12
942.102	3228.12
942.332	3195.12
942.563	3210.12
942.793	3217.12
943.024	3138.12
943.254	3216.12
943.484	3202.12
943.715	3243.12
943.945	3222.12
944.175	3133.12
944.405	3112.12
944.636	3140.12
944.866	3175.12
945.096	3195.12
945.326	3101.12
945.556	3143.12
945.786	3176.12
946.016	3117.12
946.245	3046.12
946.475	3091.12
946.705	3038.12
946.935	2996.12
947.164	3017.12
947.394	2977.12
947.624	3005.12
947.853	3022.12
948.083	2999.12
948.312	2934.12
948.542	2909.12
948.771	2881.12
949	2897.12
949.23	2896.12
949.459	2922.12
949.688	2970.12
949.917	2909.12
950.146	2954.12
950.375	2975.12
950.604	2887.12
950.833	2940.12
951.062	2939.12
951.291	2892.12
951.52	2828.12
951.749	2898.12
951.978	2837.12
952.206	2813.12
952.435	2840.12
952.664	2835.12
952.892	2888.12
953.121	2825.12
953.349	2838.12
953.578	2837.12
953.806	2815.12
954.035	2746.12
954.263	2786.12
954.491	2717.12
954.719	2770.12
954.948	2743.12
955.176	2714.12
955.404	2653.12
955.632	2693.12
955.86	2713.12
956.088	2685.12
956.316	2683.12
956.544	2711.12
956.772	2636.12
956.999	2635.12
957.227	2666.12
957.455	2566.12
957.683	2565.12
957.91	2543.12
958.138	2536.12
958.365	2570.12
958.593	2556.12
958.82	2475.12
959.048	2536.12
959.275	2545.12
959.502	2527.12
959.73	2487.12
959.957	2536.12
960.184	2542.12
960.411	2492.12
960.638	2551.12
960.865	2460.12
961.092	2551.12
961.319	2408.12
961.546	2519.12
961.773	2501.12
962	2459.12
962.227	2501.12
962.454	2517.12
962.68	2456.12
962.907	2467.12
963.134	2421.12
963.36	2411.12
963.587	2443.12
963.813	2365.12
964.04	2384.12
964.266	2329.12
964.493	2455.12
964.719	2410.12
964.945	2404.12
965.171	2301.12
965.398	2353.12
965.624	2358.12
965.85	2282.12
966.076	2309.12
966.302	2336.12
966.528	2270.12
966.754	2300.12
966.98	2281.12
967.206	2308.12
967.431	2203.12
967.657	2339.12
967.883	2276.12
968.109	2247.12
968.334	2232.12
968.56	2215.12
968.785	2213.12
969.011	2171.12
969.236	2255.12
969.462	2177.12
969.687	2208.12
969.912	2195.12
970.138	2240.12
970.363	2170.12
970.588	2181.12
970.813	2169.12
971.038	2111.12
971.263	2178.12
971.488	2197.12
971.713	2201.12
971.938	2175.12
972.163	2091.12
972.388	2090.12
972.613	2077.12
972.838	2081.12
973.062	2055.12
973.287	2031.12
973.512	2043.12
973.736	2096.12
973.961	2030.12
974.185	2011.12
974.41	2064.12
974.634	1972.12
974.858	1982.12
975.083	1996.12
975.307	2030.12
975.531	1927.12
975.755	1919.12
975.98	1948.12
976.204	1894.12
976.428	1868.12
976.652	1868.12
976.876	1848.12
977.1	1902.12
977.324	1886.12
977.547	1902.12
977.771	1954.12
977.995	1866.12
978.219	1819.12
978.442	1909.12
978.666	1864.12
978.89	1876.12
979.113	1865.12
979.337	1858.12
979.56	1821.12
979.783	1895.12
980.007	1796.12
980.23	1837.12
980.453	1801.12
980.677	1837.12
980.9	1833.12
981.123	1713.12
981.346	1801.12
981.569	1823.12
981.792	1840.12
982.015	1772.12
982.238	1747.12
982.461	1753.12
982.684	1734.12
982.907	1708.12
983.129	1712.12
983.352	1772.12
983.575	1694.12
983.797	1764.12
984.02	1706.12
984.242	1686.12
984.465	1703.12
984.687	1707.12
984.91	1764.12
985.132	1716.12
985.354	1703.12
985.577	1710.12
985.799	1674.12
986.021	1590.12
986.243	1631.12
986.465	1673.12
986.687	1685.12
986.909	1752.12
987.131	1638.12
987.353	1614.12
987.575	1645.12
987.797	1621.12
988.019	1574.12
988.241	1607.12
988.462	1580.12
988.684	1664.12
988.906	1683.12
989.127	1705.12
989.349	1549.12
989.57	1576.12
989.792	1611.12
990.013	1636.12
990.234	1632.12
990.456	1663.12
990.677	1644.12
990.898	1604.12
991.119	1582.12
991.341	1582.12
991.562	1556.12
991.783	1605.12
992.004	1551.12
992.225	1495.12
992.446	1567.12
992.667	1482.12
992.887	1563.12
993.108	1484.12
993.329	1620.12
993.55	1532.12
993.77	1490.12
993.991	1474.12
994.212	1549.12
994.432	1463.12
994.653	1528.12
994.873	1511.12
995.093	1388.12
995.314	1409.12
995.534	1518.12
995.754	1507.12
995.975	1544.12
996.195	1450.12
996.415	1489.12
996.635	1471.12
996.855	1485.12
997.075	1457.12
997.295	1495.12
997.515	1456.12
997.735	1482.12
997.955	1453.12
998.174	1487.12
998.394	1415.12
998.614	1481.12
998.834	1414.12
999.053	1504.12
999.273	1477.12
999.492	1527.12
999.712	1445.12
999.931	1430.12
1000.151	1460.12
1000.37	1460.12
1000.589	1482.12
1000.809	1396.12
1001.028	1540.12
1001.247	1465.12
1001.466	1342.12
1001.685	1487.12
1001.904	1439.12
1002.123	1419.12
1002.342	1400.12
1002.561	1370.12
1002.78	1402.12
1002.999	1444.12
1003.218	1424.12
1003.436	1380.12
1003.655	1458.12
1003.874	1366.12
1004.092	1400.12
1004.311	1454.12
1004.53	1377.12
1004.748	1478.12
1004.966	1380.12
1005.185	1429.12
1005.403	1419.12
1005.622	1404.12
1005.84	1515.12
1006.058	1392.12
1006.276	1422.12
1006.494	1920.12
1006.712	1399.12
1006.931	1483.12
1007.149	1369.12
1007.367	1399.12
1007.584	1436.12
1007.802	1459.12
1008.02	1396.12
1008.238	1529.12
1008.456	1480.12
1008.673	1361.12
1008.891	1483.12
1009.109	1472.12
1009.326	1536.12
1009.544	1609.12
1009.761	1501.12
1009.979	1628.12
1010.196	1662.12
1010.413	1757.12
1010.631	1845.12
1010.848	1890.12
1011.065	1889.12
1011.282	1861.12
1011.5	1770.12
1011.717	1876.12
1011.934	1824.12
1012.151	1845.12
1012.368	1849.12
1012.585	1770.12
1012.801	1822.12
1013.018	1776.12
1013.235	1753.12
1013.452	1810.12
1013.669	1807.12
1013.885	1800.12
1014.102	1847.12
1014.318	1794.12
1014.535	1778.12
1014.751	1829.12
1014.968	1818.12
1015.184	1799.12
1015.401	1704.12
1015.617	1778.12
1015.833	1690.12
1016.049	1696.12
1016.266	1646.12
1016.482	1640.12
1016.698	1591.12
1016.914	1620.12
1017.13	1578.12
1017.346	1581.12
1017.562	1638.12
1017.778	1593.12
1017.993	1514.12
1018.209	1582.12
1018.425	1539.12
1018.641	1520.12
1018.856	1509.12
1019.072	1542.12
1019.288	1618.12
1019.503	1537.12
1019.719	1453.12
1019.934	1462.12
1020.149	1541.12
1020.365	1470.12
1020.58	1405.12
1020.795	1455.12
1021.011	1399.12
1021.226	1324.12
1021.441	1385.12
1021.656	1282.12
1021.871	1196.12
1022.086	1217.12
1022.301	1204.12
1022.516	1182.12
1022.731	1248.12
1022.946	1157.12
1023.16	1129.12
1023.375	1089.12
1023.59	1083.12
1023.804	1061.12
1024.019	1142.12
1024.234	997.12
1024.448	1032.12
1024.663	954.12
1024.877	966.12
1025.092	997.12
1025.306	1001.12
1025.52	887.12
1025.734	968.12
1025.949	915.12
1026.163	858.12
1026.377	810.12
1026.591	881.12
1026.805	785.12
1027.019	786.12
1027.233	751.12
1027.447	674.12
1027.661	806.12
1027.875	748.12
1028.088	730.12
1028.302	659.12
1028.516	665.12
1028.73	668.12
1028.943	653.12
1029.157	606.12
1029.37	561.12
1029.584	-3.88
1029.797	-0.88
1030.011	-2.88
1030.224	1.12
