Data from QEP037381__39__13-27-41-044.txt Node

Date: Wed Dec 21 13:27:41 EST 2022
User: dcclab
Spectrometer: QEP03738
Trigger mode: 4
Integration Time (sec): 1.000000E1
Scans to average: 1
Electric dark correction enabled: true
Nonlinearity correction enabled: false
Boxcar width: 0
XAxis mode: Wavelengths
Number of Pixels in Spectrum: 1044
>>>>>Begin Spectral Data<<<<<
784.041	15.5
784.3	3.5
784.558	-3.5
784.817	-2.5
785.075	91204.5
785.334	15566.5
785.592	7221.5
785.851	4970.5
786.109	3735.5
786.368	2921.5
786.626	2360.5
786.884	1946.5
787.143	1653.5
787.401	1356.5
787.659	1244.5
787.917	1075.5
788.175	965.5
788.433	858.5
788.691	779.5
788.949	727.5
789.207	692.5
789.465	601.5
789.723	596.5
789.98	535.5
790.238	579.5
790.496	548.5
790.753	525.5
791.011	559.5
791.268	511.5
791.526	494.5
791.783	504.5
792.041	476.5
792.298	399.5
792.556	483.5
792.813	455.5
793.07	441.5
793.327	416.5
793.584	502.5
793.841	429.5
794.099	440.5
794.356	501.5
794.613	403.5
794.869	449.5
795.126	408.5
795.383	372.5
795.64	407.5
795.897	361.5
796.153	419.5
796.41	413.5
796.667	381.5
796.923	389.5
797.18	388.5
797.436	421.5
797.693	377.5
797.949	427.5
798.206	455.5
798.462	371.5
798.718	422.5
798.974	400.5
799.231	453.5
799.487	438.5
799.743	442.5
799.999	454.5
800.255	455.5
800.511	423.5
800.767	464.5
801.023	448.5
801.279	467.5
801.534	478.5
801.79	521.5
802.046	537.5
802.302	633.5
802.557	684.5
802.813	781.5
803.068	914.5
803.324	1229.5
803.579	1575.5
803.835	2123.5
804.09	2887.5
804.345	3613.5
804.601	4538.5
804.856	5438.5
805.111	6266.5
805.366	6866.5
805.621	7315.5
805.876	7640.5
806.131	7827.5
806.386	7969.5
806.641	8096.5
806.896	8278.5
807.151	8414.5
807.406	8527.5
807.661	8694.5
807.915	8836.5
808.17	9046.5
808.425	9125.5
808.679	9109.5
808.934	9310.5
809.188	9328.5
809.443	9460.5
809.697	9558.5
809.951	9650.5
810.206	9711.5
810.46	9801.5
810.714	9892.5
810.968	10046.5
811.223	10110.5
811.477	10235.5
811.731	10231.5
811.985	10292.5
812.239	10263.5
812.493	10354.5
812.747	10382.5
813	10419.5
813.254	10509.5
813.508	10535.5
813.762	10534.5
814.015	10592.5
814.269	10692.5
814.522	10771.5
814.776	10893.5
815.03	11106.5
815.283	11222.5
815.536	11369.5
815.79	11573.5
816.043	11672.5
816.296	11803.5
816.55	11973.5
816.803	12157.5
817.056	12416.5
817.309	12569.5
817.562	12673.5
817.815	12703.5
818.068	12852.5
818.321	12887.5
818.574	12977.5
818.827	13267.5
819.079	13391.5
819.332	13674.5
819.585	13904.5
819.838	14167.5
820.09	14005.5
820.343	14116.5
820.595	14177.5
820.848	14283.5
821.1	14285.5
821.353	14330.5
821.605	14237.5
821.857	14271.5
822.11	14106.5
822.362	14120.5
822.614	14108.5
822.866	14203.5
823.118	14102.5
823.37	14265.5
823.622	14305.5
823.874	14289.5
824.126	14416.5
824.378	14387.5
824.63	14411.5
824.882	14438.5
825.134	14416.5
825.385	14311.5
825.637	14343.5
825.888	14206.5
826.14	14279.5
826.392	14218.5
826.643	14109.5
826.895	14159.5
827.146	14019.5
827.397	13915.5
827.649	14037.5
827.9	13960.5
828.151	13938.5
828.402	13921.5
828.653	14065.5
828.905	14139.5
829.156	14231.5
829.407	14112.5
829.658	14145.5
829.909	14335.5
830.159	14409.5
830.41	14367.5
830.661	14167.5
830.912	13978.5
831.162	14054.5
831.413	13998.5
831.664	14091.5
831.914	13976.5
832.165	14041.5
832.415	13956.5
832.666	14062.5
832.916	14083.5
833.167	14062.5
833.417	13958.5
833.667	13923.5
833.917	13880.5
834.168	13921.5
834.418	13893.5
834.668	13913.5
834.918	13723.5
835.168	13737.5
835.418	13608.5
835.668	13556.5
835.918	13550.5
836.167	13541.5
836.417	13526.5
836.667	13498.5
836.917	13559.5
837.166	13554.5
837.416	13586.5
837.666	13606.5
837.915	13575.5
838.165	13558.5
838.414	13485.5
838.663	13457.5
838.913	13507.5
839.162	13591.5
839.411	13552.5
839.661	13467.5
839.91	13474.5
840.159	13511.5
840.408	13575.5
840.657	13523.5
840.906	13600.5
841.155	13534.5
841.404	13519.5
841.653	13506.5
841.902	13591.5
842.15	13641.5
842.399	13738.5
842.648	13695.5
842.897	13674.5
843.145	13435.5
843.394	13364.5
843.642	13335.5
843.891	13334.5
844.139	13118.5
844.388	13091.5
844.636	12896.5
844.884	12996.5
845.133	12959.5
845.381	12995.5
845.629	13138.5
845.877	13062.5
846.125	13043.5
846.373	13051.5
846.621	12938.5
846.869	12930.5
847.117	12792.5
847.365	12860.5
847.613	12747.5
847.861	12713.5
848.108	12765.5
848.356	12713.5
848.604	12736.5
848.851	12770.5
849.099	12740.5
849.346	12800.5
849.594	12897.5
849.841	13013.5
850.089	13008.5
850.336	13128.5
850.583	13101.5
850.831	13091.5
851.078	13004.5
851.325	13048.5
851.572	13021.5
851.819	12903.5
852.066	12598.5
852.313	12364.5
852.56	12289.5
852.807	12234.5
853.054	12251.5
853.301	12304.5
853.548	12317.5
853.794	12419.5
854.041	12368.5
854.288	12456.5
854.534	12616.5
854.781	12654.5
855.028	12534.5
855.274	12661.5
855.52	12600.5
855.767	12565.5
856.013	12740.5
856.26	12958.5
856.506	12478.5
856.752	12402.5
856.998	12397.5
857.244	12482.5
857.49	12516.5
857.736	12596.5
857.982	12626.5
858.228	12533.5
858.474	12305.5
858.72	12113.5
858.966	12136.5
859.212	12047.5
859.458	11818.5
859.703	11772.5
859.949	11690.5
860.195	11596.5
860.44	11559.5
860.686	11491.5
860.931	11629.5
861.177	11401.5
861.422	11365.5
861.667	11181.5
861.913	11160.5
862.158	11178.5
862.403	11312.5
862.648	11322.5
862.893	11265.5
863.138	11281.5
863.384	11145.5
863.629	11231.5
863.873	11166.5
864.118	11239.5
864.363	11113.5
864.608	11199.5
864.853	11093.5
865.098	11020.5
865.342	11051.5
865.587	11001.5
865.832	10965.5
866.076	10980.5
866.321	10934.5
866.565	10920.5
866.81	10863.5
867.054	10847.5
867.298	10830.5
867.543	10736.5
867.787	10744.5
868.031	10755.5
868.275	10725.5
868.519	10755.5
868.764	10822.5
869.008	10825.5
869.252	10836.5
869.496	10831.5
869.739	10806.5
869.983	10853.5
870.227	10977.5
870.471	10891.5
870.715	11076.5
870.958	11162.5
871.202	11074.5
871.446	11174.5
871.689	11161.5
871.933	11103.5
872.176	11127.5
872.42	11117.5
872.663	11044.5
872.906	11077.5
873.15	11166.5
873.393	11139.5
873.636	11255.5
873.879	11132.5
874.122	10945.5
874.366	10731.5
874.609	10608.5
874.852	10416.5
875.095	10433.5
875.337	10268.5
875.58	10273.5
875.823	10264.5
876.066	10200.5
876.309	10176.5
876.551	10031.5
876.794	10089.5
877.037	10040.5
877.279	9976.5
877.522	9944.5
877.764	9908.5
878.007	9873.5
878.249	9842.5
878.491	9819.5
878.734	9811.5
878.976	9742.5
879.218	9651.5
879.46	9661.5
879.702	9632.5
879.945	9470.5
880.187	9358.5
880.429	9400.5
880.671	9374.5
880.912	9322.5
881.154	9330.5
881.396	9200.5
881.638	9257.5
881.88	9265.5
882.121	9172.5
882.363	9344.5
882.605	9363.5
882.846	9254.5
883.088	9351.5
883.329	9387.5
883.571	9501.5
883.812	9765.5
884.053	10160.5
884.295	10600.5
884.536	10925.5
884.777	10772.5
885.018	10661.5
885.259	10523.5
885.5	10379.5
885.742	10546.5
885.982	10281.5
886.223	10164.5
886.464	10005.5
886.705	9792.5
886.946	9687.5
887.187	9390.5
887.428	9203.5
887.668	8954.5
887.909	8806.5
888.15	8694.5
888.39	8586.5
888.631	8563.5
888.871	8421.5
889.111	8379.5
889.352	8225.5
889.592	8189.5
889.833	8109.5
890.073	8043.5
890.313	8046.5
890.553	7852.5
890.793	7887.5
891.033	7886.5
891.273	7815.5
891.513	7776.5
891.753	7864.5
891.993	7726.5
892.233	7759.5
892.473	7905.5
892.713	7869.5
892.952	7833.5
893.192	7801.5
893.432	7817.5
893.671	7849.5
893.911	7799.5
894.15	7794.5
894.39	7695.5
894.629	7618.5
894.869	7602.5
895.108	7595.5
895.347	7514.5
895.587	7559.5
895.826	7436.5
896.065	7462.5
896.304	7543.5
896.543	7516.5
896.782	7461.5
897.021	7462.5
897.26	7466.5
897.499	7559.5
897.738	7539.5
897.977	7476.5
898.216	7382.5
898.454	7339.5
898.693	7333.5
898.932	7403.5
899.17	7283.5
899.409	7294.5
899.647	7350.5
899.886	7200.5
900.124	7320.5
900.363	7347.5
900.601	7390.5
900.839	7410.5
901.078	7500.5
901.316	7639.5
901.554	7688.5
901.792	7741.5
902.03	7726.5
902.268	7826.5
902.506	7811.5
902.744	7699.5
902.982	7727.5
903.22	7428.5
903.458	7337.5
903.695	7171.5
903.933	6952.5
904.171	6802.5
904.409	6734.5
904.646	6705.5
904.884	6462.5
905.121	6445.5
905.359	6285.5
905.596	6281.5
905.833	6171.5
906.071	6116.5
906.308	6188.5
906.545	6126.5
906.783	6056.5
907.02	6035.5
907.257	6012.5
907.494	5988.5
907.731	6025.5
907.968	5990.5
908.205	5894.5
908.442	5922.5
908.679	5890.5
908.915	5839.5
909.152	5783.5
909.389	5653.5
909.626	5684.5
909.862	5596.5
910.099	5580.5
910.335	5634.5
910.572	5491.5
910.808	5582.5
911.045	5458.5
911.281	5451.5
911.518	5504.5
911.754	5432.5
911.99	5430.5
912.226	5364.5
912.463	5304.5
912.699	5301.5
912.935	5247.5
913.171	5210.5
913.407	5124.5
913.643	5161.5
913.879	5114.5
914.114	5050.5
914.35	4939.5
914.586	4956.5
914.822	4898.5
915.057	4952.5
915.293	4874.5
915.529	4849.5
915.764	4864.5
916	4889.5
916.235	4851.5
916.471	4837.5
916.706	4743.5
916.941	4786.5
917.177	4729.5
917.412	4774.5
917.647	4800.5
917.882	4770.5
918.117	4746.5
918.352	4771.5
918.588	4787.5
918.823	4682.5
919.057	4642.5
919.292	4527.5
919.527	4621.5
919.762	4511.5
919.997	4494.5
920.232	4433.5
920.466	4463.5
920.701	4349.5
920.935	4393.5
921.17	4329.5
921.405	4270.5
921.639	4312.5
921.873	4292.5
922.108	4263.5
922.342	4279.5
922.576	4196.5
922.811	4175.5
923.045	4225.5
923.279	4237.5
923.513	4078.5
923.747	4197.5
923.981	4189.5
924.215	4091.5
924.449	4066.5
924.683	4017.5
924.917	4007.5
925.151	4043.5
925.385	4062.5
925.618	3964.5
925.852	4002.5
926.086	3960.5
926.319	3967.5
926.553	3974.5
926.786	3981.5
927.02	3948.5
927.253	3991.5
927.486	3968.5
927.72	3897.5
927.953	3931.5
928.186	3896.5
928.42	3976.5
928.653	3907.5
928.886	3832.5
929.119	3917.5
929.352	3837.5
929.585	3819.5
929.818	3718.5
930.051	3772.5
930.284	3799.5
930.516	3639.5
930.749	3694.5
930.982	3695.5
931.215	3693.5
931.447	3654.5
931.68	3595.5
931.912	3588.5
932.145	3618.5
932.377	3617.5
932.61	3752.5
932.842	3541.5
933.074	3636.5
933.307	3560.5
933.539	3662.5
933.771	3672.5
934.003	3603.5
934.236	3648.5
934.468	3669.5
934.7	3554.5
934.932	3590.5
935.164	3536.5
935.395	3553.5
935.627	3542.5
935.859	3543.5
936.091	3513.5
936.323	3534.5
936.554	3550.5
936.786	3489.5
937.017	3459.5
937.249	3470.5
937.481	3442.5
937.712	3504.5
937.943	3428.5
938.175	3470.5
938.406	3421.5
938.637	3468.5
938.869	3405.5
939.1	3439.5
939.331	3389.5
939.562	3405.5
939.793	3407.5
940.024	3428.5
940.255	3409.5
940.486	3362.5
940.717	3349.5
940.948	3322.5
941.179	3304.5
941.409	3331.5
941.64	3298.5
941.871	3309.5
942.102	3256.5
942.332	3293.5
942.563	3323.5
942.793	3348.5
943.024	3253.5
943.254	3280.5
943.484	3278.5
943.715	3357.5
943.945	3288.5
944.175	3226.5
944.405	3201.5
944.636	3229.5
944.866	3265.5
945.096	3251.5
945.326	3183.5
945.556	3276.5
945.786	3245.5
946.016	3198.5
946.245	3149.5
946.475	3195.5
946.705	3119.5
946.935	3163.5
947.164	3143.5
947.394	3064.5
947.624	3130.5
947.853	3116.5
948.083	3093.5
948.312	3098.5
948.542	2969.5
948.771	2981.5
949	3034.5
949.23	3007.5
949.459	3005.5
949.688	3050.5
949.917	2983.5
950.146	3016.5
950.375	3028.5
950.604	2940.5
950.833	3046.5
951.062	3033.5
951.291	2946.5
951.52	2978.5
951.749	2970.5
951.978	2913.5
952.206	2914.5
952.435	2913.5
952.664	2942.5
952.892	2927.5
953.121	2925.5
953.349	2975.5
953.578	2927.5
953.806	2872.5
954.035	2819.5
954.263	2870.5
954.491	2813.5
954.719	2870.5
954.948	2798.5
955.176	2791.5
955.404	2725.5
955.632	2788.5
955.86	2773.5
956.088	2751.5
956.316	2780.5
956.544	2801.5
956.772	2711.5
956.999	2698.5
957.227	2792.5
957.455	2646.5
957.683	2718.5
957.91	2656.5
958.138	2617.5
958.365	2619.5
958.593	2638.5
958.82	2554.5
959.048	2667.5
959.275	2602.5
959.502	2602.5
959.73	2571.5
959.957	2598.5
960.184	2628.5
960.411	2566.5
960.638	2613.5
960.865	2567.5
961.092	2641.5
961.319	2493.5
961.546	2609.5
961.773	2587.5
962	2560.5
962.227	2616.5
962.454	2544.5
962.68	2552.5
962.907	2530.5
963.134	2488.5
963.36	2519.5
963.587	2546.5
963.813	2433.5
964.04	2464.5
964.266	2420.5
964.493	2505.5
964.719	2461.5
964.945	2460.5
965.171	2356.5
965.398	2418.5
965.624	2433.5
965.85	2374.5
966.076	2358.5
966.302	2393.5
966.528	2359.5
966.754	2381.5
966.98	2357.5
967.206	2369.5
967.431	2275.5
967.657	2386.5
967.883	2359.5
968.109	2346.5
968.334	2327.5
968.56	2264.5
968.785	2307.5
969.011	2276.5
969.236	2314.5
969.462	2253.5
969.687	2271.5
969.912	2311.5
970.138	2315.5
970.363	2230.5
970.588	2305.5
970.813	2229.5
971.038	2195.5
971.263	2244.5
971.488	2228.5
971.713	2246.5
971.938	2242.5
972.163	2132.5
972.388	2171.5
972.613	2135.5
972.838	2176.5
973.062	2169.5
973.287	2125.5
973.512	2074.5
973.736	2103.5
973.961	2096.5
974.185	2112.5
974.41	2120.5
974.634	2040.5
974.858	2038.5
975.083	2044.5
975.307	2063.5
975.531	2030.5
975.755	1984.5
975.98	1995.5
976.204	1939.5
976.428	1926.5
976.652	1936.5
976.876	1930.5
977.1	1957.5
977.324	1930.5
977.547	2008.5
977.771	1964.5
977.995	1943.5
978.219	1884.5
978.442	2002.5
978.666	1919.5
978.89	1908.5
979.113	1911.5
979.337	1907.5
979.56	1886.5
979.783	1986.5
980.007	1849.5
980.23	1884.5
980.453	1853.5
980.677	1889.5
980.9	1863.5
981.123	1763.5
981.346	1876.5
981.569	1848.5
981.792	1871.5
982.015	1822.5
982.238	1780.5
982.461	1817.5
982.684	1794.5
982.907	1766.5
983.129	1750.5
983.352	1837.5
983.575	1790.5
983.797	1773.5
984.02	1767.5
984.242	1752.5
984.465	1733.5
984.687	1795.5
984.91	1821.5
985.132	1767.5
985.354	1778.5
985.577	1732.5
985.799	1733.5
986.021	1633.5
986.243	1704.5
986.465	1723.5
986.687	1771.5
986.909	1812.5
987.131	1713.5
987.353	1689.5
987.575	1722.5
987.797	1663.5
988.019	1612.5
988.241	1680.5
988.462	1645.5
988.684	1718.5
988.906	1736.5
989.127	1731.5
989.349	1636.5
989.57	1662.5
989.792	1704.5
990.013	1730.5
990.234	1719.5
990.456	1752.5
990.677	1701.5
990.898	1648.5
991.119	1632.5
991.341	1680.5
991.562	1623.5
991.783	1647.5
992.004	1589.5
992.225	1541.5
992.446	1627.5
992.667	1567.5
992.887	1643.5
993.108	1509.5
993.329	1637.5
993.55	1580.5
993.77	1551.5
993.991	1541.5
994.212	1581.5
994.432	1563.5
994.653	1621.5
994.873	1591.5
995.093	1465.5
995.314	1497.5
995.534	1565.5
995.754	1580.5
995.975	1620.5
996.195	1506.5
996.415	1563.5
996.635	1543.5
996.855	1547.5
997.075	1544.5
997.295	1539.5
997.515	1518.5
997.735	1566.5
997.955	1547.5
998.174	1533.5
998.394	1514.5
998.614	1550.5
998.834	1517.5
999.053	1584.5
999.273	1570.5
999.492	1584.5
999.712	1515.5
999.931	1478.5
1000.151	1526.5
1000.37	1512.5
1000.589	1555.5
1000.809	1470.5
1001.028	1580.5
1001.247	1533.5
1001.466	1423.5
1001.685	1575.5
1001.904	1495.5
1002.123	1477.5
1002.342	1496.5
1002.561	1443.5
1002.78	1481.5
1002.999	1530.5
1003.218	1456.5
1003.436	1454.5
1003.655	1477.5
1003.874	1420.5
1004.092	1444.5
1004.311	1493.5
1004.53	1467.5
1004.748	1535.5
1004.966	1465.5
1005.185	1514.5
1005.403	1480.5
1005.622	1470.5
1005.84	1545.5
1006.058	1467.5
1006.276	1492.5
1006.494	1979.5
1006.712	1466.5
1006.931	1546.5
1007.149	1455.5
1007.367	1468.5
1007.584	1529.5
1007.802	1552.5
1008.02	1496.5
1008.238	1619.5
1008.456	1637.5
1008.673	1516.5
1008.891	1650.5
1009.109	1597.5
1009.326	1668.5
1009.544	1763.5
1009.761	1749.5
1009.979	1868.5
1010.196	1918.5
1010.413	2063.5
1010.631	2180.5
1010.848	2200.5
1011.065	2238.5
1011.282	2226.5
1011.5	2118.5
1011.717	2266.5
1011.934	2183.5
1012.151	2211.5
1012.368	2207.5
1012.585	2145.5
1012.801	2210.5
1013.018	2193.5
1013.235	2123.5
1013.452	2176.5
1013.669	2180.5
1013.885	2165.5
1014.102	2231.5
1014.318	2211.5
1014.535	2163.5
1014.751	2209.5
1014.968	2178.5
1015.184	2195.5
1015.401	2092.5
1015.617	2134.5
1015.833	2048.5
1016.049	2056.5
1016.266	2021.5
1016.482	2036.5
1016.698	1955.5
1016.914	1976.5
1017.13	1938.5
1017.346	1923.5
1017.562	1997.5
1017.778	1909.5
1017.993	1867.5
1018.209	1947.5
1018.425	1927.5
1018.641	1871.5
1018.856	1843.5
1019.072	1867.5
1019.288	1920.5
1019.503	1879.5
1019.719	1792.5
1019.934	1802.5
1020.149	1863.5
1020.365	1770.5
1020.58	1716.5
1020.795	1756.5
1021.011	1641.5
1021.226	1593.5
1021.441	1612.5
1021.656	1546.5
1021.871	1482.5
1022.086	1436.5
1022.301	1416.5
1022.516	1402.5
1022.731	1466.5
1022.946	1345.5
1023.16	1348.5
1023.375	1302.5
1023.59	1279.5
1023.804	1242.5
1024.019	1332.5
1024.234	1168.5
1024.448	1202.5
1024.663	1132.5
1024.877	1117.5
1025.092	1120.5
1025.306	1133.5
1025.52	1023.5
1025.734	1111.5
1025.949	1018.5
1026.163	980.5
1026.377	938.5
1026.591	944.5
1026.805	892.5
1027.019	891.5
1027.233	846.5
1027.447	797.5
1027.661	902.5
1027.875	834.5
1028.088	831.5
1028.302	772.5
1028.516	750.5
1028.73	740.5
1028.943	738.5
1029.157	692.5
1029.37	640.5
1029.584	-4.5
1029.797	-1.5
1030.011	-4.5
1030.224	-2.5
