Data from QEP037381__62__13-31-31-033.txt Node

Date: Wed Dec 21 13:31:31 EST 2022
User: dcclab
Spectrometer: QEP03738
Trigger mode: 4
Integration Time (sec): 1.000000E1
Scans to average: 1
Electric dark correction enabled: true
Nonlinearity correction enabled: false
Boxcar width: 0
XAxis mode: Wavelengths
Number of Pixels in Spectrum: 1044
>>>>>Begin Spectral Data<<<<<
784.041	11.62
784.3	0.62
784.558	-1.38
784.817	-4.38
785.075	91409.62
785.334	15675.62
785.592	7445.62
785.851	5165.62
786.109	3852.62
786.368	3058.62
786.626	2438.62
786.884	2033.62
787.143	1727.62
787.401	1389.62
787.659	1275.62
787.917	1095.62
788.175	999.62
788.433	891.62
788.691	814.62
788.949	758.62
789.207	711.62
789.465	633.62
789.723	602.62
789.98	547.62
790.238	596.62
790.496	559.62
790.753	535.62
791.011	594.62
791.268	516.62
791.526	497.62
791.783	523.62
792.041	517.62
792.298	430.62
792.556	482.62
792.813	460.62
793.07	454.62
793.327	441.62
793.584	522.62
793.841	434.62
794.099	449.62
794.356	520.62
794.613	417.62
794.869	449.62
795.126	413.62
795.383	393.62
795.64	428.62
795.897	380.62
796.153	424.62
796.41	407.62
796.667	409.62
796.923	409.62
797.18	400.62
797.436	445.62
797.693	414.62
797.949	462.62
798.206	478.62
798.462	403.62
798.718	461.62
798.974	437.62
799.231	471.62
799.487	470.62
799.743	472.62
799.999	490.62
800.255	489.62
800.511	471.62
800.767	506.62
801.023	500.62
801.279	530.62
801.534	574.62
801.79	598.62
802.046	596.62
802.302	726.62
802.557	821.62
802.813	990.62
803.068	1186.62
803.324	1587.62
803.579	2156.62
803.835	2929.62
804.09	3991.62
804.345	5215.62
804.601	6557.62
804.856	7981.62
805.111	9312.62
805.366	10380.62
805.621	10989.62
805.876	11569.62
806.131	11975.62
806.386	12113.62
806.641	12336.62
806.896	12631.62
807.151	12840.62
807.406	13080.62
807.661	13365.62
807.915	13595.62
808.17	13838.62
808.425	13887.62
808.679	14061.62
808.934	14256.62
809.188	14507.62
809.443	14538.62
809.697	14749.62
809.951	14788.62
810.206	14921.62
810.46	15107.62
810.714	15221.62
810.968	15424.62
811.223	15695.62
811.477	15688.62
811.731	15956.62
811.985	15861.62
812.239	15925.62
812.493	16152.62
812.747	16024.62
813	16155.62
813.254	16310.62
813.508	16429.62
813.762	16465.62
814.015	16588.62
814.269	16673.62
814.522	16793.62
814.776	17037.62
815.03	17249.62
815.283	17668.62
815.536	17872.62
815.79	18095.62
816.043	18358.62
816.296	18731.62
816.55	18926.62
816.803	19133.62
817.056	19358.62
817.309	19557.62
817.562	19782.62
817.815	19999.62
818.068	20192.62
818.321	20448.62
818.574	20664.62
818.827	20870.62
819.079	21276.62
819.332	21741.62
819.585	21951.62
819.838	22244.62
820.09	22349.62
820.343	22555.62
820.595	22505.62
820.848	22715.62
821.1	22870.62
821.353	22908.62
821.605	22861.62
821.857	22862.62
822.11	22729.62
822.362	22698.62
822.614	22622.62
822.866	22735.62
823.118	22664.62
823.37	22802.62
823.622	23038.62
823.874	22906.62
824.126	23188.62
824.378	23120.62
824.63	23070.62
824.882	23143.62
825.134	23303.62
825.385	23196.62
825.637	23144.62
825.888	23138.62
826.14	23216.62
826.392	23024.62
826.643	22821.62
826.895	22922.62
827.146	22922.62
827.397	22721.62
827.649	22859.62
827.9	22751.62
828.151	22729.62
828.402	22847.62
828.653	22905.62
828.905	22985.62
829.156	23151.62
829.407	23092.62
829.658	23264.62
829.909	23466.62
830.159	23395.62
830.41	23316.62
830.661	22950.62
830.912	23036.62
831.162	22980.62
831.413	22859.62
831.664	22911.62
831.914	22939.62
832.165	22741.62
832.415	22775.62
832.666	22839.62
832.916	22716.62
833.167	22858.62
833.417	22957.62
833.667	22740.62
833.917	22801.62
834.168	22736.62
834.418	22618.62
834.668	22557.62
834.918	22489.62
835.168	22461.62
835.418	22355.62
835.668	22348.62
835.918	22172.62
836.167	22330.62
836.417	22241.62
836.667	22243.62
836.917	22148.62
837.166	22261.62
837.416	22218.62
837.666	22324.62
837.915	22272.62
838.165	22236.62
838.414	22122.62
838.663	22184.62
838.913	22051.62
839.162	22061.62
839.411	22250.62
839.661	22077.62
839.91	22042.62
840.159	22047.62
840.408	22150.62
840.657	22081.62
840.906	22113.62
841.155	22115.62
841.404	22159.62
841.653	22237.62
841.902	22202.62
842.15	22364.62
842.399	22407.62
842.648	22324.62
842.897	22240.62
843.145	22159.62
843.394	22009.62
843.642	21864.62
843.891	21764.62
844.139	21692.62
844.388	21495.62
844.636	21411.62
844.884	21558.62
845.133	21613.62
845.381	21388.62
845.629	21621.62
845.877	21536.62
846.125	21544.62
846.373	21517.62
846.621	21425.62
846.869	21273.62
847.117	21245.62
847.365	21142.62
847.613	21068.62
847.861	21160.62
848.108	21128.62
848.356	21064.62
848.604	21008.62
848.851	21062.62
849.099	21081.62
849.346	21090.62
849.594	21233.62
849.841	21397.62
850.089	21481.62
850.336	21530.62
850.583	21556.62
850.831	21577.62
851.078	21299.62
851.325	21340.62
851.572	21528.62
851.819	21235.62
852.066	20824.62
852.313	20498.62
852.56	20305.62
852.807	20271.62
853.054	20314.62
853.301	20385.62
853.548	20379.62
853.794	20455.62
854.041	20526.62
854.288	20570.62
854.534	20815.62
854.781	20823.62
855.028	20791.62
855.274	20799.62
855.52	20708.62
855.767	20626.62
856.013	20829.62
856.26	21009.62
856.506	20505.62
856.752	20467.62
856.998	20503.62
857.244	20556.62
857.49	20691.62
857.736	20722.62
857.982	20732.62
858.228	20796.62
858.474	20473.62
858.72	20318.62
858.966	20229.62
859.212	19843.62
859.458	19700.62
859.703	19635.62
859.949	19405.62
860.195	19371.62
860.44	19337.62
860.686	19286.62
860.931	19241.62
861.177	19130.62
861.422	19030.62
861.667	18942.62
861.913	18926.62
862.158	18957.62
862.403	18983.62
862.648	19094.62
862.893	19044.62
863.138	19117.62
863.384	18984.62
863.629	18949.62
863.873	19022.62
864.118	18915.62
864.363	18872.62
864.608	18878.62
864.853	18894.62
865.098	18689.62
865.342	18602.62
865.587	18515.62
865.832	18614.62
866.076	18498.62
866.321	18495.62
866.565	18455.62
866.81	18405.62
867.054	18437.62
867.298	18311.62
867.543	18274.62
867.787	18266.62
868.031	18324.62
868.275	18352.62
868.519	18229.62
868.764	18284.62
869.008	18261.62
869.252	18299.62
869.496	18219.62
869.739	18151.62
869.983	18265.62
870.227	18308.62
870.471	18263.62
870.715	18444.62
870.958	18436.62
871.202	18487.62
871.446	18495.62
871.689	18525.62
871.933	18568.62
872.176	18541.62
872.42	18416.62
872.663	18482.62
872.906	18469.62
873.15	18430.62
873.393	18408.62
873.636	18457.62
873.879	18319.62
874.122	18162.62
874.366	17806.62
874.609	17678.62
874.852	17497.62
875.095	17355.62
875.337	17353.62
875.58	17205.62
875.823	17225.62
876.066	17102.62
876.309	17163.62
876.551	16980.62
876.794	16900.62
877.037	16945.62
877.279	16941.62
877.522	16903.62
877.764	16896.62
878.007	16855.62
878.249	16839.62
878.491	16726.62
878.734	16747.62
878.976	16675.62
879.218	16553.62
879.46	16501.62
879.702	16423.62
879.945	16276.62
880.187	16192.62
880.429	16196.62
880.671	16019.62
880.912	15855.62
881.154	16000.62
881.396	15894.62
881.638	15880.62
881.88	15955.62
882.121	15949.62
882.363	15950.62
882.605	15970.62
882.846	15940.62
883.088	16019.62
883.329	15988.62
883.571	16072.62
883.812	16240.62
884.053	16590.62
884.295	17140.62
884.536	17409.62
884.777	17316.62
885.018	17116.62
885.259	17065.62
885.5	16860.62
885.742	17009.62
885.982	16885.62
886.223	16683.62
886.464	16556.62
886.705	16373.62
886.946	16170.62
887.187	15774.62
887.428	15573.62
887.668	15345.62
887.909	15233.62
888.15	14944.62
888.39	14879.62
888.631	14824.62
888.871	14674.62
889.111	14550.62
889.352	14393.62
889.592	14306.62
889.833	14127.62
890.073	14064.62
890.313	14064.62
890.553	13950.62
890.793	13901.62
891.033	13868.62
891.273	13743.62
891.513	13702.62
891.753	13789.62
891.993	13770.62
892.233	13719.62
892.473	13747.62
892.713	13739.62
892.952	13797.62
893.192	13785.62
893.432	13722.62
893.671	13796.62
893.911	13712.62
894.15	13612.62
894.39	13455.62
894.629	13497.62
894.869	13345.62
895.108	13275.62
895.347	13285.62
895.587	13300.62
895.826	13205.62
896.065	13156.62
896.304	13246.62
896.543	13226.62
896.782	13054.62
897.021	13159.62
897.26	13053.62
897.499	13134.62
897.738	13071.62
897.977	12960.62
898.216	12882.62
898.454	12828.62
898.693	12778.62
898.932	12747.62
899.17	12668.62
899.409	12573.62
899.647	12539.62
899.886	12546.62
900.124	12579.62
900.363	12589.62
900.601	12699.62
900.839	12709.62
901.078	12823.62
901.316	12869.62
901.554	13003.62
901.792	13146.62
902.03	12944.62
902.268	13033.62
902.506	13081.62
902.744	12952.62
902.982	12864.62
903.22	12634.62
903.458	12449.62
903.695	12293.62
903.933	12105.62
904.171	11851.62
904.409	11681.62
904.646	11516.62
904.884	11383.62
905.121	11371.62
905.359	11215.62
905.596	11053.62
905.833	10989.62
906.071	10873.62
906.308	10922.62
906.545	10910.62
906.783	10763.62
907.02	10823.62
907.257	10864.62
907.494	10740.62
907.731	10719.62
907.968	10730.62
908.205	10600.62
908.442	10570.62
908.679	10524.62
908.915	10423.62
909.152	10390.62
909.389	10181.62
909.626	10205.62
909.862	10041.62
910.099	10085.62
910.335	10102.62
910.572	9958.62
910.808	9977.62
911.045	9974.62
911.281	9939.62
911.518	9895.62
911.754	9802.62
911.99	9815.62
912.226	9738.62
912.463	9602.62
912.699	9544.62
912.935	9478.62
913.171	9423.62
913.407	9311.62
913.643	9325.62
913.879	9258.62
914.114	9111.62
914.35	9055.62
914.586	8986.62
914.822	8928.62
915.057	8939.62
915.293	8815.62
915.529	8798.62
915.764	8778.62
916	8791.62
916.235	8728.62
916.471	8771.62
916.706	8653.62
916.941	8686.62
917.177	8664.62
917.412	8693.62
917.647	8646.62
917.882	8611.62
918.117	8680.62
918.352	8557.62
918.588	8587.62
918.823	8447.62
919.057	8404.62
919.292	8313.62
919.527	8351.62
919.762	8202.62
919.997	8145.62
920.232	8036.62
920.466	7991.62
920.701	7963.62
920.935	7900.62
921.17	7814.62
921.405	7810.62
921.639	7871.62
921.873	7786.62
922.108	7770.62
922.342	7709.62
922.576	7666.62
922.811	7624.62
923.045	7655.62
923.279	7626.62
923.513	7553.62
923.747	7498.62
923.981	7495.62
924.215	7476.62
924.449	7387.62
924.683	7354.62
924.917	7350.62
925.151	7250.62
925.385	7332.62
925.618	7366.62
925.852	7189.62
926.086	7191.62
926.319	7258.62
926.553	7181.62
926.786	7246.62
927.02	7265.62
927.253	7258.62
927.486	7244.62
927.72	7137.62
927.953	7241.62
928.186	7118.62
928.42	7150.62
928.653	7050.62
928.886	7015.62
929.119	7033.62
929.352	7035.62
929.585	6928.62
929.818	6919.62
930.051	6902.62
930.284	6795.62
930.516	6721.62
930.749	6687.62
930.982	6700.62
931.215	6723.62
931.447	6615.62
931.68	6585.62
931.912	6527.62
932.145	6557.62
932.377	6565.62
932.61	6703.62
932.842	6548.62
933.074	6618.62
933.307	6576.62
933.539	6612.62
933.771	6610.62
934.003	6595.62
934.236	6690.62
934.468	6612.62
934.7	6557.62
934.932	6534.62
935.164	6514.62
935.395	6390.62
935.627	6487.62
935.859	6463.62
936.091	6423.62
936.323	6421.62
936.554	6407.62
936.786	6385.62
937.017	6270.62
937.249	6403.62
937.481	6285.62
937.712	6387.62
937.943	6294.62
938.175	6326.62
938.406	6264.62
938.637	6330.62
938.869	6182.62
939.1	6270.62
939.331	6266.62
939.562	6282.62
939.793	6205.62
940.024	6197.62
940.255	6158.62
940.486	6153.62
940.717	6124.62
940.948	6087.62
941.179	5986.62
941.409	6049.62
941.64	6005.62
941.871	6049.62
942.102	6026.62
942.332	6060.62
942.563	6092.62
942.793	6031.62
943.024	5956.62
943.254	6033.62
943.484	6033.62
943.715	6071.62
943.945	6000.62
944.175	5919.62
944.405	5955.62
944.636	5923.62
944.866	6033.62
945.096	5946.62
945.326	5917.62
945.556	5934.62
945.786	5913.62
946.016	5876.62
946.245	5805.62
946.475	5791.62
946.705	5793.62
946.935	5740.62
947.164	5734.62
947.394	5675.62
947.624	5643.62
947.853	5665.62
948.083	5635.62
948.312	5619.62
948.542	5512.62
948.771	5454.62
949	5528.62
949.23	5458.62
949.459	5561.62
949.688	5549.62
949.917	5503.62
950.146	5480.62
950.375	5548.62
950.604	5449.62
950.833	5534.62
951.062	5544.62
951.291	5449.62
951.52	5396.62
951.749	5396.62
951.978	5365.62
952.206	5426.62
952.435	5381.62
952.664	5372.62
952.892	5392.62
953.121	5351.62
953.349	5333.62
953.578	5336.62
953.806	5271.62
954.035	5271.62
954.263	5244.62
954.491	5210.62
954.719	5231.62
954.948	5198.62
955.176	5120.62
955.404	5069.62
955.632	5091.62
955.86	5099.62
956.088	5068.62
956.316	5130.62
956.544	5097.62
956.772	5031.62
956.999	4951.62
957.227	5012.62
957.455	4946.62
957.683	4896.62
957.91	4885.62
958.138	4830.62
958.365	4834.62
958.593	4835.62
958.82	4737.62
959.048	4807.62
959.275	4779.62
959.502	4797.62
959.73	4723.62
959.957	4741.62
960.184	4727.62
960.411	4647.62
960.638	4760.62
960.865	4687.62
961.092	4718.62
961.319	4627.62
961.546	4710.62
961.773	4686.62
962	4646.62
962.227	4702.62
962.454	4625.62
962.68	4602.62
962.907	4584.62
963.134	4550.62
963.36	4545.62
963.587	4553.62
963.813	4467.62
964.04	4533.62
964.266	4398.62
964.493	4521.62
964.719	4450.62
964.945	4425.62
965.171	4323.62
965.398	4334.62
965.624	4451.62
965.85	4317.62
966.076	4304.62
966.302	4301.62
966.528	4246.62
966.754	4266.62
966.98	4293.62
967.206	4254.62
967.431	4206.62
967.657	4234.62
967.883	4215.62
968.109	4211.62
968.334	4108.62
968.56	4111.62
968.785	4142.62
969.011	4081.62
969.236	4189.62
969.462	4063.62
969.687	4153.62
969.912	4154.62
970.138	4115.62
970.363	4032.62
970.588	4070.62
970.813	4021.62
971.038	4037.62
971.263	4015.62
971.488	3960.62
971.713	4052.62
971.938	3972.62
972.163	3898.62
972.388	3968.62
972.613	3867.62
972.838	3926.62
973.062	3917.62
973.287	3921.62
973.512	3724.62
973.736	3790.62
973.961	3782.62
974.185	3788.62
974.41	3809.62
974.634	3706.62
974.858	3717.62
975.083	3699.62
975.307	3724.62
975.531	3655.62
975.755	3593.62
975.98	3623.62
976.204	3516.62
976.428	3509.62
976.652	3495.62
976.876	3482.62
977.1	3516.62
977.324	3492.62
977.547	3510.62
977.771	3539.62
977.995	3495.62
978.219	3412.62
978.442	3546.62
978.666	3444.62
978.89	3416.62
979.113	3465.62
979.337	3420.62
979.56	3385.62
979.783	3445.62
980.007	3369.62
980.23	3396.62
980.453	3350.62
980.677	3348.62
980.9	3295.62
981.123	3241.62
981.346	3342.62
981.569	3316.62
981.792	3296.62
982.015	3252.62
982.238	3212.62
982.461	3257.62
982.684	3210.62
982.907	3161.62
983.129	3140.62
983.352	3164.62
983.575	3154.62
983.797	3135.62
984.02	3101.62
984.242	3073.62
984.465	3109.62
984.687	3095.62
984.91	3133.62
985.132	3063.62
985.354	3061.62
985.577	3063.62
985.799	3020.62
986.021	2956.62
986.243	2990.62
986.465	2977.62
986.687	3011.62
986.909	3025.62
987.131	2945.62
987.353	2936.62
987.575	2980.62
987.797	2928.62
988.019	2845.62
988.241	2915.62
988.462	2851.62
988.684	2942.62
988.906	2934.62
989.127	2929.62
989.349	2808.62
989.57	2826.62
989.792	2872.62
990.013	2907.62
990.234	2896.62
990.456	2903.62
990.677	2892.62
990.898	2790.62
991.119	2813.62
991.341	2805.62
991.562	2757.62
991.783	2806.62
992.004	2699.62
992.225	2704.62
992.446	2753.62
992.667	2648.62
992.887	2711.62
993.108	2599.62
993.329	2743.62
993.55	2662.62
993.77	2600.62
993.991	2591.62
994.212	2631.62
994.432	2610.62
994.653	2608.62
994.873	2555.62
995.093	2454.62
995.314	2509.62
995.534	2541.62
995.754	2537.62
995.975	2608.62
996.195	2507.62
996.415	2542.62
996.635	2500.62
996.855	2520.62
997.075	2470.62
997.295	2497.62
997.515	2523.62
997.735	2526.62
997.955	2509.62
998.174	2523.62
998.394	2468.62
998.614	2531.62
998.834	2453.62
999.053	2525.62
999.273	2460.62
999.492	2486.62
999.712	2434.62
999.931	2381.62
1000.151	2430.62
1000.37	2410.62
1000.589	2444.62
1000.809	2367.62
1001.028	2474.62
1001.247	2382.62
1001.466	2263.62
1001.685	2400.62
1001.904	2310.62
1002.123	2262.62
1002.342	2305.62
1002.561	2282.62
1002.78	2276.62
1002.999	2312.62
1003.218	2300.62
1003.436	2257.62
1003.655	2274.62
1003.874	2184.62
1004.092	2248.62
1004.311	2234.62
1004.53	2244.62
1004.748	2297.62
1004.966	2212.62
1005.185	2250.62
1005.403	2236.62
1005.622	2244.62
1005.84	2297.62
1006.058	2215.62
1006.276	2197.62
1006.494	2692.62
1006.712	2211.62
1006.931	2274.62
1007.149	2195.62
1007.367	2205.62
1007.584	2263.62
1007.802	2289.62
1008.02	2262.62
1008.238	2377.62
1008.456	2377.62
1008.673	2249.62
1008.891	2379.62
1009.109	2366.62
1009.326	2451.62
1009.544	2538.62
1009.761	2501.62
1009.979	2647.62
1010.196	2707.62
1010.413	2902.62
1010.631	2995.62
1010.848	3111.62
1011.065	3136.62
1011.282	3074.62
1011.5	2989.62
1011.717	3081.62
1011.934	3034.62
1012.151	3035.62
1012.368	3007.62
1012.585	2966.62
1012.801	2990.62
1013.018	2967.62
1013.235	2987.62
1013.452	2981.62
1013.669	3064.62
1013.885	2982.62
1014.102	3038.62
1014.318	3072.62
1014.535	2961.62
1014.751	2982.62
1014.968	3015.62
1015.184	2999.62
1015.401	2883.62
1015.617	2915.62
1015.833	2823.62
1016.049	2833.62
1016.266	2787.62
1016.482	2758.62
1016.698	2705.62
1016.914	2750.62
1017.13	2661.62
1017.346	2662.62
1017.562	2712.62
1017.778	2601.62
1017.993	2600.62
1018.209	2648.62
1018.425	2621.62
1018.641	2573.62
1018.856	2548.62
1019.072	2586.62
1019.288	2659.62
1019.503	2549.62
1019.719	2435.62
1019.934	2463.62
1020.149	2505.62
1020.365	2446.62
1020.58	2379.62
1020.795	2389.62
1021.011	2275.62
1021.226	2266.62
1021.441	2232.62
1021.656	2114.62
1021.871	2053.62
1022.086	2005.62
1022.301	1972.62
1022.516	1929.62
1022.731	1999.62
1022.946	1901.62
1023.16	1850.62
1023.375	1815.62
1023.59	1770.62
1023.804	1724.62
1024.019	1796.62
1024.234	1642.62
1024.448	1660.62
1024.663	1564.62
1024.877	1567.62
1025.092	1559.62
1025.306	1534.62
1025.52	1439.62
1025.734	1503.62
1025.949	1391.62
1026.163	1363.62
1026.377	1287.62
1026.591	1313.62
1026.805	1274.62
1027.019	1228.62
1027.233	1185.62
1027.447	1138.62
1027.661	1222.62
1027.875	1166.62
1028.088	1140.62
1028.302	1071.62
1028.516	1040.62
1028.73	1032.62
1028.943	1006.62
1029.157	948.62
1029.37	881.62
1029.584	-6.38
1029.797	-1.38
1030.011	1.62
1030.224	-0.38
