Data from QEP037381__0__13-21-11-164.txt Node

Date: Wed Dec 21 13:21:11 EST 2022
User: dcclab
Spectrometer: QEP03738
Trigger mode: 4
Integration Time (sec): 1.000000E1
Scans to average: 1
Electric dark correction enabled: true
Nonlinearity correction enabled: false
Boxcar width: 0
XAxis mode: Wavelengths
Number of Pixels in Spectrum: 1044
>>>>>Begin Spectral Data<<<<<
784.041	13.12
784.3	4.12
784.558	0.12
784.817	-5.88
785.075	89915.12
785.334	15519.12
785.592	7311.12
785.851	5043.12
786.109	3817.12
786.368	2949.12
786.626	2412.12
786.884	2027.12
787.143	1682.12
787.401	1376.12
787.659	1271.12
787.917	1094.12
788.175	996.12
788.433	913.12
788.691	816.12
788.949	750.12
789.207	716.12
789.465	611.12
789.723	598.12
789.98	560.12
790.238	608.12
790.496	572.12
790.753	532.12
791.011	587.12
791.268	524.12
791.526	500.12
791.783	517.12
792.041	507.12
792.298	426.12
792.556	473.12
792.813	471.12
793.07	452.12
793.327	447.12
793.584	520.12
793.841	438.12
794.099	458.12
794.356	513.12
794.613	420.12
794.869	464.12
795.126	432.12
795.383	412.12
795.64	433.12
795.897	368.12
796.153	443.12
796.41	416.12
796.667	414.12
796.923	416.12
797.18	422.12
797.436	444.12
797.693	394.12
797.949	457.12
798.206	473.12
798.462	402.12
798.718	463.12
798.974	437.12
799.231	473.12
799.487	474.12
799.743	487.12
799.999	502.12
800.255	496.12
800.511	480.12
800.767	516.12
801.023	509.12
801.279	543.12
801.534	584.12
801.79	617.12
802.046	641.12
802.302	761.12
802.557	863.12
802.813	1094.12
803.068	1315.12
803.324	1820.12
803.579	2417.12
803.835	3312.12
804.09	4566.12
804.345	5995.12
804.601	7497.12
804.856	9126.12
805.111	10574.12
805.366	11634.12
805.621	12487.12
805.876	13062.12
806.131	13365.12
806.386	13659.12
806.641	13841.12
806.896	14083.12
807.151	14327.12
807.406	14530.12
807.661	14716.12
807.915	15154.12
808.17	15303.12
808.425	15412.12
808.679	15523.12
808.934	15692.12
809.188	15829.12
809.443	15966.12
809.697	16166.12
809.951	16276.12
810.206	16415.12
810.46	16540.12
810.714	16601.12
810.968	16819.12
811.223	16931.12
811.477	17070.12
811.731	17165.12
811.985	17226.12
812.239	17285.12
812.493	17399.12
812.747	17511.12
813	17395.12
813.254	17477.12
813.508	17675.12
813.762	17730.12
814.015	17774.12
814.269	17871.12
814.522	18093.12
814.776	18290.12
815.03	18472.12
815.283	18752.12
815.536	19028.12
815.79	19233.12
816.043	19561.12
816.296	19808.12
816.55	20011.12
816.803	20210.12
817.056	20534.12
817.309	20656.12
817.562	20891.12
817.815	21062.12
818.068	21083.12
818.321	21334.12
818.574	21559.12
818.827	21779.12
819.079	22161.12
819.332	22592.12
819.585	22716.12
819.838	23023.12
820.09	23098.12
820.343	23250.12
820.595	23449.12
820.848	23502.12
821.1	23605.12
821.353	23569.12
821.605	23475.12
821.857	23542.12
822.11	23331.12
822.362	23376.12
822.614	23351.12
822.866	23364.12
823.118	23330.12
823.37	23360.12
823.622	23479.12
823.874	23468.12
824.126	23692.12
824.378	23602.12
824.63	23754.12
824.882	23660.12
825.134	23753.12
825.385	23547.12
825.637	23533.12
825.888	23524.12
826.14	23366.12
826.392	23277.12
826.643	23159.12
826.895	23203.12
827.146	23003.12
827.397	22897.12
827.649	22982.12
827.9	22902.12
828.151	22968.12
828.402	23028.12
828.653	23203.12
828.905	23204.12
829.156	23113.12
829.407	23060.12
829.658	23245.12
829.909	23270.12
830.159	23312.12
830.41	23222.12
830.661	23017.12
830.912	22738.12
831.162	22636.12
831.413	22690.12
831.664	22732.12
831.914	22574.12
832.165	22637.12
832.415	22655.12
832.666	22642.12
832.916	22574.12
833.167	22553.12
833.417	22597.12
833.667	22419.12
833.917	22334.12
834.168	22375.12
834.418	22217.12
834.668	22142.12
834.918	22073.12
835.168	22051.12
835.418	21876.12
835.668	21876.12
835.918	21770.12
836.167	21706.12
836.417	21641.12
836.667	21702.12
836.917	21602.12
837.166	21610.12
837.416	21578.12
837.666	21610.12
837.915	21585.12
838.165	21501.12
838.414	21407.12
838.663	21293.12
838.913	21421.12
839.162	21343.12
839.411	21373.12
839.661	21151.12
839.91	21074.12
840.159	21192.12
840.408	21202.12
840.657	21107.12
840.906	21135.12
841.155	21145.12
841.404	21054.12
841.653	21109.12
841.902	21130.12
842.15	21160.12
842.399	21150.12
842.648	21131.12
842.897	21077.12
843.145	20966.12
843.394	20764.12
843.642	20698.12
843.891	20617.12
844.139	20377.12
844.388	20306.12
844.636	20207.12
844.884	20285.12
845.133	20091.12
845.381	20104.12
845.629	20176.12
845.877	20217.12
846.125	20134.12
846.373	20149.12
846.621	19938.12
846.869	19988.12
847.117	19834.12
847.365	19733.12
847.613	19622.12
847.861	19598.12
848.108	19686.12
848.356	19543.12
848.604	19544.12
848.851	19460.12
849.099	19523.12
849.346	19544.12
849.594	19659.12
849.841	19667.12
850.089	19727.12
850.336	19819.12
850.583	19779.12
850.831	19621.12
851.078	19574.12
851.325	19389.12
851.572	19401.12
851.819	19308.12
852.066	19000.12
852.313	18766.12
852.56	18528.12
852.807	18503.12
853.054	18451.12
853.301	18503.12
853.548	18444.12
853.794	18606.12
854.041	18629.12
854.288	18674.12
854.534	18926.12
854.781	18724.12
855.028	18723.12
855.274	18775.12
855.52	18721.12
855.767	18677.12
856.013	18642.12
856.26	18869.12
856.506	18366.12
856.752	18410.12
856.998	18403.12
857.244	18366.12
857.49	18433.12
857.736	18581.12
857.982	18485.12
858.228	18424.12
858.474	18270.12
858.72	18149.12
858.966	18017.12
859.212	17704.12
859.458	17625.12
859.703	17402.12
859.949	17288.12
860.195	17179.12
860.44	17054.12
860.686	17006.12
860.931	17013.12
861.177	17018.12
861.422	16783.12
861.667	16645.12
861.913	16766.12
862.158	16848.12
862.403	16781.12
862.648	16807.12
862.893	16916.12
863.138	16861.12
863.384	16757.12
863.629	16722.12
863.873	16721.12
864.118	16668.12
864.363	16596.12
864.608	16496.12
864.853	16396.12
865.098	16317.12
865.342	16271.12
865.587	16250.12
865.832	16308.12
866.076	16122.12
866.321	16094.12
866.565	16037.12
866.81	15884.12
867.054	15953.12
867.298	15910.12
867.543	15798.12
867.787	15889.12
868.031	15820.12
868.275	15808.12
868.519	15683.12
868.764	15710.12
869.008	15670.12
869.252	15689.12
869.496	15538.12
869.739	15538.12
869.983	15592.12
870.227	15600.12
870.471	15552.12
870.715	15587.12
870.958	15702.12
871.202	15682.12
871.446	15789.12
871.689	15661.12
871.933	15686.12
872.176	15660.12
872.42	15575.12
872.663	15590.12
872.906	15643.12
873.15	15539.12
873.393	15540.12
873.636	15559.12
873.879	15356.12
874.122	15245.12
874.366	14852.12
874.609	14879.12
874.852	14716.12
875.095	14687.12
875.337	14535.12
875.58	14407.12
875.823	14319.12
876.066	14365.12
876.309	14426.12
876.551	14224.12
876.794	14120.12
877.037	14068.12
877.279	14040.12
877.522	14029.12
877.764	14081.12
878.007	14015.12
878.249	14030.12
878.491	13987.12
878.734	14008.12
878.976	13908.12
879.218	13802.12
879.46	13760.12
879.702	13683.12
879.945	13466.12
880.187	13405.12
880.429	13368.12
880.671	13347.12
880.912	13222.12
881.154	13204.12
881.396	13157.12
881.638	13106.12
881.88	13144.12
882.121	13134.12
882.363	12979.12
882.605	13055.12
882.846	12994.12
883.088	13010.12
883.329	12968.12
883.571	13074.12
883.812	13203.12
884.053	13425.12
884.295	13701.12
884.536	13855.12
884.777	13838.12
885.018	13629.12
885.259	13562.12
885.5	13432.12
885.742	13678.12
885.982	13468.12
886.223	13371.12
886.464	13200.12
886.705	13090.12
886.946	12979.12
887.187	12823.12
887.428	12677.12
887.668	12366.12
887.909	12219.12
888.15	12107.12
888.39	12038.12
888.631	11959.12
888.871	11898.12
889.111	11772.12
889.352	11632.12
889.592	11550.12
889.833	11485.12
890.073	11345.12
890.313	11327.12
890.553	11189.12
890.793	11154.12
891.033	11133.12
891.273	11107.12
891.513	10951.12
891.753	11061.12
891.993	10981.12
892.233	11015.12
892.473	11103.12
892.713	11036.12
892.952	10960.12
893.192	11036.12
893.432	10915.12
893.671	10931.12
893.911	10915.12
894.15	10787.12
894.39	10723.12
894.629	10689.12
894.869	10698.12
895.108	10587.12
895.347	10490.12
895.587	10470.12
895.826	10399.12
896.065	10330.12
896.304	10396.12
896.543	10308.12
896.782	10333.12
897.021	10323.12
897.26	10283.12
897.499	10318.12
897.738	10259.12
897.977	10185.12
898.216	10071.12
898.454	10088.12
898.693	9964.12
898.932	9906.12
899.17	9795.12
899.409	9787.12
899.647	9797.12
899.886	9799.12
900.124	9830.12
900.363	9766.12
900.601	9834.12
900.839	9795.12
901.078	9883.12
901.316	9899.12
901.554	10010.12
901.792	10011.12
902.03	10003.12
902.268	9939.12
902.506	9988.12
902.744	9893.12
902.982	9858.12
903.22	9662.12
903.458	9554.12
903.695	9450.12
903.933	9333.12
904.171	9132.12
904.409	8970.12
904.646	8864.12
904.884	8778.12
905.121	8762.12
905.359	8638.12
905.596	8596.12
905.833	8361.12
906.071	8456.12
906.308	8402.12
906.545	8359.12
906.783	8375.12
907.02	8410.12
907.257	8305.12
907.494	8287.12
907.731	8263.12
907.968	8213.12
908.205	8185.12
908.442	8097.12
908.679	8108.12
908.915	7996.12
909.152	7967.12
909.389	7814.12
909.626	7823.12
909.862	7767.12
910.099	7744.12
910.335	7734.12
910.572	7639.12
910.808	7690.12
911.045	7553.12
911.281	7546.12
911.518	7582.12
911.754	7509.12
911.99	7489.12
912.226	7468.12
912.463	7355.12
912.699	7298.12
912.935	7259.12
913.171	7255.12
913.407	7152.12
913.643	7067.12
913.879	7052.12
914.114	6966.12
914.35	6923.12
914.586	6842.12
914.822	6748.12
915.057	6787.12
915.293	6662.12
915.529	6642.12
915.764	6703.12
916	6670.12
916.235	6698.12
916.471	6652.12
916.706	6584.12
916.941	6590.12
917.177	6559.12
917.412	6582.12
917.647	6574.12
917.882	6518.12
918.117	6565.12
918.352	6531.12
918.588	6501.12
918.823	6408.12
919.057	6367.12
919.292	6266.12
919.527	6305.12
919.762	6145.12
919.997	6195.12
920.232	6052.12
920.466	6060.12
920.701	5904.12
920.935	5926.12
921.17	5912.12
921.405	5779.12
921.639	5938.12
921.873	5800.12
922.108	5793.12
922.342	5804.12
922.576	5742.12
922.811	5721.12
923.045	5691.12
923.279	5710.12
923.513	5564.12
923.747	5699.12
923.981	5588.12
924.215	5539.12
924.449	5523.12
924.683	5464.12
924.917	5435.12
925.151	5396.12
925.385	5455.12
925.618	5407.12
925.852	5418.12
926.086	5289.12
926.319	5361.12
926.553	5339.12
926.786	5357.12
927.02	5316.12
927.253	5371.12
927.486	5302.12
927.72	5245.12
927.953	5276.12
928.186	5251.12
928.42	5300.12
928.653	5199.12
928.886	5154.12
929.119	5210.12
929.352	5130.12
929.585	5069.12
929.818	5061.12
930.051	5077.12
930.284	5044.12
930.516	4898.12
930.749	4886.12
930.982	4917.12
931.215	4894.12
931.447	4807.12
931.68	4885.12
931.912	4827.12
932.145	4848.12
932.377	4798.12
932.61	4918.12
932.842	4800.12
933.074	4835.12
933.307	4774.12
933.539	4866.12
933.771	4838.12
934.003	4776.12
934.236	4824.12
934.468	4833.12
934.7	4757.12
934.932	4794.12
935.164	4699.12
935.395	4716.12
935.627	4714.12
935.859	4744.12
936.091	4612.12
936.323	4698.12
936.554	4665.12
936.786	4641.12
937.017	4530.12
937.249	4568.12
937.481	4484.12
937.712	4575.12
937.943	4497.12
938.175	4532.12
938.406	4504.12
938.637	4541.12
938.869	4497.12
939.1	4533.12
939.331	4480.12
939.562	4451.12
939.793	4446.12
940.024	4501.12
940.255	4420.12
940.486	4376.12
940.717	4378.12
940.948	4339.12
941.179	4307.12
941.409	4331.12
941.64	4271.12
941.871	4350.12
942.102	4242.12
942.332	4258.12
942.563	4342.12
942.793	4335.12
943.024	4265.12
943.254	4286.12
943.484	4306.12
943.715	4325.12
943.945	4342.12
944.175	4234.12
944.405	4143.12
944.636	4251.12
944.866	4205.12
945.096	4246.12
945.326	4197.12
945.556	4195.12
945.786	4222.12
946.016	4139.12
946.245	4120.12
946.475	4081.12
946.705	4061.12
946.935	4098.12
947.164	4037.12
947.394	4003.12
947.624	3996.12
947.853	4063.12
948.083	4033.12
948.312	3924.12
948.542	3895.12
948.771	3867.12
949	3882.12
949.23	3889.12
949.459	3881.12
949.688	3949.12
949.917	3875.12
950.146	3906.12
950.375	3971.12
950.604	3834.12
950.833	3921.12
951.062	3883.12
951.291	3848.12
951.52	3877.12
951.749	3837.12
951.978	3767.12
952.206	3791.12
952.435	3763.12
952.664	3825.12
952.892	3796.12
953.121	3751.12
953.349	3754.12
953.578	3708.12
953.806	3711.12
954.035	3683.12
954.263	3668.12
954.491	3632.12
954.719	3680.12
954.948	3576.12
955.176	3599.12
955.404	3521.12
955.632	3602.12
955.86	3556.12
956.088	3549.12
956.316	3526.12
956.544	3543.12
956.772	3479.12
956.999	3456.12
957.227	3541.12
957.455	3386.12
957.683	3432.12
957.91	3379.12
958.138	3376.12
958.365	3400.12
958.593	3392.12
958.82	3321.12
959.048	3354.12
959.275	3335.12
959.502	3280.12
959.73	3324.12
959.957	3323.12
960.184	3304.12
960.411	3248.12
960.638	3346.12
960.865	3294.12
961.092	3285.12
961.319	3213.12
961.546	3308.12
961.773	3281.12
962	3251.12
962.227	3296.12
962.454	3239.12
962.68	3234.12
962.907	3280.12
963.134	3157.12
963.36	3191.12
963.587	3214.12
963.813	3125.12
964.04	3150.12
964.266	3085.12
964.493	3173.12
964.719	3112.12
964.945	3127.12
965.171	2988.12
965.398	3044.12
965.624	3058.12
965.85	3010.12
966.076	3013.12
966.302	3021.12
966.528	2987.12
966.754	3000.12
966.98	2985.12
967.206	2984.12
967.431	2908.12
967.657	2989.12
967.883	2967.12
968.109	2943.12
968.334	2870.12
968.56	2898.12
968.785	2886.12
969.011	2855.12
969.236	2906.12
969.462	2812.12
969.687	2823.12
969.912	2875.12
970.138	2931.12
970.363	2835.12
970.588	2830.12
970.813	2804.12
971.038	2761.12
971.263	2808.12
971.488	2806.12
971.713	2849.12
971.938	2781.12
972.163	2724.12
972.388	2712.12
972.613	2671.12
972.838	2707.12
973.062	2677.12
973.287	2723.12
973.512	2599.12
973.736	2654.12
973.961	2611.12
974.185	2590.12
974.41	2638.12
974.634	2535.12
974.858	2550.12
975.083	2597.12
975.307	2608.12
975.531	2519.12
975.755	2463.12
975.98	2471.12
976.204	2431.12
976.428	2444.12
976.652	2412.12
976.876	2441.12
977.1	2478.12
977.324	2394.12
977.547	2446.12
977.771	2441.12
977.995	2429.12
978.219	2293.12
978.442	2443.12
978.666	2370.12
978.89	2364.12
979.113	2391.12
979.337	2334.12
979.56	2339.12
979.783	2409.12
980.007	2306.12
980.23	2335.12
980.453	2297.12
980.677	2374.12
980.9	2352.12
981.123	2242.12
981.346	2322.12
981.569	2333.12
981.792	2303.12
982.015	2276.12
982.238	2208.12
982.461	2215.12
982.684	2176.12
982.907	2173.12
983.129	2167.12
983.352	2196.12
983.575	2176.12
983.797	2161.12
984.02	2114.12
984.242	2128.12
984.465	2120.12
984.687	2127.12
984.91	2161.12
985.132	2159.12
985.354	2153.12
985.577	2114.12
985.799	2092.12
986.021	2036.12
986.243	2032.12
986.465	2088.12
986.687	2140.12
986.909	2138.12
987.131	2060.12
987.353	2022.12
987.575	2054.12
987.797	2015.12
988.019	1954.12
988.241	2022.12
988.462	2016.12
988.684	2035.12
988.906	2069.12
989.127	2073.12
989.349	1952.12
989.57	1967.12
989.792	2005.12
990.013	2029.12
990.234	2034.12
990.456	2032.12
990.677	2034.12
990.898	1952.12
991.119	1970.12
991.341	1962.12
991.562	1915.12
991.783	1977.12
992.004	1887.12
992.225	1873.12
992.446	1925.12
992.667	1841.12
992.887	1905.12
993.108	1833.12
993.329	1940.12
993.55	1872.12
993.77	1812.12
993.991	1812.12
994.212	1827.12
994.432	1816.12
994.653	1836.12
994.873	1813.12
995.093	1736.12
995.314	1761.12
995.534	1815.12
995.754	1837.12
995.975	1856.12
996.195	1742.12
996.415	1805.12
996.635	1784.12
996.855	1782.12
997.075	1758.12
997.295	1781.12
997.515	1724.12
997.735	1780.12
997.955	1743.12
998.174	1762.12
998.394	1732.12
998.614	1776.12
998.834	1719.12
999.053	1787.12
999.273	1743.12
999.492	1798.12
999.712	1749.12
999.931	1689.12
1000.151	1722.12
1000.37	1708.12
1000.589	1739.12
1000.809	1675.12
1001.028	1787.12
1001.247	1724.12
1001.466	1631.12
1001.685	1751.12
1001.904	1687.12
1002.123	1676.12
1002.342	1681.12
1002.561	1621.12
1002.78	1638.12
1002.999	1699.12
1003.218	1670.12
1003.436	1641.12
1003.655	1679.12
1003.874	1610.12
1004.092	1630.12
1004.311	1662.12
1004.53	1636.12
1004.748	1707.12
1004.966	1605.12
1005.185	1684.12
1005.403	1666.12
1005.622	1625.12
1005.84	1717.12
1006.058	1595.12
1006.276	1636.12
1006.494	2108.12
1006.712	1630.12
1006.931	1694.12
1007.149	1615.12
1007.367	1608.12
1007.584	1633.12
1007.802	1694.12
1008.02	1608.12
1008.238	1727.12
1008.456	1692.12
1008.673	1559.12
1008.891	1692.12
1009.109	1665.12
1009.326	1695.12
1009.544	1805.12
1009.761	1725.12
1009.979	1798.12
1010.196	1846.12
1010.413	1935.12
1010.631	2005.12
1010.848	2064.12
1011.065	2046.12
1011.282	1968.12
1011.5	1938.12
1011.717	2024.12
1011.934	1969.12
1012.151	1953.12
1012.368	1973.12
1012.585	1902.12
1012.801	1969.12
1013.018	1917.12
1013.235	1884.12
1013.452	1929.12
1013.669	1944.12
1013.885	1918.12
1014.102	1958.12
1014.318	1942.12
1014.535	1886.12
1014.751	1934.12
1014.968	1910.12
1015.184	1939.12
1015.401	1817.12
1015.617	1845.12
1015.833	1813.12
1016.049	1811.12
1016.266	1777.12
1016.482	1796.12
1016.698	1712.12
1016.914	1740.12
1017.13	1723.12
1017.346	1686.12
1017.562	1740.12
1017.778	1671.12
1017.993	1667.12
1018.209	1699.12
1018.425	1679.12
1018.641	1644.12
1018.856	1628.12
1019.072	1637.12
1019.288	1694.12
1019.503	1654.12
1019.719	1539.12
1019.934	1562.12
1020.149	1644.12
1020.365	1571.12
1020.58	1514.12
1020.795	1548.12
1021.011	1484.12
1021.226	1475.12
1021.441	1458.12
1021.656	1375.12
1021.871	1342.12
1022.086	1328.12
1022.301	1306.12
1022.516	1284.12
1022.731	1337.12
1022.946	1261.12
1023.16	1238.12
1023.375	1234.12
1023.59	1190.12
1023.804	1140.12
1024.019	1218.12
1024.234	1114.12
1024.448	1142.12
1024.663	1073.12
1024.877	1063.12
1025.092	1075.12
1025.306	1107.12
1025.52	997.12
1025.734	1048.12
1025.949	984.12
1026.163	965.12
1026.377	886.12
1026.591	946.12
1026.805	888.12
1027.019	863.12
1027.233	834.12
1027.447	771.12
1027.661	894.12
1027.875	826.12
1028.088	822.12
1028.302	744.12
1028.516	731.12
1028.73	737.12
1028.943	726.12
1029.157	670.12
1029.37	641.12
1029.584	-2.88
1029.797	-0.88
1030.011	-2.88
1030.224	-4.88
