Data from QEP037381__7__13-22-21-060.txt Node

Date: Wed Dec 21 13:22:21 EST 2022
User: dcclab
Spectrometer: QEP03738
Trigger mode: 4
Integration Time (sec): 1.000000E1
Scans to average: 1
Electric dark correction enabled: true
Nonlinearity correction enabled: false
Boxcar width: 0
XAxis mode: Wavelengths
Number of Pixels in Spectrum: 1044
>>>>>Begin Spectral Data<<<<<
784.041	9.38
784.3	0.38
784.558	0.38
784.817	-1.62
785.075	93007.38
785.334	15734.38
785.592	7306.38
785.851	5045.38
786.109	3784.38
786.368	3004.38
786.626	2448.38
786.884	2007.38
787.143	1726.38
787.401	1437.38
787.659	1265.38
787.917	1107.38
788.175	1021.38
788.433	884.38
788.691	811.38
788.949	770.38
789.207	739.38
789.465	635.38
789.723	615.38
789.98	563.38
790.238	625.38
790.496	582.38
790.753	540.38
791.011	592.38
791.268	548.38
791.526	514.38
791.783	536.38
792.041	508.38
792.298	434.38
792.556	506.38
792.813	510.38
793.07	461.38
793.327	455.38
793.584	520.38
793.841	464.38
794.099	473.38
794.356	541.38
794.613	439.38
794.869	472.38
795.126	437.38
795.383	429.38
795.64	441.38
795.897	398.38
796.153	450.38
796.41	450.38
796.667	440.38
796.923	430.38
797.18	442.38
797.436	460.38
797.693	433.38
797.949	490.38
798.206	501.38
798.462	433.38
798.718	488.38
798.974	471.38
799.231	511.38
799.487	487.38
799.743	504.38
799.999	545.38
800.255	547.38
800.511	521.38
800.767	583.38
801.023	567.38
801.279	604.38
801.534	648.38
801.79	714.38
802.046	755.38
802.302	917.38
802.557	1074.38
802.813	1323.38
803.068	1659.38
803.324	2332.38
803.579	3219.38
803.835	4535.38
804.09	6327.38
804.345	8459.38
804.601	10620.38
804.856	12994.38
805.111	14925.38
805.366	16488.38
805.621	17522.38
805.876	18399.38
806.131	18829.38
806.386	19066.38
806.641	19413.38
806.896	19728.38
807.151	20228.38
807.406	20422.38
807.661	20740.38
807.915	21048.38
808.17	21434.38
808.425	21766.38
808.679	21753.38
808.934	22087.38
809.188	22211.38
809.443	22428.38
809.697	22762.38
809.951	22886.38
810.206	23007.38
810.46	23358.38
810.714	23503.38
810.968	23742.38
811.223	23827.38
811.477	24052.38
811.731	24238.38
811.985	24335.38
812.239	24441.38
812.493	24585.38
812.747	24637.38
813	24633.38
813.254	24667.38
813.508	24932.38
813.762	25038.38
814.015	25093.38
814.269	25207.38
814.522	25623.38
814.776	25754.38
815.03	26152.38
815.283	26383.38
815.536	26808.38
815.79	27144.38
816.043	27575.38
816.296	27940.38
816.55	28283.38
816.803	28651.38
817.056	29021.38
817.309	29176.38
817.562	29468.38
817.815	29859.38
818.068	30015.38
818.321	30408.38
818.574	30653.38
818.827	31087.38
819.079	31366.38
819.332	32025.38
819.585	32367.38
819.838	32609.38
820.09	32871.38
820.343	33034.38
820.595	33260.38
820.848	33464.38
821.1	33533.38
821.353	33651.38
821.605	33634.38
821.857	33607.38
822.11	33359.38
822.362	33284.38
822.614	33154.38
822.866	33225.38
823.118	33260.38
823.37	33348.38
823.622	33416.38
823.874	33483.38
824.126	33689.38
824.378	33451.38
824.63	33687.38
824.882	33708.38
825.134	33682.38
825.385	33636.38
825.637	33657.38
825.888	33452.38
826.14	33410.38
826.392	33234.38
826.643	33025.38
826.895	33012.38
827.146	32823.38
827.397	32760.38
827.649	32849.38
827.9	32635.38
828.151	32668.38
828.402	32896.38
828.653	32859.38
828.905	32944.38
829.156	33072.38
829.407	33026.38
829.658	33021.38
829.909	33070.38
830.159	32853.38
830.41	32741.38
830.661	32490.38
830.912	32431.38
831.162	32160.38
831.413	32089.38
831.664	32087.38
831.914	32040.38
832.165	32051.38
832.415	31980.38
832.666	32035.38
832.916	31957.38
833.167	31962.38
833.417	31856.38
833.667	31762.38
833.917	31713.38
834.168	31506.38
834.418	31544.38
834.668	31402.38
834.918	31188.38
835.168	31167.38
835.418	31047.38
835.668	30946.38
835.918	30912.38
836.167	30942.38
836.417	30736.38
836.667	30765.38
836.917	30655.38
837.166	30553.38
837.416	30650.38
837.666	30530.38
837.915	30331.38
838.165	30417.38
838.414	30338.38
838.663	30211.38
838.913	30223.38
839.162	29993.38
839.411	30027.38
839.661	29798.38
839.91	29875.38
840.159	29764.38
840.408	29787.38
840.657	29606.38
840.906	29638.38
841.155	29703.38
841.404	29733.38
841.653	29577.38
841.902	29723.38
842.15	29743.38
842.399	29791.38
842.648	29468.38
842.897	29498.38
843.145	29452.38
843.394	29258.38
843.642	29008.38
843.891	29015.38
844.139	28691.38
844.388	28484.38
844.636	28404.38
844.884	28474.38
845.133	28415.38
845.381	28309.38
845.629	28270.38
845.877	28118.38
846.125	28090.38
846.373	28097.38
846.621	28023.38
846.869	27858.38
847.117	27846.38
847.365	27659.38
847.613	27562.38
847.861	27431.38
848.108	27381.38
848.356	27284.38
848.604	27356.38
848.851	27160.38
849.099	27203.38
849.346	27371.38
849.594	27451.38
849.841	27564.38
850.089	27554.38
850.336	27565.38
850.583	27621.38
850.831	27382.38
851.078	27129.38
851.325	27121.38
851.572	27063.38
851.819	26837.38
852.066	26287.38
852.313	26150.38
852.56	25977.38
852.807	25839.38
853.054	25663.38
853.301	25757.38
853.548	25751.38
853.794	25733.38
854.041	25811.38
854.288	25973.38
854.534	26264.38
854.781	26237.38
855.028	25959.38
855.274	25942.38
855.52	25804.38
855.767	25805.38
856.013	25662.38
856.26	25757.38
856.506	25347.38
856.752	25273.38
856.998	25418.38
857.244	25386.38
857.49	25529.38
857.736	25419.38
857.982	25486.38
858.228	25433.38
858.474	25092.38
858.72	25000.38
858.966	24935.38
859.212	24631.38
859.458	24355.38
859.703	24214.38
859.949	23959.38
860.195	23719.38
860.44	23736.38
860.686	23477.38
860.931	23573.38
861.177	23306.38
861.422	23275.38
861.667	23220.38
861.913	23193.38
862.158	23304.38
862.403	23355.38
862.648	23314.38
862.893	23443.38
863.138	23425.38
863.384	23338.38
863.629	23428.38
863.873	23271.38
864.118	23084.38
864.363	23024.38
864.608	22914.38
864.853	22821.38
865.098	22685.38
865.342	22652.38
865.587	22496.38
865.832	22509.38
866.076	22293.38
866.321	22212.38
866.565	22296.38
866.81	22029.38
867.054	21960.38
867.298	21974.38
867.543	21880.38
867.787	21885.38
868.031	21779.38
868.275	21696.38
868.519	21735.38
868.764	21642.38
869.008	21630.38
869.252	21548.38
869.496	21453.38
869.739	21399.38
869.983	21452.38
870.227	21400.38
870.471	21253.38
870.715	21297.38
870.958	21320.38
871.202	21419.38
871.446	21387.38
871.689	21342.38
871.933	21425.38
872.176	21359.38
872.42	21297.38
872.663	21212.38
872.906	21123.38
873.15	21000.38
873.393	20932.38
873.636	20882.38
873.879	20665.38
874.122	20507.38
874.366	20173.38
874.609	20193.38
874.852	19904.38
875.095	19889.38
875.337	19786.38
875.58	19697.38
875.823	19714.38
876.066	19599.38
876.309	19531.38
876.551	19368.38
876.794	19223.38
877.037	19187.38
877.279	19101.38
877.522	19183.38
877.764	19220.38
878.007	19244.38
878.249	19176.38
878.491	19032.38
878.734	19095.38
878.976	18991.38
879.218	18854.38
879.46	18804.38
879.702	18756.38
879.945	18587.38
880.187	18374.38
880.429	18286.38
880.671	18215.38
880.912	18116.38
881.154	18040.38
881.396	17873.38
881.638	17989.38
881.88	17982.38
882.121	17829.38
882.363	17751.38
882.605	17857.38
882.846	17803.38
883.088	17794.38
883.329	17657.38
883.571	17588.38
883.812	17768.38
884.053	17918.38
884.295	18165.38
884.536	18227.38
884.777	18093.38
885.018	18064.38
885.259	17929.38
885.5	17825.38
885.742	18188.38
885.982	17767.38
886.223	17599.38
886.464	17651.38
886.705	17453.38
886.946	17307.38
887.187	17158.38
887.428	16989.38
887.668	16715.38
887.909	16609.38
888.15	16378.38
888.39	16337.38
888.631	16214.38
888.871	16168.38
889.111	15930.38
889.352	15952.38
889.592	15733.38
889.833	15567.38
890.073	15490.38
890.313	15427.38
890.553	15231.38
890.793	15197.38
891.033	15191.38
891.273	15063.38
891.513	14950.38
891.753	15032.38
891.993	14969.38
892.233	14985.38
892.473	15118.38
892.713	15068.38
892.952	14969.38
893.192	15014.38
893.432	14940.38
893.671	14995.38
893.911	14833.38
894.15	14728.38
894.39	14578.38
894.629	14475.38
894.869	14408.38
895.108	14388.38
895.347	14276.38
895.587	14257.38
895.826	14057.38
896.065	14051.38
896.304	14089.38
896.543	14098.38
896.782	13940.38
897.021	13887.38
897.26	13908.38
897.499	13820.38
897.738	13821.38
897.977	13733.38
898.216	13607.38
898.454	13401.38
898.693	13332.38
898.932	13390.38
899.17	13279.38
899.409	13173.38
899.647	13158.38
899.886	13128.38
900.124	13102.38
900.363	13117.38
900.601	13126.38
900.839	13141.38
901.078	13073.38
901.316	13083.38
901.554	13146.38
901.792	13267.38
902.03	13190.38
902.268	13127.38
902.506	13118.38
902.744	12979.38
902.982	13059.38
903.22	12802.38
903.458	12687.38
903.695	12552.38
903.933	12378.38
904.171	12198.38
904.409	12018.38
904.646	11993.38
904.884	11696.38
905.121	11585.38
905.359	11496.38
905.596	11389.38
905.833	11344.38
906.071	11291.38
906.308	11322.38
906.545	11239.38
906.783	11215.38
907.02	11163.38
907.257	11117.38
907.494	11149.38
907.731	11109.38
907.968	11075.38
908.205	10956.38
908.442	10975.38
908.679	10823.38
908.915	10759.38
909.152	10704.38
909.389	10571.38
909.626	10529.38
909.862	10453.38
910.099	10434.38
910.335	10400.38
910.572	10190.38
910.808	10303.38
911.045	10196.38
911.281	10128.38
911.518	10254.38
911.754	10081.38
911.99	10024.38
912.226	9957.38
912.463	9887.38
912.699	9785.38
912.935	9735.38
913.171	9676.38
913.407	9511.38
913.643	9539.38
913.879	9383.38
914.114	9326.38
914.35	9208.38
914.586	9226.38
914.822	9049.38
915.057	9084.38
915.293	8966.38
915.529	8918.38
915.764	8918.38
916	8945.38
916.235	8883.38
916.471	8887.38
916.706	8799.38
916.941	8804.38
917.177	8795.38
917.412	8793.38
917.647	8730.38
917.882	8648.38
918.117	8627.38
918.352	8670.38
918.588	8766.38
918.823	8492.38
919.057	8479.38
919.292	8263.38
919.527	8353.38
919.762	8190.38
919.997	8213.38
920.232	8051.38
920.466	8037.38
920.701	7868.38
920.935	7867.38
921.17	7852.38
921.405	7693.38
921.639	7713.38
921.873	7720.38
922.108	7704.38
922.342	7672.38
922.576	7683.38
922.811	7561.38
923.045	7618.38
923.279	7637.38
923.513	7408.38
923.747	7540.38
923.981	7399.38
924.215	7320.38
924.449	7371.38
924.683	7229.38
924.917	7187.38
925.151	7178.38
925.385	7243.38
925.618	7118.38
925.852	7059.38
926.086	7050.38
926.319	7059.38
926.553	7078.38
926.786	7084.38
927.02	7031.38
927.253	7082.38
927.486	7100.38
927.72	6970.38
927.953	7012.38
928.186	6958.38
928.42	6978.38
928.653	6869.38
928.886	6863.38
929.119	6852.38
929.352	6827.38
929.585	6771.38
929.818	6649.38
930.051	6605.38
930.284	6595.38
930.516	6499.38
930.749	6462.38
930.982	6489.38
931.215	6452.38
931.447	6341.38
931.68	6313.38
931.912	6315.38
932.145	6304.38
932.377	6297.38
932.61	6462.38
932.842	6252.38
933.074	6335.38
933.307	6278.38
933.539	6318.38
933.771	6300.38
934.003	6246.38
934.236	6318.38
934.468	6326.38
934.7	6273.38
934.932	6296.38
935.164	6215.38
935.395	6160.38
935.627	6187.38
935.859	6147.38
936.091	6098.38
936.323	6078.38
936.554	6087.38
936.786	6033.38
937.017	5944.38
937.249	6001.38
937.481	5972.38
937.712	5981.38
937.943	5944.38
938.175	5916.38
938.406	5960.38
938.637	5935.38
938.869	5853.38
939.1	5941.38
939.331	5836.38
939.562	5873.38
939.793	5867.38
940.024	5817.38
940.255	5866.38
940.486	5758.38
940.717	5678.38
940.948	5696.38
941.179	5612.38
941.409	5686.38
941.64	5603.38
941.871	5663.38
942.102	5614.38
942.332	5641.38
942.563	5707.38
942.793	5658.38
943.024	5536.38
943.254	5609.38
943.484	5642.38
943.715	5603.38
943.945	5611.38
944.175	5500.38
944.405	5525.38
944.636	5524.38
944.866	5605.38
945.096	5507.38
945.326	5452.38
945.556	5535.38
945.786	5493.38
946.016	5406.38
946.245	5367.38
946.475	5324.38
946.705	5342.38
946.935	5336.38
947.164	5241.38
947.394	5224.38
947.624	5274.38
947.853	5227.38
948.083	5150.38
948.312	5133.38
948.542	5098.38
948.771	5029.38
949	5057.38
949.23	5056.38
949.459	5106.38
949.688	5171.38
949.917	5049.38
950.146	5089.38
950.375	5126.38
950.604	5048.38
950.833	5078.38
951.062	5079.38
951.291	5031.38
951.52	4947.38
951.749	4939.38
951.978	4922.38
952.206	4911.38
952.435	4898.38
952.664	4937.38
952.892	4927.38
953.121	4920.38
953.349	4881.38
953.578	4872.38
953.806	4818.38
954.035	4803.38
954.263	4783.38
954.491	4701.38
954.719	4755.38
954.948	4659.38
955.176	4666.38
955.404	4560.38
955.632	4673.38
955.86	4660.38
956.088	4607.38
956.316	4618.38
956.544	4602.38
956.772	4561.38
956.999	4501.38
957.227	4563.38
957.455	4435.38
957.683	4452.38
957.91	4339.38
958.138	4406.38
958.365	4349.38
958.593	4394.38
958.82	4272.38
959.048	4374.38
959.275	4339.38
959.502	4293.38
959.73	4278.38
959.957	4270.38
960.184	4286.38
960.411	4216.38
960.638	4303.38
960.865	4266.38
961.092	4318.38
961.319	4205.38
961.546	4260.38
961.773	4263.38
962	4169.38
962.227	4259.38
962.454	4208.38
962.68	4163.38
962.907	4156.38
963.134	4099.38
963.36	4130.38
963.587	4082.38
963.813	4004.38
964.04	4078.38
964.266	3936.38
964.493	4082.38
964.719	4043.38
964.945	4008.38
965.171	3884.38
965.398	3894.38
965.624	3923.38
965.85	3835.38
966.076	3807.38
966.302	3840.38
966.528	3770.38
966.754	3853.38
966.98	3779.38
967.206	3819.38
967.431	3736.38
967.657	3792.38
967.883	3775.38
968.109	3750.38
968.334	3681.38
968.56	3662.38
968.785	3719.38
969.011	3637.38
969.236	3723.38
969.462	3626.38
969.687	3635.38
969.912	3611.38
970.138	3701.38
970.363	3594.38
970.588	3609.38
970.813	3590.38
971.038	3528.38
971.263	3584.38
971.488	3549.38
971.713	3595.38
971.938	3547.38
972.163	3460.38
972.388	3459.38
972.613	3452.38
972.838	3471.38
973.062	3423.38
973.287	3410.38
973.512	3362.38
973.736	3374.38
973.961	3365.38
974.185	3351.38
974.41	3358.38
974.634	3194.38
974.858	3260.38
975.083	3285.38
975.307	3263.38
975.531	3208.38
975.755	3151.38
975.98	3179.38
976.204	3098.38
976.428	3093.38
976.652	3101.38
976.876	3058.38
977.1	3104.38
977.324	3030.38
977.547	3089.38
977.771	3072.38
977.995	3057.38
978.219	2974.38
978.442	3084.38
978.666	2997.38
978.89	3015.38
979.113	3011.38
979.337	2988.38
979.56	2935.38
979.783	3056.38
980.007	2917.38
980.23	2946.38
980.453	2917.38
980.677	2927.38
980.9	2934.38
981.123	2829.38
981.346	2905.38
981.569	2866.38
981.792	2890.38
982.015	2820.38
982.238	2799.38
982.461	2802.38
982.684	2749.38
982.907	2738.38
983.129	2721.38
983.352	2751.38
983.575	2739.38
983.797	2716.38
984.02	2675.38
984.242	2664.38
984.465	2674.38
984.687	2722.38
984.91	2707.38
985.132	2665.38
985.354	2690.38
985.577	2686.38
985.799	2639.38
986.021	2543.38
986.243	2532.38
986.465	2581.38
986.687	2612.38
986.909	2657.38
987.131	2570.38
987.353	2507.38
987.575	2557.38
987.797	2517.38
988.019	2455.38
988.241	2521.38
988.462	2473.38
988.684	2544.38
988.906	2571.38
989.127	2569.38
989.349	2457.38
989.57	2465.38
989.792	2518.38
990.013	2507.38
990.234	2504.38
990.456	2541.38
990.677	2510.38
990.898	2469.38
991.119	2450.38
991.341	2467.38
991.562	2377.38
991.783	2424.38
992.004	2362.38
992.225	2320.38
992.446	2381.38
992.667	2284.38
992.887	2325.38
993.108	2235.38
993.329	2341.38
993.55	2281.38
993.77	2223.38
993.991	2253.38
994.212	2258.38
994.432	2225.38
994.653	2216.38
994.873	2232.38
995.093	2113.38
995.314	2177.38
995.534	2233.38
995.754	2216.38
995.975	2251.38
996.195	2141.38
996.415	2187.38
996.635	2168.38
996.855	2190.38
997.075	2163.38
997.295	2135.38
997.515	2111.38
997.735	2167.38
997.955	2134.38
998.174	2124.38
998.394	2115.38
998.614	2135.38
998.834	2092.38
999.053	2150.38
999.273	2117.38
999.492	2139.38
999.712	2077.38
999.931	2047.38
1000.151	2057.38
1000.37	2075.38
1000.589	2122.38
1000.809	2039.38
1001.028	2156.38
1001.247	2078.38
1001.466	1944.38
1001.685	2084.38
1001.904	2034.38
1002.123	2034.38
1002.342	1971.38
1002.561	1952.38
1002.78	1969.38
1002.999	2051.38
1003.218	1956.38
1003.436	1950.38
1003.655	1996.38
1003.874	1902.38
1004.092	1941.38
1004.311	1973.38
1004.53	1925.38
1004.748	2007.38
1004.966	1909.38
1005.185	1972.38
1005.403	1965.38
1005.622	1933.38
1005.84	1992.38
1006.058	1853.38
1006.276	1901.38
1006.494	2414.38
1006.712	1875.38
1006.931	1956.38
1007.149	1875.38
1007.367	1876.38
1007.584	1910.38
1007.802	1932.38
1008.02	1859.38
1008.238	1986.38
1008.456	1959.38
1008.673	1840.38
1008.891	1939.38
1009.109	1920.38
1009.326	1948.38
1009.544	2081.38
1009.761	1952.38
1009.979	2044.38
1010.196	2027.38
1010.413	2141.38
1010.631	2211.38
1010.848	2247.38
1011.065	2245.38
1011.282	2174.38
1011.5	2118.38
1011.717	2219.38
1011.934	2118.38
1012.151	2187.38
1012.368	2190.38
1012.585	2105.38
1012.801	2180.38
1013.018	2110.38
1013.235	2097.38
1013.452	2115.38
1013.669	2095.38
1013.885	2103.38
1014.102	2111.38
1014.318	2077.38
1014.535	2041.38
1014.751	2102.38
1014.968	2085.38
1015.184	2088.38
1015.401	1976.38
1015.617	2028.38
1015.833	1982.38
1016.049	1994.38
1016.266	1909.38
1016.482	1915.38
1016.698	1888.38
1016.914	1883.38
1017.13	1838.38
1017.346	1841.38
1017.562	1889.38
1017.778	1830.38
1017.993	1799.38
1018.209	1822.38
1018.425	1816.38
1018.641	1760.38
1018.856	1749.38
1019.072	1790.38
1019.288	1833.38
1019.503	1782.38
1019.719	1690.38
1019.934	1712.38
1020.149	1791.38
1020.365	1724.38
1020.58	1660.38
1020.795	1699.38
1021.011	1607.38
1021.226	1615.38
1021.441	1630.38
1021.656	1530.38
1021.871	1458.38
1022.086	1464.38
1022.301	1439.38
1022.516	1413.38
1022.731	1460.38
1022.946	1380.38
1023.16	1352.38
1023.375	1339.38
1023.59	1308.38
1023.804	1265.38
1024.019	1371.38
1024.234	1233.38
1024.448	1253.38
1024.663	1183.38
1024.877	1217.38
1025.092	1199.38
1025.306	1218.38
1025.52	1124.38
1025.734	1193.38
1025.949	1112.38
1026.163	1079.38
1026.377	1003.38
1026.591	1070.38
1026.805	966.38
1027.019	975.38
1027.233	935.38
1027.447	882.38
1027.661	968.38
1027.875	899.38
1028.088	909.38
1028.302	840.38
1028.516	822.38
1028.73	794.38
1028.943	804.38
1029.157	744.38
1029.37	687.38
1029.584	-2.62
1029.797	-3.62
1030.011	-2.62
1030.224	0.38
