Data from QEP037381__80__13-34-31-024.txt Node

Date: Wed Dec 21 13:34:31 EST 2022
User: dcclab
Spectrometer: QEP03738
Trigger mode: 4
Integration Time (sec): 1.000000E1
Scans to average: 1
Electric dark correction enabled: true
Nonlinearity correction enabled: false
Boxcar width: 0
XAxis mode: Wavelengths
Number of Pixels in Spectrum: 1044
>>>>>Begin Spectral Data<<<<<
784.041	14.62
784.3	-0.38
784.558	-3.38
784.817	-1.38
785.075	93622.62
785.334	15874.62
785.592	7294.62
785.851	5010.62
786.109	3791.62
786.368	2985.62
786.626	2390.62
786.884	1997.62
787.143	1671.62
787.401	1340.62
787.659	1249.62
787.917	1073.62
788.175	989.62
788.433	885.62
788.691	768.62
788.949	726.62
789.207	699.62
789.465	606.62
789.723	596.62
789.98	539.62
790.238	581.62
790.496	549.62
790.753	517.62
791.011	569.62
791.268	513.62
791.526	482.62
791.783	507.62
792.041	471.62
792.298	403.62
792.556	466.62
792.813	452.62
793.07	428.62
793.327	410.62
793.584	492.62
793.841	403.62
794.099	434.62
794.356	487.62
794.613	394.62
794.869	436.62
795.126	395.62
795.383	371.62
795.64	408.62
795.897	354.62
796.153	402.62
796.41	394.62
796.667	376.62
796.923	397.62
797.18	390.62
797.436	416.62
797.693	367.62
797.949	426.62
798.206	448.62
798.462	364.62
798.718	416.62
798.974	387.62
799.231	438.62
799.487	427.62
799.743	406.62
799.999	450.62
800.255	441.62
800.511	411.62
800.767	455.62
801.023	423.62
801.279	438.62
801.534	462.62
801.79	501.62
802.046	483.62
802.302	580.62
802.557	601.62
802.813	701.62
803.068	805.62
803.324	1022.62
803.579	1310.62
803.835	1726.62
804.09	2349.62
804.345	3055.62
804.601	3732.62
804.856	4582.62
805.111	5305.62
805.366	5789.62
805.621	6189.62
805.876	6407.62
806.131	6644.62
806.386	6645.62
806.641	6756.62
806.896	6837.62
807.151	7038.62
807.406	7117.62
807.661	7291.62
807.915	7323.62
808.17	7470.62
808.425	7560.62
808.679	7559.62
808.934	7777.62
809.188	7835.62
809.443	7924.62
809.697	8050.62
809.951	8058.62
810.206	8053.62
810.46	8289.62
810.714	8273.62
810.968	8433.62
811.223	8383.62
811.477	8449.62
811.731	8623.62
811.985	8583.62
812.239	8529.62
812.493	8661.62
812.747	8675.62
813	8694.62
813.254	8772.62
813.508	8865.62
813.762	8852.62
814.015	8868.62
814.269	8953.62
814.522	9031.62
814.776	9175.62
815.03	9209.62
815.283	9404.62
815.536	9544.62
815.79	9728.62
816.043	9882.62
816.296	9923.62
816.55	10079.62
816.803	10192.62
817.056	10386.62
817.309	10484.62
817.562	10551.62
817.815	10696.62
818.068	10707.62
818.321	10824.62
818.574	10962.62
818.827	11104.62
819.079	11233.62
819.332	11540.62
819.585	11663.62
819.838	11835.62
820.09	11785.62
820.343	11924.62
820.595	11888.62
820.848	12026.62
821.1	12065.62
821.353	12024.62
821.605	12069.62
821.857	12054.62
822.11	12004.62
822.362	11987.62
822.614	11962.62
822.866	11951.62
823.118	11894.62
823.37	12117.62
823.622	12161.62
823.874	12223.62
824.126	12221.62
824.378	12220.62
824.63	12180.62
824.882	12308.62
825.134	12279.62
825.385	12313.62
825.637	12125.62
825.888	12175.62
826.14	12186.62
826.392	12073.62
826.643	12009.62
826.895	12052.62
827.146	11941.62
827.397	11922.62
827.649	11952.62
827.9	11918.62
828.151	11907.62
828.402	11897.62
828.653	12014.62
828.905	12125.62
829.156	12125.62
829.407	12080.62
829.658	12085.62
829.909	12284.62
830.159	12261.62
830.41	12210.62
830.661	12125.62
830.912	12069.62
831.162	11938.62
831.413	12106.62
831.664	12079.62
831.914	11954.62
832.165	12011.62
832.415	11961.62
832.666	11995.62
832.916	12101.62
833.167	12009.62
833.417	11984.62
833.667	11959.62
833.917	11950.62
834.168	12004.62
834.418	11958.62
834.668	11967.62
834.918	11833.62
835.168	11813.62
835.418	11718.62
835.668	11750.62
835.918	11696.62
836.167	11763.62
836.417	11645.62
836.667	11703.62
836.917	11698.62
837.166	11634.62
837.416	11755.62
837.666	11763.62
837.915	11651.62
838.165	11689.62
838.414	11608.62
838.663	11608.62
838.913	11701.62
839.162	11649.62
839.411	11754.62
839.661	11685.62
839.91	11606.62
840.159	11639.62
840.408	11614.62
840.657	11653.62
840.906	11730.62
841.155	11729.62
841.404	11722.62
841.653	11774.62
841.902	11733.62
842.15	11765.62
842.399	11859.62
842.648	11857.62
842.897	11821.62
843.145	11616.62
843.394	11561.62
843.642	11559.62
843.891	11577.62
844.139	11425.62
844.388	11330.62
844.636	11200.62
844.884	11265.62
845.133	11274.62
845.381	11394.62
845.629	11367.62
845.877	11419.62
846.125	11356.62
846.373	11328.62
846.621	11292.62
846.869	11285.62
847.117	11199.62
847.365	11177.62
847.613	11142.62
847.861	11117.62
848.108	11196.62
848.356	11129.62
848.604	11039.62
848.851	11105.62
849.099	11134.62
849.346	11177.62
849.594	11325.62
849.841	11428.62
850.089	11395.62
850.336	11475.62
850.583	11579.62
850.831	11463.62
851.078	11418.62
851.325	11484.62
851.572	11459.62
851.819	11360.62
852.066	11101.62
852.313	10864.62
852.56	10792.62
852.807	10798.62
853.054	10749.62
853.301	10712.62
853.548	10832.62
853.794	10990.62
854.041	10943.62
854.288	11020.62
854.534	11188.62
854.781	11233.62
855.028	11131.62
855.274	11172.62
855.52	11023.62
855.767	11075.62
856.013	11163.62
856.26	11418.62
856.506	11015.62
856.752	11005.62
856.998	10918.62
857.244	10971.62
857.49	11098.62
857.736	11162.62
857.982	11113.62
858.228	10999.62
858.474	10955.62
858.72	10881.62
858.966	10778.62
859.212	10559.62
859.458	10539.62
859.703	10456.62
859.949	10348.62
860.195	10270.62
860.44	10210.62
860.686	10241.62
860.931	10323.62
861.177	10154.62
861.422	10074.62
861.667	9973.62
861.913	10032.62
862.158	9983.62
862.403	10031.62
862.648	10164.62
862.893	10125.62
863.138	10071.62
863.384	10043.62
863.629	10063.62
863.873	10032.62
864.118	10073.62
864.363	10056.62
864.608	9985.62
864.853	10003.62
865.098	9870.62
865.342	9840.62
865.587	9810.62
865.832	9829.62
866.076	9920.62
866.321	9872.62
866.565	9783.62
866.81	9772.62
867.054	9742.62
867.298	9740.62
867.543	9691.62
867.787	9687.62
868.031	9750.62
868.275	9679.62
868.519	9811.62
868.764	9725.62
869.008	9758.62
869.252	9783.62
869.496	9721.62
869.739	9828.62
869.983	9859.62
870.227	9906.62
870.471	9820.62
870.715	9985.62
870.958	9953.62
871.202	9964.62
871.446	10054.62
871.689	10022.62
871.933	10042.62
872.176	10037.62
872.42	9983.62
872.663	9950.62
872.906	10080.62
873.15	10062.62
873.393	10061.62
873.636	10171.62
873.879	10022.62
874.122	9939.62
874.366	9733.62
874.609	9697.62
874.852	9484.62
875.095	9451.62
875.337	9396.62
875.58	9281.62
875.823	9329.62
876.066	9268.62
876.309	9311.62
876.551	9169.62
876.794	9104.62
877.037	9235.62
877.279	9123.62
877.522	9089.62
877.764	9142.62
878.007	9084.62
878.249	9043.62
878.491	9008.62
878.734	9082.62
878.976	9016.62
879.218	8869.62
879.46	8901.62
879.702	8800.62
879.945	8759.62
880.187	8693.62
880.429	8594.62
880.671	8568.62
880.912	8579.62
881.154	8564.62
881.396	8458.62
881.638	8555.62
881.88	8594.62
882.121	8517.62
882.363	8659.62
882.605	8617.62
882.846	8659.62
883.088	8635.62
883.329	8706.62
883.571	8752.62
883.812	9024.62
884.053	9260.62
884.295	9640.62
884.536	9944.62
884.777	9800.62
885.018	9740.62
885.259	9656.62
885.5	9511.62
885.742	9654.62
885.982	9464.62
886.223	9332.62
886.464	9234.62
886.705	8995.62
886.946	8962.62
887.187	8657.62
887.428	8564.62
887.668	8287.62
887.909	8204.62
888.15	8091.62
888.39	8080.62
888.631	8041.62
888.871	7936.62
889.111	7861.62
889.352	7790.62
889.592	7665.62
889.833	7611.62
890.073	7633.62
890.313	7594.62
890.553	7454.62
890.793	7490.62
891.033	7406.62
891.273	7338.62
891.513	7427.62
891.753	7398.62
891.993	7354.62
892.233	7421.62
892.473	7506.62
892.713	7429.62
892.952	7374.62
893.192	7435.62
893.432	7431.62
893.671	7476.62
893.911	7377.62
894.15	7386.62
894.39	7292.62
894.629	7355.62
894.869	7322.62
895.108	7257.62
895.347	7168.62
895.587	7251.62
895.826	7210.62
896.065	7145.62
896.304	7164.62
896.543	7196.62
896.782	7167.62
897.021	7193.62
897.26	7204.62
897.499	7261.62
897.738	7256.62
897.977	7196.62
898.216	7089.62
898.454	7048.62
898.693	7110.62
898.932	7103.62
899.17	7073.62
899.409	7074.62
899.647	7056.62
899.886	7047.62
900.124	7109.62
900.363	7078.62
900.601	7207.62
900.839	7228.62
901.078	7257.62
901.316	7312.62
901.554	7385.62
901.792	7528.62
902.03	7481.62
902.268	7598.62
902.506	7555.62
902.744	7450.62
902.982	7432.62
903.22	7145.62
903.458	7072.62
903.695	6977.62
903.933	6848.62
904.171	6626.62
904.409	6541.62
904.646	6485.62
904.884	6301.62
905.121	6276.62
905.359	6202.62
905.596	6086.62
905.833	6023.62
906.071	5988.62
906.308	6097.62
906.545	5972.62
906.783	5917.62
907.02	5939.62
907.257	5897.62
907.494	5892.62
907.731	5920.62
907.968	5880.62
908.205	5806.62
908.442	5747.62
908.679	5812.62
908.915	5729.62
909.152	5674.62
909.389	5594.62
909.626	5584.62
909.862	5562.62
910.099	5499.62
910.335	5511.62
910.572	5384.62
910.808	5512.62
911.045	5441.62
911.281	5384.62
911.518	5452.62
911.754	5379.62
911.99	5357.62
912.226	5343.62
912.463	5212.62
912.699	5205.62
912.935	5231.62
913.171	5172.62
913.407	5119.62
913.643	5141.62
913.879	5067.62
914.114	5009.62
914.35	4951.62
914.586	4920.62
914.822	4851.62
915.057	4960.62
915.293	4820.62
915.529	4786.62
915.764	4857.62
916	4822.62
916.235	4843.62
916.471	4809.62
916.706	4707.62
916.941	4789.62
917.177	4775.62
917.412	4812.62
917.647	4782.62
917.882	4683.62
918.117	4840.62
918.352	4748.62
918.588	4819.62
918.823	4656.62
919.057	4664.62
919.292	4571.62
919.527	4649.62
919.762	4588.62
919.997	4588.62
920.232	4464.62
920.466	4477.62
920.701	4351.62
920.935	4404.62
921.17	4345.62
921.405	4289.62
921.639	4365.62
921.873	4320.62
922.108	4312.62
922.342	4326.62
922.576	4259.62
922.811	4271.62
923.045	4253.62
923.279	4280.62
923.513	4135.62
923.747	4284.62
923.981	4223.62
924.215	4176.62
924.449	4151.62
924.683	4087.62
924.917	4044.62
925.151	4095.62
925.385	4165.62
925.618	4054.62
925.852	4069.62
926.086	3978.62
926.319	4102.62
926.553	4081.62
926.786	4106.62
927.02	4029.62
927.253	4099.62
927.486	4110.62
927.72	3994.62
927.953	4145.62
928.186	4021.62
928.42	4071.62
928.653	3986.62
928.886	3994.62
929.119	4005.62
929.352	3935.62
929.585	3939.62
929.818	3882.62
930.051	3958.62
930.284	3923.62
930.516	3820.62
930.749	3802.62
930.982	3836.62
931.215	3836.62
931.447	3733.62
931.68	3720.62
931.912	3748.62
932.145	3726.62
932.377	3769.62
932.61	3930.62
932.842	3702.62
933.074	3810.62
933.307	3723.62
933.539	3841.62
933.771	3755.62
934.003	3782.62
934.236	3871.62
934.468	3831.62
934.7	3752.62
934.932	3779.62
935.164	3702.62
935.395	3733.62
935.627	3775.62
935.859	3770.62
936.091	3650.62
936.323	3713.62
936.554	3747.62
936.786	3664.62
937.017	3632.62
937.249	3667.62
937.481	3604.62
937.712	3683.62
937.943	3671.62
938.175	3633.62
938.406	3639.62
938.637	3696.62
938.869	3570.62
939.1	3638.62
939.331	3627.62
939.562	3622.62
939.793	3648.62
940.024	3575.62
940.255	3653.62
940.486	3545.62
940.717	3560.62
940.948	3525.62
941.179	3480.62
941.409	3497.62
941.64	3510.62
941.871	3524.62
942.102	3506.62
942.332	3529.62
942.563	3577.62
942.793	3530.62
943.024	3478.62
943.254	3533.62
943.484	3567.62
943.715	3590.62
943.945	3539.62
944.175	3506.62
944.405	3463.62
944.636	3427.62
944.866	3570.62
945.096	3533.62
945.326	3423.62
945.556	3455.62
945.786	3510.62
946.016	3467.62
946.245	3384.62
946.475	3389.62
946.705	3360.62
946.935	3400.62
947.164	3363.62
947.394	3295.62
947.624	3320.62
947.853	3359.62
948.083	3307.62
948.312	3279.62
948.542	3242.62
948.771	3228.62
949	3242.62
949.23	3237.62
949.459	3296.62
949.688	3308.62
949.917	3261.62
950.146	3254.62
950.375	3315.62
950.604	3224.62
950.833	3300.62
951.062	3276.62
951.291	3236.62
951.52	3197.62
951.749	3279.62
951.978	3179.62
952.206	3178.62
952.435	3143.62
952.664	3213.62
952.892	3182.62
953.121	3176.62
953.349	3253.62
953.578	3209.62
953.806	3144.62
954.035	3076.62
954.263	3163.62
954.491	3079.62
954.719	3127.62
954.948	3058.62
955.176	3072.62
955.404	3018.62
955.632	3035.62
955.86	3057.62
956.088	3071.62
956.316	3038.62
956.544	3065.62
956.772	2987.62
956.999	3010.62
957.227	3067.62
957.455	2953.62
957.683	2932.62
957.91	2908.62
958.138	2914.62
958.365	2913.62
958.593	2885.62
958.82	2875.62
959.048	2877.62
959.275	2872.62
959.502	2819.62
959.73	2837.62
959.957	2854.62
960.184	2902.62
960.411	2873.62
960.638	2891.62
960.865	2818.62
961.092	2910.62
961.319	2791.62
961.546	2876.62
961.773	2875.62
962	2851.62
962.227	2864.62
962.454	2832.62
962.68	2819.62
962.907	2805.62
963.134	2772.62
963.36	2780.62
963.587	2807.62
963.813	2741.62
964.04	2779.62
964.266	2742.62
964.493	2812.62
964.719	2739.62
964.945	2746.62
965.171	2673.62
965.398	2698.62
965.624	2717.62
965.85	2639.62
966.076	2631.62
966.302	2709.62
966.528	2621.62
966.754	2622.62
966.98	2626.62
967.206	2652.62
967.431	2562.62
967.657	2632.62
967.883	2648.62
968.109	2583.62
968.334	2569.62
968.56	2569.62
968.785	2561.62
969.011	2512.62
969.236	2542.62
969.462	2530.62
969.687	2527.62
969.912	2566.62
970.138	2608.62
970.363	2506.62
970.588	2556.62
970.813	2537.62
971.038	2481.62
971.263	2528.62
971.488	2514.62
971.713	2528.62
971.938	2514.62
972.163	2423.62
972.388	2433.62
972.613	2421.62
972.838	2451.62
973.062	2425.62
973.287	2444.62
973.512	2329.62
973.736	2388.62
973.961	2395.62
974.185	2366.62
974.41	2421.62
974.634	2285.62
974.858	2305.62
975.083	2358.62
975.307	2412.62
975.531	2282.62
975.755	2250.62
975.98	2255.62
976.204	2195.62
976.428	2201.62
976.652	2217.62
976.876	2209.62
977.1	2210.62
977.324	2175.62
977.547	2244.62
977.771	2230.62
977.995	2201.62
978.219	2161.62
978.442	2263.62
978.666	2194.62
978.89	2188.62
979.113	2198.62
979.337	2166.62
979.56	2149.62
979.783	2227.62
980.007	2134.62
980.23	2170.62
980.453	2132.62
980.677	2149.62
980.9	2155.62
981.123	2073.62
981.346	2156.62
981.569	2109.62
981.792	2159.62
982.015	2113.62
982.238	2045.62
982.461	2094.62
982.684	2067.62
982.907	2013.62
983.129	1997.62
983.352	2069.62
983.575	2038.62
983.797	2024.62
984.02	1996.62
984.242	1993.62
984.465	2017.62
984.687	2033.62
984.91	2060.62
985.132	2023.62
985.354	2025.62
985.577	1985.62
985.799	1993.62
986.021	1933.62
986.243	1954.62
986.465	1968.62
986.687	2005.62
986.909	2017.62
987.131	2006.62
987.353	1945.62
987.575	1957.62
987.797	1924.62
988.019	1874.62
988.241	1950.62
988.462	1912.62
988.684	1959.62
988.906	1981.62
989.127	1984.62
989.349	1858.62
989.57	1918.62
989.792	1974.62
990.013	1946.62
990.234	1970.62
990.456	1985.62
990.677	1971.62
990.898	1913.62
991.119	1894.62
991.341	1951.62
991.562	1855.62
991.783	1922.62
992.004	1839.62
992.225	1799.62
992.446	1846.62
992.667	1781.62
992.887	1862.62
993.108	1774.62
993.329	1897.62
993.55	1825.62
993.77	1783.62
993.991	1780.62
994.212	1822.62
994.432	1789.62
994.653	1796.62
994.873	1847.62
995.093	1698.62
995.314	1723.62
995.534	1808.62
995.754	1823.62
995.975	1874.62
996.195	1750.62
996.415	1796.62
996.635	1761.62
996.855	1797.62
997.075	1746.62
997.295	1770.62
997.515	1772.62
997.735	1781.62
997.955	1787.62
998.174	1775.62
998.394	1763.62
998.614	1807.62
998.834	1763.62
999.053	1816.62
999.273	1775.62
999.492	1815.62
999.712	1756.62
999.931	1731.62
1000.151	1760.62
1000.37	1732.62
1000.589	1784.62
1000.809	1721.62
1001.028	1819.62
1001.247	1742.62
1001.466	1653.62
1001.685	1768.62
1001.904	1726.62
1002.123	1733.62
1002.342	1685.62
1002.561	1668.62
1002.78	1694.62
1002.999	1720.62
1003.218	1691.62
1003.436	1660.62
1003.655	1706.62
1003.874	1650.62
1004.092	1647.62
1004.311	1715.62
1004.53	1670.62
1004.748	1734.62
1004.966	1663.62
1005.185	1724.62
1005.403	1718.62
1005.622	1709.62
1005.84	1762.62
1006.058	1668.62
1006.276	1692.62
1006.494	2183.62
1006.712	1704.62
1006.931	1787.62
1007.149	1705.62
1007.367	1684.62
1007.584	1751.62
1007.802	1780.62
1008.02	1726.62
1008.238	1871.62
1008.456	1852.62
1008.673	1764.62
1008.891	1895.62
1009.109	1886.62
1009.326	1958.62
1009.544	2066.62
1009.761	2035.62
1009.979	2184.62
1010.196	2241.62
1010.413	2384.62
1010.631	2531.62
1010.848	2621.62
1011.065	2657.62
1011.282	2625.62
1011.5	2576.62
1011.717	2613.62
1011.934	2580.62
1012.151	2626.62
1012.368	2578.62
1012.585	2522.62
1012.801	2572.62
1013.018	2578.62
1013.235	2561.62
1013.452	2586.62
1013.669	2639.62
1013.885	2618.62
1014.102	2658.62
1014.318	2639.62
1014.535	2638.62
1014.751	2646.62
1014.968	2617.62
1015.184	2643.62
1015.401	2532.62
1015.617	2531.62
1015.833	2463.62
1016.049	2510.62
1016.266	2429.62
1016.482	2457.62
1016.698	2385.62
1016.914	2371.62
1017.13	2328.62
1017.346	2354.62
1017.562	2395.62
1017.778	2341.62
1017.993	2268.62
1018.209	2336.62
1018.425	2329.62
1018.641	2320.62
1018.856	2268.62
1019.072	2327.62
1019.288	2325.62
1019.503	2299.62
1019.719	2244.62
1019.934	2205.62
1020.149	2287.62
1020.365	2186.62
1020.58	2141.62
1020.795	2135.62
1021.011	2051.62
1021.226	1984.62
1021.441	1974.62
1021.656	1869.62
1021.871	1741.62
1022.086	1803.62
1022.301	1757.62
1022.516	1722.62
1022.731	1766.62
1022.946	1687.62
1023.16	1655.62
1023.375	1598.62
1023.59	1536.62
1023.804	1508.62
1024.019	1586.62
1024.234	1462.62
1024.448	1459.62
1024.663	1406.62
1024.877	1378.62
1025.092	1385.62
1025.306	1388.62
1025.52	1268.62
1025.734	1354.62
1025.949	1240.62
1026.163	1221.62
1026.377	1126.62
1026.591	1175.62
1026.805	1107.62
1027.019	1090.62
1027.233	1054.62
1027.447	1003.62
1027.661	1088.62
1027.875	1035.62
1028.088	1011.62
1028.302	947.62
1028.516	919.62
1028.73	920.62
1028.943	888.62
1029.157	834.62
1029.37	799.62
1029.584	0.62
1029.797	-5.38
1030.011	-3.38
1030.224	-1.38
