Data from QEP037381__25__13-25-21-052.txt Node

Date: Wed Dec 21 13:25:21 EST 2022
User: dcclab
Spectrometer: QEP03738
Trigger mode: 4
Integration Time (sec): 1.000000E1
Scans to average: 1
Electric dark correction enabled: true
Nonlinearity correction enabled: false
Boxcar width: 0
XAxis mode: Wavelengths
Number of Pixels in Spectrum: 1044
>>>>>Begin Spectral Data<<<<<
784.041	14.62
784.3	-0.38
784.558	-3.38
784.817	-7.38
785.075	90395.62
785.334	15505.62
785.592	7289.62
785.851	5093.62
786.109	3824.62
786.368	2964.62
786.626	2390.62
786.884	1993.62
787.143	1684.62
787.401	1406.62
787.659	1239.62
787.917	1070.62
788.175	1001.62
788.433	882.62
788.691	806.62
788.949	742.62
789.207	720.62
789.465	601.62
789.723	605.62
789.98	556.62
790.238	588.62
790.496	549.62
790.753	531.62
791.011	556.62
791.268	513.62
791.526	495.62
791.783	509.62
792.041	496.62
792.298	410.62
792.556	465.62
792.813	453.62
793.07	451.62
793.327	429.62
793.584	495.62
793.841	429.62
794.099	451.62
794.356	520.62
794.613	410.62
794.869	445.62
795.126	408.62
795.383	401.62
795.64	418.62
795.897	371.62
796.153	423.62
796.41	414.62
796.667	392.62
796.923	392.62
797.18	414.62
797.436	441.62
797.693	391.62
797.949	449.62
798.206	471.62
798.462	378.62
798.718	432.62
798.974	407.62
799.231	453.62
799.487	444.62
799.743	448.62
799.999	480.62
800.255	468.62
800.511	432.62
800.767	491.62
801.023	478.62
801.279	495.62
801.534	521.62
801.79	553.62
802.046	545.62
802.302	675.62
802.557	745.62
802.813	898.62
803.068	1035.62
803.324	1384.62
803.579	1838.62
803.835	2471.62
804.09	3346.62
804.345	4288.62
804.601	5404.62
804.856	6496.62
805.111	7530.62
805.366	8285.62
805.621	8729.62
805.876	9146.62
806.131	9449.62
806.386	9570.62
806.641	9744.62
806.896	9919.62
807.151	10172.62
807.406	10219.62
807.661	10468.62
807.915	10612.62
808.17	10802.62
808.425	10931.62
808.679	10955.62
808.934	11132.62
809.188	11176.62
809.443	11294.62
809.697	11500.62
809.951	11529.62
810.206	11602.62
810.46	11774.62
810.714	11783.62
810.968	11948.62
811.223	12026.62
811.477	12139.62
811.731	12247.62
811.985	12288.62
812.239	12268.62
812.493	12371.62
812.747	12434.62
813	12449.62
813.254	12514.62
813.508	12558.62
813.762	12634.62
814.015	12644.62
814.269	12773.62
814.522	12836.62
814.776	13068.62
815.03	13172.62
815.283	13256.62
815.536	13508.62
815.79	13768.62
816.043	13944.62
816.296	14155.62
816.55	14260.62
816.803	14481.62
817.056	14774.62
817.309	14829.62
817.562	14885.62
817.815	15083.62
818.068	15119.62
818.321	15280.62
818.574	15476.62
818.827	15632.62
819.079	15834.62
819.332	16272.62
819.585	16339.62
819.838	16592.62
820.09	16530.62
820.343	16668.62
820.595	16717.62
820.848	16849.62
821.1	16908.62
821.353	16939.62
821.605	16912.62
821.857	16921.62
822.11	16677.62
822.362	16774.62
822.614	16717.62
822.866	16688.62
823.118	16774.62
823.37	16820.62
823.622	16861.62
823.874	16867.62
824.126	17033.62
824.378	16859.62
824.63	17007.62
824.882	17006.62
825.134	16937.62
825.385	17021.62
825.637	16872.62
825.888	16829.62
826.14	16809.62
826.392	16744.62
826.643	16645.62
826.895	16574.62
827.146	16411.62
827.397	16410.62
827.649	16503.62
827.9	16313.62
828.151	16407.62
828.402	16397.62
828.653	16539.62
828.905	16501.62
829.156	16579.62
829.407	16551.62
829.658	16688.62
829.909	16849.62
830.159	16763.62
830.41	16730.62
830.661	16509.62
830.912	16453.62
831.162	16443.62
831.413	16366.62
831.664	16472.62
831.914	16386.62
832.165	16194.62
832.415	16253.62
832.666	16281.62
832.916	16308.62
833.167	16255.62
833.417	16205.62
833.667	16266.62
833.917	16129.62
834.168	16121.62
834.418	16144.62
834.668	16008.62
834.918	15881.62
835.168	15924.62
835.418	15769.62
835.668	15717.62
835.918	15779.62
836.167	15746.62
836.417	15616.62
836.667	15642.62
836.917	15641.62
837.166	15622.62
837.416	15684.62
837.666	15582.62
837.915	15577.62
838.165	15587.62
838.414	15443.62
838.663	15512.62
838.913	15465.62
839.162	15590.62
839.411	15555.62
839.661	15402.62
839.91	15378.62
840.159	15414.62
840.408	15365.62
840.657	15314.62
840.906	15418.62
841.155	15366.62
841.404	15292.62
841.653	15383.62
841.902	15385.62
842.15	15426.62
842.399	15489.62
842.648	15429.62
842.897	15421.62
843.145	15266.62
843.394	15153.62
843.642	15009.62
843.891	14970.62
844.139	14941.62
844.388	14777.62
844.636	14671.62
844.884	14718.62
845.133	14648.62
845.381	14694.62
845.629	14680.62
845.877	14692.62
846.125	14615.62
846.373	14693.62
846.621	14621.62
846.869	14503.62
847.117	14490.62
847.365	14383.62
847.613	14307.62
847.861	14305.62
848.108	14250.62
848.356	14315.62
848.604	14186.62
848.851	14210.62
849.099	14284.62
849.346	14308.62
849.594	14348.62
849.841	14460.62
850.089	14462.62
850.336	14494.62
850.583	14565.62
850.831	14464.62
851.078	14330.62
851.325	14303.62
851.572	14348.62
851.819	14257.62
852.066	13907.62
852.313	13690.62
852.56	13565.62
852.807	13443.62
853.054	13509.62
853.301	13494.62
853.548	13545.62
853.794	13681.62
854.041	13702.62
854.288	13814.62
854.534	13851.62
854.781	13808.62
855.028	13744.62
855.274	13793.62
855.52	13753.62
855.767	13608.62
856.013	13812.62
856.26	14018.62
856.506	13644.62
856.752	13581.62
856.998	13533.62
857.244	13505.62
857.49	13646.62
857.736	13634.62
857.982	13603.62
858.228	13621.62
858.474	13433.62
858.72	13288.62
858.966	13122.62
859.212	12967.62
859.458	12895.62
859.703	12777.62
859.949	12669.62
860.195	12612.62
860.44	12500.62
860.686	12536.62
860.931	12548.62
861.177	12418.62
861.422	12320.62
861.667	12186.62
861.913	12148.62
862.158	12149.62
862.403	12143.62
862.648	12263.62
862.893	12241.62
863.138	12196.62
863.384	12180.62
863.629	12221.62
863.873	12150.62
864.118	12100.62
864.363	12065.62
864.608	12108.62
864.853	11982.62
865.098	11881.62
865.342	11916.62
865.587	11831.62
865.832	11847.62
866.076	11825.62
866.321	11699.62
866.565	11761.62
866.81	11652.62
867.054	11665.62
867.298	11562.62
867.543	11492.62
867.787	11624.62
868.031	11556.62
868.275	11569.62
868.519	11464.62
868.764	11504.62
869.008	11562.62
869.252	11517.62
869.496	11545.62
869.739	11494.62
869.983	11595.62
870.227	11634.62
870.471	11479.62
870.715	11642.62
870.958	11675.62
871.202	11668.62
871.446	11697.62
871.689	11662.62
871.933	11663.62
872.176	11643.62
872.42	11527.62
872.663	11545.62
872.906	11506.62
873.15	11545.62
873.393	11627.62
873.636	11675.62
873.879	11511.62
874.122	11336.62
874.366	11145.62
874.609	11036.62
874.852	10840.62
875.095	10870.62
875.337	10815.62
875.58	10566.62
875.823	10667.62
876.066	10647.62
876.309	10704.62
876.551	10507.62
876.794	10476.62
877.037	10535.62
877.279	10392.62
877.522	10394.62
877.764	10331.62
878.007	10309.62
878.249	10317.62
878.491	10299.62
878.734	10295.62
878.976	10227.62
879.218	10111.62
879.46	10154.62
879.702	10052.62
879.945	9937.62
880.187	9793.62
880.429	9774.62
880.671	9698.62
880.912	9670.62
881.154	9629.62
881.396	9551.62
881.638	9585.62
881.88	9592.62
882.121	9541.62
882.363	9528.62
882.605	9654.62
882.846	9601.62
883.088	9629.62
883.329	9619.62
883.571	9729.62
883.812	9945.62
884.053	10126.62
884.295	10439.62
884.536	10801.62
884.777	10627.62
885.018	10452.62
885.259	10428.62
885.5	10289.62
885.742	10535.62
885.982	10211.62
886.223	10107.62
886.464	10025.62
886.705	9816.62
886.946	9734.62
887.187	9445.62
887.428	9396.62
887.668	9127.62
887.909	8935.62
888.15	8855.62
888.39	8852.62
888.631	8757.62
888.871	8623.62
889.111	8597.62
889.352	8505.62
889.592	8397.62
889.833	8332.62
890.073	8300.62
890.313	8305.62
890.553	8116.62
890.793	8142.62
891.033	8014.62
891.273	7992.62
891.513	8001.62
891.753	8066.62
891.993	7963.62
892.233	7953.62
892.473	8028.62
892.713	8027.62
892.952	7998.62
893.192	7960.62
893.432	7933.62
893.671	8029.62
893.911	7944.62
894.15	7890.62
894.39	7775.62
894.629	7757.62
894.869	7747.62
895.108	7708.62
895.347	7666.62
895.587	7650.62
895.826	7663.62
896.065	7589.62
896.304	7614.62
896.543	7634.62
896.782	7501.62
897.021	7557.62
897.26	7514.62
897.499	7533.62
897.738	7569.62
897.977	7466.62
898.216	7435.62
898.454	7346.62
898.693	7283.62
898.932	7320.62
899.17	7290.62
899.409	7271.62
899.647	7224.62
899.886	7231.62
900.124	7245.62
900.363	7234.62
900.601	7311.62
900.839	7305.62
901.078	7406.62
901.316	7402.62
901.554	7444.62
901.792	7543.62
902.03	7530.62
902.268	7495.62
902.506	7609.62
902.744	7445.62
902.982	7379.62
903.22	7242.62
903.458	7103.62
903.695	7031.62
903.933	6908.62
904.171	6686.62
904.409	6615.62
904.646	6605.62
904.884	6410.62
905.121	6452.62
905.359	6305.62
905.596	6232.62
905.833	6126.62
906.071	6105.62
906.308	6136.62
906.545	6112.62
906.783	6099.62
907.02	6090.62
907.257	6046.62
907.494	6038.62
907.731	6006.62
907.968	6063.62
908.205	5922.62
908.442	5875.62
908.679	5890.62
908.915	5829.62
909.152	5830.62
909.389	5657.62
909.626	5644.62
909.862	5663.62
910.099	5592.62
910.335	5622.62
910.572	5493.62
910.808	5515.62
911.045	5526.62
911.281	5496.62
911.518	5558.62
911.754	5407.62
911.99	5447.62
912.226	5360.62
912.463	5282.62
912.699	5237.62
912.935	5256.62
913.171	5218.62
913.407	5114.62
913.643	5191.62
913.879	5084.62
914.114	5096.62
914.35	4980.62
914.586	4975.62
914.822	4908.62
915.057	4985.62
915.293	4836.62
915.529	4852.62
915.764	4872.62
916	4820.62
916.235	4824.62
916.471	4823.62
916.706	4735.62
916.941	4781.62
917.177	4757.62
917.412	4795.62
917.647	4749.62
917.882	4701.62
918.117	4743.62
918.352	4734.62
918.588	4767.62
918.823	4630.62
919.057	4638.62
919.292	4549.62
919.527	4601.62
919.762	4428.62
919.997	4505.62
920.232	4419.62
920.466	4409.62
920.701	4266.62
920.935	4352.62
921.17	4279.62
921.405	4252.62
921.639	4282.62
921.873	4281.62
922.108	4242.62
922.342	4219.62
922.576	4219.62
922.811	4197.62
923.045	4198.62
923.279	4186.62
923.513	4040.62
923.747	4133.62
923.981	4138.62
924.215	4052.62
924.449	4011.62
924.683	3978.62
924.917	3927.62
925.151	3931.62
925.385	4009.62
925.618	3955.62
925.852	3920.62
926.086	3833.62
926.319	3902.62
926.553	3905.62
926.786	3944.62
927.02	3881.62
927.253	3942.62
927.486	3946.62
927.72	3811.62
927.953	3938.62
928.186	3854.62
928.42	3878.62
928.653	3778.62
928.886	3754.62
929.119	3805.62
929.352	3783.62
929.585	3776.62
929.818	3684.62
930.051	3675.62
930.284	3710.62
930.516	3594.62
930.749	3586.62
930.982	3619.62
931.215	3596.62
931.447	3501.62
931.68	3551.62
931.912	3490.62
932.145	3536.62
932.377	3605.62
932.61	3699.62
932.842	3494.62
933.074	3598.62
933.307	3503.62
933.539	3589.62
933.771	3562.62
934.003	3507.62
934.236	3601.62
934.468	3592.62
934.7	3486.62
934.932	3529.62
935.164	3449.62
935.395	3436.62
935.627	3459.62
935.859	3446.62
936.091	3391.62
936.323	3465.62
936.554	3475.62
936.786	3406.62
937.017	3395.62
937.249	3420.62
937.481	3355.62
937.712	3400.62
937.943	3345.62
938.175	3339.62
938.406	3327.62
938.637	3397.62
938.869	3288.62
939.1	3325.62
939.331	3290.62
939.562	3335.62
939.793	3340.62
940.024	3319.62
940.255	3326.62
940.486	3269.62
940.717	3230.62
940.948	3236.62
941.179	3182.62
941.409	3218.62
941.64	3172.62
941.871	3198.62
942.102	3199.62
942.332	3201.62
942.563	3259.62
942.793	3219.62
943.024	3126.62
943.254	3175.62
943.484	3227.62
943.715	3244.62
943.945	3219.62
944.175	3112.62
944.405	3060.62
944.636	3122.62
944.866	3161.62
945.096	3162.62
945.326	3098.62
945.556	3141.62
945.786	3167.62
946.016	3077.62
946.245	3050.62
946.475	3060.62
946.705	3022.62
946.935	3050.62
947.164	3037.62
947.394	2988.62
947.624	3022.62
947.853	3018.62
948.083	2963.62
948.312	2961.62
948.542	2879.62
948.771	2871.62
949	2925.62
949.23	2877.62
949.459	2899.62
949.688	2951.62
949.917	2901.62
950.146	2942.62
950.375	3005.62
950.604	2860.62
950.833	2944.62
951.062	2937.62
951.291	2882.62
951.52	2870.62
951.749	2858.62
951.978	2822.62
952.206	2864.62
952.435	2842.62
952.664	2882.62
952.892	2864.62
953.121	2844.62
953.349	2883.62
953.578	2783.62
953.806	2814.62
954.035	2731.62
954.263	2791.62
954.491	2737.62
954.719	2755.62
954.948	2692.62
955.176	2710.62
955.404	2643.62
955.632	2711.62
955.86	2694.62
956.088	2655.62
956.316	2691.62
956.544	2724.62
956.772	2634.62
956.999	2626.62
957.227	2691.62
957.455	2585.62
957.683	2597.62
957.91	2518.62
958.138	2575.62
958.365	2535.62
958.593	2544.62
958.82	2463.62
959.048	2554.62
959.275	2504.62
959.502	2485.62
959.73	2485.62
959.957	2514.62
960.184	2545.62
960.411	2464.62
960.638	2540.62
960.865	2472.62
961.092	2515.62
961.319	2401.62
961.546	2485.62
961.773	2495.62
962	2473.62
962.227	2536.62
962.454	2471.62
962.68	2421.62
962.907	2420.62
963.134	2428.62
963.36	2424.62
963.587	2436.62
963.813	2363.62
964.04	2400.62
964.266	2349.62
964.493	2385.62
964.719	2391.62
964.945	2401.62
965.171	2249.62
965.398	2299.62
965.624	2362.62
965.85	2245.62
966.076	2281.62
966.302	2314.62
966.528	2291.62
966.754	2302.62
966.98	2304.62
967.206	2290.62
967.431	2213.62
967.657	2320.62
967.883	2245.62
968.109	2256.62
968.334	2184.62
968.56	2201.62
968.785	2225.62
969.011	2147.62
969.236	2222.62
969.462	2167.62
969.687	2179.62
969.912	2244.62
970.138	2233.62
970.363	2144.62
970.588	2195.62
970.813	2161.62
971.038	2108.62
971.263	2172.62
971.488	2135.62
971.713	2187.62
971.938	2166.62
972.163	2062.62
972.388	2094.62
972.613	2077.62
972.838	2087.62
973.062	2047.62
973.287	2046.62
973.512	1972.62
973.736	2067.62
973.961	2025.62
974.185	2020.62
974.41	2049.62
974.634	1951.62
974.858	1949.62
975.083	2019.62
975.307	2023.62
975.531	1940.62
975.755	1912.62
975.98	1924.62
976.204	1853.62
976.428	1862.62
976.652	1854.62
976.876	1840.62
977.1	1898.62
977.324	1835.62
977.547	1912.62
977.771	1899.62
977.995	1890.62
978.219	1835.62
978.442	1932.62
978.666	1872.62
978.89	1866.62
979.113	1889.62
979.337	1856.62
979.56	1830.62
979.783	1886.62
980.007	1774.62
980.23	1828.62
980.453	1804.62
980.677	1831.62
980.9	1800.62
981.123	1715.62
981.346	1815.62
981.569	1781.62
981.792	1809.62
982.015	1763.62
982.238	1748.62
982.461	1766.62
982.684	1714.62
982.907	1707.62
983.129	1697.62
983.352	1750.62
983.575	1706.62
983.797	1709.62
984.02	1658.62
984.242	1677.62
984.465	1664.62
984.687	1729.62
984.91	1714.62
985.132	1701.62
985.354	1708.62
985.577	1680.62
985.799	1674.62
986.021	1611.62
986.243	1632.62
986.465	1639.62
986.687	1655.62
986.909	1740.62
987.131	1662.62
987.353	1618.62
987.575	1637.62
987.797	1636.62
988.019	1562.62
988.241	1626.62
988.462	1560.62
988.684	1692.62
988.906	1680.62
989.127	1684.62
989.349	1571.62
989.57	1600.62
989.792	1626.62
990.013	1649.62
990.234	1637.62
990.456	1683.62
990.677	1641.62
990.898	1599.62
991.119	1586.62
991.341	1614.62
991.562	1552.62
991.783	1588.62
992.004	1538.62
992.225	1517.62
992.446	1576.62
992.667	1459.62
992.887	1571.62
993.108	1467.62
993.329	1598.62
993.55	1513.62
993.77	1466.62
993.991	1509.62
994.212	1506.62
994.432	1511.62
994.653	1529.62
994.873	1502.62
995.093	1397.62
995.314	1458.62
995.534	1525.62
995.754	1524.62
995.975	1540.62
996.195	1414.62
996.415	1456.62
996.635	1454.62
996.855	1486.62
997.075	1481.62
997.295	1451.62
997.515	1446.62
997.735	1470.62
997.955	1476.62
998.174	1484.62
998.394	1448.62
998.614	1463.62
998.834	1445.62
999.053	1485.62
999.273	1447.62
999.492	1500.62
999.712	1447.62
999.931	1413.62
1000.151	1457.62
1000.37	1425.62
1000.589	1500.62
1000.809	1413.62
1001.028	1531.62
1001.247	1455.62
1001.466	1346.62
1001.685	1502.62
1001.904	1429.62
1002.123	1421.62
1002.342	1390.62
1002.561	1374.62
1002.78	1392.62
1002.999	1433.62
1003.218	1407.62
1003.436	1402.62
1003.655	1438.62
1003.874	1368.62
1004.092	1402.62
1004.311	1446.62
1004.53	1385.62
1004.748	1473.62
1004.966	1383.62
1005.185	1451.62
1005.403	1418.62
1005.622	1420.62
1005.84	1488.62
1006.058	1410.62
1006.276	1409.62
1006.494	1916.62
1006.712	1432.62
1006.931	1473.62
1007.149	1383.62
1007.367	1382.62
1007.584	1397.62
1007.802	1490.62
1008.02	1401.62
1008.238	1493.62
1008.456	1534.62
1008.673	1407.62
1008.891	1545.62
1009.109	1479.62
1009.326	1556.62
1009.544	1630.62
1009.761	1565.62
1009.979	1661.62
1010.196	1671.62
1010.413	1831.62
1010.631	1882.62
1010.848	1922.62
1011.065	1949.62
1011.282	1915.62
1011.5	1836.62
1011.717	1961.62
1011.934	1879.62
1012.151	1907.62
1012.368	1863.62
1012.585	1807.62
1012.801	1879.62
1013.018	1849.62
1013.235	1800.62
1013.452	1808.62
1013.669	1856.62
1013.885	1831.62
1014.102	1923.62
1014.318	1886.62
1014.535	1838.62
1014.751	1838.62
1014.968	1838.62
1015.184	1860.62
1015.401	1754.62
1015.617	1806.62
1015.833	1764.62
1016.049	1743.62
1016.266	1725.62
1016.482	1729.62
1016.698	1663.62
1016.914	1697.62
1017.13	1644.62
1017.346	1631.62
1017.562	1693.62
1017.778	1636.62
1017.993	1591.62
1018.209	1653.62
1018.425	1629.62
1018.641	1576.62
1018.856	1553.62
1019.072	1602.62
1019.288	1639.62
1019.503	1562.62
1019.719	1516.62
1019.934	1519.62
1020.149	1580.62
1020.365	1529.62
1020.58	1465.62
1020.795	1488.62
1021.011	1424.62
1021.226	1385.62
1021.441	1408.62
1021.656	1317.62
1021.871	1258.62
1022.086	1260.62
1022.301	1251.62
1022.516	1236.62
1022.731	1275.62
1022.946	1182.62
1023.16	1189.62
1023.375	1137.62
1023.59	1123.62
1023.804	1079.62
1024.019	1177.62
1024.234	1059.62
1024.448	1058.62
1024.663	989.62
1024.877	1009.62
1025.092	1014.62
1025.306	1032.62
1025.52	917.62
1025.734	1004.62
1025.949	914.62
1026.163	875.62
1026.377	835.62
1026.591	904.62
1026.805	820.62
1027.019	798.62
1027.233	785.62
1027.447	720.62
1027.661	818.62
1027.875	755.62
1028.088	763.62
1028.302	698.62
1028.516	705.62
1028.73	695.62
1028.943	661.62
1029.157	631.62
1029.37	571.62
1029.584	-0.38
1029.797	-3.38
1030.011	0.62
1030.224	-0.38
