Data from QEP037381__12__13-23-11-056.txt Node

Date: Wed Dec 21 13:23:11 EST 2022
User: dcclab
Spectrometer: QEP03738
Trigger mode: 4
Integration Time (sec): 1.000000E1
Scans to average: 1
Electric dark correction enabled: true
Nonlinearity correction enabled: false
Boxcar width: 0
XAxis mode: Wavelengths
Number of Pixels in Spectrum: 1044
>>>>>Begin Spectral Data<<<<<
784.041	10.88
784.3	-2.12
784.558	0.88
784.817	-2.12
785.075	93518.88
785.334	15705.88
785.592	7221.88
785.851	4936.88
786.109	3738.88
786.368	2913.88
786.626	2406.88
786.884	1957.88
787.143	1675.88
787.401	1368.88
787.659	1245.88
787.917	1055.88
788.175	991.88
788.433	841.88
788.691	772.88
788.949	723.88
789.207	704.88
789.465	615.88
789.723	588.88
789.98	543.88
790.238	572.88
790.496	549.88
790.753	517.88
791.011	568.88
791.268	503.88
791.526	487.88
791.783	490.88
792.041	480.88
792.298	405.88
792.556	471.88
792.813	451.88
793.07	460.88
793.327	439.88
793.584	500.88
793.841	422.88
794.099	441.88
794.356	507.88
794.613	405.88
794.869	454.88
795.126	401.88
795.383	379.88
795.64	416.88
795.897	370.88
796.153	433.88
796.41	407.88
796.667	380.88
796.923	406.88
797.18	400.88
797.436	409.88
797.693	382.88
797.949	434.88
798.206	474.88
798.462	384.88
798.718	436.88
798.974	408.88
799.231	455.88
799.487	432.88
799.743	436.88
799.999	466.88
800.255	487.88
800.511	434.88
800.767	471.88
801.023	465.88
801.279	481.88
801.534	523.88
801.79	553.88
802.046	548.88
802.302	651.88
802.557	710.88
802.813	853.88
803.068	999.88
803.324	1379.88
803.579	1781.88
803.835	2416.88
804.09	3285.88
804.345	4265.88
804.601	5291.88
804.856	6308.88
805.111	7275.88
805.366	8023.88
805.621	8557.88
805.876	8866.88
806.131	9102.88
806.386	9342.88
806.641	9364.88
806.896	9515.88
807.151	9852.88
807.406	9849.88
807.661	10012.88
807.915	10157.88
808.17	10357.88
808.425	10492.88
808.679	10532.88
808.934	10643.88
809.188	10752.88
809.443	10899.88
809.697	11096.88
809.951	11073.88
810.206	11043.88
810.46	11237.88
810.714	11378.88
810.968	11491.88
811.223	11518.88
811.477	11617.88
811.731	11680.88
811.985	11701.88
812.239	11751.88
812.493	11773.88
812.747	11844.88
813	11797.88
813.254	11864.88
813.508	11929.88
813.762	12048.88
814.015	11996.88
814.269	12108.88
814.522	12275.88
814.776	12366.88
815.03	12473.88
815.283	12692.88
815.536	12971.88
815.79	13063.88
816.043	13138.88
816.296	13341.88
816.55	13548.88
816.803	13719.88
817.056	13895.88
817.309	13948.88
817.562	14115.88
817.815	14240.88
818.068	14243.88
818.321	14448.88
818.574	14597.88
818.827	14829.88
819.079	14940.88
819.332	15308.88
819.585	15397.88
819.838	15658.88
820.09	15620.88
820.343	15773.88
820.595	15728.88
820.848	15863.88
821.1	15913.88
821.353	15918.88
821.605	15817.88
821.857	15932.88
822.11	15761.88
822.362	15631.88
822.614	15745.88
822.866	15670.88
823.118	15741.88
823.37	15830.88
823.622	15932.88
823.874	15909.88
824.126	15931.88
824.378	15854.88
824.63	15941.88
824.882	15983.88
825.134	15876.88
825.385	15975.88
825.637	15776.88
825.888	15758.88
826.14	15746.88
826.392	15745.88
826.643	15562.88
826.895	15624.88
827.146	15490.88
827.397	15421.88
827.649	15427.88
827.9	15406.88
828.151	15424.88
828.402	15386.88
828.653	15460.88
828.905	15477.88
829.156	15586.88
829.407	15599.88
829.658	15565.88
829.909	15643.88
830.159	15718.88
830.41	15657.88
830.661	15468.88
830.912	15350.88
831.162	15389.88
831.413	15287.88
831.664	15413.88
831.914	15284.88
832.165	15268.88
832.415	15231.88
832.666	15199.88
832.916	15224.88
833.167	15225.88
833.417	15261.88
833.667	15129.88
833.917	15112.88
834.168	15033.88
834.418	15043.88
834.668	15038.88
834.918	14809.88
835.168	14830.88
835.418	14802.88
835.668	14791.88
835.918	14712.88
836.167	14646.88
836.417	14585.88
836.667	14532.88
836.917	14587.88
837.166	14557.88
837.416	14587.88
837.666	14671.88
837.915	14526.88
838.165	14577.88
838.414	14456.88
838.663	14361.88
838.913	14429.88
839.162	14360.88
839.411	14508.88
839.661	14388.88
839.91	14343.88
840.159	14351.88
840.408	14380.88
840.657	14367.88
840.906	14367.88
841.155	14381.88
841.404	14261.88
841.653	14385.88
841.902	14302.88
842.15	14398.88
842.399	14468.88
842.648	14359.88
842.897	14303.88
843.145	14223.88
843.394	14114.88
843.642	14051.88
843.891	13974.88
844.139	13865.88
844.388	13787.88
844.636	13645.88
844.884	13757.88
845.133	13688.88
845.381	13728.88
845.629	13704.88
845.877	13609.88
846.125	13613.88
846.373	13628.88
846.621	13535.88
846.869	13602.88
847.117	13506.88
847.365	13368.88
847.613	13306.88
847.861	13270.88
848.108	13345.88
848.356	13268.88
848.604	13309.88
848.851	13237.88
849.099	13251.88
849.346	13211.88
849.594	13409.88
849.841	13370.88
850.089	13449.88
850.336	13434.88
850.583	13452.88
850.831	13387.88
851.078	13301.88
851.325	13279.88
851.572	13421.88
851.819	13199.88
852.066	12893.88
852.313	12723.88
852.56	12606.88
852.807	12568.88
853.054	12554.88
853.301	12514.88
853.548	12603.88
853.794	12685.88
854.041	12748.88
854.288	12757.88
854.534	12935.88
854.781	12844.88
855.028	12812.88
855.274	12805.88
855.52	12771.88
855.767	12774.88
856.013	12776.88
856.26	13080.88
856.506	12623.88
856.752	12561.88
856.998	12577.88
857.244	12502.88
857.49	12683.88
857.736	12756.88
857.982	12665.88
858.228	12623.88
858.474	12478.88
858.72	12401.88
858.966	12308.88
859.212	12085.88
859.458	11971.88
859.703	11892.88
859.949	11792.88
860.195	11780.88
860.44	11691.88
860.686	11684.88
860.931	11690.88
861.177	11575.88
861.422	11546.88
861.667	11290.88
861.913	11392.88
862.158	11391.88
862.403	11425.88
862.648	11385.88
862.893	11466.88
863.138	11438.88
863.384	11334.88
863.629	11347.88
863.873	11437.88
864.118	11276.88
864.363	11276.88
864.608	11235.88
864.853	11171.88
865.098	11139.88
865.342	11098.88
865.587	11066.88
865.832	11072.88
866.076	10976.88
866.321	10932.88
866.565	10906.88
866.81	10824.88
867.054	10786.88
867.298	10816.88
867.543	10700.88
867.787	10831.88
868.031	10813.88
868.275	10717.88
868.519	10680.88
868.764	10730.88
869.008	10667.88
869.252	10742.88
869.496	10635.88
869.739	10684.88
869.983	10707.88
870.227	10712.88
870.471	10737.88
870.715	10862.88
870.958	10808.88
871.202	10796.88
871.446	10837.88
871.689	10780.88
871.933	10820.88
872.176	10842.88
872.42	10716.88
872.663	10682.88
872.906	10779.88
873.15	10741.88
873.393	10763.88
873.636	10843.88
873.879	10704.88
874.122	10659.88
874.366	10424.88
874.609	10341.88
874.852	10166.88
875.095	10148.88
875.337	10068.88
875.58	9928.88
875.823	9863.88
876.066	9934.88
876.309	9961.88
876.551	9756.88
876.794	9749.88
877.037	9744.88
877.279	9689.88
877.522	9703.88
877.764	9677.88
878.007	9602.88
878.249	9669.88
878.491	9578.88
878.734	9604.88
878.976	9524.88
879.218	9445.88
879.46	9436.88
879.702	9373.88
879.945	9257.88
880.187	9197.88
880.429	9136.88
880.671	8996.88
880.912	9058.88
881.154	8985.88
881.396	8998.88
881.638	9006.88
881.88	8971.88
882.121	8969.88
882.363	8933.88
882.605	8945.88
882.846	8947.88
883.088	9005.88
883.329	8952.88
883.571	8993.88
883.812	9241.88
884.053	9492.88
884.295	9808.88
884.536	9994.88
884.777	9917.88
885.018	9734.88
885.259	9706.88
885.5	9555.88
885.742	9831.88
885.982	9507.88
886.223	9367.88
886.464	9364.88
886.705	9103.88
886.946	9133.88
887.187	8873.88
887.428	8750.88
887.668	8496.88
887.909	8393.88
888.15	8294.88
888.39	8176.88
888.631	8207.88
888.871	8084.88
889.111	8066.88
889.352	7943.88
889.592	7894.88
889.833	7785.88
890.073	7681.88
890.313	7721.88
890.553	7589.88
890.793	7545.88
891.033	7570.88
891.273	7478.88
891.513	7464.88
891.753	7484.88
891.993	7449.88
892.233	7477.88
892.473	7497.88
892.713	7425.88
892.952	7482.88
893.192	7499.88
893.432	7472.88
893.671	7516.88
893.911	7409.88
894.15	7358.88
894.39	7264.88
894.629	7184.88
894.869	7267.88
895.108	7187.88
895.347	7182.88
895.587	7161.88
895.826	7099.88
896.065	7162.88
896.304	7069.88
896.543	7110.88
896.782	6976.88
897.021	7027.88
897.26	6994.88
897.499	7061.88
897.738	7026.88
897.977	6985.88
898.216	6931.88
898.454	6850.88
898.693	6842.88
898.932	6823.88
899.17	6757.88
899.409	6693.88
899.647	6713.88
899.886	6745.88
900.124	6780.88
900.363	6745.88
900.601	6842.88
900.839	6785.88
901.078	6880.88
901.316	6886.88
901.554	6922.88
901.792	7005.88
902.03	6943.88
902.268	6971.88
902.506	7034.88
902.744	6913.88
902.982	6945.88
903.22	6729.88
903.458	6662.88
903.695	6570.88
903.933	6444.88
904.171	6297.88
904.409	6198.88
904.646	6114.88
904.884	6034.88
905.121	6036.88
905.359	5887.88
905.596	5906.88
905.833	5786.88
906.071	5735.88
906.308	5796.88
906.545	5736.88
906.783	5675.88
907.02	5727.88
907.257	5665.88
907.494	5621.88
907.731	5700.88
907.968	5696.88
908.205	5631.88
908.442	5577.88
908.679	5582.88
908.915	5523.88
909.152	5416.88
909.389	5319.88
909.626	5399.88
909.862	5299.88
910.099	5314.88
910.335	5311.88
910.572	5202.88
910.808	5258.88
911.045	5209.88
911.281	5158.88
911.518	5232.88
911.754	5091.88
911.99	5158.88
912.226	5060.88
912.463	5004.88
912.699	5003.88
912.935	4942.88
913.171	4939.88
913.407	4888.88
913.643	4881.88
913.879	4838.88
914.114	4778.88
914.35	4715.88
914.586	4695.88
914.822	4644.88
915.057	4721.88
915.293	4552.88
915.529	4527.88
915.764	4616.88
916	4607.88
916.235	4560.88
916.471	4571.88
916.706	4436.88
916.941	4531.88
917.177	4453.88
917.412	4526.88
917.647	4478.88
917.882	4526.88
918.117	4522.88
918.352	4421.88
918.588	4454.88
918.823	4442.88
919.057	4357.88
919.292	4280.88
919.527	4322.88
919.762	4256.88
919.997	4256.88
920.232	4139.88
920.466	4182.88
920.701	4085.88
920.935	4112.88
921.17	4071.88
921.405	3997.88
921.639	4088.88
921.873	4008.88
922.108	4052.88
922.342	4042.88
922.576	3944.88
922.811	3955.88
923.045	3953.88
923.279	3990.88
923.513	3819.88
923.747	3885.88
923.981	3904.88
924.215	3811.88
924.449	3835.88
924.683	3751.88
924.917	3764.88
925.151	3725.88
925.385	3794.88
925.618	3698.88
925.852	3740.88
926.086	3660.88
926.319	3699.88
926.553	3763.88
926.786	3721.88
927.02	3711.88
927.253	3713.88
927.486	3716.88
927.72	3702.88
927.953	3700.88
928.186	3648.88
928.42	3664.88
928.653	3598.88
928.886	3556.88
929.119	3610.88
929.352	3613.88
929.585	3623.88
929.818	3520.88
930.051	3529.88
930.284	3488.88
930.516	3414.88
930.749	3400.88
930.982	3459.88
931.215	3431.88
931.447	3347.88
931.68	3365.88
931.912	3330.88
932.145	3381.88
932.377	3394.88
932.61	3476.88
932.842	3269.88
933.074	3367.88
933.307	3306.88
933.539	3426.88
933.771	3380.88
934.003	3357.88
934.236	3397.88
934.468	3389.88
934.7	3307.88
934.932	3310.88
935.164	3286.88
935.395	3278.88
935.627	3310.88
935.859	3283.88
936.091	3208.88
936.323	3293.88
936.554	3289.88
936.786	3262.88
937.017	3195.88
937.249	3216.88
937.481	3151.88
937.712	3241.88
937.943	3178.88
938.175	3200.88
938.406	3156.88
938.637	3211.88
938.869	3119.88
939.1	3207.88
939.331	3122.88
939.562	3143.88
939.793	3129.88
940.024	3172.88
940.255	3133.88
940.486	3132.88
940.717	3084.88
940.948	3071.88
941.179	3022.88
941.409	3023.88
941.64	3010.88
941.871	3046.88
942.102	3022.88
942.332	3030.88
942.563	3051.88
942.793	3042.88
943.024	2990.88
943.254	3024.88
943.484	3079.88
943.715	3068.88
943.945	3042.88
944.175	2974.88
944.405	2943.88
944.636	2950.88
944.866	3020.88
945.096	2984.88
945.326	2933.88
945.556	2982.88
945.786	2968.88
946.016	2941.88
946.245	2902.88
946.475	2900.88
946.705	2871.88
946.935	2893.88
947.164	2890.88
947.394	2818.88
947.624	2865.88
947.853	2865.88
948.083	2836.88
948.312	2792.88
948.542	2752.88
948.771	2724.88
949	2757.88
949.23	2775.88
949.459	2799.88
949.688	2838.88
949.917	2743.88
950.146	2747.88
950.375	2835.88
950.604	2725.88
950.833	2802.88
951.062	2778.88
951.291	2725.88
951.52	2676.88
951.749	2712.88
951.978	2671.88
952.206	2678.88
952.435	2662.88
952.664	2702.88
952.892	2711.88
953.121	2681.88
953.349	2682.88
953.578	2685.88
953.806	2658.88
954.035	2594.88
954.263	2628.88
954.491	2592.88
954.719	2625.88
954.948	2570.88
955.176	2530.88
955.404	2488.88
955.632	2549.88
955.86	2571.88
956.088	2533.88
956.316	2579.88
956.544	2587.88
956.772	2511.88
956.999	2484.88
957.227	2550.88
957.455	2436.88
957.683	2503.88
957.91	2412.88
958.138	2425.88
958.365	2446.88
958.593	2407.88
958.82	2347.88
959.048	2447.88
959.275	2360.88
959.502	2382.88
959.73	2345.88
959.957	2408.88
960.184	2386.88
960.411	2346.88
960.638	2403.88
960.865	2382.88
961.092	2390.88
961.319	2287.88
961.546	2384.88
961.773	2400.88
962	2354.88
962.227	2380.88
962.454	2336.88
962.68	2350.88
962.907	2354.88
963.134	2273.88
963.36	2315.88
963.587	2307.88
963.813	2269.88
964.04	2273.88
964.266	2229.88
964.493	2278.88
964.719	2298.88
964.945	2287.88
965.171	2154.88
965.398	2251.88
965.624	2252.88
965.85	2156.88
966.076	2131.88
966.302	2218.88
966.528	2149.88
966.754	2175.88
966.98	2176.88
967.206	2156.88
967.431	2090.88
967.657	2183.88
967.883	2169.88
968.109	2121.88
968.334	2116.88
968.56	2086.88
968.785	2112.88
969.011	2073.88
969.236	2134.88
969.462	2042.88
969.687	2121.88
969.912	2106.88
970.138	2145.88
970.363	2073.88
970.588	2072.88
970.813	2058.88
971.038	2025.88
971.263	2066.88
971.488	2047.88
971.713	2091.88
971.938	2068.88
972.163	1975.88
972.388	1991.88
972.613	2007.88
972.838	2013.88
973.062	1957.88
973.287	1966.88
973.512	1905.88
973.736	1970.88
973.961	1934.88
974.185	1942.88
974.41	1980.88
974.634	1850.88
974.858	1865.88
975.083	1908.88
975.307	1915.88
975.531	1857.88
975.755	1826.88
975.98	1837.88
976.204	1773.88
976.428	1806.88
976.652	1813.88
976.876	1761.88
977.1	1798.88
977.324	1767.88
977.547	1805.88
977.771	1815.88
977.995	1809.88
978.219	1720.88
978.442	1869.88
978.666	1798.88
978.89	1782.88
979.113	1761.88
979.337	1755.88
979.56	1747.88
979.783	1792.88
980.007	1703.88
980.23	1744.88
980.453	1722.88
980.677	1767.88
980.9	1722.88
981.123	1619.88
981.346	1754.88
981.569	1706.88
981.792	1720.88
982.015	1686.88
982.238	1660.88
982.461	1682.88
982.684	1642.88
982.907	1624.88
983.129	1647.88
983.352	1678.88
983.575	1637.88
983.797	1644.88
984.02	1616.88
984.242	1611.88
984.465	1592.88
984.687	1646.88
984.91	1676.88
985.132	1623.88
985.354	1625.88
985.577	1615.88
985.799	1593.88
986.021	1524.88
986.243	1582.88
986.465	1579.88
986.687	1599.88
986.909	1675.88
987.131	1603.88
987.353	1544.88
987.575	1583.88
987.797	1557.88
988.019	1502.88
988.241	1529.88
988.462	1496.88
988.684	1591.88
988.906	1598.88
989.127	1629.88
989.349	1499.88
989.57	1502.88
989.792	1549.88
990.013	1580.88
990.234	1584.88
990.456	1585.88
990.677	1577.88
990.898	1522.88
991.119	1521.88
991.341	1546.88
991.562	1484.88
991.783	1553.88
992.004	1488.88
992.225	1436.88
992.446	1506.88
992.667	1419.88
992.887	1508.88
993.108	1391.88
993.329	1516.88
993.55	1455.88
993.77	1409.88
993.991	1391.88
994.212	1439.88
994.432	1448.88
994.653	1470.88
994.873	1427.88
995.093	1319.88
995.314	1391.88
995.534	1465.88
995.754	1458.88
995.975	1482.88
996.195	1370.88
996.415	1458.88
996.635	1401.88
996.855	1417.88
997.075	1418.88
997.295	1393.88
997.515	1392.88
997.735	1440.88
997.955	1410.88
998.174	1413.88
998.394	1377.88
998.614	1436.88
998.834	1382.88
999.053	1435.88
999.273	1414.88
999.492	1448.88
999.712	1407.88
999.931	1363.88
1000.151	1390.88
1000.37	1368.88
1000.589	1429.88
1000.809	1353.88
1001.028	1469.88
1001.247	1384.88
1001.466	1298.88
1001.685	1434.88
1001.904	1389.88
1002.123	1367.88
1002.342	1355.88
1002.561	1310.88
1002.78	1361.88
1002.999	1404.88
1003.218	1351.88
1003.436	1322.88
1003.655	1367.88
1003.874	1312.88
1004.092	1336.88
1004.311	1376.88
1004.53	1354.88
1004.748	1426.88
1004.966	1356.88
1005.185	1405.88
1005.403	1392.88
1005.622	1366.88
1005.84	1412.88
1006.058	1367.88
1006.276	1375.88
1006.494	1869.88
1006.712	1342.88
1006.931	1421.88
1007.149	1340.88
1007.367	1351.88
1007.584	1403.88
1007.802	1439.88
1008.02	1361.88
1008.238	1480.88
1008.456	1451.88
1008.673	1355.88
1008.891	1478.88
1009.109	1432.88
1009.326	1502.88
1009.544	1569.88
1009.761	1507.88
1009.979	1590.88
1010.196	1622.88
1010.413	1704.88
1010.631	1783.88
1010.848	1858.88
1011.065	1857.88
1011.282	1803.88
1011.5	1726.88
1011.717	1869.88
1011.934	1782.88
1012.151	1825.88
1012.368	1788.88
1012.585	1765.88
1012.801	1795.88
1013.018	1756.88
1013.235	1746.88
1013.452	1763.88
1013.669	1808.88
1013.885	1780.88
1014.102	1793.88
1014.318	1786.88
1014.535	1759.88
1014.751	1789.88
1014.968	1781.88
1015.184	1801.88
1015.401	1679.88
1015.617	1706.88
1015.833	1650.88
1016.049	1670.88
1016.266	1661.88
1016.482	1631.88
1016.698	1549.88
1016.914	1614.88
1017.13	1554.88
1017.346	1524.88
1017.562	1586.88
1017.778	1553.88
1017.993	1505.88
1018.209	1589.88
1018.425	1547.88
1018.641	1523.88
1018.856	1460.88
1019.072	1516.88
1019.288	1557.88
1019.503	1496.88
1019.719	1437.88
1019.934	1428.88
1020.149	1480.88
1020.365	1430.88
1020.58	1398.88
1020.795	1391.88
1021.011	1349.88
1021.226	1313.88
1021.441	1323.88
1021.656	1256.88
1021.871	1186.88
1022.086	1162.88
1022.301	1179.88
1022.516	1160.88
1022.731	1216.88
1022.946	1143.88
1023.16	1130.88
1023.375	1066.88
1023.59	1070.88
1023.804	1007.88
1024.019	1123.88
1024.234	966.88
1024.448	1002.88
1024.663	943.88
1024.877	960.88
1025.092	972.88
1025.306	986.88
1025.52	866.88
1025.734	951.88
1025.949	882.88
1026.163	858.88
1026.377	789.88
1026.591	868.88
1026.805	770.88
1027.019	771.88
1027.233	703.88
1027.447	684.88
1027.661	777.88
1027.875	746.88
1028.088	729.88
1028.302	658.88
1028.516	642.88
1028.73	648.88
1028.943	647.88
1029.157	593.88
1029.37	557.88
1029.584	-4.12
1029.797	-0.12
1030.011	-3.12
1030.224	-0.12
