Data from QEP037381__73__13-33-21-027.txt Node

Date: Wed Dec 21 13:33:21 EST 2022
User: dcclab
Spectrometer: QEP03738
Trigger mode: 4
Integration Time (sec): 1.000000E1
Scans to average: 1
Electric dark correction enabled: true
Nonlinearity correction enabled: false
Boxcar width: 0
XAxis mode: Wavelengths
Number of Pixels in Spectrum: 1044
>>>>>Begin Spectral Data<<<<<
784.041	11.25
784.3	-1.75
784.558	1.25
784.817	-3.75
785.075	92258.25
785.334	15725.25
785.592	7290.25
785.851	5024.25
786.109	3794.25
786.368	2955.25
786.626	2408.25
786.884	2028.25
787.143	1660.25
787.401	1364.25
787.659	1237.25
787.917	1075.25
788.175	999.25
788.433	867.25
788.691	784.25
788.949	723.25
789.207	703.25
789.465	597.25
789.723	578.25
789.98	526.25
790.238	568.25
790.496	539.25
790.753	513.25
791.011	577.25
791.268	488.25
791.526	473.25
791.783	515.25
792.041	489.25
792.298	400.25
792.556	450.25
792.813	461.25
793.07	442.25
793.327	409.25
793.584	500.25
793.841	422.25
794.099	444.25
794.356	508.25
794.613	400.25
794.869	452.25
795.126	402.25
795.383	376.25
795.64	396.25
795.897	363.25
796.153	428.25
796.41	397.25
796.667	394.25
796.923	396.25
797.18	385.25
797.436	413.25
797.693	375.25
797.949	432.25
798.206	461.25
798.462	361.25
798.718	433.25
798.974	408.25
799.231	435.25
799.487	425.25
799.743	434.25
799.999	455.25
800.255	436.25
800.511	416.25
800.767	451.25
801.023	434.25
801.279	461.25
801.534	462.25
801.79	516.25
802.046	510.25
802.302	598.25
802.557	634.25
802.813	740.25
803.068	852.25
803.324	1121.25
803.579	1410.25
803.835	1879.25
804.09	2564.25
804.345	3233.25
804.601	4102.25
804.856	4943.25
805.111	5610.25
805.366	6216.25
805.621	6602.25
805.876	6901.25
806.131	7081.25
806.386	7158.25
806.641	7279.25
806.896	7409.25
807.151	7546.25
807.406	7646.25
807.661	7826.25
807.915	7925.25
808.17	8027.25
808.425	8154.25
808.679	8193.25
808.934	8333.25
809.188	8398.25
809.443	8488.25
809.697	8572.25
809.951	8653.25
810.206	8777.25
810.46	8861.25
810.714	8919.25
810.968	9020.25
811.223	9109.25
811.477	9250.25
811.731	9289.25
811.985	9254.25
812.239	9176.25
812.493	9299.25
812.747	9392.25
813	9405.25
813.254	9418.25
813.508	9535.25
813.762	9525.25
814.015	9514.25
814.269	9609.25
814.522	9795.25
814.776	9923.25
815.03	10044.25
815.283	10083.25
815.536	10260.25
815.79	10475.25
816.043	10669.25
816.296	10813.25
816.55	10815.25
816.803	11040.25
817.056	11248.25
817.309	11395.25
817.562	11485.25
817.815	11611.25
818.068	11560.25
818.321	11759.25
818.574	11801.25
818.827	12158.25
819.079	12198.25
819.332	12555.25
819.585	12602.25
819.838	12819.25
820.09	12838.25
820.343	12980.25
820.595	12870.25
820.848	13077.25
821.1	13223.25
821.353	13172.25
821.605	13143.25
821.857	13148.25
822.11	12929.25
822.362	13020.25
822.614	12990.25
822.866	13029.25
823.118	13045.25
823.37	13200.25
823.622	13199.25
823.874	13218.25
824.126	13329.25
824.378	13290.25
824.63	13390.25
824.882	13408.25
825.134	13315.25
825.385	13334.25
825.637	13232.25
825.888	13258.25
826.14	13215.25
826.392	13150.25
826.643	13069.25
826.895	13111.25
827.146	12951.25
827.397	13011.25
827.649	13041.25
827.9	12949.25
828.151	12985.25
828.402	12981.25
828.653	13148.25
828.905	13138.25
829.156	13151.25
829.407	13205.25
829.658	13307.25
829.909	13412.25
830.159	13479.25
830.41	13400.25
830.661	13341.25
830.912	13192.25
831.162	13060.25
831.413	13195.25
831.664	13183.25
831.914	13268.25
832.165	13115.25
832.415	13177.25
832.666	13128.25
832.916	13227.25
833.167	13089.25
833.417	13234.25
833.667	13137.25
833.917	13055.25
834.168	13146.25
834.418	13108.25
834.668	13063.25
834.918	13012.25
835.168	12999.25
835.418	12850.25
835.668	12897.25
835.918	12816.25
836.167	12753.25
836.417	12683.25
836.667	12794.25
836.917	12838.25
837.166	12846.25
837.416	12831.25
837.666	12907.25
837.915	12862.25
838.165	12875.25
838.414	12816.25
838.663	12768.25
838.913	12846.25
839.162	12827.25
839.411	12930.25
839.661	12882.25
839.91	12933.25
840.159	12834.25
840.408	12863.25
840.657	12930.25
840.906	13002.25
841.155	12937.25
841.404	12940.25
841.653	12959.25
841.902	12920.25
842.15	13089.25
842.399	13084.25
842.648	13101.25
842.897	12984.25
843.145	12910.25
843.394	12917.25
843.642	12775.25
843.891	12828.25
844.139	12573.25
844.388	12523.25
844.636	12497.25
844.884	12520.25
845.133	12523.25
845.381	12501.25
845.629	12597.25
845.877	12566.25
846.125	12581.25
846.373	12559.25
846.621	12444.25
846.869	12513.25
847.117	12322.25
847.365	12391.25
847.613	12320.25
847.861	12277.25
848.108	12377.25
848.356	12306.25
848.604	12359.25
848.851	12380.25
849.099	12376.25
849.346	12393.25
849.594	12378.25
849.841	12533.25
850.089	12586.25
850.336	12709.25
850.583	12720.25
850.831	12625.25
851.078	12612.25
851.325	12527.25
851.572	12633.25
851.819	12553.25
852.066	12280.25
852.313	12025.25
852.56	11950.25
852.807	11874.25
853.054	11883.25
853.301	11999.25
853.548	11971.25
853.794	12087.25
854.041	12132.25
854.288	12115.25
854.534	12269.25
854.781	12241.25
855.028	12267.25
855.274	12370.25
855.52	12340.25
855.767	12405.25
856.013	12475.25
856.26	12723.25
856.506	12259.25
856.752	12205.25
856.998	12227.25
857.244	12265.25
857.49	12414.25
857.736	12442.25
857.982	12371.25
858.228	12298.25
858.474	12160.25
858.72	12071.25
858.966	11999.25
859.212	11785.25
859.458	11729.25
859.703	11631.25
859.949	11438.25
860.195	11443.25
860.44	11415.25
860.686	11404.25
860.931	11362.25
861.177	11234.25
861.422	11215.25
861.667	11064.25
861.913	11106.25
862.158	11047.25
862.403	11104.25
862.648	11152.25
862.893	11161.25
863.138	11134.25
863.384	11085.25
863.629	11184.25
863.873	11157.25
864.118	11125.25
864.363	11061.25
864.608	11063.25
864.853	10996.25
865.098	10956.25
865.342	10861.25
865.587	10801.25
865.832	10835.25
866.076	10828.25
866.321	10830.25
866.565	10909.25
866.81	10785.25
867.054	10794.25
867.298	10747.25
867.543	10748.25
867.787	10756.25
868.031	10720.25
868.275	10738.25
868.519	10712.25
868.764	10732.25
869.008	10754.25
869.252	10839.25
869.496	10844.25
869.739	10909.25
869.983	10922.25
870.227	10935.25
870.471	10999.25
870.715	11024.25
870.958	11142.25
871.202	11181.25
871.446	11210.25
871.689	11192.25
871.933	11167.25
872.176	11118.25
872.42	11062.25
872.663	11087.25
872.906	11141.25
873.15	11265.25
873.393	11302.25
873.636	11395.25
873.879	11263.25
874.122	11085.25
874.366	10850.25
874.609	10749.25
874.852	10591.25
875.095	10491.25
875.337	10456.25
875.58	10326.25
875.823	10293.25
876.066	10313.25
876.309	10218.25
876.551	10128.25
876.794	10069.25
877.037	10132.25
877.279	10136.25
877.522	10106.25
877.764	10052.25
878.007	9982.25
878.249	10042.25
878.491	9935.25
878.734	9967.25
878.976	9888.25
879.218	9801.25
879.46	9842.25
879.702	9762.25
879.945	9693.25
880.187	9512.25
880.429	9461.25
880.671	9426.25
880.912	9385.25
881.154	9423.25
881.396	9349.25
881.638	9370.25
881.88	9446.25
882.121	9441.25
882.363	9364.25
882.605	9456.25
882.846	9459.25
883.088	9551.25
883.329	9591.25
883.571	9687.25
883.812	9988.25
884.053	10533.25
884.295	10899.25
884.536	11195.25
884.777	11084.25
885.018	10982.25
885.259	10818.25
885.5	10672.25
885.742	10850.25
885.982	10581.25
886.223	10522.25
886.464	10266.25
886.705	10086.25
886.946	9948.25
887.187	9567.25
887.428	9464.25
887.668	9179.25
887.909	9025.25
888.15	8919.25
888.39	8787.25
888.631	8793.25
888.871	8618.25
889.111	8572.25
889.352	8466.25
889.592	8391.25
889.833	8293.25
890.073	8284.25
890.313	8268.25
890.553	8126.25
890.793	8108.25
891.033	8120.25
891.273	8054.25
891.513	8003.25
891.753	8087.25
891.993	8003.25
892.233	8022.25
892.473	8119.25
892.713	8106.25
892.952	8044.25
893.192	8137.25
893.432	8066.25
893.671	8143.25
893.911	8060.25
894.15	8034.25
894.39	7995.25
894.629	7901.25
894.869	7904.25
895.108	7879.25
895.347	7794.25
895.587	7880.25
895.826	7797.25
896.065	7806.25
896.304	7799.25
896.543	7808.25
896.782	7700.25
897.021	7765.25
897.26	7700.25
897.499	7820.25
897.738	7837.25
897.977	7671.25
898.216	7645.25
898.454	7643.25
898.693	7566.25
898.932	7675.25
899.17	7578.25
899.409	7596.25
899.647	7587.25
899.886	7627.25
900.124	7691.25
900.363	7594.25
900.601	7715.25
900.839	7775.25
901.078	7876.25
901.316	7989.25
901.554	8017.25
901.792	8163.25
902.03	8210.25
902.268	8223.25
902.506	8284.25
902.744	8163.25
902.982	8029.25
903.22	7828.25
903.458	7664.25
903.695	7473.25
903.933	7342.25
904.171	7161.25
904.409	7075.25
904.646	7022.25
904.884	6816.25
905.121	6773.25
905.359	6646.25
905.596	6584.25
905.833	6516.25
906.071	6452.25
906.308	6552.25
906.545	6422.25
906.783	6360.25
907.02	6412.25
907.257	6422.25
907.494	6405.25
907.731	6361.25
907.968	6341.25
908.205	6234.25
908.442	6236.25
908.679	6251.25
908.915	6167.25
909.152	6167.25
909.389	6042.25
909.626	6028.25
909.862	5991.25
910.099	5983.25
910.335	6016.25
910.572	5863.25
910.808	5906.25
911.045	5906.25
911.281	5837.25
911.518	5900.25
911.754	5784.25
911.99	5816.25
912.226	5729.25
912.463	5714.25
912.699	5686.25
912.935	5595.25
913.171	5591.25
913.407	5524.25
913.643	5528.25
913.879	5475.25
914.114	5455.25
914.35	5406.25
914.586	5340.25
914.822	5256.25
915.057	5351.25
915.293	5224.25
915.529	5182.25
915.764	5281.25
916	5226.25
916.235	5176.25
916.471	5184.25
916.706	5163.25
916.941	5128.25
917.177	5147.25
917.412	5201.25
917.647	5199.25
917.882	5110.25
918.117	5130.25
918.352	5124.25
918.588	5187.25
918.823	5039.25
919.057	5058.25
919.292	4909.25
919.527	5016.25
919.762	4881.25
919.997	4894.25
920.232	4795.25
920.466	4794.25
920.701	4688.25
920.935	4748.25
921.17	4629.25
921.405	4677.25
921.639	4687.25
921.873	4635.25
922.108	4622.25
922.342	4646.25
922.576	4580.25
922.811	4598.25
923.045	4570.25
923.279	4605.25
923.513	4468.25
923.747	4557.25
923.981	4524.25
924.215	4451.25
924.449	4428.25
924.683	4365.25
924.917	4418.25
925.151	4359.25
925.385	4417.25
925.618	4387.25
925.852	4396.25
926.086	4284.25
926.319	4311.25
926.553	4350.25
926.786	4318.25
927.02	4298.25
927.253	4363.25
927.486	4344.25
927.72	4275.25
927.953	4348.25
928.186	4313.25
928.42	4348.25
928.653	4268.25
928.886	4194.25
929.119	4248.25
929.352	4222.25
929.585	4220.25
929.818	4176.25
930.051	4192.25
930.284	4138.25
930.516	4033.25
930.749	4036.25
930.982	4072.25
931.215	4071.25
931.447	4002.25
931.68	3989.25
931.912	3990.25
932.145	3942.25
932.377	4018.25
932.61	4132.25
932.842	3932.25
933.074	4018.25
933.307	3965.25
933.539	4043.25
933.771	4039.25
934.003	4023.25
934.236	4108.25
934.468	4083.25
934.7	3956.25
934.932	4015.25
935.164	3978.25
935.395	3959.25
935.627	3970.25
935.859	3962.25
936.091	3917.25
936.323	3940.25
936.554	3932.25
936.786	3925.25
937.017	3816.25
937.249	3840.25
937.481	3812.25
937.712	3875.25
937.943	3858.25
938.175	3827.25
938.406	3812.25
938.637	3944.25
938.869	3780.25
939.1	3848.25
939.331	3853.25
939.562	3833.25
939.793	3798.25
940.024	3861.25
940.255	3861.25
940.486	3744.25
940.717	3742.25
940.948	3706.25
941.179	3701.25
941.409	3724.25
941.64	3668.25
941.871	3672.25
942.102	3668.25
942.332	3706.25
942.563	3706.25
942.793	3698.25
943.024	3657.25
943.254	3698.25
943.484	3751.25
943.715	3744.25
943.945	3716.25
944.175	3614.25
944.405	3631.25
944.636	3653.25
944.866	3672.25
945.096	3687.25
945.326	3594.25
945.556	3708.25
945.786	3698.25
946.016	3662.25
946.245	3574.25
946.475	3547.25
946.705	3571.25
946.935	3542.25
947.164	3570.25
947.394	3489.25
947.624	3467.25
947.853	3556.25
948.083	3484.25
948.312	3459.25
948.542	3416.25
948.771	3404.25
949	3400.25
949.23	3427.25
949.459	3376.25
949.688	3501.25
949.917	3444.25
950.146	3404.25
950.375	3436.25
950.604	3412.25
950.833	3433.25
951.062	3469.25
951.291	3397.25
951.52	3356.25
951.749	3371.25
951.978	3343.25
952.206	3336.25
952.435	3354.25
952.664	3414.25
952.892	3374.25
953.121	3312.25
953.349	3352.25
953.578	3341.25
953.806	3290.25
954.035	3257.25
954.263	3300.25
954.491	3192.25
954.719	3294.25
954.948	3209.25
955.176	3200.25
955.404	3151.25
955.632	3232.25
955.86	3227.25
956.088	3185.25
956.316	3216.25
956.544	3202.25
956.772	3146.25
956.999	3102.25
957.227	3220.25
957.455	3095.25
957.683	3086.25
957.91	3052.25
958.138	3005.25
958.365	3028.25
958.593	3025.25
958.82	2971.25
959.048	3050.25
959.275	2986.25
959.502	2985.25
959.73	2961.25
959.957	3025.25
960.184	3030.25
960.411	2938.25
960.638	3036.25
960.865	2975.25
961.092	2999.25
961.319	2891.25
961.546	3005.25
961.773	2951.25
962	2996.25
962.227	3013.25
962.454	2971.25
962.68	2880.25
962.907	2929.25
963.134	2920.25
963.36	2893.25
963.587	2902.25
963.813	2854.25
964.04	2877.25
964.266	2795.25
964.493	2903.25
964.719	2854.25
964.945	2854.25
965.171	2741.25
965.398	2816.25
965.624	2827.25
965.85	2724.25
966.076	2755.25
966.302	2750.25
966.528	2741.25
966.754	2775.25
966.98	2764.25
967.206	2746.25
967.431	2665.25
967.657	2726.25
967.883	2718.25
968.109	2711.25
968.334	2661.25
968.56	2608.25
968.785	2657.25
969.011	2634.25
969.236	2673.25
969.462	2587.25
969.687	2657.25
969.912	2665.25
970.138	2648.25
970.363	2579.25
970.588	2642.25
970.813	2590.25
971.038	2590.25
971.263	2634.25
971.488	2568.25
971.713	2620.25
971.938	2588.25
972.163	2499.25
972.388	2522.25
972.613	2508.25
972.838	2526.25
973.062	2506.25
973.287	2502.25
973.512	2454.25
973.736	2492.25
973.961	2462.25
974.185	2424.25
974.41	2470.25
974.634	2379.25
974.858	2419.25
975.083	2405.25
975.307	2443.25
975.531	2361.25
975.755	2310.25
975.98	2314.25
976.204	2275.25
976.428	2288.25
976.652	2275.25
976.876	2242.25
977.1	2315.25
977.324	2252.25
977.547	2308.25
977.771	2339.25
977.995	2277.25
978.219	2233.25
978.442	2319.25
978.666	2289.25
978.89	2252.25
979.113	2264.25
979.337	2261.25
979.56	2213.25
979.783	2300.25
980.007	2193.25
980.23	2232.25
980.453	2177.25
980.677	2205.25
980.9	2225.25
981.123	2083.25
981.346	2201.25
981.569	2189.25
981.792	2226.25
982.015	2165.25
982.238	2117.25
982.461	2139.25
982.684	2126.25
982.907	2093.25
983.129	2076.25
983.352	2107.25
983.575	2082.25
983.797	2109.25
984.02	2043.25
984.242	2072.25
984.465	2069.25
984.687	2113.25
984.91	2119.25
985.132	2079.25
985.354	2114.25
985.577	2053.25
985.799	2057.25
986.021	1981.25
986.243	2038.25
986.465	2021.25
986.687	2081.25
986.909	2101.25
987.131	2027.25
987.353	2002.25
987.575	2032.25
987.797	1985.25
988.019	1898.25
988.241	1985.25
988.462	1940.25
988.684	1999.25
988.906	2053.25
989.127	2047.25
989.349	1932.25
989.57	1977.25
989.792	1983.25
990.013	2024.25
990.234	2013.25
990.456	2070.25
990.677	2031.25
990.898	1953.25
991.119	1977.25
991.341	1978.25
991.562	1906.25
991.783	1943.25
992.004	1897.25
992.225	1826.25
992.446	1925.25
992.667	1828.25
992.887	1951.25
993.108	1832.25
993.329	1937.25
993.55	1877.25
993.77	1796.25
993.991	1841.25
994.212	1842.25
994.432	1840.25
994.653	1834.25
994.873	1857.25
995.093	1740.25
995.314	1790.25
995.534	1861.25
995.754	1886.25
995.975	1889.25
996.195	1803.25
996.415	1838.25
996.635	1794.25
996.855	1843.25
997.075	1846.25
997.295	1809.25
997.515	1812.25
997.735	1885.25
997.955	1846.25
998.174	1823.25
998.394	1797.25
998.614	1831.25
998.834	1776.25
999.053	1870.25
999.273	1829.25
999.492	1870.25
999.712	1809.25
999.931	1741.25
1000.151	1758.25
1000.37	1762.25
1000.589	1803.25
1000.809	1730.25
1001.028	1841.25
1001.247	1781.25
1001.466	1664.25
1001.685	1821.25
1001.904	1723.25
1002.123	1722.25
1002.342	1724.25
1002.561	1700.25
1002.78	1706.25
1002.999	1754.25
1003.218	1710.25
1003.436	1682.25
1003.655	1723.25
1003.874	1652.25
1004.092	1673.25
1004.311	1730.25
1004.53	1677.25
1004.748	1760.25
1004.966	1668.25
1005.185	1753.25
1005.403	1738.25
1005.622	1720.25
1005.84	1784.25
1006.058	1704.25
1006.276	1758.25
1006.494	2240.25
1006.712	1738.25
1006.931	1814.25
1007.149	1724.25
1007.367	1745.25
1007.584	1789.25
1007.802	1822.25
1008.02	1815.25
1008.238	1945.25
1008.456	1922.25
1008.673	1809.25
1008.891	1996.25
1009.109	1958.25
1009.326	2034.25
1009.544	2172.25
1009.761	2138.25
1009.979	2293.25
1010.196	2424.25
1010.413	2576.25
1010.631	2752.25
1010.848	2890.25
1011.065	2910.25
1011.282	2852.25
1011.5	2799.25
1011.717	2899.25
1011.934	2835.25
1012.151	2858.25
1012.368	2847.25
1012.585	2788.25
1012.801	2831.25
1013.018	2811.25
1013.235	2767.25
1013.452	2859.25
1013.669	2840.25
1013.885	2868.25
1014.102	2906.25
1014.318	2902.25
1014.535	2854.25
1014.751	2880.25
1014.968	2865.25
1015.184	2826.25
1015.401	2790.25
1015.617	2773.25
1015.833	2711.25
1016.049	2705.25
1016.266	2656.25
1016.482	2658.25
1016.698	2559.25
1016.914	2619.25
1017.13	2543.25
1017.346	2543.25
1017.562	2542.25
1017.778	2500.25
1017.993	2430.25
1018.209	2527.25
1018.425	2498.25
1018.641	2435.25
1018.856	2449.25
1019.072	2460.25
1019.288	2504.25
1019.503	2472.25
1019.719	2372.25
1019.934	2364.25
1020.149	2422.25
1020.365	2332.25
1020.58	2254.25
1020.795	2249.25
1021.011	2131.25
1021.226	2109.25
1021.441	2090.25
1021.656	2003.25
1021.871	1897.25
1022.086	1876.25
1022.301	1837.25
1022.516	1822.25
1022.731	1850.25
1022.946	1790.25
1023.16	1720.25
1023.375	1661.25
1023.59	1628.25
1023.804	1566.25
1024.019	1643.25
1024.234	1499.25
1024.448	1494.25
1024.663	1418.25
1024.877	1422.25
1025.092	1401.25
1025.306	1373.25
1025.52	1277.25
1025.734	1374.25
1025.949	1246.25
1026.163	1188.25
1026.377	1139.25
1026.591	1173.25
1026.805	1108.25
1027.019	1084.25
1027.233	1042.25
1027.447	997.25
1027.661	1080.25
1027.875	1009.25
1028.088	1023.25
1028.302	915.25
1028.516	918.25
1028.73	904.25
1028.943	894.25
1029.157	848.25
1029.37	770.25
1029.584	-1.75
1029.797	-2.75
1030.011	0.25
1030.224	-2.75
