Data from QEP037381__86__14-54-15-876.txt Node

Date: Wed Dec 21 14:54:15 EST 2022
User: dcclab
Spectrometer: QEP03738
Trigger mode: 4
Integration Time (sec): 1.000000E1
Scans to average: 1
Electric dark correction enabled: true
Nonlinearity correction enabled: false
Boxcar width: 0
XAxis mode: Wavelengths
Number of Pixels in Spectrum: 1044
>>>>>Begin Spectral Data<<<<<
784.041	12.62
784.3	2.62
784.558	-5.38
784.817	-5.38
785.075	105181.62
785.334	17404.62
785.592	7864.62
785.851	5395.62
786.109	4079.62
786.368	3164.62
786.626	2579.62
786.884	2124.62
787.143	1773.62
787.401	1479.62
787.659	1316.62
787.917	1134.62
788.175	1070.62
788.433	931.62
788.691	857.62
788.949	798.62
789.207	751.62
789.465	662.62
789.723	651.62
789.98	593.62
790.238	638.62
790.496	595.62
790.753	564.62
791.011	607.62
791.268	552.62
791.526	529.62
791.783	550.62
792.041	523.62
792.298	455.62
792.556	513.62
792.813	499.62
793.07	470.62
793.327	459.62
793.584	537.62
793.841	465.62
794.099	467.62
794.356	530.62
794.613	436.62
794.869	491.62
795.126	433.62
795.383	432.62
795.64	444.62
795.897	403.62
796.153	476.62
796.41	432.62
796.667	440.62
796.923	438.62
797.18	432.62
797.436	477.62
797.693	431.62
797.949	497.62
798.206	523.62
798.462	436.62
798.718	488.62
798.974	470.62
799.231	507.62
799.487	495.62
799.743	524.62
799.999	552.62
800.255	540.62
800.511	528.62
800.767	585.62
801.023	560.62
801.279	605.62
801.534	648.62
801.79	705.62
802.046	761.62
802.302	905.62
802.557	1024.62
802.813	1325.62
803.068	1638.62
803.324	2267.62
803.579	3081.62
803.835	4284.62
804.09	5845.62
804.345	7645.62
804.601	9593.62
804.856	11632.62
805.111	13462.62
805.366	14866.62
805.621	16007.62
805.876	16609.62
806.131	17247.62
806.386	17635.62
806.641	17879.62
806.896	18268.62
807.151	18535.62
807.406	18883.62
807.661	19279.62
807.915	19481.62
808.17	19846.62
808.425	20131.62
808.679	20298.62
808.934	20625.62
809.188	20783.62
809.443	20965.62
809.697	21227.62
809.951	21359.62
810.206	21618.62
810.46	21879.62
810.714	21999.62
810.968	22390.62
811.223	22356.62
811.477	22620.62
811.731	22850.62
811.985	23024.62
812.239	22971.62
812.493	23078.62
812.747	23189.62
813	23322.62
813.254	23376.62
813.508	23518.62
813.762	23581.62
814.015	23809.62
814.269	24005.62
814.522	24166.62
814.776	24523.62
815.03	24930.62
815.283	25139.62
815.536	25622.62
815.79	26000.62
816.043	26445.62
816.296	26699.62
816.55	27028.62
816.803	27331.62
817.056	27840.62
817.309	27971.62
817.562	28302.62
817.815	28607.62
818.068	28854.62
818.321	29207.62
818.574	29596.62
818.827	29949.62
819.079	30369.62
819.332	30925.62
819.585	31251.62
819.838	31618.62
820.09	31744.62
820.343	32044.62
820.595	32188.62
820.848	32538.62
821.1	32462.62
821.353	32558.62
821.605	32592.62
821.857	32632.62
822.11	32434.62
822.362	32312.62
822.614	32384.62
822.866	32396.62
823.118	32335.62
823.37	32455.62
823.622	32632.62
823.874	32729.62
824.126	32907.62
824.378	32887.62
824.63	32964.62
824.882	33038.62
825.134	32978.62
825.385	32903.62
825.637	32895.62
825.888	32839.62
826.14	32967.62
826.392	32676.62
826.643	32565.62
826.895	32433.62
827.146	32225.62
827.397	32331.62
827.649	32401.62
827.9	32204.62
828.151	32412.62
828.402	32532.62
828.653	32582.62
828.905	32525.62
829.156	32676.62
829.407	32691.62
829.658	32644.62
829.909	32919.62
830.159	32743.62
830.41	32647.62
830.661	32491.62
830.912	32373.62
831.162	32173.62
831.413	32144.62
831.664	32158.62
831.914	32184.62
832.165	32024.62
832.415	32038.62
832.666	32154.62
832.916	32111.62
833.167	32182.62
833.417	32229.62
833.667	31950.62
833.917	32065.62
834.168	31933.62
834.418	31879.62
834.668	31603.62
834.918	31520.62
835.168	31283.62
835.418	31324.62
835.668	31291.62
835.918	31179.62
836.167	31134.62
836.417	31025.62
836.667	31135.62
836.917	31057.62
837.166	31084.62
837.416	31133.62
837.666	31104.62
837.915	31050.62
838.165	30915.62
838.414	30869.62
838.663	30818.62
838.913	30806.62
839.162	30775.62
839.411	30767.62
839.661	30543.62
839.91	30616.62
840.159	30646.62
840.408	30509.62
840.657	30522.62
840.906	30528.62
841.155	30635.62
841.404	30724.62
841.653	30695.62
841.902	30537.62
842.15	30862.62
842.399	30833.62
842.648	30665.62
842.897	30737.62
843.145	30517.62
843.394	30339.62
843.642	30214.62
843.891	30131.62
844.139	29929.62
844.388	29848.62
844.636	29526.62
844.884	29427.62
845.133	29458.62
845.381	29607.62
845.629	29570.62
845.877	29489.62
846.125	29566.62
846.373	29607.62
846.621	29343.62
846.869	29281.62
847.117	29164.62
847.365	29015.62
847.613	28847.62
847.861	28870.62
848.108	28784.62
848.356	28718.62
848.604	28762.62
848.851	28775.62
849.099	28804.62
849.346	28988.62
849.594	28946.62
849.841	29219.62
850.089	29238.62
850.336	29416.62
850.583	29398.62
850.831	29209.62
851.078	28990.62
851.325	29174.62
851.572	29175.62
851.819	28900.62
852.066	28222.62
852.313	27726.62
852.56	27613.62
852.807	27576.62
853.054	27426.62
853.301	27361.62
853.548	27562.62
853.794	27660.62
854.041	27653.62
854.288	27801.62
854.534	28085.62
854.781	28058.62
855.028	27907.62
855.274	27846.62
855.52	27760.62
855.767	27640.62
856.013	27754.62
856.26	27973.62
856.506	27398.62
856.752	27475.62
856.998	27439.62
857.244	27535.62
857.49	27586.62
857.736	27732.62
857.982	27704.62
858.228	27598.62
858.474	27365.62
858.72	27254.62
858.966	27030.62
859.212	26663.62
859.458	26428.62
859.703	26263.62
859.949	25856.62
860.195	25797.62
860.44	25623.62
860.686	25673.62
860.931	25668.62
861.177	25544.62
861.422	25283.62
861.667	25161.62
861.913	25149.62
862.158	25227.62
862.403	25381.62
862.648	25297.62
862.893	25406.62
863.138	25411.62
863.384	25377.62
863.629	25390.62
863.873	25269.62
864.118	25212.62
864.363	25150.62
864.608	25035.62
864.853	25084.62
865.098	24885.62
865.342	24686.62
865.587	24718.62
865.832	24775.62
866.076	24596.62
866.321	24571.62
866.565	24483.62
866.81	24375.62
867.054	24308.62
867.298	24303.62
867.543	24173.62
867.787	24288.62
868.031	24048.62
868.275	24130.62
868.519	24030.62
868.764	24119.62
869.008	23917.62
869.252	24079.62
869.496	23932.62
869.739	23826.62
869.983	24000.62
870.227	23822.62
870.471	23717.62
870.715	24123.62
870.958	24192.62
871.202	24124.62
871.446	24135.62
871.689	24218.62
871.933	24087.62
872.176	24195.62
872.42	24033.62
872.663	23982.62
872.906	23954.62
873.15	23895.62
873.393	23818.62
873.636	23840.62
873.879	23587.62
874.122	23202.62
874.366	23048.62
874.609	22824.62
874.852	22671.62
875.095	22565.62
875.337	22496.62
875.58	22283.62
875.823	22193.62
876.066	22193.62
876.309	22176.62
876.551	21979.62
876.794	21924.62
877.037	21936.62
877.279	21847.62
877.522	21951.62
877.764	21964.62
878.007	21743.62
878.249	21663.62
878.491	21657.62
878.734	21745.62
878.976	21583.62
879.218	21374.62
879.46	21387.62
879.702	21261.62
879.945	21043.62
880.187	20806.62
880.429	20739.62
880.671	20733.62
880.912	20526.62
881.154	20523.62
881.396	20453.62
881.638	20461.62
881.88	20507.62
882.121	20423.62
882.363	20423.62
882.605	20366.62
882.846	20358.62
883.088	20498.62
883.329	20286.62
883.571	20386.62
883.812	20617.62
884.053	21014.62
884.295	21462.62
884.536	21445.62
884.777	21477.62
885.018	21335.62
885.259	21210.62
885.5	21012.62
885.742	21236.62
885.982	20979.62
886.223	20786.62
886.464	20634.62
886.705	20379.62
886.946	20157.62
887.187	19830.62
887.428	19872.62
887.668	19404.62
887.909	19137.62
888.15	18877.62
888.39	18787.62
888.631	18774.62
888.871	18653.62
889.111	18523.62
889.352	18343.62
889.592	18135.62
889.833	18028.62
890.073	17911.62
890.313	17853.62
890.553	17734.62
890.793	17519.62
891.033	17543.62
891.273	17512.62
891.513	17466.62
891.753	17467.62
891.993	17290.62
892.233	17383.62
892.473	17402.62
892.713	17391.62
892.952	17324.62
893.192	17434.62
893.432	17293.62
893.671	17336.62
893.911	17212.62
894.15	17186.62
894.39	16963.62
894.629	16916.62
894.869	16857.62
895.108	16698.62
895.347	16690.62
895.587	16598.62
895.826	16641.62
896.065	16528.62
896.304	16616.62
896.543	16580.62
896.782	16452.62
897.021	16481.62
897.26	16403.62
897.499	16346.62
897.738	16374.62
897.977	16163.62
898.216	16051.62
898.454	15963.62
898.693	15812.62
898.932	15856.62
899.17	15716.62
899.409	15766.62
899.647	15637.62
899.886	15629.62
900.124	15709.62
900.363	15664.62
900.601	15745.62
900.839	15815.62
901.078	15786.62
901.316	15848.62
901.554	16049.62
901.792	16090.62
902.03	16110.62
902.268	16056.62
902.506	16018.62
902.744	15914.62
902.982	15783.62
903.22	15534.62
903.458	15304.62
903.695	15046.62
903.933	14969.62
904.171	14646.62
904.409	14407.62
904.646	14320.62
904.884	14103.62
905.121	13982.62
905.359	13831.62
905.596	13764.62
905.833	13500.62
906.071	13498.62
906.308	13501.62
906.545	13361.62
906.783	13378.62
907.02	13297.62
907.257	13272.62
907.494	13347.62
907.731	13276.62
907.968	13150.62
908.205	13080.62
908.442	13044.62
908.679	12946.62
908.915	12835.62
909.152	12768.62
909.389	12533.62
909.626	12531.62
909.862	12384.62
910.099	12406.62
910.335	12404.62
910.572	12200.62
910.808	12245.62
911.045	12202.62
911.281	12120.62
911.518	12224.62
911.754	12001.62
911.99	12013.62
912.226	11888.62
912.463	11746.62
912.699	11663.62
912.935	11633.62
913.171	11528.62
913.407	11439.62
913.643	11350.62
913.879	11278.62
914.114	11152.62
914.35	11015.62
914.586	11046.62
914.822	10924.62
915.057	10913.62
915.293	10708.62
915.529	10662.62
915.764	10728.62
916	10628.62
916.235	10639.62
916.471	10649.62
916.706	10505.62
916.941	10566.62
917.177	10496.62
917.412	10610.62
917.647	10484.62
917.882	10474.62
918.117	10556.62
918.352	10464.62
918.588	10420.62
918.823	10308.62
919.057	10203.62
919.292	10040.62
919.527	10058.62
919.762	9917.62
919.997	9910.62
920.232	9678.62
920.466	9664.62
920.701	9518.62
920.935	9516.62
921.17	9429.62
921.405	9398.62
921.639	9400.62
921.873	9372.62
922.108	9310.62
922.342	9290.62
922.576	9290.62
922.811	9161.62
923.045	9178.62
923.279	9170.62
923.513	9026.62
923.747	9040.62
923.981	9042.62
924.215	8896.62
924.449	8873.62
924.683	8784.62
924.917	8791.62
925.151	8697.62
925.385	8723.62
925.618	8659.62
925.852	8623.62
926.086	8569.62
926.319	8570.62
926.553	8593.62
926.786	8597.62
927.02	8563.62
927.253	8613.62
927.486	8582.62
927.72	8510.62
927.953	8512.62
928.186	8444.62
928.42	8475.62
928.653	8374.62
928.886	8320.62
929.119	8349.62
929.352	8195.62
929.585	8214.62
929.818	8193.62
930.051	8049.62
930.284	8033.62
930.516	7924.62
930.749	7916.62
930.982	7928.62
931.215	7906.62
931.447	7774.62
931.68	7755.62
931.912	7770.62
932.145	7789.62
932.377	7707.62
932.61	7905.62
932.842	7658.62
933.074	7746.62
933.307	7714.62
933.539	7747.62
933.771	7752.62
934.003	7652.62
934.236	7711.62
934.468	7719.62
934.7	7671.62
934.932	7696.62
935.164	7600.62
935.395	7562.62
935.627	7571.62
935.859	7559.62
936.091	7493.62
936.323	7535.62
936.554	7490.62
936.786	7416.62
937.017	7377.62
937.249	7377.62
937.481	7310.62
937.712	7408.62
937.943	7301.62
938.175	7310.62
938.406	7266.62
938.637	7326.62
938.869	7238.62
939.1	7305.62
939.331	7212.62
939.562	7248.62
939.793	7159.62
940.024	7165.62
940.255	7174.62
940.486	7088.62
940.717	7062.62
940.948	7051.62
941.179	6934.62
941.409	6965.62
941.64	6946.62
941.871	6947.62
942.102	6933.62
942.332	6882.62
942.563	6983.62
942.793	6906.62
943.024	6833.62
943.254	6940.62
943.484	6972.62
943.715	6938.62
943.945	6856.62
944.175	6824.62
944.405	6863.62
944.636	6819.62
944.866	6860.62
945.096	6879.62
945.326	6724.62
945.556	6786.62
945.786	6783.62
946.016	6721.62
946.245	6671.62
946.475	6604.62
946.705	6604.62
946.935	6616.62
947.164	6519.62
947.394	6474.62
947.624	6415.62
947.853	6425.62
948.083	6460.62
948.312	6376.62
948.542	6293.62
948.771	6284.62
949	6272.62
949.23	6260.62
949.459	6333.62
949.688	6368.62
949.917	6249.62
950.146	6324.62
950.375	6329.62
950.604	6269.62
950.833	6286.62
951.062	6251.62
951.291	6185.62
951.52	6141.62
951.749	6176.62
951.978	6133.62
952.206	6158.62
952.435	6055.62
952.664	6066.62
952.892	6115.62
953.121	6045.62
953.349	6010.62
953.578	5990.62
953.806	5977.62
954.035	5945.62
954.263	5929.62
954.491	5874.62
954.719	5920.62
954.948	5766.62
955.176	5719.62
955.404	5719.62
955.632	5726.62
955.86	5768.62
956.088	5717.62
956.316	5655.62
956.544	5667.62
956.772	5644.62
956.999	5558.62
957.227	5682.62
957.455	5532.62
957.683	5530.62
957.91	5423.62
958.138	5430.62
958.365	5383.62
958.593	5380.62
958.82	5382.62
959.048	5437.62
959.275	5289.62
959.502	5343.62
959.73	5280.62
959.957	5310.62
960.184	5327.62
960.411	5268.62
960.638	5305.62
960.865	5190.62
961.092	5317.62
961.319	5213.62
961.546	5269.62
961.773	5277.62
962	5265.62
962.227	5362.62
962.454	5213.62
962.68	5145.62
962.907	5169.62
963.134	5083.62
963.36	5072.62
963.587	5046.62
963.813	4996.62
964.04	5005.62
964.266	4946.62
964.493	4990.62
964.719	4933.62
964.945	4955.62
965.171	4778.62
965.398	4838.62
965.624	4907.62
965.85	4733.62
966.076	4686.62
966.302	4805.62
966.528	4743.62
966.754	4739.62
966.98	4765.62
967.206	4676.62
967.431	4592.62
967.657	4687.62
967.883	4648.62
968.109	4645.62
968.334	4572.62
968.56	4575.62
968.785	4544.62
969.011	4515.62
969.236	4573.62
969.462	4518.62
969.687	4535.62
969.912	4506.62
970.138	4530.62
970.363	4471.62
970.588	4425.62
970.813	4439.62
971.038	4370.62
971.263	4423.62
971.488	4450.62
971.713	4406.62
971.938	4347.62
972.163	4289.62
972.388	4284.62
972.613	4284.62
972.838	4289.62
973.062	4248.62
973.287	4247.62
973.512	4133.62
973.736	4175.62
973.961	4167.62
974.185	4080.62
974.41	4149.62
974.634	4011.62
974.858	4047.62
975.083	4054.62
975.307	4044.62
975.531	3956.62
975.755	3909.62
975.98	3910.62
976.204	3795.62
976.428	3837.62
976.652	3834.62
976.876	3771.62
977.1	3869.62
977.324	3781.62
977.547	3858.62
977.771	3792.62
977.995	3758.62
978.219	3729.62
978.442	3850.62
978.666	3726.62
978.89	3737.62
979.113	3730.62
979.337	3668.62
979.56	3645.62
979.783	3770.62
980.007	3628.62
980.23	3664.62
980.453	3573.62
980.677	3660.62
980.9	3582.62
981.123	3514.62
981.346	3651.62
981.569	3567.62
981.792	3550.62
982.015	3479.62
982.238	3510.62
982.461	3432.62
982.684	3475.62
982.907	3387.62
983.129	3342.62
983.352	3440.62
983.575	3395.62
983.797	3385.62
984.02	3302.62
984.242	3294.62
984.465	3324.62
984.687	3349.62
984.91	3333.62
985.132	3323.62
985.354	3310.62
985.577	3275.62
985.799	3237.62
986.021	3153.62
986.243	3163.62
986.465	3162.62
986.687	3220.62
986.909	3212.62
987.131	3171.62
987.353	3097.62
987.575	3163.62
987.797	3108.62
988.019	3048.62
988.241	3076.62
988.462	3026.62
988.684	3123.62
988.906	3147.62
989.127	3146.62
989.349	3020.62
989.57	3066.62
989.792	3050.62
990.013	3033.62
990.234	3047.62
990.456	3067.62
990.677	3015.62
990.898	2973.62
991.119	2961.62
991.341	2966.62
991.562	2905.62
991.783	2968.62
992.004	2878.62
992.225	2832.62
992.446	2899.62
992.667	2801.62
992.887	2855.62
993.108	2719.62
993.329	2901.62
993.55	2832.62
993.77	2715.62
993.991	2722.62
994.212	2768.62
994.432	2767.62
994.653	2701.62
994.873	2700.62
995.093	2596.62
995.314	2647.62
995.534	2707.62
995.754	2716.62
995.975	2765.62
996.195	2593.62
996.415	2651.62
996.635	2635.62
996.855	2584.62
997.075	2604.62
997.295	2594.62
997.515	2581.62
997.735	2637.62
997.955	2629.62
998.174	2587.62
998.394	2581.62
998.614	2621.62
998.834	2535.62
999.053	2615.62
999.273	2577.62
999.492	2608.62
999.712	2546.62
999.931	2477.62
1000.151	2526.62
1000.37	2490.62
1000.589	2549.62
1000.809	2443.62
1001.028	2551.62
1001.247	2503.62
1001.466	2367.62
1001.685	2478.62
1001.904	2393.62
1002.123	2392.62
1002.342	2408.62
1002.561	2353.62
1002.78	2385.62
1002.999	2434.62
1003.218	2336.62
1003.436	2303.62
1003.655	2386.62
1003.874	2273.62
1004.092	2294.62
1004.311	2318.62
1004.53	2299.62
1004.748	2359.62
1004.966	2285.62
1005.185	2317.62
1005.403	2318.62
1005.622	2303.62
1005.84	2345.62
1006.058	2249.62
1006.276	2266.62
1006.494	2728.62
1006.712	2245.62
1006.931	2327.62
1007.149	2230.62
1007.367	2200.62
1007.584	2294.62
1007.802	2331.62
1008.02	2267.62
1008.238	2356.62
1008.456	2350.62
1008.673	2247.62
1008.891	2352.62
1009.109	2316.62
1009.326	2377.62
1009.544	2462.62
1009.761	2418.62
1009.979	2511.62
1010.196	2578.62
1010.413	2721.62
1010.631	2753.62
1010.848	2864.62
1011.065	2885.62
1011.282	2840.62
1011.5	2752.62
1011.717	2874.62
1011.934	2771.62
1012.151	2807.62
1012.368	2814.62
1012.585	2772.62
1012.801	2775.62
1013.018	2745.62
1013.235	2716.62
1013.452	2753.62
1013.669	2725.62
1013.885	2755.62
1014.102	2777.62
1014.318	2759.62
1014.535	2714.62
1014.751	2756.62
1014.968	2720.62
1015.184	2757.62
1015.401	2680.62
1015.617	2663.62
1015.833	2572.62
1016.049	2605.62
1016.266	2531.62
1016.482	2536.62
1016.698	2457.62
1016.914	2486.62
1017.13	2435.62
1017.346	2398.62
1017.562	2485.62
1017.778	2421.62
1017.993	2384.62
1018.209	2407.62
1018.425	2400.62
1018.641	2387.62
1018.856	2346.62
1019.072	2383.62
1019.288	2406.62
1019.503	2381.62
1019.719	2258.62
1019.934	2299.62
1020.149	2374.62
1020.365	2292.62
1020.58	2207.62
1020.795	2225.62
1021.011	2132.62
1021.226	2088.62
1021.441	2104.62
1021.656	2007.62
1021.871	1921.62
1022.086	1899.62
1022.301	1843.62
1022.516	1839.62
1022.731	1902.62
1022.946	1808.62
1023.16	1759.62
1023.375	1726.62
1023.59	1705.62
1023.804	1615.62
1024.019	1730.62
1024.234	1601.62
1024.448	1584.62
1024.663	1523.62
1024.877	1502.62
1025.092	1518.62
1025.306	1513.62
1025.52	1393.62
1025.734	1471.62
1025.949	1348.62
1026.163	1327.62
1026.377	1265.62
1026.591	1290.62
1026.805	1216.62
1027.019	1204.62
1027.233	1150.62
1027.447	1092.62
1027.661	1165.62
1027.875	1107.62
1028.088	1100.62
1028.302	1020.62
1028.516	1019.62
1028.73	1008.62
1028.943	979.62
1029.157	909.62
1029.37	891.62
1029.584	0.62
1029.797	-2.38
1030.011	-0.38
1030.224	-2.38
