Data from QEP037381__93__14-55-25-877.txt Node

Date: Wed Dec 21 14:55:25 EST 2022
User: dcclab
Spectrometer: QEP03738
Trigger mode: 4
Integration Time (sec): 1.000000E1
Scans to average: 1
Electric dark correction enabled: true
Nonlinearity correction enabled: false
Boxcar width: 0
XAxis mode: Wavelengths
Number of Pixels in Spectrum: 1044
>>>>>Begin Spectral Data<<<<<
784.041	13.5
784.3	-0.5
784.558	-3.5
784.817	-1.5
785.075	105872.5
785.334	18048.5
785.592	8316.5
785.851	5717.5
786.109	4334.5
786.368	3397.5
786.626	2782.5
786.884	2315.5
787.143	1915.5
787.401	1578.5
787.659	1460.5
787.917	1208.5
788.175	1120.5
788.433	990.5
788.691	871.5
788.949	814.5
789.207	775.5
789.465	685.5
789.723	655.5
789.98	603.5
790.238	633.5
790.496	596.5
790.753	552.5
791.011	603.5
791.268	544.5
791.526	539.5
791.783	549.5
792.041	537.5
792.298	439.5
792.556	509.5
792.813	482.5
793.07	463.5
793.327	449.5
793.584	532.5
793.841	456.5
794.099	464.5
794.356	534.5
794.613	422.5
794.869	474.5
795.126	429.5
795.383	406.5
795.64	424.5
795.897	394.5
796.153	454.5
796.41	426.5
796.667	418.5
796.923	420.5
797.18	428.5
797.436	442.5
797.693	418.5
797.949	471.5
798.206	487.5
798.462	409.5
798.718	459.5
798.974	438.5
799.231	483.5
799.487	468.5
799.743	493.5
799.999	499.5
800.255	507.5
800.511	492.5
800.767	524.5
801.023	519.5
801.279	553.5
801.534	581.5
801.79	635.5
802.046	658.5
802.302	783.5
802.557	905.5
802.813	1091.5
803.068	1324.5
803.324	1810.5
803.579	2479.5
803.835	3390.5
804.09	4574.5
804.345	5928.5
804.601	7454.5
804.856	8941.5
805.111	10323.5
805.366	11337.5
805.621	12115.5
805.876	12694.5
806.131	13127.5
806.386	13354.5
806.641	13630.5
806.896	13900.5
807.151	14117.5
807.406	14256.5
807.661	14529.5
807.915	14820.5
808.17	15036.5
808.425	15239.5
808.679	15312.5
808.934	15448.5
809.188	15625.5
809.443	15799.5
809.697	16029.5
809.951	16162.5
810.206	16252.5
810.46	16423.5
810.714	16463.5
810.968	16773.5
811.223	16879.5
811.477	17125.5
811.731	17124.5
811.985	17178.5
812.239	17292.5
812.493	17376.5
812.747	17388.5
813	17397.5
813.254	17568.5
813.508	17637.5
813.762	17671.5
814.015	17778.5
814.269	17937.5
814.522	18008.5
814.776	18235.5
815.03	18515.5
815.283	18727.5
815.536	18986.5
815.79	19371.5
816.043	19599.5
816.296	19872.5
816.55	20148.5
816.803	20366.5
817.056	20766.5
817.309	20877.5
817.562	21067.5
817.815	21297.5
818.068	21358.5
818.321	21653.5
818.574	21872.5
818.827	22192.5
819.079	22422.5
819.332	22885.5
819.585	23249.5
819.838	23493.5
820.09	23591.5
820.343	23758.5
820.595	23886.5
820.848	24060.5
821.1	24120.5
821.353	24053.5
821.605	23993.5
821.857	23919.5
822.11	23868.5
822.362	23879.5
822.614	23739.5
822.866	23917.5
823.118	23823.5
823.37	23981.5
823.622	23996.5
823.874	24225.5
824.126	24269.5
824.378	24299.5
824.63	24386.5
824.882	24503.5
825.134	24362.5
825.385	24276.5
825.637	24225.5
825.888	24105.5
826.14	24087.5
826.392	24089.5
826.643	23875.5
826.895	23849.5
827.146	23722.5
827.397	23590.5
827.649	23798.5
827.9	23657.5
828.151	23596.5
828.402	23806.5
828.653	23832.5
828.905	23791.5
829.156	23939.5
829.407	24013.5
829.658	24089.5
829.909	24247.5
830.159	24298.5
830.41	24159.5
830.661	23871.5
830.912	23766.5
831.162	23750.5
831.413	23667.5
831.664	23693.5
831.914	23572.5
832.165	23607.5
832.415	23620.5
832.666	23572.5
832.916	23727.5
833.167	23542.5
833.417	23743.5
833.667	23479.5
833.917	23464.5
834.168	23362.5
834.418	23242.5
834.668	23315.5
834.918	23137.5
835.168	23015.5
835.418	22985.5
835.668	22905.5
835.918	22813.5
836.167	22724.5
836.417	22845.5
836.667	22862.5
836.917	22717.5
837.166	22824.5
837.416	22880.5
837.666	22874.5
837.915	22775.5
838.165	22766.5
838.414	22667.5
838.663	22599.5
838.913	22643.5
839.162	22594.5
839.411	22614.5
839.661	22526.5
839.91	22624.5
840.159	22425.5
840.408	22544.5
840.657	22559.5
840.906	22537.5
841.155	22622.5
841.404	22513.5
841.653	22542.5
841.902	22664.5
842.15	22717.5
842.399	22841.5
842.648	22697.5
842.897	22569.5
843.145	22556.5
843.394	22361.5
843.642	22189.5
843.891	22109.5
844.139	21931.5
844.388	21828.5
844.636	21671.5
844.884	21682.5
845.133	21697.5
845.381	21635.5
845.629	21799.5
845.877	21721.5
846.125	21729.5
846.373	21706.5
846.621	21582.5
846.869	21569.5
847.117	21426.5
847.365	21323.5
847.613	21255.5
847.861	21294.5
848.108	21301.5
848.356	21226.5
848.604	21208.5
848.851	21106.5
849.099	21172.5
849.346	21214.5
849.594	21397.5
849.841	21426.5
850.089	21512.5
850.336	21570.5
850.583	21563.5
850.831	21511.5
851.078	21383.5
851.325	21460.5
851.572	21562.5
851.819	21232.5
852.066	20822.5
852.313	20478.5
852.56	20321.5
852.807	20222.5
853.054	20199.5
853.301	20226.5
853.548	20157.5
853.794	20494.5
854.041	20410.5
854.288	20489.5
854.534	20715.5
854.781	20578.5
855.028	20600.5
855.274	20575.5
855.52	20396.5
855.767	20426.5
856.013	20568.5
856.26	20982.5
856.506	20307.5
856.752	20244.5
856.998	20244.5
857.244	20184.5
857.49	20522.5
857.736	20606.5
857.982	20589.5
858.228	20473.5
858.474	20210.5
858.72	20034.5
858.966	19874.5
859.212	19685.5
859.458	19486.5
859.703	19267.5
859.949	19012.5
860.195	18909.5
860.44	18927.5
860.686	18875.5
860.931	18950.5
861.177	18828.5
861.422	18578.5
861.667	18530.5
861.913	18473.5
862.158	18514.5
862.403	18469.5
862.648	18501.5
862.893	18667.5
863.138	18496.5
863.384	18507.5
863.629	18464.5
863.873	18386.5
864.118	18460.5
864.363	18296.5
864.608	18325.5
864.853	18207.5
865.098	18022.5
865.342	18014.5
865.587	18002.5
865.832	18132.5
866.076	18016.5
866.321	17973.5
866.565	17907.5
866.81	17732.5
867.054	17775.5
867.298	17636.5
867.543	17591.5
867.787	17653.5
868.031	17676.5
868.275	17545.5
868.519	17527.5
868.764	17580.5
869.008	17521.5
869.252	17622.5
869.496	17451.5
869.739	17515.5
869.983	17538.5
870.227	17547.5
870.471	17550.5
870.715	17678.5
870.958	17720.5
871.202	17779.5
871.446	17769.5
871.689	17770.5
871.933	17735.5
872.176	17751.5
872.42	17673.5
872.663	17728.5
872.906	17703.5
873.15	17682.5
873.393	17654.5
873.636	17746.5
873.879	17479.5
874.122	17380.5
874.366	16990.5
874.609	16896.5
874.852	16796.5
875.095	16547.5
875.337	16505.5
875.58	16286.5
875.823	16350.5
876.066	16335.5
876.309	16300.5
876.551	16126.5
876.794	15969.5
877.037	16013.5
877.279	15900.5
877.522	16020.5
877.764	15882.5
878.007	15870.5
878.249	15822.5
878.491	15728.5
878.734	15771.5
878.976	15681.5
879.218	15521.5
879.46	15512.5
879.702	15449.5
879.945	15304.5
880.187	15157.5
880.429	15050.5
880.671	14990.5
880.912	14972.5
881.154	14822.5
881.396	14879.5
881.638	14945.5
881.88	14818.5
882.121	14820.5
882.363	14847.5
882.605	14819.5
882.846	14827.5
883.088	14874.5
883.329	14873.5
883.571	14958.5
883.812	15327.5
884.053	15587.5
884.295	16157.5
884.536	16340.5
884.777	16291.5
885.018	16070.5
885.259	16037.5
885.5	15824.5
885.742	16023.5
885.982	15729.5
886.223	15535.5
886.464	15463.5
886.705	15158.5
886.946	15033.5
887.187	14616.5
887.428	14451.5
887.668	14087.5
887.909	13968.5
888.15	13661.5
888.39	13565.5
888.631	13582.5
888.871	13449.5
889.111	13298.5
889.352	13221.5
889.592	12981.5
889.833	12999.5
890.073	12867.5
890.313	12801.5
890.553	12621.5
890.793	12603.5
891.033	12541.5
891.273	12464.5
891.513	12408.5
891.753	12415.5
891.993	12391.5
892.233	12471.5
892.473	12483.5
892.713	12490.5
892.952	12501.5
893.192	12367.5
893.432	12440.5
893.671	12503.5
893.911	12375.5
894.15	12400.5
894.39	12187.5
894.629	12146.5
894.869	12140.5
895.108	12000.5
895.347	11990.5
895.587	11882.5
895.826	11905.5
896.065	11794.5
896.304	11856.5
896.543	11901.5
896.782	11802.5
897.021	11839.5
897.26	11749.5
897.499	11786.5
897.738	11756.5
897.977	11627.5
898.216	11582.5
898.454	11505.5
898.693	11417.5
898.932	11366.5
899.17	11432.5
899.409	11388.5
899.647	11238.5
899.886	11308.5
900.124	11418.5
900.363	11312.5
900.601	11334.5
900.839	11373.5
901.078	11428.5
901.316	11538.5
901.554	11650.5
901.792	11780.5
902.03	11719.5
902.268	11802.5
902.506	11709.5
902.744	11570.5
902.982	11550.5
903.22	11326.5
903.458	11168.5
903.695	10984.5
903.933	10782.5
904.171	10576.5
904.409	10427.5
904.646	10283.5
904.884	10082.5
905.121	10054.5
905.359	9904.5
905.596	9794.5
905.833	9619.5
906.071	9587.5
906.308	9604.5
906.545	9585.5
906.783	9472.5
907.02	9483.5
907.257	9421.5
907.494	9404.5
907.731	9351.5
907.968	9360.5
908.205	9309.5
908.442	9238.5
908.679	9216.5
908.915	9058.5
909.152	9021.5
909.389	8890.5
909.626	8936.5
909.862	8889.5
910.099	8814.5
910.335	8732.5
910.572	8718.5
910.808	8751.5
911.045	8673.5
911.281	8622.5
911.518	8638.5
911.754	8532.5
911.99	8490.5
912.226	8440.5
912.463	8314.5
912.699	8298.5
912.935	8192.5
913.171	8183.5
913.407	8145.5
913.643	8080.5
913.879	8029.5
914.114	7901.5
914.35	7888.5
914.586	7829.5
914.822	7713.5
915.057	7744.5
915.293	7563.5
915.529	7545.5
915.764	7655.5
916	7572.5
916.235	7540.5
916.471	7491.5
916.706	7423.5
916.941	7473.5
917.177	7505.5
917.412	7487.5
917.647	7476.5
917.882	7398.5
918.117	7358.5
918.352	7324.5
918.588	7414.5
918.823	7274.5
919.057	7238.5
919.292	7054.5
919.527	7151.5
919.762	7012.5
919.997	6989.5
920.232	6892.5
920.466	6875.5
920.701	6715.5
920.935	6736.5
921.17	6754.5
921.405	6611.5
921.639	6649.5
921.873	6583.5
922.108	6574.5
922.342	6589.5
922.576	6491.5
922.811	6458.5
923.045	6478.5
923.279	6553.5
923.513	6366.5
923.747	6430.5
923.981	6384.5
924.215	6285.5
924.449	6281.5
924.683	6191.5
924.917	6126.5
925.151	6169.5
925.385	6193.5
925.618	6151.5
925.852	6162.5
926.086	6109.5
926.319	6102.5
926.553	6085.5
926.786	6076.5
927.02	6011.5
927.253	6102.5
927.486	6117.5
927.72	6043.5
927.953	6051.5
928.186	5962.5
928.42	5994.5
928.653	5939.5
928.886	5848.5
929.119	5877.5
929.352	5838.5
929.585	5834.5
929.818	5794.5
930.051	5803.5
930.284	5733.5
930.516	5594.5
930.749	5591.5
930.982	5643.5
931.215	5574.5
931.447	5433.5
931.68	5493.5
931.912	5488.5
932.145	5454.5
932.377	5540.5
932.61	5646.5
932.842	5405.5
933.074	5487.5
933.307	5460.5
933.539	5516.5
933.771	5454.5
934.003	5480.5
934.236	5523.5
934.468	5502.5
934.7	5421.5
934.932	5439.5
935.164	5329.5
935.395	5307.5
935.627	5383.5
935.859	5354.5
936.091	5253.5
936.323	5323.5
936.554	5352.5
936.786	5250.5
937.017	5190.5
937.249	5224.5
937.481	5177.5
937.712	5178.5
937.943	5180.5
938.175	5144.5
938.406	5150.5
938.637	5224.5
938.869	5098.5
939.1	5110.5
939.331	5067.5
939.562	5086.5
939.793	5070.5
940.024	5078.5
940.255	5012.5
940.486	4994.5
940.717	5026.5
940.948	4963.5
941.179	4953.5
941.409	4929.5
941.64	4902.5
941.871	4938.5
942.102	4900.5
942.332	4899.5
942.563	4921.5
942.793	4902.5
943.024	4858.5
943.254	4895.5
943.484	4979.5
943.715	4923.5
943.945	4891.5
944.175	4827.5
944.405	4801.5
944.636	4815.5
944.866	4839.5
945.096	4889.5
945.326	4732.5
945.556	4809.5
945.786	4802.5
946.016	4747.5
946.245	4674.5
946.475	4686.5
946.705	4703.5
946.935	4635.5
947.164	4676.5
947.394	4550.5
947.624	4559.5
947.853	4636.5
948.083	4574.5
948.312	4516.5
948.542	4437.5
948.771	4402.5
949	4470.5
949.23	4476.5
949.459	4461.5
949.688	4513.5
949.917	4410.5
950.146	4396.5
950.375	4443.5
950.604	4410.5
950.833	4484.5
951.062	4456.5
951.291	4382.5
951.52	4419.5
951.749	4367.5
951.978	4319.5
952.206	4331.5
952.435	4284.5
952.664	4343.5
952.892	4278.5
953.121	4314.5
953.349	4301.5
953.578	4294.5
953.806	4213.5
954.035	4144.5
954.263	4175.5
954.491	4112.5
954.719	4186.5
954.948	4150.5
955.176	4090.5
955.404	4023.5
955.632	4067.5
955.86	4075.5
956.088	4077.5
956.316	4062.5
956.544	4077.5
956.772	3976.5
956.999	3961.5
957.227	4038.5
957.455	3944.5
957.683	3903.5
957.91	3862.5
958.138	3841.5
958.365	3853.5
958.593	3827.5
958.82	3755.5
959.048	3874.5
959.275	3831.5
959.502	3766.5
959.73	3759.5
959.957	3796.5
960.184	3778.5
960.411	3734.5
960.638	3794.5
960.865	3743.5
961.092	3728.5
961.319	3642.5
961.546	3774.5
961.773	3745.5
962	3680.5
962.227	3754.5
962.454	3689.5
962.68	3699.5
962.907	3662.5
963.134	3615.5
963.36	3611.5
963.587	3632.5
963.813	3566.5
964.04	3579.5
964.266	3509.5
964.493	3580.5
964.719	3515.5
964.945	3511.5
965.171	3408.5
965.398	3458.5
965.624	3483.5
965.85	3399.5
966.076	3414.5
966.302	3433.5
966.528	3404.5
966.754	3412.5
966.98	3365.5
967.206	3356.5
967.431	3281.5
967.657	3353.5
967.883	3312.5
968.109	3298.5
968.334	3233.5
968.56	3262.5
968.785	3237.5
969.011	3215.5
969.236	3282.5
969.462	3251.5
969.687	3243.5
969.912	3284.5
970.138	3275.5
970.363	3147.5
970.588	3199.5
970.813	3160.5
971.038	3140.5
971.263	3198.5
971.488	3166.5
971.713	3178.5
971.938	3135.5
972.163	3051.5
972.388	3086.5
972.613	3021.5
972.838	3071.5
973.062	3064.5
973.287	3058.5
973.512	2968.5
973.736	2994.5
973.961	2969.5
974.185	2975.5
974.41	2954.5
974.634	2831.5
974.858	2854.5
975.083	2907.5
975.307	2909.5
975.531	2843.5
975.755	2819.5
975.98	2828.5
976.204	2716.5
976.428	2752.5
976.652	2739.5
976.876	2728.5
977.1	2735.5
977.324	2696.5
977.547	2779.5
977.771	2772.5
977.995	2720.5
978.219	2672.5
978.442	2765.5
978.666	2650.5
978.89	2694.5
979.113	2682.5
979.337	2675.5
979.56	2635.5
979.783	2694.5
980.007	2623.5
980.23	2640.5
980.453	2593.5
980.677	2630.5
980.9	2583.5
981.123	2508.5
981.346	2594.5
981.569	2575.5
981.792	2570.5
982.015	2573.5
982.238	2515.5
982.461	2528.5
982.684	2470.5
982.907	2468.5
983.129	2421.5
983.352	2460.5
983.575	2485.5
983.797	2472.5
984.02	2418.5
984.242	2403.5
984.465	2395.5
984.687	2431.5
984.91	2467.5
985.132	2399.5
985.354	2415.5
985.577	2382.5
985.799	2380.5
986.021	2288.5
986.243	2319.5
986.465	2341.5
986.687	2334.5
986.909	2382.5
987.131	2319.5
987.353	2297.5
987.575	2322.5
987.797	2286.5
988.019	2233.5
988.241	2315.5
988.462	2255.5
988.684	2284.5
988.906	2319.5
989.127	2309.5
989.349	2198.5
989.57	2229.5
989.792	2258.5
990.013	2282.5
990.234	2270.5
990.456	2315.5
990.677	2252.5
990.898	2211.5
991.119	2233.5
991.341	2251.5
991.562	2155.5
991.783	2207.5
992.004	2154.5
992.225	2090.5
992.446	2160.5
992.667	2077.5
992.887	2170.5
993.108	2015.5
993.329	2204.5
993.55	2098.5
993.77	2035.5
993.991	2053.5
994.212	2084.5
994.432	2092.5
994.653	2080.5
994.873	2046.5
995.093	1935.5
995.314	1993.5
995.534	2045.5
995.754	2089.5
995.975	2093.5
996.195	1959.5
996.415	2035.5
996.635	1969.5
996.855	2028.5
997.075	1998.5
997.295	1964.5
997.515	1972.5
997.735	2044.5
997.955	2001.5
998.174	1970.5
998.394	1968.5
998.614	1995.5
998.834	1957.5
999.053	2004.5
999.273	1963.5
999.492	2038.5
999.712	1930.5
999.931	1900.5
1000.151	1962.5
1000.37	1936.5
1000.589	1963.5
1000.809	1885.5
1001.028	1999.5
1001.247	1921.5
1001.466	1830.5
1001.685	1937.5
1001.904	1847.5
1002.123	1851.5
1002.342	1872.5
1002.561	1819.5
1002.78	1840.5
1002.999	1894.5
1003.218	1828.5
1003.436	1803.5
1003.655	1856.5
1003.874	1785.5
1004.092	1811.5
1004.311	1847.5
1004.53	1787.5
1004.748	1875.5
1004.966	1774.5
1005.185	1856.5
1005.403	1853.5
1005.622	1812.5
1005.84	1889.5
1006.058	1777.5
1006.276	1809.5
1006.494	2301.5
1006.712	1815.5
1006.931	1883.5
1007.149	1783.5
1007.367	1794.5
1007.584	1842.5
1007.802	1877.5
1008.02	1837.5
1008.238	1903.5
1008.456	1961.5
1008.673	1823.5
1008.891	1974.5
1009.109	1947.5
1009.326	1993.5
1009.544	2111.5
1009.761	2040.5
1009.979	2178.5
1010.196	2255.5
1010.413	2384.5
1010.631	2514.5
1010.848	2545.5
1011.065	2582.5
1011.282	2545.5
1011.5	2473.5
1011.717	2583.5
1011.934	2508.5
1012.151	2530.5
1012.368	2510.5
1012.585	2449.5
1012.801	2495.5
1013.018	2451.5
1013.235	2431.5
1013.452	2471.5
1013.669	2469.5
1013.885	2516.5
1014.102	2543.5
1014.318	2516.5
1014.535	2488.5
1014.751	2494.5
1014.968	2486.5
1015.184	2518.5
1015.401	2387.5
1015.617	2407.5
1015.833	2333.5
1016.049	2362.5
1016.266	2316.5
1016.482	2301.5
1016.698	2233.5
1016.914	2225.5
1017.13	2163.5
1017.346	2190.5
1017.562	2238.5
1017.778	2143.5
1017.993	2112.5
1018.209	2187.5
1018.425	2179.5
1018.641	2112.5
1018.856	2068.5
1019.072	2101.5
1019.288	2196.5
1019.503	2098.5
1019.719	2022.5
1019.934	2029.5
1020.149	2087.5
1020.365	1988.5
1020.58	1945.5
1020.795	1971.5
1021.011	1894.5
1021.226	1821.5
1021.441	1867.5
1021.656	1741.5
1021.871	1666.5
1022.086	1662.5
1022.301	1649.5
1022.516	1611.5
1022.731	1657.5
1022.946	1548.5
1023.16	1529.5
1023.375	1454.5
1023.59	1456.5
1023.804	1384.5
1024.019	1492.5
1024.234	1335.5
1024.448	1344.5
1024.663	1254.5
1024.877	1272.5
1025.092	1314.5
1025.306	1292.5
1025.52	1170.5
1025.734	1261.5
1025.949	1155.5
1026.163	1099.5
1026.377	1070.5
1026.591	1096.5
1026.805	1024.5
1027.019	1001.5
1027.233	949.5
1027.447	916.5
1027.661	1008.5
1027.875	940.5
1028.088	963.5
1028.302	868.5
1028.516	855.5
1028.73	836.5
1028.943	812.5
1029.157	778.5
1029.37	731.5
1029.584	-5.5
1029.797	2.5
1030.011	-1.5
1030.224	-3.5
