Data from QEP037381__78__14-52-55-876.txt Node

Date: Wed Dec 21 14:52:55 EST 2022
User: dcclab
Spectrometer: QEP03738
Trigger mode: 4
Integration Time (sec): 1.000000E1
Scans to average: 1
Electric dark correction enabled: true
Nonlinearity correction enabled: false
Boxcar width: 0
XAxis mode: Wavelengths
Number of Pixels in Spectrum: 1044
>>>>>Begin Spectral Data<<<<<
784.041	11.12
784.3	1.12
784.558	-1.88
784.817	-1.88
785.075	111089.12
785.334	17997.12
785.592	8098.12
785.851	5504.12
786.109	4178.12
786.368	3289.12
786.626	2655.12
786.884	2211.12
787.143	1861.12
787.401	1559.12
787.659	1399.12
787.917	1196.12
788.175	1094.12
788.433	974.12
788.691	864.12
788.949	786.12
789.207	764.12
789.465	690.12
789.723	653.12
789.98	595.12
790.238	628.12
790.496	595.12
790.753	600.12
791.011	600.12
791.268	555.12
791.526	553.12
791.783	562.12
792.041	540.12
792.298	455.12
792.556	523.12
792.813	493.12
793.07	461.12
793.327	472.12
793.584	547.12
793.841	463.12
794.099	484.12
794.356	516.12
794.613	451.12
794.869	493.12
795.126	448.12
795.383	416.12
795.64	455.12
795.897	395.12
796.153	455.12
796.41	448.12
796.667	438.12
796.923	449.12
797.18	434.12
797.436	479.12
797.693	429.12
797.949	475.12
798.206	506.12
798.462	427.12
798.718	489.12
798.974	473.12
799.231	522.12
799.487	501.12
799.743	516.12
799.999	523.12
800.255	546.12
800.511	536.12
800.767	591.12
801.023	565.12
801.279	625.12
801.534	652.12
801.79	726.12
802.046	775.12
802.302	933.12
802.557	1072.12
802.813	1380.12
803.068	1715.12
803.324	2393.12
803.579	3315.12
803.835	4589.12
804.09	6315.12
804.345	8172.12
804.601	10346.12
804.856	12567.12
805.111	14434.12
805.366	15922.12
805.621	17025.12
805.876	17839.12
806.131	18361.12
806.386	18748.12
806.641	19018.12
806.896	19346.12
807.151	19702.12
807.406	20005.12
807.661	20385.12
807.915	20752.12
808.17	20977.12
808.425	21284.12
808.679	21421.12
808.934	21702.12
809.188	21904.12
809.443	22076.12
809.697	22255.12
809.951	22427.12
810.206	22561.12
810.46	22947.12
810.714	22994.12
810.968	23294.12
811.223	23585.12
811.477	23634.12
811.731	23749.12
811.985	23887.12
812.239	24023.12
812.493	24101.12
812.747	24162.12
813	24156.12
813.254	24441.12
813.508	24486.12
813.762	24647.12
814.015	24573.12
814.269	24808.12
814.522	25144.12
814.776	25438.12
815.03	25617.12
815.283	26027.12
815.536	26392.12
815.79	26809.12
816.043	27136.12
816.296	27595.12
816.55	27911.12
816.803	28238.12
817.056	28629.12
817.309	28860.12
817.562	29103.12
817.815	29513.12
818.068	29572.12
818.321	29910.12
818.574	30329.12
818.827	30733.12
819.079	30927.12
819.332	31595.12
819.585	32000.12
819.838	32399.12
820.09	32465.12
820.343	32627.12
820.595	32822.12
820.848	33093.12
821.1	33059.12
821.353	33233.12
821.605	33118.12
821.857	33044.12
822.11	32940.12
822.362	32784.12
822.614	32756.12
822.866	32937.12
823.118	32749.12
823.37	32986.12
823.622	32969.12
823.874	33161.12
824.126	33225.12
824.378	33233.12
824.63	33355.12
824.882	33365.12
825.134	33286.12
825.385	33331.12
825.637	33231.12
825.888	33192.12
826.14	33023.12
826.392	32950.12
826.643	32843.12
826.895	32694.12
827.146	32445.12
827.397	32374.12
827.649	32512.12
827.9	32416.12
828.151	32486.12
828.402	32585.12
828.653	32809.12
828.905	32691.12
829.156	32912.12
829.407	32754.12
829.658	32862.12
829.909	33063.12
830.159	33092.12
830.41	32920.12
830.661	32644.12
830.912	32360.12
831.162	32301.12
831.413	32239.12
831.664	32259.12
831.914	32189.12
832.165	32083.12
832.415	32114.12
832.666	32195.12
832.916	32076.12
833.167	32123.12
833.417	32106.12
833.667	31902.12
833.917	31761.12
834.168	31885.12
834.418	31713.12
834.668	31604.12
834.918	31473.12
835.168	31342.12
835.418	31208.12
835.668	30983.12
835.918	30965.12
836.167	30927.12
836.417	30892.12
836.667	30876.12
836.917	30793.12
837.166	30910.12
837.416	30852.12
837.666	30944.12
837.915	30750.12
838.165	30761.12
838.414	30661.12
838.663	30493.12
838.913	30662.12
839.162	30542.12
839.411	30522.12
839.661	30257.12
839.91	30305.12
840.159	30371.12
840.408	30301.12
840.657	30262.12
840.906	30203.12
841.155	30155.12
841.404	30279.12
841.653	30241.12
841.902	30261.12
842.15	30402.12
842.399	30474.12
842.648	30260.12
842.897	30361.12
843.145	30051.12
843.394	29793.12
843.642	29659.12
843.891	29484.12
844.139	29350.12
844.388	29231.12
844.636	29125.12
844.884	29052.12
845.133	28977.12
845.381	29020.12
845.629	29035.12
845.877	29106.12
846.125	29004.12
846.373	28943.12
846.621	28744.12
846.869	28729.12
847.117	28538.12
847.365	28359.12
847.613	28170.12
847.861	28160.12
848.108	28234.12
848.356	28171.12
848.604	28100.12
848.851	28051.12
849.099	28053.12
849.346	28087.12
849.594	28226.12
849.841	28402.12
850.089	28473.12
850.336	28466.12
850.583	28490.12
850.831	28337.12
851.078	28178.12
851.325	28170.12
851.572	28113.12
851.819	27949.12
852.066	27467.12
852.313	26982.12
852.56	26852.12
852.807	26733.12
853.054	26571.12
853.301	26682.12
853.548	26612.12
853.794	26725.12
854.041	26760.12
854.288	26955.12
854.534	27094.12
854.781	27086.12
855.028	26931.12
855.274	27011.12
855.52	26851.12
855.767	26827.12
856.013	26718.12
856.26	27114.12
856.506	26545.12
856.752	26479.12
856.998	26551.12
857.244	26457.12
857.49	26778.12
857.736	26782.12
857.982	26678.12
858.228	26650.12
858.474	26295.12
858.72	26165.12
858.966	26019.12
859.212	25606.12
859.458	25317.12
859.703	25129.12
859.949	24912.12
860.195	24648.12
860.44	24643.12
860.686	24594.12
860.931	24563.12
861.177	24415.12
861.422	24367.12
861.667	24102.12
861.913	24144.12
862.158	24086.12
862.403	24274.12
862.648	24300.12
862.893	24344.12
863.138	24314.12
863.384	24239.12
863.629	24197.12
863.873	24066.12
864.118	24107.12
864.363	23935.12
864.608	23871.12
864.853	23783.12
865.098	23657.12
865.342	23588.12
865.587	23365.12
865.832	23434.12
866.076	23412.12
866.321	23291.12
866.565	23176.12
866.81	23058.12
867.054	23108.12
867.298	23021.12
867.543	22893.12
867.787	22812.12
868.031	22822.12
868.275	22753.12
868.519	22867.12
868.764	22703.12
869.008	22514.12
869.252	22671.12
869.496	22579.12
869.739	22430.12
869.983	22525.12
870.227	22531.12
870.471	22503.12
870.715	22677.12
870.958	22770.12
871.202	22748.12
871.446	22718.12
871.689	22689.12
871.933	22701.12
872.176	22693.12
872.42	22592.12
872.663	22589.12
872.906	22645.12
873.15	22508.12
873.393	22565.12
873.636	22399.12
873.879	22189.12
874.122	21987.12
874.366	21633.12
874.609	21495.12
874.852	21254.12
875.095	21182.12
875.337	20957.12
875.58	20876.12
875.823	20779.12
876.066	20895.12
876.309	20796.12
876.551	20715.12
876.794	20468.12
877.037	20363.12
877.279	20282.12
877.522	20398.12
877.764	20378.12
878.007	20404.12
878.249	20301.12
878.491	20172.12
878.734	20222.12
878.976	20048.12
879.218	20043.12
879.46	19851.12
879.702	19785.12
879.945	19533.12
880.187	19457.12
880.429	19302.12
880.671	19071.12
880.912	19139.12
881.154	19089.12
881.396	18834.12
881.638	19111.12
881.88	18991.12
882.121	18977.12
882.363	19024.12
882.605	18892.12
882.846	18854.12
883.088	18807.12
883.329	18816.12
883.571	19024.12
883.812	19323.12
884.053	19716.12
884.295	20046.12
884.536	20383.12
884.777	20229.12
885.018	20023.12
885.259	19912.12
885.5	19664.12
885.742	19983.12
885.982	19602.12
886.223	19459.12
886.464	19234.12
886.705	18991.12
886.946	18880.12
887.187	18454.12
887.428	18257.12
887.668	17893.12
887.909	17601.12
888.15	17597.12
888.39	17302.12
888.631	17200.12
888.871	17056.12
889.111	16997.12
889.352	16775.12
889.592	16682.12
889.833	16474.12
890.073	16390.12
890.313	16356.12
890.553	16096.12
890.793	16089.12
891.033	16115.12
891.273	15922.12
891.513	15843.12
891.753	15895.12
891.993	15834.12
892.233	15803.12
892.473	15857.12
892.713	15893.12
892.952	15759.12
893.192	15848.12
893.432	15813.12
893.671	15824.12
893.911	15676.12
894.15	15696.12
894.39	15398.12
894.629	15436.12
894.869	15354.12
895.108	15199.12
895.347	15124.12
895.587	15090.12
895.826	15052.12
896.065	15015.12
896.304	15057.12
896.543	15023.12
896.782	14849.12
897.021	14841.12
897.26	14783.12
897.499	14786.12
897.738	14773.12
897.977	14634.12
898.216	14508.12
898.454	14398.12
898.693	14353.12
898.932	14332.12
899.17	14232.12
899.409	14146.12
899.647	14013.12
899.886	14112.12
900.124	14194.12
900.363	14119.12
900.601	14098.12
900.839	14192.12
901.078	14268.12
901.316	14288.12
901.554	14300.12
901.792	14511.12
902.03	14461.12
902.268	14381.12
902.506	14461.12
902.744	14290.12
902.982	14248.12
903.22	13943.12
903.458	13804.12
903.695	13675.12
903.933	13398.12
904.171	13074.12
904.409	12947.12
904.646	12834.12
904.884	12588.12
905.121	12471.12
905.359	12369.12
905.596	12298.12
905.833	12172.12
906.071	12153.12
906.308	12067.12
906.545	12017.12
906.783	11985.12
907.02	11931.12
907.257	12008.12
907.494	11935.12
907.731	11887.12
907.968	11849.12
908.205	11712.12
908.442	11622.12
908.679	11593.12
908.915	11547.12
909.152	11454.12
909.389	11224.12
909.626	11254.12
909.862	11173.12
910.099	11111.12
910.335	11071.12
910.572	10962.12
910.808	10993.12
911.045	10893.12
911.281	10808.12
911.518	10821.12
911.754	10718.12
911.99	10764.12
912.226	10628.12
912.463	10548.12
912.699	10470.12
912.935	10416.12
913.171	10273.12
913.407	10188.12
913.643	10048.12
913.879	10028.12
914.114	10008.12
914.35	9879.12
914.586	9793.12
914.822	9694.12
915.057	9675.12
915.293	9551.12
915.529	9483.12
915.764	9555.12
916	9497.12
916.235	9466.12
916.471	9454.12
916.706	9303.12
916.941	9375.12
917.177	9339.12
917.412	9429.12
917.647	9425.12
917.882	9286.12
918.117	9373.12
918.352	9234.12
918.588	9269.12
918.823	9139.12
919.057	9054.12
919.292	8955.12
919.527	9022.12
919.762	8747.12
919.997	8821.12
920.232	8659.12
920.466	8616.12
920.701	8404.12
920.935	8439.12
921.17	8355.12
921.405	8323.12
921.639	8287.12
921.873	8295.12
922.108	8248.12
922.342	8276.12
922.576	8116.12
922.811	8133.12
923.045	8207.12
923.279	8095.12
923.513	8012.12
923.747	7969.12
923.981	7894.12
924.215	7887.12
924.449	7880.12
924.683	7775.12
924.917	7698.12
925.151	7672.12
925.385	7720.12
925.618	7719.12
925.852	7662.12
926.086	7593.12
926.319	7625.12
926.553	7583.12
926.786	7560.12
927.02	7580.12
927.253	7587.12
927.486	7593.12
927.72	7512.12
927.953	7566.12
928.186	7496.12
928.42	7479.12
928.653	7334.12
928.886	7332.12
929.119	7374.12
929.352	7312.12
929.585	7222.12
929.818	7177.12
930.051	7148.12
930.284	7122.12
930.516	6965.12
930.749	6942.12
930.982	6930.12
931.215	6912.12
931.447	6780.12
931.68	6821.12
931.912	6798.12
932.145	6774.12
932.377	6768.12
932.61	6915.12
932.842	6753.12
933.074	6760.12
933.307	6714.12
933.539	6760.12
933.771	6823.12
934.003	6735.12
934.236	6838.12
934.468	6841.12
934.7	6683.12
934.932	6710.12
935.164	6680.12
935.395	6612.12
935.627	6647.12
935.859	6586.12
936.091	6568.12
936.323	6599.12
936.554	6602.12
936.786	6530.12
937.017	6402.12
937.249	6527.12
937.481	6415.12
937.712	6445.12
937.943	6407.12
938.175	6402.12
938.406	6400.12
938.637	6438.12
938.869	6326.12
939.1	6365.12
939.331	6291.12
939.562	6338.12
939.793	6345.12
940.024	6240.12
940.255	6246.12
940.486	6161.12
940.717	6183.12
940.948	6104.12
941.179	6084.12
941.409	6078.12
941.64	6078.12
941.871	6067.12
942.102	6078.12
942.332	6023.12
942.563	6092.12
942.793	6030.12
943.024	5951.12
943.254	6093.12
943.484	6067.12
943.715	6103.12
943.945	6058.12
944.175	5975.12
944.405	5952.12
944.636	5920.12
944.866	5963.12
945.096	5992.12
945.326	5895.12
945.556	5916.12
945.786	5914.12
946.016	5867.12
946.245	5796.12
946.475	5754.12
946.705	5683.12
946.935	5723.12
947.164	5637.12
947.394	5617.12
947.624	5613.12
947.853	5642.12
948.083	5570.12
948.312	5542.12
948.542	5482.12
948.771	5499.12
949	5402.12
949.23	5430.12
949.459	5469.12
949.688	5536.12
949.917	5465.12
950.146	5473.12
950.375	5529.12
950.604	5416.12
950.833	5515.12
951.062	5481.12
951.291	5364.12
951.52	5364.12
951.749	5378.12
951.978	5276.12
952.206	5269.12
952.435	5287.12
952.664	5311.12
952.892	5319.12
953.121	5294.12
953.349	5280.12
953.578	5284.12
953.806	5180.12
954.035	5103.12
954.263	5126.12
954.491	5049.12
954.719	5152.12
954.948	5027.12
955.176	5047.12
955.404	4945.12
955.632	5066.12
955.86	4971.12
956.088	4941.12
956.316	4910.12
956.544	4985.12
956.772	4805.12
956.999	4839.12
957.227	4870.12
957.455	4789.12
957.683	4794.12
957.91	4768.12
958.138	4716.12
958.365	4668.12
958.593	4657.12
958.82	4627.12
959.048	4674.12
959.275	4621.12
959.502	4621.12
959.73	4592.12
959.957	4634.12
960.184	4648.12
960.411	4566.12
960.638	4593.12
960.865	4532.12
961.092	4581.12
961.319	4500.12
961.546	4524.12
961.773	4534.12
962	4559.12
962.227	4590.12
962.454	4510.12
962.68	4440.12
962.907	4436.12
963.134	4421.12
963.36	4399.12
963.587	4397.12
963.813	4311.12
964.04	4343.12
964.266	4271.12
964.493	4354.12
964.719	4280.12
964.945	4278.12
965.171	4174.12
965.398	4205.12
965.624	4198.12
965.85	4131.12
966.076	4119.12
966.302	4156.12
966.528	4105.12
966.754	4155.12
966.98	4119.12
967.206	4072.12
967.431	3992.12
967.657	4106.12
967.883	4032.12
968.109	4002.12
968.334	3920.12
968.56	3951.12
968.785	3948.12
969.011	3924.12
969.236	3951.12
969.462	3910.12
969.687	3915.12
969.912	3949.12
970.138	3946.12
970.363	3849.12
970.588	3858.12
970.813	3836.12
971.038	3799.12
971.263	3813.12
971.488	3849.12
971.713	3791.12
971.938	3829.12
972.163	3681.12
972.388	3692.12
972.613	3648.12
972.838	3682.12
973.062	3697.12
973.287	3644.12
973.512	3608.12
973.736	3671.12
973.961	3609.12
974.185	3545.12
974.41	3586.12
974.634	3446.12
974.858	3457.12
975.083	3530.12
975.307	3513.12
975.531	3452.12
975.755	3360.12
975.98	3371.12
976.204	3328.12
976.428	3325.12
976.652	3320.12
976.876	3294.12
977.1	3289.12
977.324	3304.12
977.547	3307.12
977.771	3309.12
977.995	3292.12
978.219	3194.12
978.442	3301.12
978.666	3262.12
978.89	3238.12
979.113	3251.12
979.337	3204.12
979.56	3172.12
979.783	3302.12
980.007	3145.12
980.23	3155.12
980.453	3143.12
980.677	3132.12
980.9	3158.12
981.123	3025.12
981.346	3126.12
981.569	3041.12
981.792	3066.12
982.015	3051.12
982.238	2976.12
982.461	3042.12
982.684	3002.12
982.907	2947.12
983.129	2915.12
983.352	2931.12
983.575	2954.12
983.797	2895.12
984.02	2903.12
984.242	2889.12
984.465	2854.12
984.687	2885.12
984.91	2903.12
985.132	2853.12
985.354	2852.12
985.577	2843.12
985.799	2837.12
986.021	2725.12
986.243	2735.12
986.465	2781.12
986.687	2809.12
986.909	2857.12
987.131	2759.12
987.353	2718.12
987.575	2747.12
987.797	2709.12
988.019	2640.12
988.241	2716.12
988.462	2700.12
988.684	2724.12
988.906	2736.12
989.127	2750.12
989.349	2608.12
989.57	2630.12
989.792	2706.12
990.013	2688.12
990.234	2684.12
990.456	2668.12
990.677	2682.12
990.898	2612.12
991.119	2623.12
991.341	2616.12
991.562	2549.12
991.783	2570.12
992.004	2528.12
992.225	2500.12
992.446	2538.12
992.667	2480.12
992.887	2492.12
993.108	2405.12
993.329	2556.12
993.55	2459.12
993.77	2393.12
993.991	2437.12
994.212	2430.12
994.432	2389.12
994.653	2390.12
994.873	2381.12
995.093	2271.12
995.314	2274.12
995.534	2389.12
995.754	2402.12
995.975	2422.12
996.195	2303.12
996.415	2386.12
996.635	2361.12
996.855	2337.12
997.075	2320.12
997.295	2302.12
997.515	2283.12
997.735	2305.12
997.955	2290.12
998.174	2271.12
998.394	2244.12
998.614	2320.12
998.834	2273.12
999.053	2317.12
999.273	2279.12
999.492	2335.12
999.712	2220.12
999.931	2235.12
1000.151	2260.12
1000.37	2203.12
1000.589	2274.12
1000.809	2146.12
1001.028	2289.12
1001.247	2230.12
1001.466	2087.12
1001.685	2190.12
1001.904	2164.12
1002.123	2132.12
1002.342	2126.12
1002.561	2094.12
1002.78	2096.12
1002.999	2164.12
1003.218	2076.12
1003.436	2080.12
1003.655	2125.12
1003.874	2071.12
1004.092	2070.12
1004.311	2094.12
1004.53	2034.12
1004.748	2126.12
1004.966	2034.12
1005.185	2078.12
1005.403	2102.12
1005.622	2060.12
1005.84	2112.12
1006.058	2021.12
1006.276	2020.12
1006.494	2561.12
1006.712	2089.12
1006.931	2109.12
1007.149	2026.12
1007.367	2051.12
1007.584	2050.12
1007.802	2092.12
1008.02	2024.12
1008.238	2147.12
1008.456	2161.12
1008.673	2056.12
1008.891	2192.12
1009.109	2149.12
1009.326	2216.12
1009.544	2308.12
1009.761	2249.12
1009.979	2418.12
1010.196	2463.12
1010.413	2604.12
1010.631	2650.12
1010.848	2760.12
1011.065	2779.12
1011.282	2777.12
1011.5	2638.12
1011.717	2755.12
1011.934	2695.12
1012.151	2728.12
1012.368	2714.12
1012.585	2644.12
1012.801	2695.12
1013.018	2671.12
1013.235	2602.12
1013.452	2666.12
1013.669	2684.12
1013.885	2654.12
1014.102	2677.12
1014.318	2651.12
1014.535	2642.12
1014.751	2676.12
1014.968	2658.12
1015.184	2662.12
1015.401	2548.12
1015.617	2557.12
1015.833	2468.12
1016.049	2462.12
1016.266	2401.12
1016.482	2461.12
1016.698	2343.12
1016.914	2381.12
1017.13	2312.12
1017.346	2301.12
1017.562	2386.12
1017.778	2255.12
1017.993	2248.12
1018.209	2282.12
1018.425	2268.12
1018.641	2217.12
1018.856	2209.12
1019.072	2236.12
1019.288	2260.12
1019.503	2222.12
1019.719	2125.12
1019.934	2140.12
1020.149	2205.12
1020.365	2119.12
1020.58	2027.12
1020.795	2080.12
1021.011	1984.12
1021.226	1935.12
1021.441	1947.12
1021.656	1842.12
1021.871	1775.12
1022.086	1749.12
1022.301	1727.12
1022.516	1720.12
1022.731	1750.12
1022.946	1616.12
1023.16	1602.12
1023.375	1580.12
1023.59	1532.12
1023.804	1456.12
1024.019	1545.12
1024.234	1411.12
1024.448	1430.12
1024.663	1334.12
1024.877	1392.12
1025.092	1372.12
1025.306	1391.12
1025.52	1249.12
1025.734	1327.12
1025.949	1239.12
1026.163	1208.12
1026.377	1126.12
1026.591	1174.12
1026.805	1077.12
1027.019	1073.12
1027.233	1041.12
1027.447	982.12
1027.661	1077.12
1027.875	1022.12
1028.088	1013.12
1028.302	925.12
1028.516	891.12
1028.73	890.12
1028.943	896.12
1029.157	822.12
1029.37	774.12
1029.584	-2.88
1029.797	-3.88
1030.011	-1.88
1030.224	0.12
