Data from QEP037381__87__14-54-25-876.txt Node

Date: Wed Dec 21 14:54:25 EST 2022
User: dcclab
Spectrometer: QEP03738
Trigger mode: 4
Integration Time (sec): 1.000000E1
Scans to average: 1
Electric dark correction enabled: true
Nonlinearity correction enabled: false
Boxcar width: 0
XAxis mode: Wavelengths
Number of Pixels in Spectrum: 1044
>>>>>Begin Spectral Data<<<<<
784.041	15.12
784.3	3.12
784.558	-3.88
784.817	-4.88
785.075	103175.12
785.334	17016.12
785.592	7748.12
785.851	5252.12
786.109	3967.12
786.368	3122.12
786.626	2510.12
786.884	2162.12
787.143	1869.12
787.401	1509.12
787.659	1378.12
787.917	1188.12
788.175	1068.12
788.433	945.12
788.691	841.12
788.949	788.12
789.207	758.12
789.465	675.12
789.723	653.12
789.98	591.12
790.238	623.12
790.496	588.12
790.753	575.12
791.011	609.12
791.268	539.12
791.526	522.12
791.783	554.12
792.041	532.12
792.298	455.12
792.556	521.12
792.813	517.12
793.07	466.12
793.327	453.12
793.584	536.12
793.841	480.12
794.099	478.12
794.356	545.12
794.613	442.12
794.869	480.12
795.126	431.12
795.383	420.12
795.64	452.12
795.897	390.12
796.153	449.12
796.41	439.12
796.667	411.12
796.923	437.12
797.18	428.12
797.436	464.12
797.693	411.12
797.949	483.12
798.206	496.12
798.462	406.12
798.718	479.12
798.974	454.12
799.231	489.12
799.487	480.12
799.743	505.12
799.999	533.12
800.255	526.12
800.511	497.12
800.767	551.12
801.023	547.12
801.279	601.12
801.534	633.12
801.79	677.12
802.046	715.12
802.302	857.12
802.557	967.12
802.813	1214.12
803.068	1491.12
803.324	2086.12
803.579	2815.12
803.835	3895.12
804.09	5358.12
804.345	6946.12
804.601	8671.12
804.856	10532.12
805.111	12108.12
805.366	13402.12
805.621	14333.12
805.876	15016.12
806.131	15443.12
806.386	15770.12
806.641	16057.12
806.896	16250.12
807.151	16655.12
807.406	16804.12
807.661	17161.12
807.915	17418.12
808.17	17745.12
808.425	17907.12
808.679	18012.12
808.934	18383.12
809.188	18433.12
809.443	18628.12
809.697	18924.12
809.951	18983.12
810.206	19147.12
810.46	19371.12
810.714	19477.12
810.968	19760.12
811.223	19854.12
811.477	20010.12
811.731	20220.12
811.985	20338.12
812.239	20301.12
812.493	20505.12
812.747	20548.12
813	20501.12
813.254	20736.12
813.508	20922.12
813.762	20994.12
814.015	21014.12
814.269	21179.12
814.522	21342.12
814.776	21605.12
815.03	21806.12
815.283	22155.12
815.536	22516.12
815.79	22924.12
816.043	23286.12
816.296	23501.12
816.55	23847.12
816.803	24164.12
817.056	24468.12
817.309	24657.12
817.562	24918.12
817.815	25157.12
818.068	25393.12
818.321	25513.12
818.574	25918.12
818.827	26238.12
819.079	26555.12
819.332	27108.12
819.585	27413.12
819.838	27790.12
820.09	27848.12
820.343	28015.12
820.595	28241.12
820.848	28457.12
821.1	28389.12
821.353	28442.12
821.605	28477.12
821.857	28489.12
822.11	28314.12
822.362	28193.12
822.614	28257.12
822.866	28376.12
823.118	28247.12
823.37	28416.12
823.622	28448.12
823.874	28536.12
824.126	28672.12
824.378	28612.12
824.63	28728.12
824.882	28954.12
825.134	28722.12
825.385	28815.12
825.637	28762.12
825.888	28437.12
826.14	28496.12
826.392	28469.12
826.643	28306.12
826.895	28219.12
827.146	28108.12
827.397	28034.12
827.649	28100.12
827.9	28080.12
828.151	28126.12
828.402	28186.12
828.653	28276.12
828.905	28274.12
829.156	28452.12
829.407	28423.12
829.658	28479.12
829.909	28673.12
830.159	28609.12
830.41	28517.12
830.661	28205.12
830.912	28042.12
831.162	28066.12
831.413	27915.12
831.664	27924.12
831.914	27877.12
832.165	27850.12
832.415	27881.12
832.666	27820.12
832.916	28026.12
833.167	27910.12
833.417	28045.12
833.667	27795.12
833.917	27748.12
834.168	27684.12
834.418	27550.12
834.668	27667.12
834.918	27467.12
835.168	27264.12
835.418	27174.12
835.668	27084.12
835.918	27071.12
836.167	27027.12
836.417	26927.12
836.667	26977.12
836.917	27012.12
837.166	26930.12
837.416	26912.12
837.666	26971.12
837.915	26752.12
838.165	26896.12
838.414	26716.12
838.663	26686.12
838.913	26708.12
839.162	26635.12
839.411	26631.12
839.661	26602.12
839.91	26559.12
840.159	26417.12
840.408	26542.12
840.657	26580.12
840.906	26671.12
841.155	26720.12
841.404	26502.12
841.653	26582.12
841.902	26632.12
842.15	26728.12
842.399	26865.12
842.648	26635.12
842.897	26650.12
843.145	26344.12
843.394	26323.12
843.642	26214.12
843.891	26029.12
844.139	25881.12
844.388	25755.12
844.636	25501.12
844.884	25654.12
845.133	25766.12
845.381	25552.12
845.629	25610.12
845.877	25653.12
846.125	25584.12
846.373	25577.12
846.621	25362.12
846.869	25354.12
847.117	25192.12
847.365	25108.12
847.613	24963.12
847.861	24905.12
848.108	24922.12
848.356	24865.12
848.604	24914.12
848.851	24863.12
849.099	24823.12
849.346	24935.12
849.594	25029.12
849.841	25035.12
850.089	25226.12
850.336	25278.12
850.583	25170.12
850.831	25223.12
851.078	25040.12
851.325	25120.12
851.572	25184.12
851.819	24922.12
852.066	24368.12
852.313	23917.12
852.56	23847.12
852.807	23703.12
853.054	23649.12
853.301	23656.12
853.548	23709.12
853.794	23885.12
854.041	23825.12
854.288	23987.12
854.534	24214.12
854.781	24145.12
855.028	24032.12
855.274	24090.12
855.52	24018.12
855.767	23863.12
856.013	23991.12
856.26	24376.12
856.506	23779.12
856.752	23627.12
856.998	23691.12
857.244	23828.12
857.49	23895.12
857.736	23921.12
857.982	23977.12
858.228	23815.12
858.474	23410.12
858.72	23315.12
858.966	23166.12
859.212	22997.12
859.458	22744.12
859.703	22416.12
859.949	22266.12
860.195	22247.12
860.44	22015.12
860.686	22139.12
860.931	22074.12
861.177	21921.12
861.422	21747.12
861.667	21649.12
861.913	21594.12
862.158	21676.12
862.403	21694.12
862.648	21688.12
862.893	21849.12
863.138	21670.12
863.384	21709.12
863.629	21644.12
863.873	21596.12
864.118	21606.12
864.363	21396.12
864.608	21475.12
864.853	21371.12
865.098	21184.12
865.342	21106.12
865.587	21119.12
865.832	20942.12
866.076	20994.12
866.321	20925.12
866.565	20920.12
866.81	20704.12
867.054	20675.12
867.298	20694.12
867.543	20495.12
867.787	20646.12
868.031	20575.12
868.275	20482.12
868.519	20487.12
868.764	20491.12
869.008	20380.12
869.252	20423.12
869.496	20434.12
869.739	20303.12
869.983	20439.12
870.227	20411.12
870.471	20407.12
870.715	20517.12
870.958	20597.12
871.202	20586.12
871.446	20603.12
871.689	20650.12
871.933	20619.12
872.176	20554.12
872.42	20507.12
872.663	20575.12
872.906	20431.12
873.15	20501.12
873.393	20383.12
873.636	20440.12
873.879	20357.12
874.122	20049.12
874.366	19730.12
874.609	19539.12
874.852	19313.12
875.095	19256.12
875.337	19161.12
875.58	19011.12
875.823	18989.12
876.066	18887.12
876.309	18869.12
876.551	18718.12
876.794	18641.12
877.037	18616.12
877.279	18478.12
877.522	18486.12
877.764	18516.12
878.007	18477.12
878.249	18409.12
878.491	18439.12
878.734	18403.12
878.976	18312.12
879.218	18165.12
879.46	18111.12
879.702	17950.12
879.945	17837.12
880.187	17660.12
880.429	17564.12
880.671	17450.12
880.912	17395.12
881.154	17356.12
881.396	17300.12
881.638	17395.12
881.88	17250.12
882.121	17242.12
882.363	17220.12
882.605	17304.12
882.846	17212.12
883.088	17222.12
883.329	17257.12
883.571	17332.12
883.812	17520.12
884.053	17955.12
884.295	18389.12
884.536	18697.12
884.777	18565.12
885.018	18407.12
885.259	18202.12
885.5	18055.12
885.742	18352.12
885.982	18010.12
886.223	17839.12
886.464	17620.12
886.705	17411.12
886.946	17301.12
887.187	16855.12
887.428	16646.12
887.668	16467.12
887.909	16188.12
888.15	15952.12
888.39	15867.12
888.631	15733.12
888.871	15592.12
889.111	15453.12
889.352	15289.12
889.592	15152.12
889.833	15051.12
890.073	14943.12
890.313	14918.12
890.553	14754.12
890.793	14706.12
891.033	14671.12
891.273	14600.12
891.513	14576.12
891.753	14449.12
891.993	14496.12
892.233	14502.12
892.473	14598.12
892.713	14546.12
892.952	14515.12
893.192	14470.12
893.432	14430.12
893.671	14525.12
893.911	14425.12
894.15	14340.12
894.39	14174.12
894.629	14075.12
894.869	14042.12
895.108	13934.12
895.347	13851.12
895.587	13908.12
895.826	13827.12
896.065	13745.12
896.304	13832.12
896.543	13814.12
896.782	13682.12
897.021	13746.12
897.26	13601.12
897.499	13720.12
897.738	13633.12
897.977	13538.12
898.216	13395.12
898.454	13269.12
898.693	13243.12
898.932	13190.12
899.17	13117.12
899.409	13034.12
899.647	13020.12
899.886	13038.12
900.124	13105.12
900.363	12998.12
900.601	13054.12
900.839	13133.12
901.078	13247.12
901.316	13281.12
901.554	13401.12
901.792	13466.12
902.03	13449.12
902.268	13486.12
902.506	13421.12
902.744	13330.12
902.982	13229.12
903.22	12969.12
903.458	12828.12
903.695	12579.12
903.933	12368.12
904.171	12168.12
904.409	11933.12
904.646	11896.12
904.884	11609.12
905.121	11584.12
905.359	11445.12
905.596	11397.12
905.833	11162.12
906.071	11141.12
906.308	11186.12
906.545	11118.12
906.783	11051.12
907.02	11063.12
907.257	11000.12
907.494	10964.12
907.731	11015.12
907.968	10939.12
908.205	10849.12
908.442	10770.12
908.679	10695.12
908.915	10667.12
909.152	10516.12
909.389	10445.12
909.626	10426.12
909.862	10257.12
910.099	10239.12
910.335	10258.12
910.572	10172.12
910.808	10117.12
911.045	10084.12
911.281	10008.12
911.518	10070.12
911.754	9937.12
911.99	9788.12
912.226	9841.12
912.463	9790.12
912.699	9669.12
912.935	9619.12
913.171	9464.12
913.407	9487.12
913.643	9400.12
913.879	9299.12
914.114	9181.12
914.35	9136.12
914.586	9102.12
914.822	8997.12
915.057	9064.12
915.293	8852.12
915.529	8833.12
915.764	8856.12
916	8825.12
916.235	8770.12
916.471	8756.12
916.706	8676.12
916.941	8718.12
917.177	8676.12
917.412	8690.12
917.647	8713.12
917.882	8634.12
918.117	8652.12
918.352	8644.12
918.588	8542.12
918.823	8536.12
919.057	8431.12
919.292	8289.12
919.527	8283.12
919.762	8167.12
919.997	8174.12
920.232	8035.12
920.466	8008.12
920.701	7840.12
920.935	7838.12
921.17	7804.12
921.405	7767.12
921.639	7755.12
921.873	7723.12
922.108	7671.12
922.342	7688.12
922.576	7645.12
922.811	7588.12
923.045	7596.12
923.279	7627.12
923.513	7464.12
923.747	7495.12
923.981	7421.12
924.215	7373.12
924.449	7339.12
924.683	7240.12
924.917	7205.12
925.151	7191.12
925.385	7180.12
925.618	7119.12
925.852	7150.12
926.086	7028.12
926.319	7149.12
926.553	7118.12
926.786	7096.12
927.02	7083.12
927.253	7051.12
927.486	7066.12
927.72	7005.12
927.953	7091.12
928.186	6975.12
928.42	6957.12
928.653	6927.12
928.886	6893.12
929.119	6920.12
929.352	6822.12
929.585	6814.12
929.818	6724.12
930.051	6706.12
930.284	6704.12
930.516	6508.12
930.749	6491.12
930.982	6472.12
931.215	6486.12
931.447	6362.12
931.68	6404.12
931.912	6429.12
932.145	6413.12
932.377	6451.12
932.61	6513.12
932.842	6354.12
933.074	6346.12
933.307	6405.12
933.539	6445.12
933.771	6405.12
934.003	6328.12
934.236	6433.12
934.468	6379.12
934.7	6308.12
934.932	6312.12
935.164	6227.12
935.395	6200.12
935.627	6216.12
935.859	6201.12
936.091	6109.12
936.323	6155.12
936.554	6190.12
936.786	6091.12
937.017	6084.12
937.249	6062.12
937.481	6014.12
937.712	6081.12
937.943	5987.12
938.175	6015.12
938.406	5965.12
938.637	6002.12
938.869	5951.12
939.1	6008.12
939.331	5934.12
939.562	5896.12
939.793	5894.12
940.024	5909.12
940.255	5881.12
940.486	5761.12
940.717	5798.12
940.948	5755.12
941.179	5714.12
941.409	5699.12
941.64	5728.12
941.871	5695.12
942.102	5651.12
942.332	5685.12
942.563	5750.12
942.793	5719.12
943.024	5641.12
943.254	5695.12
943.484	5686.12
943.715	5698.12
943.945	5663.12
944.175	5627.12
944.405	5599.12
944.636	5562.12
944.866	5634.12
945.096	5636.12
945.326	5615.12
945.556	5574.12
945.786	5546.12
946.016	5483.12
946.245	5427.12
946.475	5395.12
946.705	5410.12
946.935	5394.12
947.164	5307.12
947.394	5269.12
947.624	5278.12
947.853	5306.12
948.083	5268.12
948.312	5278.12
948.542	5166.12
948.771	5117.12
949	5124.12
949.23	5171.12
949.459	5153.12
949.688	5187.12
949.917	5125.12
950.146	5123.12
950.375	5170.12
950.604	5104.12
950.833	5151.12
951.062	5181.12
951.291	5112.12
951.52	5050.12
951.749	5025.12
951.978	5014.12
952.206	5002.12
952.435	4998.12
952.664	5022.12
952.892	4990.12
953.121	4931.12
953.349	5023.12
953.578	4975.12
953.806	4913.12
954.035	4834.12
954.263	4889.12
954.491	4804.12
954.719	4796.12
954.948	4737.12
955.176	4741.12
955.404	4676.12
955.632	4734.12
955.86	4717.12
956.088	4663.12
956.316	4714.12
956.544	4699.12
956.772	4594.12
956.999	4546.12
957.227	4658.12
957.455	4511.12
957.683	4520.12
957.91	4465.12
958.138	4448.12
958.365	4405.12
958.593	4433.12
958.82	4386.12
959.048	4409.12
959.275	4395.12
959.502	4372.12
959.73	4347.12
959.957	4351.12
960.184	4384.12
960.411	4290.12
960.638	4395.12
960.865	4299.12
961.092	4346.12
961.319	4250.12
961.546	4356.12
961.773	4322.12
962	4287.12
962.227	4346.12
962.454	4261.12
962.68	4246.12
962.907	4251.12
963.134	4168.12
963.36	4179.12
963.587	4151.12
963.813	4083.12
964.04	4090.12
964.266	4067.12
964.493	4173.12
964.719	4081.12
964.945	4069.12
965.171	3961.12
965.398	3942.12
965.624	3979.12
965.85	3879.12
966.076	3909.12
966.302	3926.12
966.528	3897.12
966.754	3894.12
966.98	3889.12
967.206	3874.12
967.431	3813.12
967.657	3855.12
967.883	3856.12
968.109	3840.12
968.334	3804.12
968.56	3767.12
968.785	3725.12
969.011	3722.12
969.236	3746.12
969.462	3692.12
969.687	3701.12
969.912	3740.12
970.138	3797.12
970.363	3660.12
970.588	3695.12
970.813	3632.12
971.038	3619.12
971.263	3625.12
971.488	3660.12
971.713	3646.12
971.938	3589.12
972.163	3507.12
972.388	3539.12
972.613	3519.12
972.838	3522.12
973.062	3491.12
973.287	3500.12
973.512	3408.12
973.736	3448.12
973.961	3447.12
974.185	3399.12
974.41	3435.12
974.634	3296.12
974.858	3338.12
975.083	3321.12
975.307	3350.12
975.531	3246.12
975.755	3187.12
975.98	3264.12
976.204	3152.12
976.428	3118.12
976.652	3167.12
976.876	3114.12
977.1	3209.12
977.324	3099.12
977.547	3149.12
977.771	3153.12
977.995	3081.12
978.219	3050.12
978.442	3211.12
978.666	3109.12
978.89	3080.12
979.113	3093.12
979.337	3057.12
979.56	3064.12
979.783	3113.12
980.007	3002.12
980.23	3008.12
980.453	2962.12
980.677	2986.12
980.9	2950.12
981.123	2869.12
981.346	2946.12
981.569	2957.12
981.792	3004.12
982.015	2915.12
982.238	2873.12
982.461	2938.12
982.684	2855.12
982.907	2811.12
983.129	2812.12
983.352	2810.12
983.575	2806.12
983.797	2811.12
984.02	2774.12
984.242	2710.12
984.465	2741.12
984.687	2769.12
984.91	2787.12
985.132	2720.12
985.354	2750.12
985.577	2736.12
985.799	2719.12
986.021	2606.12
986.243	2661.12
986.465	2638.12
986.687	2664.12
986.909	2688.12
987.131	2618.12
987.353	2599.12
987.575	2651.12
987.797	2563.12
988.019	2524.12
988.241	2613.12
988.462	2537.12
988.684	2599.12
988.906	2640.12
989.127	2661.12
989.349	2500.12
989.57	2523.12
989.792	2544.12
990.013	2618.12
990.234	2562.12
990.456	2604.12
990.677	2580.12
990.898	2500.12
991.119	2496.12
991.341	2533.12
991.562	2517.12
991.783	2489.12
992.004	2419.12
992.225	2369.12
992.446	2423.12
992.667	2364.12
992.887	2430.12
993.108	2308.12
993.329	2441.12
993.55	2353.12
993.77	2321.12
993.991	2289.12
994.212	2322.12
994.432	2287.12
994.653	2271.12
994.873	2283.12
995.093	2147.12
995.314	2252.12
995.534	2332.12
995.754	2279.12
995.975	2321.12
996.195	2230.12
996.415	2245.12
996.635	2223.12
996.855	2258.12
997.075	2223.12
997.295	2224.12
997.515	2213.12
997.735	2259.12
997.955	2210.12
998.174	2178.12
998.394	2189.12
998.614	2210.12
998.834	2170.12
999.053	2230.12
999.273	2173.12
999.492	2236.12
999.712	2160.12
999.931	2126.12
1000.151	2174.12
1000.37	2145.12
1000.589	2187.12
1000.809	2099.12
1001.028	2221.12
1001.247	2125.12
1001.466	2022.12
1001.685	2137.12
1001.904	2112.12
1002.123	2057.12
1002.342	2052.12
1002.561	1995.12
1002.78	2034.12
1002.999	2112.12
1003.218	2025.12
1003.436	2004.12
1003.655	2019.12
1003.874	1968.12
1004.092	1972.12
1004.311	2022.12
1004.53	1973.12
1004.748	2052.12
1004.966	1952.12
1005.185	2043.12
1005.403	1991.12
1005.622	1957.12
1005.84	2036.12
1006.058	1954.12
1006.276	1951.12
1006.494	2488.12
1006.712	1974.12
1006.931	2042.12
1007.149	1913.12
1007.367	1939.12
1007.584	1999.12
1007.802	1990.12
1008.02	2014.12
1008.238	2119.12
1008.456	2084.12
1008.673	1981.12
1008.891	2060.12
1009.109	2050.12
1009.326	2144.12
1009.544	2221.12
1009.761	2148.12
1009.979	2288.12
1010.196	2321.12
1010.413	2469.12
1010.631	2550.12
1010.848	2624.12
1011.065	2634.12
1011.282	2605.12
1011.5	2516.12
1011.717	2635.12
1011.934	2536.12
1012.151	2592.12
1012.368	2551.12
1012.585	2507.12
1012.801	2516.12
1013.018	2502.12
1013.235	2478.12
1013.452	2508.12
1013.669	2491.12
1013.885	2524.12
1014.102	2563.12
1014.318	2533.12
1014.535	2514.12
1014.751	2509.12
1014.968	2515.12
1015.184	2525.12
1015.401	2437.12
1015.617	2446.12
1015.833	2344.12
1016.049	2320.12
1016.266	2322.12
1016.482	2316.12
1016.698	2263.12
1016.914	2287.12
1017.13	2218.12
1017.346	2219.12
1017.562	2264.12
1017.778	2191.12
1017.993	2176.12
1018.209	2219.12
1018.425	2215.12
1018.641	2151.12
1018.856	2109.12
1019.072	2154.12
1019.288	2191.12
1019.503	2126.12
1019.719	2055.12
1019.934	2072.12
1020.149	2101.12
1020.365	2026.12
1020.58	1959.12
1020.795	1981.12
1021.011	1924.12
1021.226	1862.12
1021.441	1896.12
1021.656	1806.12
1021.871	1702.12
1022.086	1716.12
1022.301	1676.12
1022.516	1644.12
1022.731	1713.12
1022.946	1593.12
1023.16	1589.12
1023.375	1531.12
1023.59	1500.12
1023.804	1444.12
1024.019	1528.12
1024.234	1394.12
1024.448	1409.12
1024.663	1344.12
1024.877	1358.12
1025.092	1340.12
1025.306	1343.12
1025.52	1228.12
1025.734	1295.12
1025.949	1211.12
1026.163	1160.12
1026.377	1118.12
1026.591	1152.12
1026.805	1058.12
1027.019	1048.12
1027.233	1020.12
1027.447	949.12
1027.661	1062.12
1027.875	992.12
1028.088	997.12
1028.302	913.12
1028.516	893.12
1028.73	913.12
1028.943	873.12
1029.157	806.12
1029.37	763.12
1029.584	-2.88
1029.797	-3.88
1030.011	-0.88
1030.224	-1.88
