Data from QEP037381__98__14-56-15-876.txt Node

Date: Wed Dec 21 14:56:15 EST 2022
User: dcclab
Spectrometer: QEP03738
Trigger mode: 4
Integration Time (sec): 1.000000E1
Scans to average: 1
Electric dark correction enabled: true
Nonlinearity correction enabled: false
Boxcar width: 0
XAxis mode: Wavelengths
Number of Pixels in Spectrum: 1044
>>>>>Begin Spectral Data<<<<<
784.041	12.38
784.3	0.38
784.558	-3.62
784.817	-6.62
785.075	101598.38
785.334	17871.38
785.592	8388.38
785.851	5817.38
786.109	4421.38
786.368	3445.38
786.626	2757.38
786.884	2321.38
787.143	1932.38
787.401	1597.38
787.659	1440.38
787.917	1231.38
788.175	1126.38
788.433	972.38
788.691	877.38
788.949	833.38
789.207	792.38
789.465	683.38
789.723	653.38
789.98	593.38
790.238	626.38
790.496	600.38
790.753	573.38
791.011	624.38
791.268	537.38
791.526	524.38
791.783	550.38
792.041	536.38
792.298	458.38
792.556	502.38
792.813	503.38
793.07	466.38
793.327	457.38
793.584	528.38
793.841	453.38
794.099	483.38
794.356	531.38
794.613	419.38
794.869	481.38
795.126	442.38
795.383	431.38
795.64	438.38
795.897	379.38
796.153	431.38
796.41	433.38
796.667	416.38
796.923	423.38
797.18	428.38
797.436	458.38
797.693	415.38
797.949	465.38
798.206	480.38
798.462	411.38
798.718	460.38
798.974	457.38
799.231	488.38
799.487	472.38
799.743	484.38
799.999	505.38
800.255	514.38
800.511	496.38
800.767	529.38
801.023	525.38
801.279	542.38
801.534	605.38
801.79	646.38
802.046	674.38
802.302	794.38
802.557	945.38
802.813	1126.38
803.068	1403.38
803.324	1926.38
803.579	2609.38
803.835	3603.38
804.09	4903.38
804.345	6409.38
804.601	8017.38
804.856	9717.38
805.111	11202.38
805.366	12379.38
805.621	13263.38
805.876	13850.38
806.131	14342.38
806.386	14613.38
806.641	14816.38
806.896	15121.38
807.151	15406.38
807.406	15663.38
807.661	15890.38
807.915	16217.38
808.17	16469.38
808.425	16686.38
808.679	16787.38
808.934	17023.38
809.188	17093.38
809.443	17273.38
809.697	17495.38
809.951	17571.38
810.206	17673.38
810.46	17995.38
810.714	18119.38
810.968	18394.38
811.223	18404.38
811.477	18624.38
811.731	18779.38
811.985	18852.38
812.239	18900.38
812.493	18930.38
812.747	19161.38
813	19039.38
813.254	19193.38
813.508	19238.38
813.762	19306.38
814.015	19489.38
814.269	19444.38
814.522	19779.38
814.776	20012.38
815.03	20332.38
815.283	20532.38
815.536	20824.38
815.79	21252.38
816.043	21542.38
816.296	21920.38
816.55	22097.38
816.803	22256.38
817.056	22676.38
817.309	22980.38
817.562	23023.38
817.815	23431.38
818.068	23585.38
818.321	23841.38
818.574	24010.38
818.827	24360.38
819.079	24534.38
819.332	25113.38
819.585	25494.38
819.838	25761.38
820.09	25776.38
820.343	25993.38
820.595	26059.38
820.848	26256.38
821.1	26424.38
821.353	26388.38
821.605	26427.38
821.857	26420.38
822.11	26185.38
822.362	26208.38
822.614	26237.38
822.866	26238.38
823.118	26228.38
823.37	26381.38
823.622	26393.38
823.874	26429.38
824.126	26621.38
824.378	26534.38
824.63	26680.38
824.882	26737.38
825.134	26492.38
825.385	26639.38
825.637	26515.38
825.888	26333.38
826.14	26415.38
826.392	26393.38
826.643	26129.38
826.895	26220.38
827.146	26127.38
827.397	26003.38
827.649	26104.38
827.9	26017.38
828.151	25916.38
828.402	26058.38
828.653	26302.38
828.905	26211.38
829.156	26243.38
829.407	26290.38
829.658	26478.38
829.909	26615.38
830.159	26672.38
830.41	26574.38
830.661	26297.38
830.912	26099.38
831.162	26000.38
831.413	25987.38
831.664	26114.38
831.914	25901.38
832.165	25843.38
832.415	25937.38
832.666	25851.38
832.916	26012.38
833.167	26041.38
833.417	25962.38
833.667	25886.38
833.917	25614.38
834.168	25803.38
834.418	25592.38
834.668	25675.38
834.918	25435.38
835.168	25249.38
835.418	25323.38
835.668	25134.38
835.918	25073.38
836.167	25131.38
836.417	24948.38
836.667	25014.38
836.917	25048.38
837.166	24968.38
837.416	25090.38
837.666	25103.38
837.915	24974.38
838.165	24977.38
838.414	24929.38
838.663	24829.38
838.913	24899.38
839.162	24836.38
839.411	24943.38
839.661	24696.38
839.91	24715.38
840.159	24649.38
840.408	24765.38
840.657	24779.38
840.906	24817.38
841.155	24773.38
841.404	24682.38
841.653	24728.38
841.902	24906.38
842.15	24952.38
842.399	24971.38
842.648	25022.38
842.897	24811.38
843.145	24665.38
843.394	24414.38
843.642	24352.38
843.891	24261.38
844.139	24044.38
844.388	23934.38
844.636	23845.38
844.884	23870.38
845.133	23819.38
845.381	23783.38
845.629	23845.38
845.877	23771.38
846.125	23741.38
846.373	23749.38
846.621	23620.38
846.869	23651.38
847.117	23416.38
847.365	23377.38
847.613	23211.38
847.861	23194.38
848.108	23223.38
848.356	23087.38
848.604	23020.38
848.851	23078.38
849.099	23100.38
849.346	23233.38
849.594	23355.38
849.841	23449.38
850.089	23578.38
850.336	23590.38
850.583	23474.38
850.831	23470.38
851.078	23335.38
851.325	23300.38
851.572	23399.38
851.819	23188.38
852.066	22669.38
852.313	22347.38
852.56	22073.38
852.807	22052.38
853.054	22018.38
853.301	22038.38
853.548	22074.38
853.794	22152.38
854.041	22238.38
854.288	22336.38
854.534	22449.38
854.781	22337.38
855.028	22457.38
855.274	22454.38
855.52	22391.38
855.767	22387.38
856.013	22436.38
856.26	22673.38
856.506	22087.38
856.752	22052.38
856.998	22089.38
857.244	22200.38
857.49	22260.38
857.736	22328.38
857.982	22415.38
858.228	22169.38
858.474	22024.38
858.72	21834.38
858.966	21634.38
859.212	21350.38
859.458	21125.38
859.703	20897.38
859.949	20662.38
860.195	20604.38
860.44	20486.38
860.686	20575.38
860.931	20521.38
861.177	20336.38
861.422	20236.38
861.667	20112.38
861.913	20007.38
862.158	20060.38
862.403	20226.38
862.648	20176.38
862.893	20181.38
863.138	20347.38
863.384	20084.38
863.629	20082.38
863.873	20103.38
864.118	19978.38
864.363	19935.38
864.608	19910.38
864.853	19838.38
865.098	19702.38
865.342	19631.38
865.587	19581.38
865.832	19589.38
866.076	19557.38
866.321	19466.38
866.565	19336.38
866.81	19239.38
867.054	19292.38
867.298	19208.38
867.543	19173.38
867.787	19142.38
868.031	19089.38
868.275	19006.38
868.519	18972.38
868.764	19051.38
869.008	18889.38
869.252	18977.38
869.496	18849.38
869.739	18805.38
869.983	18993.38
870.227	18961.38
870.471	18902.38
870.715	19020.38
870.958	18927.38
871.202	19121.38
871.446	19149.38
871.689	19223.38
871.933	19189.38
872.176	19201.38
872.42	19050.38
872.663	19060.38
872.906	19022.38
873.15	19057.38
873.393	19079.38
873.636	19135.38
873.879	18877.38
874.122	18724.38
874.366	18386.38
874.609	18216.38
874.852	17970.38
875.095	17894.38
875.337	17714.38
875.58	17635.38
875.823	17560.38
876.066	17491.38
876.309	17457.38
876.551	17312.38
876.794	17270.38
877.037	17284.38
877.279	17151.38
877.522	17112.38
877.764	17250.38
878.007	17034.38
878.249	17019.38
878.491	16928.38
878.734	16974.38
878.976	16790.38
879.218	16756.38
879.46	16740.38
879.702	16654.38
879.945	16403.38
880.187	16284.38
880.429	16200.38
880.671	16033.38
880.912	15992.38
881.154	15998.38
881.396	15839.38
881.638	15927.38
881.88	15949.38
882.121	15815.38
882.363	15899.38
882.605	15973.38
882.846	15886.38
883.088	15843.38
883.329	15952.38
883.571	16089.38
883.812	16298.38
884.053	16892.38
884.295	17334.38
884.536	17691.38
884.777	17572.38
885.018	17357.38
885.259	17198.38
885.5	16949.38
885.742	17214.38
885.982	16946.38
886.223	16705.38
886.464	16487.38
886.705	16302.38
886.946	16106.38
887.187	15627.38
887.428	15495.38
887.668	15157.38
887.909	14891.38
888.15	14629.38
888.39	14602.38
888.631	14510.38
888.871	14355.38
889.111	14282.38
889.352	14051.38
889.592	13964.38
889.833	13772.38
890.073	13744.38
890.313	13664.38
890.553	13491.38
890.793	13493.38
891.033	13391.38
891.273	13370.38
891.513	13252.38
891.753	13218.38
891.993	13224.38
892.233	13248.38
892.473	13303.38
892.713	13288.38
892.952	13345.38
893.192	13235.38
893.432	13277.38
893.671	13261.38
893.911	13150.38
894.15	13103.38
894.39	12855.38
894.629	12929.38
894.869	12855.38
895.108	12768.38
895.347	12695.38
895.587	12701.38
895.826	12570.38
896.065	12592.38
896.304	12590.38
896.543	12639.38
896.782	12524.38
897.021	12534.38
897.26	12428.38
897.499	12513.38
897.738	12473.38
897.977	12311.38
898.216	12181.38
898.454	12113.38
898.693	12116.38
898.932	12059.38
899.17	12016.38
899.409	11932.38
899.647	11935.38
899.886	11858.38
900.124	11916.38
900.363	11902.38
900.601	12000.38
900.839	12036.38
901.078	12131.38
901.316	12143.38
901.554	12258.38
901.792	12412.38
902.03	12300.38
902.268	12342.38
902.506	12362.38
902.744	12223.38
902.982	12096.38
903.22	11842.38
903.458	11713.38
903.695	11583.38
903.933	11334.38
904.171	11134.38
904.409	10968.38
904.646	10804.38
904.884	10630.38
905.121	10600.38
905.359	10463.38
905.596	10280.38
905.833	10195.38
906.071	10140.38
906.308	10222.38
906.545	10083.38
906.783	10044.38
907.02	10061.38
907.257	9938.38
907.494	9926.38
907.731	9952.38
907.968	9847.38
908.205	9795.38
908.442	9746.38
908.679	9724.38
908.915	9658.38
909.152	9637.38
909.389	9386.38
909.626	9375.38
909.862	9273.38
910.099	9315.38
910.335	9311.38
910.572	9154.38
910.808	9193.38
911.045	9153.38
911.281	9019.38
911.518	9119.38
911.754	8987.38
911.99	8992.38
912.226	8938.38
912.463	8835.38
912.699	8771.38
912.935	8737.38
913.171	8553.38
913.407	8530.38
913.643	8446.38
913.879	8480.38
914.114	8345.38
914.35	8269.38
914.586	8217.38
914.822	8091.38
915.057	8173.38
915.293	8014.38
915.529	7952.38
915.764	8057.38
916	8021.38
916.235	7979.38
916.471	7963.38
916.706	7813.38
916.941	7850.38
917.177	7894.38
917.412	7866.38
917.647	7782.38
917.882	7718.38
918.117	7835.38
918.352	7820.38
918.588	7818.38
918.823	7638.38
919.057	7644.38
919.292	7488.38
919.527	7514.38
919.762	7324.38
919.997	7397.38
920.232	7270.38
920.466	7207.38
920.701	7082.38
920.935	7064.38
921.17	7067.38
921.405	7024.38
921.639	6990.38
921.873	6948.38
922.108	6886.38
922.342	6950.38
922.576	6829.38
922.811	6798.38
923.045	6835.38
923.279	6830.38
923.513	6678.38
923.747	6733.38
923.981	6672.38
924.215	6599.38
924.449	6596.38
924.683	6496.38
924.917	6513.38
925.151	6456.38
925.385	6528.38
925.618	6446.38
925.852	6446.38
926.086	6298.38
926.319	6421.38
926.553	6381.38
926.786	6406.38
927.02	6355.38
927.253	6420.38
927.486	6373.38
927.72	6280.38
927.953	6347.38
928.186	6264.38
928.42	6303.38
928.653	6206.38
928.886	6193.38
929.119	6135.38
929.352	6089.38
929.585	6094.38
929.818	6021.38
930.051	6035.38
930.284	5939.38
930.516	5906.38
930.749	5866.38
930.982	5873.38
931.215	5820.38
931.447	5751.38
931.68	5729.38
931.912	5775.38
932.145	5721.38
932.377	5814.38
932.61	5918.38
932.842	5662.38
933.074	5738.38
933.307	5627.38
933.539	5750.38
933.771	5803.38
934.003	5750.38
934.236	5806.38
934.468	5752.38
934.7	5660.38
934.932	5640.38
935.164	5600.38
935.395	5582.38
935.627	5580.38
935.859	5613.38
936.091	5466.38
936.323	5516.38
936.554	5535.38
936.786	5477.38
937.017	5457.38
937.249	5454.38
937.481	5362.38
937.712	5422.38
937.943	5425.38
938.175	5462.38
938.406	5379.38
938.637	5480.38
938.869	5359.38
939.1	5408.38
939.331	5343.38
939.562	5316.38
939.793	5348.38
940.024	5281.38
940.255	5337.38
940.486	5227.38
940.717	5259.38
940.948	5190.38
941.179	5169.38
941.409	5147.38
941.64	5101.38
941.871	5128.38
942.102	5134.38
942.332	5132.38
942.563	5152.38
942.793	5150.38
943.024	5064.38
943.254	5085.38
943.484	5150.38
943.715	5144.38
943.945	5112.38
944.175	5027.38
944.405	5003.38
944.636	5032.38
944.866	5072.38
945.096	5066.38
945.326	4978.38
945.556	5025.38
945.786	5014.38
946.016	4911.38
946.245	4879.38
946.475	4925.38
946.705	4853.38
946.935	4845.38
947.164	4833.38
947.394	4764.38
947.624	4747.38
947.853	4792.38
948.083	4777.38
948.312	4724.38
948.542	4685.38
948.771	4580.38
949	4657.38
949.23	4619.38
949.459	4641.38
949.688	4699.38
949.917	4628.38
950.146	4645.38
950.375	4675.38
950.604	4615.38
950.833	4669.38
951.062	4633.38
951.291	4576.38
951.52	4522.38
951.749	4517.38
951.978	4480.38
952.206	4487.38
952.435	4506.38
952.664	4501.38
952.892	4497.38
953.121	4506.38
953.349	4465.38
953.578	4441.38
953.806	4406.38
954.035	4349.38
954.263	4346.38
954.491	4316.38
954.719	4329.38
954.948	4297.38
955.176	4254.38
955.404	4209.38
955.632	4276.38
955.86	4197.38
956.088	4231.38
956.316	4227.38
956.544	4212.38
956.772	4206.38
956.999	4151.38
957.227	4187.38
957.455	4051.38
957.683	4047.38
957.91	4030.38
958.138	3990.38
958.365	4030.38
958.593	3986.38
958.82	3910.38
959.048	4035.38
959.275	3957.38
959.502	3942.38
959.73	3944.38
959.957	3970.38
960.184	3952.38
960.411	3909.38
960.638	3949.38
960.865	3891.38
961.092	3927.38
961.319	3819.38
961.546	3900.38
961.773	3928.38
962	3853.38
962.227	3848.38
962.454	3841.38
962.68	3801.38
962.907	3815.38
963.134	3754.38
963.36	3805.38
963.587	3795.38
963.813	3697.38
964.04	3732.38
964.266	3629.38
964.493	3724.38
964.719	3711.38
964.945	3679.38
965.171	3581.38
965.398	3639.38
965.624	3636.38
965.85	3503.38
966.076	3533.38
966.302	3591.38
966.528	3519.38
966.754	3519.38
966.98	3546.38
967.206	3487.38
967.431	3453.38
967.657	3478.38
967.883	3484.38
968.109	3482.38
968.334	3386.38
968.56	3365.38
968.785	3369.38
969.011	3374.38
969.236	3416.38
969.462	3352.38
969.687	3369.38
969.912	3362.38
970.138	3381.38
970.363	3344.38
970.588	3326.38
970.813	3278.38
971.038	3256.38
971.263	3283.38
971.488	3263.38
971.713	3242.38
971.938	3275.38
972.163	3138.38
972.388	3188.38
972.613	3177.38
972.838	3191.38
973.062	3166.38
973.287	3179.38
973.512	3101.38
973.736	3144.38
973.961	3099.38
974.185	3065.38
974.41	3110.38
974.634	2999.38
974.858	2966.38
975.083	2992.38
975.307	3024.38
975.531	2963.38
975.755	2895.38
975.98	2920.38
976.204	2863.38
976.428	2836.38
976.652	2825.38
976.876	2827.38
977.1	2866.38
977.324	2839.38
977.547	2852.38
977.771	2879.38
977.995	2818.38
978.219	2726.38
978.442	2888.38
978.666	2780.38
978.89	2781.38
979.113	2784.38
979.337	2774.38
979.56	2742.38
979.783	2789.38
980.007	2703.38
980.23	2695.38
980.453	2728.38
980.677	2741.38
980.9	2717.38
981.123	2630.38
981.346	2667.38
981.569	2673.38
981.792	2711.38
982.015	2639.38
982.238	2593.38
982.461	2624.38
982.684	2594.38
982.907	2549.38
983.129	2515.38
983.352	2572.38
983.575	2556.38
983.797	2548.38
984.02	2505.38
984.242	2489.38
984.465	2494.38
984.687	2515.38
984.91	2538.38
985.132	2495.38
985.354	2494.38
985.577	2480.38
985.799	2463.38
986.021	2417.38
986.243	2427.38
986.465	2430.38
986.687	2457.38
986.909	2498.38
987.131	2421.38
987.353	2396.38
987.575	2421.38
987.797	2351.38
988.019	2306.38
988.241	2374.38
988.462	2327.38
988.684	2383.38
988.906	2418.38
989.127	2407.38
989.349	2289.38
989.57	2368.38
989.792	2360.38
990.013	2355.38
990.234	2350.38
990.456	2401.38
990.677	2339.38
990.898	2297.38
991.119	2301.38
991.341	2278.38
991.562	2212.38
991.783	2296.38
992.004	2209.38
992.225	2209.38
992.446	2254.38
992.667	2126.38
992.887	2230.38
993.108	2118.38
993.329	2243.38
993.55	2186.38
993.77	2098.38
993.991	2124.38
994.212	2134.38
994.432	2116.38
994.653	2141.38
994.873	2133.38
995.093	2011.38
995.314	2057.38
995.534	2145.38
995.754	2108.38
995.975	2141.38
996.195	2046.38
996.415	2098.38
996.635	2060.38
996.855	2083.38
997.075	2064.38
997.295	2031.38
997.515	2050.38
997.735	2064.38
997.955	2089.38
998.174	2069.38
998.394	2015.38
998.614	2087.38
998.834	2002.38
999.053	2098.38
999.273	2056.38
999.492	2074.38
999.712	1975.38
999.931	1953.38
1000.151	2032.38
1000.37	1979.38
1000.589	2018.38
1000.809	1952.38
1001.028	2036.38
1001.247	1974.38
1001.466	1877.38
1001.685	1994.38
1001.904	1904.38
1002.123	1912.38
1002.342	1915.38
1002.561	1870.38
1002.78	1913.38
1002.999	1955.38
1003.218	1896.38
1003.436	1862.38
1003.655	1912.38
1003.874	1860.38
1004.092	1872.38
1004.311	1909.38
1004.53	1869.38
1004.748	1912.38
1004.966	1887.38
1005.185	1920.38
1005.403	1889.38
1005.622	1857.38
1005.84	1930.38
1006.058	1840.38
1006.276	1862.38
1006.494	2354.38
1006.712	1875.38
1006.931	1931.38
1007.149	1876.38
1007.367	1870.38
1007.584	1889.38
1007.802	1942.38
1008.02	1870.38
1008.238	1994.38
1008.456	2016.38
1008.673	1874.38
1008.891	1998.38
1009.109	1986.38
1009.326	2056.38
1009.544	2185.38
1009.761	2103.38
1009.979	2255.38
1010.196	2303.38
1010.413	2460.38
1010.631	2586.38
1010.848	2660.38
1011.065	2678.38
1011.282	2635.38
1011.5	2571.38
1011.717	2661.38
1011.934	2583.38
1012.151	2609.38
1012.368	2593.38
1012.585	2540.38
1012.801	2565.38
1013.018	2582.38
1013.235	2505.38
1013.452	2541.38
1013.669	2577.38
1013.885	2565.38
1014.102	2637.38
1014.318	2564.38
1014.535	2538.38
1014.751	2569.38
1014.968	2541.38
1015.184	2537.38
1015.401	2457.38
1015.617	2495.38
1015.833	2401.38
1016.049	2407.38
1016.266	2375.38
1016.482	2349.38
1016.698	2295.38
1016.914	2318.38
1017.13	2263.38
1017.346	2238.38
1017.562	2307.38
1017.778	2212.38
1017.993	2179.38
1018.209	2210.38
1018.425	2193.38
1018.641	2157.38
1018.856	2102.38
1019.072	2176.38
1019.288	2158.38
1019.503	2142.38
1019.719	2070.38
1019.934	2034.38
1020.149	2122.38
1020.365	2046.38
1020.58	1982.38
1020.795	1975.38
1021.011	1940.38
1021.226	1871.38
1021.441	1876.38
1021.656	1747.38
1021.871	1680.38
1022.086	1694.38
1022.301	1651.38
1022.516	1616.38
1022.731	1678.38
1022.946	1573.38
1023.16	1559.38
1023.375	1504.38
1023.59	1466.38
1023.804	1404.38
1024.019	1494.38
1024.234	1364.38
1024.448	1406.38
1024.663	1309.38
1024.877	1289.38
1025.092	1290.38
1025.306	1284.38
1025.52	1164.38
1025.734	1266.38
1025.949	1179.38
1026.163	1110.38
1026.377	1031.38
1026.591	1114.38
1026.805	1042.38
1027.019	1019.38
1027.233	963.38
1027.447	927.38
1027.661	1033.38
1027.875	948.38
1028.088	949.38
1028.302	883.38
1028.516	860.38
1028.73	848.38
1028.943	832.38
1029.157	767.38
1029.37	710.38
1029.584	2.38
1029.797	-0.62
1030.011	-2.62
1030.224	-1.62
