Data from QEP037381__88__14-54-35-876.txt Node

Date: Wed Dec 21 14:54:35 EST 2022
User: dcclab
Spectrometer: QEP03738
Trigger mode: 4
Integration Time (sec): 1.000000E1
Scans to average: 1
Electric dark correction enabled: true
Nonlinearity correction enabled: false
Boxcar width: 0
XAxis mode: Wavelengths
Number of Pixels in Spectrum: 1044
>>>>>Begin Spectral Data<<<<<
784.041	11.62
784.3	-1.38
784.558	-2.38
784.817	-7.38
785.075	104472.62
785.334	17178.62
785.592	7873.62
785.851	5419.62
786.109	4076.62
786.368	3243.62
786.626	2622.62
786.884	2183.62
787.143	1803.62
787.401	1511.62
787.659	1372.62
787.917	1193.62
788.175	1075.62
788.433	962.62
788.691	879.62
788.949	796.62
789.207	769.62
789.465	669.62
789.723	651.62
789.98	603.62
790.238	618.62
790.496	597.62
790.753	552.62
791.011	601.62
791.268	546.62
791.526	521.62
791.783	548.62
792.041	535.62
792.298	435.62
792.556	507.62
792.813	498.62
793.07	469.62
793.327	440.62
793.584	529.62
793.841	457.62
794.099	482.62
794.356	524.62
794.613	430.62
794.869	476.62
795.126	430.62
795.383	410.62
795.64	439.62
795.897	398.62
796.153	465.62
796.41	436.62
796.667	417.62
796.923	426.62
797.18	427.62
797.436	472.62
797.693	418.62
797.949	480.62
798.206	493.62
798.462	424.62
798.718	482.62
798.974	438.62
799.231	499.62
799.487	479.62
799.743	494.62
799.999	511.62
800.255	522.62
800.511	500.62
800.767	535.62
801.023	528.62
801.279	574.62
801.534	608.62
801.79	678.62
802.046	665.62
802.302	816.62
802.557	923.62
802.813	1188.62
803.068	1468.62
803.324	2007.62
803.579	2741.62
803.835	3762.62
804.09	5172.62
804.345	6676.62
804.601	8400.62
804.856	10187.62
805.111	11739.62
805.366	12954.62
805.621	13857.62
805.876	14389.62
806.131	14814.62
806.386	15146.62
806.641	15447.62
806.896	15729.62
807.151	15965.62
807.406	16155.62
807.661	16467.62
807.915	16875.62
808.17	17166.62
808.425	17273.62
808.679	17359.62
808.934	17678.62
809.188	17744.62
809.443	17952.62
809.697	18173.62
809.951	18334.62
810.206	18489.62
810.46	18741.62
810.714	18815.62
810.968	19014.62
811.223	19211.62
811.477	19322.62
811.731	19382.62
811.985	19548.62
812.239	19562.62
812.493	19757.62
812.747	19755.62
813	19759.62
813.254	19886.62
813.508	19953.62
813.762	20137.62
814.015	20129.62
814.269	20413.62
814.522	20570.62
814.776	20777.62
815.03	21062.62
815.283	21413.62
815.536	21769.62
815.79	22068.62
816.043	22489.62
816.296	22732.62
816.55	22884.62
816.803	23147.62
817.056	23611.62
817.309	23828.62
817.562	24027.62
817.815	24270.62
818.068	24515.62
818.321	24667.62
818.574	25055.62
818.827	25371.62
819.079	25640.62
819.332	26181.62
819.585	26471.62
819.838	26759.62
820.09	26776.62
820.343	27124.62
820.595	27248.62
820.848	27437.62
821.1	27522.62
821.353	27433.62
821.605	27526.62
821.857	27501.62
822.11	27275.62
822.362	27177.62
822.614	27250.62
822.866	27241.62
823.118	27182.62
823.37	27387.62
823.622	27367.62
823.874	27606.62
824.126	27811.62
824.378	27583.62
824.63	27773.62
824.882	27819.62
825.134	27870.62
825.385	27808.62
825.637	27624.62
825.888	27709.62
826.14	27582.62
826.392	27451.62
826.643	27335.62
826.895	27284.62
827.146	27306.62
827.397	27141.62
827.649	27261.62
827.9	27150.62
828.151	27116.62
828.402	27214.62
828.653	27326.62
828.905	27369.62
829.156	27475.62
829.407	27516.62
829.658	27541.62
829.909	27716.62
830.159	27716.62
830.41	27579.62
830.661	27313.62
830.912	27179.62
831.162	27057.62
831.413	27120.62
831.664	27146.62
831.914	26950.62
832.165	26985.62
832.415	26953.62
832.666	26951.62
832.916	27151.62
833.167	27025.62
833.417	27159.62
833.667	26910.62
833.917	26740.62
834.168	26934.62
834.418	26656.62
834.668	26680.62
834.918	26483.62
835.168	26495.62
835.418	26323.62
835.668	26230.62
835.918	26171.62
836.167	26097.62
836.417	26059.62
836.667	26008.62
836.917	26110.62
837.166	26123.62
837.416	26052.62
837.666	26127.62
837.915	26128.62
838.165	26029.62
838.414	25904.62
838.663	25893.62
838.913	26033.62
839.162	25910.62
839.411	25843.62
839.661	25773.62
839.91	25769.62
840.159	25760.62
840.408	25653.62
840.657	25805.62
840.906	25852.62
841.155	25791.62
841.404	25627.62
841.653	25958.62
841.902	25827.62
842.15	25977.62
842.399	25998.62
842.648	25961.62
842.897	25885.62
843.145	25676.62
843.394	25494.62
843.642	25211.62
843.891	25256.62
844.139	25131.62
844.388	24958.62
844.636	24807.62
844.884	24970.62
845.133	24762.62
845.381	24769.62
845.629	24795.62
845.877	24817.62
846.125	24794.62
846.373	24782.62
846.621	24639.62
846.869	24626.62
847.117	24442.62
847.365	24356.62
847.613	24236.62
847.861	24216.62
848.108	24217.62
848.356	24190.62
848.604	24090.62
848.851	24150.62
849.099	24160.62
849.346	24164.62
849.594	24377.62
849.841	24524.62
850.089	24513.62
850.336	24455.62
850.583	24522.62
850.831	24494.62
851.078	24310.62
851.325	24390.62
851.572	24350.62
851.819	24288.62
852.066	23664.62
852.313	23182.62
852.56	23063.62
852.807	23043.62
853.054	22957.62
853.301	22986.62
853.548	22994.62
853.794	23094.62
854.041	23135.62
854.288	23268.62
854.534	23483.62
854.781	23470.62
855.028	23399.62
855.274	23391.62
855.52	23238.62
855.767	23148.62
856.013	23343.62
856.26	23487.62
856.506	23147.62
856.752	22905.62
856.998	23033.62
857.244	23077.62
857.49	23201.62
857.736	23256.62
857.982	23308.62
858.228	23256.62
858.474	22996.62
858.72	22720.62
858.966	22507.62
859.212	22330.62
859.458	22043.62
859.703	21849.62
859.949	21600.62
860.195	21567.62
860.44	21409.62
860.686	21415.62
860.931	21402.62
861.177	21169.62
861.422	21059.62
861.667	20916.62
861.913	21008.62
862.158	21079.62
862.403	21061.62
862.648	21003.62
862.893	21135.62
863.138	21088.62
863.384	21016.62
863.629	20997.62
863.873	20946.62
864.118	20952.62
864.363	20911.62
864.608	20842.62
864.853	20659.62
865.098	20512.62
865.342	20524.62
865.587	20449.62
865.832	20505.62
866.076	20435.62
866.321	20239.62
866.565	20339.62
866.81	20228.62
867.054	20136.62
867.298	20057.62
867.543	19970.62
867.787	20015.62
868.031	19932.62
868.275	19965.62
868.519	19834.62
868.764	19791.62
869.008	19835.62
869.252	19848.62
869.496	19783.62
869.739	19719.62
869.983	19859.62
870.227	19839.62
870.471	19686.62
870.715	19992.62
870.958	19971.62
871.202	19898.62
871.446	20061.62
871.689	19995.62
871.933	20023.62
872.176	19984.62
872.42	19895.62
872.663	19871.62
872.906	19874.62
873.15	19808.62
873.393	19862.62
873.636	19871.62
873.879	19652.62
874.122	19355.62
874.366	19187.62
874.609	18924.62
874.852	18757.62
875.095	18655.62
875.337	18554.62
875.58	18405.62
875.823	18422.62
876.066	18274.62
876.309	18285.62
876.551	18205.62
876.794	18068.62
877.037	18054.62
877.279	17950.62
877.522	17924.62
877.764	18005.62
878.007	17854.62
878.249	17769.62
878.491	17871.62
878.734	17812.62
878.976	17761.62
879.218	17627.62
879.46	17554.62
879.702	17394.62
879.945	17284.62
880.187	17059.62
880.429	17066.62
880.671	16778.62
880.912	16952.62
881.154	16793.62
881.396	16708.62
881.638	16836.62
881.88	16772.62
882.121	16735.62
882.363	16719.62
882.605	16680.62
882.846	16770.62
883.088	16741.62
883.329	16627.62
883.571	16794.62
883.812	17029.62
884.053	17488.62
884.295	17884.62
884.536	18202.62
884.777	17976.62
885.018	17884.62
885.259	17716.62
885.5	17622.62
885.742	17794.62
885.982	17394.62
886.223	17475.62
886.464	17037.62
886.705	17017.62
886.946	16755.62
887.187	16392.62
887.428	16077.62
887.668	15884.62
887.909	15637.62
888.15	15324.62
888.39	15315.62
888.631	15295.62
888.871	15069.62
889.111	14899.62
889.352	14775.62
889.592	14661.62
889.833	14554.62
890.073	14477.62
890.313	14443.62
890.553	14254.62
890.793	14227.62
891.033	14196.62
891.273	14015.62
891.513	14013.62
891.753	13970.62
891.993	13964.62
892.233	13939.62
892.473	14146.62
892.713	14010.62
892.952	13929.62
893.192	14070.62
893.432	13955.62
893.671	13998.62
893.911	13810.62
894.15	13786.62
894.39	13674.62
894.629	13683.62
894.869	13532.62
895.108	13504.62
895.347	13329.62
895.587	13369.62
895.826	13277.62
896.065	13299.62
896.304	13277.62
896.543	13263.62
896.782	13139.62
897.021	13197.62
897.26	13166.62
897.499	13124.62
897.738	13106.62
897.977	13024.62
898.216	12897.62
898.454	12791.62
898.693	12724.62
898.932	12706.62
899.17	12563.62
899.409	12601.62
899.647	12555.62
899.886	12586.62
900.124	12557.62
900.363	12570.62
900.601	12542.62
900.839	12678.62
901.078	12694.62
901.316	12771.62
901.554	12836.62
901.792	13018.62
902.03	12918.62
902.268	12903.62
902.506	12878.62
902.744	12776.62
902.982	12650.62
903.22	12420.62
903.458	12401.62
903.695	12173.62
903.933	11966.62
904.171	11679.62
904.409	11486.62
904.646	11418.62
904.884	11267.62
905.121	11186.62
905.359	11050.62
905.596	10921.62
905.833	10787.62
906.071	10738.62
906.308	10768.62
906.545	10696.62
906.783	10571.62
907.02	10562.62
907.257	10563.62
907.494	10557.62
907.731	10601.62
907.968	10537.62
908.205	10400.62
908.442	10338.62
908.679	10234.62
908.915	10238.62
909.152	10153.62
909.389	9955.62
909.626	9951.62
909.862	9935.62
910.099	9774.62
910.335	9838.62
910.572	9697.62
910.808	9776.62
911.045	9638.62
911.281	9579.62
911.518	9667.62
911.754	9534.62
911.99	9533.62
912.226	9473.62
912.463	9407.62
912.699	9280.62
912.935	9270.62
913.171	9144.62
913.407	8962.62
913.643	9004.62
913.879	8892.62
914.114	8862.62
914.35	8752.62
914.586	8698.62
914.822	8616.62
915.057	8609.62
915.293	8430.62
915.529	8401.62
915.764	8424.62
916	8529.62
916.235	8438.62
916.471	8434.62
916.706	8293.62
916.941	8302.62
917.177	8277.62
917.412	8349.62
917.647	8309.62
917.882	8208.62
918.117	8338.62
918.352	8297.62
918.588	8245.62
918.823	8123.62
919.057	8116.62
919.292	7896.62
919.527	7951.62
919.762	7856.62
919.997	7766.62
920.232	7628.62
920.466	7682.62
920.701	7504.62
920.935	7525.62
921.17	7451.62
921.405	7319.62
921.639	7405.62
921.873	7346.62
922.108	7386.62
922.342	7338.62
922.576	7226.62
922.811	7303.62
923.045	7295.62
923.279	7280.62
923.513	7099.62
923.747	7151.62
923.981	7085.62
924.215	7028.62
924.449	6996.62
924.683	6905.62
924.917	6892.62
925.151	6919.62
925.385	6898.62
925.618	6891.62
925.852	6872.62
926.086	6744.62
926.319	6806.62
926.553	6746.62
926.786	6806.62
927.02	6745.62
927.253	6783.62
927.486	6747.62
927.72	6687.62
927.953	6738.62
928.186	6652.62
928.42	6674.62
928.653	6619.62
928.886	6564.62
929.119	6566.62
929.352	6519.62
929.585	6479.62
929.818	6373.62
930.051	6410.62
930.284	6328.62
930.516	6236.62
930.749	6192.62
930.982	6211.62
931.215	6156.62
931.447	6143.62
931.68	6119.62
931.912	6097.62
932.145	6062.62
932.377	6068.62
932.61	6223.62
932.842	6039.62
933.074	6064.62
933.307	6027.62
933.539	6146.62
933.771	6108.62
934.003	6039.62
934.236	6075.62
934.468	6127.62
934.7	5957.62
934.932	6049.62
935.164	5948.62
935.395	5931.62
935.627	5935.62
935.859	5936.62
936.091	5850.62
936.323	5911.62
936.554	5944.62
936.786	5774.62
937.017	5791.62
937.249	5787.62
937.481	5729.62
937.712	5794.62
937.943	5732.62
938.175	5710.62
938.406	5740.62
938.637	5746.62
938.869	5619.62
939.1	5663.62
939.331	5638.62
939.562	5686.62
939.793	5652.62
940.024	5635.62
940.255	5626.62
940.486	5568.62
940.717	5484.62
940.948	5491.62
941.179	5492.62
941.409	5473.62
941.64	5451.62
941.871	5455.62
942.102	5381.62
942.332	5415.62
942.563	5450.62
942.793	5367.62
943.024	5408.62
943.254	5436.62
943.484	5495.62
943.715	5414.62
943.945	5377.62
944.175	5371.62
944.405	5340.62
944.636	5321.62
944.866	5364.62
945.096	5353.62
945.326	5311.62
945.556	5339.62
945.786	5278.62
946.016	5302.62
946.245	5194.62
946.475	5173.62
946.705	5135.62
946.935	5173.62
947.164	5192.62
947.394	5021.62
947.624	5053.62
947.853	5045.62
948.083	5025.62
948.312	5009.62
948.542	4914.62
948.771	4837.62
949	4907.62
949.23	4895.62
949.459	4897.62
949.688	4953.62
949.917	4906.62
950.146	4866.62
950.375	4943.62
950.604	4865.62
950.833	4915.62
951.062	4945.62
951.291	4839.62
951.52	4822.62
951.749	4821.62
951.978	4766.62
952.206	4748.62
952.435	4746.62
952.664	4764.62
952.892	4794.62
953.121	4730.62
953.349	4725.62
953.578	4722.62
953.806	4677.62
954.035	4630.62
954.263	4661.62
954.491	4551.62
954.719	4561.62
954.948	4534.62
955.176	4536.62
955.404	4497.62
955.632	4495.62
955.86	4490.62
956.088	4504.62
956.316	4404.62
956.544	4458.62
956.772	4399.62
956.999	4331.62
957.227	4444.62
957.455	4294.62
957.683	4319.62
957.91	4269.62
958.138	4288.62
958.365	4226.62
958.593	4221.62
958.82	4164.62
959.048	4235.62
959.275	4185.62
959.502	4184.62
959.73	4149.62
959.957	4201.62
960.184	4192.62
960.411	4119.62
960.638	4220.62
960.865	4118.62
961.092	4148.62
961.319	4059.62
961.546	4158.62
961.773	4133.62
962	4078.62
962.227	4132.62
962.454	4070.62
962.68	4044.62
962.907	4057.62
963.134	3984.62
963.36	4016.62
963.587	4011.62
963.813	3934.62
964.04	3955.62
964.266	3870.62
964.493	3952.62
964.719	3888.62
964.945	3921.62
965.171	3780.62
965.398	3841.62
965.624	3820.62
965.85	3713.62
966.076	3756.62
966.302	3758.62
966.528	3689.62
966.754	3708.62
966.98	3749.62
967.206	3722.62
967.431	3644.62
967.657	3703.62
967.883	3664.62
968.109	3652.62
968.334	3622.62
968.56	3588.62
968.785	3607.62
969.011	3547.62
969.236	3609.62
969.462	3579.62
969.687	3564.62
969.912	3598.62
970.138	3610.62
970.363	3536.62
970.588	3543.62
970.813	3512.62
971.038	3458.62
971.263	3462.62
971.488	3486.62
971.713	3534.62
971.938	3465.62
972.163	3385.62
972.388	3376.62
972.613	3368.62
972.838	3384.62
973.062	3339.62
973.287	3339.62
973.512	3255.62
973.736	3284.62
973.961	3284.62
974.185	3241.62
974.41	3291.62
974.634	3167.62
974.858	3191.62
975.083	3180.62
975.307	3194.62
975.531	3117.62
975.755	3080.62
975.98	3094.62
976.204	3025.62
976.428	3002.62
976.652	3034.62
976.876	3027.62
977.1	3033.62
977.324	3006.62
977.547	3010.62
977.771	3014.62
977.995	2975.62
978.219	2938.62
978.442	3036.62
978.666	2996.62
978.89	2942.62
979.113	2986.62
979.337	2943.62
979.56	2912.62
979.783	2971.62
980.007	2871.62
980.23	2890.62
980.453	2836.62
980.677	2902.62
980.9	2871.62
981.123	2792.62
981.346	2832.62
981.569	2816.62
981.792	2842.62
982.015	2805.62
982.238	2765.62
982.461	2770.62
982.684	2711.62
982.907	2707.62
983.129	2694.62
983.352	2747.62
983.575	2710.62
983.797	2657.62
984.02	2612.62
984.242	2619.62
984.465	2612.62
984.687	2662.62
984.91	2675.62
985.132	2670.62
985.354	2677.62
985.577	2616.62
985.799	2586.62
986.021	2504.62
986.243	2545.62
986.465	2566.62
986.687	2576.62
986.909	2592.62
987.131	2541.62
987.353	2503.62
987.575	2535.62
987.797	2502.62
988.019	2439.62
988.241	2508.62
988.462	2470.62
988.684	2484.62
988.906	2513.62
989.127	2508.62
989.349	2420.62
989.57	2457.62
989.792	2499.62
990.013	2483.62
990.234	2490.62
990.456	2521.62
990.677	2453.62
990.898	2401.62
991.119	2409.62
991.341	2398.62
991.562	2348.62
991.783	2388.62
992.004	2326.62
992.225	2287.62
992.446	2371.62
992.667	2269.62
992.887	2308.62
993.108	2249.62
993.329	2345.62
993.55	2300.62
993.77	2206.62
993.991	2210.62
994.212	2231.62
994.432	2241.62
994.653	2243.62
994.873	2237.62
995.093	2081.62
995.314	2123.62
995.534	2221.62
995.754	2224.62
995.975	2227.62
996.195	2126.62
996.415	2177.62
996.635	2156.62
996.855	2211.62
997.075	2150.62
997.295	2122.62
997.515	2117.62
997.735	2186.62
997.955	2182.62
998.174	2133.62
998.394	2126.62
998.614	2132.62
998.834	2108.62
999.053	2156.62
999.273	2134.62
999.492	2157.62
999.712	2105.62
999.931	2081.62
1000.151	2077.62
1000.37	2063.62
1000.589	2121.62
1000.809	2022.62
1001.028	2128.62
1001.247	2059.62
1001.466	1979.62
1001.685	2088.62
1001.904	2005.62
1002.123	2001.62
1002.342	2006.62
1002.561	1944.62
1002.78	1954.62
1002.999	2006.62
1003.218	1970.62
1003.436	1951.62
1003.655	1981.62
1003.874	1920.62
1004.092	1907.62
1004.311	1973.62
1004.53	1928.62
1004.748	2002.62
1004.966	1935.62
1005.185	1970.62
1005.403	1917.62
1005.622	1908.62
1005.84	1982.62
1006.058	1896.62
1006.276	1918.62
1006.494	2405.62
1006.712	1912.62
1006.931	1977.62
1007.149	1892.62
1007.367	1894.62
1007.584	1942.62
1007.802	1980.62
1008.02	1936.62
1008.238	2066.62
1008.456	2077.62
1008.673	1910.62
1008.891	2057.62
1009.109	2037.62
1009.326	2101.62
1009.544	2203.62
1009.761	2130.62
1009.979	2248.62
1010.196	2336.62
1010.413	2438.62
1010.631	2587.62
1010.848	2665.62
1011.065	2687.62
1011.282	2591.62
1011.5	2540.62
1011.717	2632.62
1011.934	2581.62
1012.151	2579.62
1012.368	2575.62
1012.585	2502.62
1012.801	2532.62
1013.018	2515.62
1013.235	2499.62
1013.452	2522.62
1013.669	2572.62
1013.885	2531.62
1014.102	2582.62
1014.318	2567.62
1014.535	2516.62
1014.751	2539.62
1014.968	2523.62
1015.184	2518.62
1015.401	2438.62
1015.617	2447.62
1015.833	2356.62
1016.049	2404.62
1016.266	2339.62
1016.482	2343.62
1016.698	2269.62
1016.914	2287.62
1017.13	2233.62
1017.346	2214.62
1017.562	2276.62
1017.778	2202.62
1017.993	2151.62
1018.209	2223.62
1018.425	2186.62
1018.641	2151.62
1018.856	2111.62
1019.072	2151.62
1019.288	2168.62
1019.503	2118.62
1019.719	2074.62
1019.934	2051.62
1020.149	2128.62
1020.365	2032.62
1020.58	1977.62
1020.795	2012.62
1021.011	1922.62
1021.226	1890.62
1021.441	1897.62
1021.656	1782.62
1021.871	1696.62
1022.086	1693.62
1022.301	1658.62
1022.516	1632.62
1022.731	1703.62
1022.946	1601.62
1023.16	1546.62
1023.375	1510.62
1023.59	1484.62
1023.804	1439.62
1024.019	1516.62
1024.234	1367.62
1024.448	1389.62
1024.663	1327.62
1024.877	1302.62
1025.092	1351.62
1025.306	1304.62
1025.52	1204.62
1025.734	1288.62
1025.949	1231.62
1026.163	1162.62
1026.377	1104.62
1026.591	1121.62
1026.805	1052.62
1027.019	1030.62
1027.233	999.62
1027.447	954.62
1027.661	1013.62
1027.875	975.62
1028.088	960.62
1028.302	913.62
1028.516	870.62
1028.73	882.62
1028.943	834.62
1029.157	782.62
1029.37	729.62
1029.584	-2.38
1029.797	0.62
1030.011	1.62
1030.224	-0.38
