Data from QEP037381__97__14-56-05-876.txt Node

Date: Wed Dec 21 14:56:05 EST 2022
User: dcclab
Spectrometer: QEP03738
Trigger mode: 4
Integration Time (sec): 1.000000E1
Scans to average: 1
Electric dark correction enabled: true
Nonlinearity correction enabled: false
Boxcar width: 0
XAxis mode: Wavelengths
Number of Pixels in Spectrum: 1044
>>>>>Begin Spectral Data<<<<<
784.041	15.5
784.3	0.5
784.558	-4.5
784.817	-3.5
785.075	104394.5
785.334	17401.5
785.592	7810.5
785.851	5362.5
786.109	4016.5
786.368	3128.5
786.626	2501.5
786.884	2072.5
787.143	1727.5
787.401	1419.5
787.659	1294.5
787.917	1106.5
788.175	1030.5
788.433	883.5
788.691	808.5
788.949	766.5
789.207	726.5
789.465	635.5
789.723	628.5
789.98	563.5
790.238	613.5
790.496	582.5
790.753	546.5
791.011	592.5
791.268	520.5
791.526	509.5
791.783	520.5
792.041	526.5
792.298	425.5
792.556	507.5
792.813	478.5
793.07	430.5
793.327	451.5
793.584	517.5
793.841	437.5
794.099	462.5
794.356	524.5
794.613	426.5
794.869	468.5
795.126	417.5
795.383	414.5
795.64	434.5
795.897	380.5
796.153	431.5
796.41	430.5
796.667	410.5
796.923	419.5
797.18	416.5
797.436	444.5
797.693	384.5
797.949	457.5
798.206	482.5
798.462	399.5
798.718	459.5
798.974	433.5
799.231	480.5
799.487	463.5
799.743	466.5
799.999	499.5
800.255	479.5
800.511	460.5
800.767	502.5
801.023	487.5
801.279	512.5
801.534	565.5
801.79	592.5
802.046	625.5
802.302	753.5
802.557	821.5
802.813	1034.5
803.068	1204.5
803.324	1676.5
803.579	2218.5
803.835	3009.5
804.09	4082.5
804.345	5272.5
804.601	6537.5
804.856	7930.5
805.111	8993.5
805.366	9884.5
805.621	10617.5
805.876	11113.5
806.131	11437.5
806.386	11698.5
806.641	11875.5
806.896	12047.5
807.151	12331.5
807.406	12444.5
807.661	12759.5
807.915	12876.5
808.17	13140.5
808.425	13377.5
808.679	13440.5
808.934	13564.5
809.188	13644.5
809.443	13762.5
809.697	13991.5
809.951	14061.5
810.206	14156.5
810.46	14380.5
810.714	14419.5
810.968	14626.5
811.223	14729.5
811.477	14935.5
811.731	14913.5
811.985	15084.5
812.239	15013.5
812.493	15197.5
812.747	15093.5
813	15198.5
813.254	15271.5
813.508	15353.5
813.762	15451.5
814.015	15453.5
814.269	15601.5
814.522	15740.5
814.776	15848.5
815.03	16072.5
815.283	16387.5
815.536	16637.5
815.79	16861.5
816.043	17109.5
816.296	17452.5
816.55	17584.5
816.803	17782.5
817.056	17950.5
817.309	18234.5
817.562	18429.5
817.815	18487.5
818.068	18691.5
818.321	18833.5
818.574	18989.5
818.827	19296.5
819.079	19620.5
819.332	20110.5
819.585	20187.5
819.838	20457.5
820.09	20552.5
820.343	20649.5
820.595	20704.5
820.848	20756.5
821.1	20897.5
821.353	20968.5
821.605	20984.5
821.857	20837.5
822.11	20757.5
822.362	20626.5
822.614	20695.5
822.866	20631.5
823.118	20663.5
823.37	20894.5
823.622	20925.5
823.874	20998.5
824.126	21055.5
824.378	21068.5
824.63	21133.5
824.882	21188.5
825.134	21200.5
825.385	21047.5
825.637	21023.5
825.888	20983.5
826.14	20886.5
826.392	20895.5
826.643	20676.5
826.895	20666.5
827.146	20603.5
827.397	20618.5
827.649	20588.5
827.9	20477.5
828.151	20568.5
828.402	20641.5
828.653	20634.5
828.905	20745.5
829.156	20839.5
829.407	20773.5
829.658	20896.5
829.909	21031.5
830.159	21221.5
830.41	20995.5
830.661	20868.5
830.912	20572.5
831.162	20537.5
831.413	20683.5
831.664	20628.5
831.914	20560.5
832.165	20525.5
832.415	20536.5
832.666	20426.5
832.916	20616.5
833.167	20488.5
833.417	20583.5
833.667	20420.5
833.917	20371.5
834.168	20349.5
834.418	20251.5
834.668	20147.5
834.918	20134.5
835.168	20030.5
835.418	19942.5
835.668	19854.5
835.918	19911.5
836.167	19844.5
836.417	19646.5
836.667	19735.5
836.917	19827.5
837.166	19731.5
837.416	19762.5
837.666	19828.5
837.915	19827.5
838.165	19820.5
838.414	19730.5
838.663	19716.5
838.913	19654.5
839.162	19650.5
839.411	19702.5
839.661	19651.5
839.91	19627.5
840.159	19599.5
840.408	19615.5
840.657	19659.5
840.906	19732.5
841.155	19715.5
841.404	19645.5
841.653	19732.5
841.902	19732.5
842.15	19760.5
842.399	19868.5
842.648	19825.5
842.897	19671.5
843.145	19598.5
843.394	19392.5
843.642	19334.5
843.891	19317.5
844.139	19189.5
844.388	18999.5
844.636	18889.5
844.884	18925.5
845.133	18914.5
845.381	18963.5
845.629	18997.5
845.877	18851.5
846.125	18883.5
846.373	18928.5
846.621	18772.5
846.869	18759.5
847.117	18610.5
847.365	18566.5
847.613	18560.5
847.861	18502.5
848.108	18566.5
848.356	18474.5
848.604	18406.5
848.851	18426.5
849.099	18426.5
849.346	18425.5
849.594	18609.5
849.841	18619.5
850.089	18707.5
850.336	18793.5
850.583	18919.5
850.831	18818.5
851.078	18674.5
851.325	18753.5
851.572	18840.5
851.819	18654.5
852.066	18217.5
852.313	18025.5
852.56	17650.5
852.807	17658.5
853.054	17646.5
853.301	17644.5
853.548	17658.5
853.794	17729.5
854.041	17753.5
854.288	17769.5
854.534	17977.5
854.781	18070.5
855.028	17905.5
855.274	18041.5
855.52	17880.5
855.767	17886.5
856.013	18057.5
856.26	18330.5
856.506	17828.5
856.752	17670.5
856.998	17765.5
857.244	17824.5
857.49	17935.5
857.736	18050.5
857.982	18112.5
858.228	17922.5
858.474	17701.5
858.72	17563.5
858.966	17362.5
859.212	17126.5
859.458	17012.5
859.703	16843.5
859.949	16636.5
860.195	16678.5
860.44	16551.5
860.686	16448.5
860.931	16626.5
861.177	16319.5
861.422	16259.5
861.667	16127.5
861.913	16066.5
862.158	16103.5
862.403	16133.5
862.648	16172.5
862.893	16264.5
863.138	16208.5
863.384	16129.5
863.629	16189.5
863.873	16129.5
864.118	16054.5
864.363	16048.5
864.608	15945.5
864.853	15988.5
865.098	15786.5
865.342	15705.5
865.587	15691.5
865.832	15690.5
866.076	15745.5
866.321	15636.5
866.565	15643.5
866.81	15508.5
867.054	15496.5
867.298	15391.5
867.543	15434.5
867.787	15455.5
868.031	15359.5
868.275	15290.5
868.519	15298.5
868.764	15364.5
869.008	15260.5
869.252	15390.5
869.496	15320.5
869.739	15173.5
869.983	15358.5
870.227	15381.5
870.471	15329.5
870.715	15558.5
870.958	15643.5
871.202	15572.5
871.446	15548.5
871.689	15524.5
871.933	15603.5
872.176	15597.5
872.42	15581.5
872.663	15431.5
872.906	15569.5
873.15	15543.5
873.393	15650.5
873.636	15606.5
873.879	15424.5
874.122	15356.5
874.366	14948.5
874.609	14841.5
874.852	14707.5
875.095	14491.5
875.337	14478.5
875.58	14311.5
875.823	14347.5
876.066	14235.5
876.309	14287.5
876.551	14143.5
876.794	14111.5
877.037	14108.5
877.279	13975.5
877.522	13989.5
877.764	13940.5
878.007	13877.5
878.249	13879.5
878.491	13801.5
878.734	13879.5
878.976	13823.5
879.218	13626.5
879.46	13616.5
879.702	13451.5
879.945	13305.5
880.187	13266.5
880.429	13112.5
880.671	13045.5
880.912	12980.5
881.154	12992.5
881.396	12921.5
881.638	13024.5
881.88	13072.5
882.121	12998.5
882.363	13009.5
882.605	13024.5
882.846	12974.5
883.088	13081.5
883.329	13146.5
883.571	13201.5
883.812	13634.5
884.053	14028.5
884.295	14604.5
884.536	14871.5
884.777	14832.5
885.018	14592.5
885.259	14479.5
885.5	14313.5
885.742	14439.5
885.982	14179.5
886.223	14023.5
886.464	13828.5
886.705	13630.5
886.946	13324.5
887.187	12956.5
887.428	12782.5
887.668	12478.5
887.909	12292.5
888.15	12063.5
888.39	11898.5
888.631	11883.5
888.871	11681.5
889.111	11612.5
889.352	11573.5
889.592	11315.5
889.833	11268.5
890.073	11227.5
890.313	11219.5
890.553	11061.5
890.793	11056.5
891.033	10904.5
891.273	10888.5
891.513	10881.5
891.753	10870.5
891.993	10826.5
892.233	10858.5
892.473	10940.5
892.713	10846.5
892.952	10796.5
893.192	10904.5
893.432	10876.5
893.671	10885.5
893.911	10846.5
894.15	10848.5
894.39	10592.5
894.629	10621.5
894.869	10587.5
895.108	10501.5
895.347	10406.5
895.587	10443.5
895.826	10409.5
896.065	10351.5
896.304	10392.5
896.543	10370.5
896.782	10257.5
897.021	10336.5
897.26	10411.5
897.499	10335.5
897.738	10266.5
897.977	10255.5
898.216	10117.5
898.454	10094.5
898.693	9949.5
898.932	10037.5
899.17	9960.5
899.409	9996.5
899.647	9937.5
899.886	9903.5
900.124	9942.5
900.363	9876.5
900.601	9961.5
900.839	9952.5
901.078	10126.5
901.316	10147.5
901.554	10280.5
901.792	10357.5
902.03	10389.5
902.268	10439.5
902.506	10417.5
902.744	10272.5
902.982	10297.5
903.22	9994.5
903.458	9822.5
903.695	9645.5
903.933	9472.5
904.171	9240.5
904.409	9084.5
904.646	8994.5
904.884	8846.5
905.121	8759.5
905.359	8596.5
905.596	8587.5
905.833	8445.5
906.071	8413.5
906.308	8480.5
906.545	8358.5
906.783	8344.5
907.02	8341.5
907.257	8221.5
907.494	8249.5
907.731	8230.5
907.968	8213.5
908.205	8150.5
908.442	8083.5
908.679	8068.5
908.915	8032.5
909.152	7960.5
909.389	7813.5
909.626	7798.5
909.862	7715.5
910.099	7683.5
910.335	7760.5
910.572	7660.5
910.808	7578.5
911.045	7585.5
911.281	7526.5
911.518	7571.5
911.754	7411.5
911.99	7443.5
912.226	7377.5
912.463	7324.5
912.699	7297.5
912.935	7288.5
913.171	7213.5
913.407	7056.5
913.643	7113.5
913.879	6983.5
914.114	6950.5
914.35	6877.5
914.586	6835.5
914.822	6775.5
915.057	6766.5
915.293	6674.5
915.529	6608.5
915.764	6686.5
916	6632.5
916.235	6624.5
916.471	6614.5
916.706	6519.5
916.941	6501.5
917.177	6517.5
917.412	6551.5
917.647	6561.5
917.882	6481.5
918.117	6533.5
918.352	6515.5
918.588	6514.5
918.823	6391.5
919.057	6343.5
919.292	6186.5
919.527	6268.5
919.762	6192.5
919.997	6137.5
920.232	6038.5
920.466	6037.5
920.701	5951.5
920.935	5912.5
921.17	5856.5
921.405	5847.5
921.639	5914.5
921.873	5831.5
922.108	5830.5
922.342	5793.5
922.576	5743.5
922.811	5663.5
923.045	5760.5
923.279	5785.5
923.513	5622.5
923.747	5640.5
923.981	5567.5
924.215	5524.5
924.449	5514.5
924.683	5451.5
924.917	5453.5
925.151	5426.5
925.385	5466.5
925.618	5427.5
925.852	5380.5
926.086	5363.5
926.319	5386.5
926.553	5323.5
926.786	5365.5
927.02	5375.5
927.253	5412.5
927.486	5360.5
927.72	5296.5
927.953	5333.5
928.186	5261.5
928.42	5263.5
928.653	5193.5
928.886	5235.5
929.119	5189.5
929.352	5205.5
929.585	5126.5
929.818	5077.5
930.051	5100.5
930.284	5051.5
930.516	4966.5
930.749	4916.5
930.982	4987.5
931.215	4960.5
931.447	4840.5
931.68	4876.5
931.912	4843.5
932.145	4814.5
932.377	4876.5
932.61	5005.5
932.842	4792.5
933.074	4839.5
933.307	4782.5
933.539	4886.5
933.771	4850.5
934.003	4817.5
934.236	4881.5
934.468	4841.5
934.7	4795.5
934.932	4820.5
935.164	4774.5
935.395	4733.5
935.627	4757.5
935.859	4753.5
936.091	4672.5
936.323	4741.5
936.554	4709.5
936.786	4673.5
937.017	4605.5
937.249	4676.5
937.481	4539.5
937.712	4627.5
937.943	4527.5
938.175	4610.5
938.406	4539.5
938.637	4626.5
938.869	4522.5
939.1	4565.5
939.331	4493.5
939.562	4502.5
939.793	4525.5
940.024	4494.5
940.255	4520.5
940.486	4506.5
940.717	4394.5
940.948	4405.5
941.179	4394.5
941.409	4355.5
941.64	4305.5
941.871	4373.5
942.102	4331.5
942.332	4350.5
942.563	4391.5
942.793	4388.5
943.024	4347.5
943.254	4343.5
943.484	4387.5
943.715	4407.5
943.945	4328.5
944.175	4268.5
944.405	4275.5
944.636	4263.5
944.866	4325.5
945.096	4316.5
945.326	4210.5
945.556	4260.5
945.786	4308.5
946.016	4189.5
946.245	4154.5
946.475	4151.5
946.705	4145.5
946.935	4170.5
947.164	4130.5
947.394	4063.5
947.624	4108.5
947.853	4097.5
948.083	4045.5
948.312	4022.5
948.542	3957.5
948.771	3982.5
949	3954.5
949.23	3939.5
949.459	3935.5
949.688	4009.5
949.917	3927.5
950.146	3961.5
950.375	4022.5
950.604	3891.5
950.833	3987.5
951.062	3965.5
951.291	3937.5
951.52	3887.5
951.749	3898.5
951.978	3823.5
952.206	3887.5
952.435	3819.5
952.664	3835.5
952.892	3848.5
953.121	3807.5
953.349	3822.5
953.578	3818.5
953.806	3815.5
954.035	3699.5
954.263	3740.5
954.491	3669.5
954.719	3736.5
954.948	3716.5
955.176	3681.5
955.404	3608.5
955.632	3648.5
955.86	3643.5
956.088	3615.5
956.316	3626.5
956.544	3625.5
956.772	3585.5
956.999	3553.5
957.227	3630.5
957.455	3501.5
957.683	3523.5
957.91	3475.5
958.138	3433.5
958.365	3448.5
958.593	3430.5
958.82	3401.5
959.048	3417.5
959.275	3397.5
959.502	3363.5
959.73	3357.5
959.957	3386.5
960.184	3409.5
960.411	3348.5
960.638	3399.5
960.865	3344.5
961.092	3366.5
961.319	3282.5
961.546	3383.5
961.773	3372.5
962	3301.5
962.227	3361.5
962.454	3291.5
962.68	3319.5
962.907	3283.5
963.134	3224.5
963.36	3270.5
963.587	3245.5
963.813	3191.5
964.04	3198.5
964.266	3191.5
964.493	3232.5
964.719	3192.5
964.945	3173.5
965.171	3048.5
965.398	3107.5
965.624	3136.5
965.85	3027.5
966.076	3072.5
966.302	3059.5
966.528	3040.5
966.754	3115.5
966.98	3014.5
967.206	3030.5
967.431	2984.5
967.657	3049.5
967.883	3046.5
968.109	2992.5
968.334	2961.5
968.56	2937.5
968.785	2939.5
969.011	2906.5
969.236	2934.5
969.462	2871.5
969.687	2895.5
969.912	2943.5
970.138	2966.5
970.363	2885.5
970.588	2912.5
970.813	2833.5
971.038	2826.5
971.263	2860.5
971.488	2874.5
971.713	2880.5
971.938	2846.5
972.163	2758.5
972.388	2778.5
972.613	2749.5
972.838	2767.5
973.062	2746.5
973.287	2745.5
973.512	2674.5
973.736	2723.5
973.961	2680.5
974.185	2653.5
974.41	2693.5
974.634	2577.5
974.858	2603.5
975.083	2631.5
975.307	2637.5
975.531	2579.5
975.755	2549.5
975.98	2554.5
976.204	2495.5
976.428	2465.5
976.652	2471.5
976.876	2472.5
977.1	2521.5
977.324	2438.5
977.547	2497.5
977.771	2512.5
977.995	2461.5
978.219	2340.5
978.442	2547.5
978.666	2454.5
978.89	2449.5
979.113	2487.5
979.337	2402.5
979.56	2365.5
979.783	2475.5
980.007	2344.5
980.23	2383.5
980.453	2341.5
980.677	2377.5
980.9	2378.5
981.123	2284.5
981.346	2395.5
981.569	2369.5
981.792	2389.5
982.015	2321.5
982.238	2278.5
982.461	2289.5
982.684	2285.5
982.907	2257.5
983.129	2212.5
983.352	2251.5
983.575	2231.5
983.797	2277.5
984.02	2178.5
984.242	2200.5
984.465	2192.5
984.687	2218.5
984.91	2257.5
985.132	2240.5
985.354	2221.5
985.577	2163.5
985.799	2179.5
986.021	2111.5
986.243	2136.5
986.465	2132.5
986.687	2166.5
986.909	2170.5
987.131	2119.5
987.353	2089.5
987.575	2151.5
987.797	2121.5
988.019	2006.5
988.241	2075.5
988.462	2037.5
988.684	2095.5
988.906	2130.5
989.127	2142.5
989.349	1998.5
989.57	2081.5
989.792	2122.5
990.013	2111.5
990.234	2139.5
990.456	2148.5
990.677	2109.5
990.898	2043.5
991.119	2052.5
991.341	2084.5
991.562	1990.5
991.783	2044.5
992.004	1974.5
992.225	1944.5
992.446	2005.5
992.667	1928.5
992.887	1992.5
993.108	1919.5
993.329	2011.5
993.55	1944.5
993.77	1880.5
993.991	1891.5
994.212	1910.5
994.432	1923.5
994.653	1932.5
994.873	1888.5
995.093	1777.5
995.314	1816.5
995.534	1886.5
995.754	1949.5
995.975	1931.5
996.195	1809.5
996.415	1882.5
996.635	1885.5
996.855	1909.5
997.075	1867.5
997.295	1884.5
997.515	1823.5
997.735	1906.5
997.955	1882.5
998.174	1842.5
998.394	1824.5
998.614	1877.5
998.834	1823.5
999.053	1911.5
999.273	1852.5
999.492	1887.5
999.712	1839.5
999.931	1801.5
1000.151	1845.5
1000.37	1777.5
1000.589	1815.5
1000.809	1774.5
1001.028	1887.5
1001.247	1794.5
1001.466	1705.5
1001.685	1864.5
1001.904	1758.5
1002.123	1758.5
1002.342	1759.5
1002.561	1691.5
1002.78	1744.5
1002.999	1793.5
1003.218	1735.5
1003.436	1701.5
1003.655	1762.5
1003.874	1676.5
1004.092	1693.5
1004.311	1739.5
1004.53	1669.5
1004.748	1766.5
1004.966	1685.5
1005.185	1751.5
1005.403	1713.5
1005.622	1726.5
1005.84	1802.5
1006.058	1688.5
1006.276	1709.5
1006.494	2212.5
1006.712	1715.5
1006.931	1823.5
1007.149	1685.5
1007.367	1720.5
1007.584	1748.5
1007.802	1830.5
1008.02	1751.5
1008.238	1863.5
1008.456	1882.5
1008.673	1749.5
1008.891	1914.5
1009.109	1902.5
1009.326	1950.5
1009.544	2089.5
1009.761	2037.5
1009.979	2181.5
1010.196	2240.5
1010.413	2395.5
1010.631	2529.5
1010.848	2604.5
1011.065	2638.5
1011.282	2611.5
1011.5	2553.5
1011.717	2636.5
1011.934	2588.5
1012.151	2590.5
1012.368	2557.5
1012.585	2475.5
1012.801	2545.5
1013.018	2548.5
1013.235	2522.5
1013.452	2528.5
1013.669	2562.5
1013.885	2544.5
1014.102	2629.5
1014.318	2587.5
1014.535	2561.5
1014.751	2554.5
1014.968	2518.5
1015.184	2537.5
1015.401	2472.5
1015.617	2484.5
1015.833	2368.5
1016.049	2360.5
1016.266	2343.5
1016.482	2336.5
1016.698	2252.5
1016.914	2306.5
1017.13	2221.5
1017.346	2212.5
1017.562	2285.5
1017.778	2191.5
1017.993	2139.5
1018.209	2209.5
1018.425	2165.5
1018.641	2118.5
1018.856	2104.5
1019.072	2160.5
1019.288	2225.5
1019.503	2150.5
1019.719	2062.5
1019.934	2048.5
1020.149	2134.5
1020.365	2022.5
1020.58	1972.5
1020.795	1981.5
1021.011	1858.5
1021.226	1825.5
1021.441	1847.5
1021.656	1736.5
1021.871	1676.5
1022.086	1633.5
1022.301	1630.5
1022.516	1587.5
1022.731	1632.5
1022.946	1536.5
1023.16	1495.5
1023.375	1472.5
1023.59	1438.5
1023.804	1390.5
1024.019	1462.5
1024.234	1319.5
1024.448	1330.5
1024.663	1259.5
1024.877	1256.5
1025.092	1272.5
1025.306	1231.5
1025.52	1118.5
1025.734	1205.5
1025.949	1123.5
1026.163	1092.5
1026.377	1030.5
1026.591	1050.5
1026.805	988.5
1027.019	960.5
1027.233	956.5
1027.447	874.5
1027.661	988.5
1027.875	931.5
1028.088	920.5
1028.302	836.5
1028.516	831.5
1028.73	813.5
1028.943	809.5
1029.157	741.5
1029.37	697.5
1029.584	-0.5
1029.797	-1.5
1030.011	-3.5
1030.224	-2.5
