Data from QEP037381__95__14-55-45-877.txt Node

Date: Wed Dec 21 14:55:45 EST 2022
User: dcclab
Spectrometer: QEP03738
Trigger mode: 4
Integration Time (sec): 1.000000E1
Scans to average: 1
Electric dark correction enabled: true
Nonlinearity correction enabled: false
Boxcar width: 0
XAxis mode: Wavelengths
Number of Pixels in Spectrum: 1044
>>>>>Begin Spectral Data<<<<<
784.041	15.38
784.3	1.38
784.558	-2.62
784.817	-4.62
785.075	106511.38
785.334	17788.38
785.592	8138.38
785.851	5595.38
786.109	4207.38
786.368	3243.38
786.626	2680.38
786.884	2212.38
787.143	1891.38
787.401	1549.38
787.659	1380.38
787.917	1158.38
788.175	1089.38
788.433	964.38
788.691	866.38
788.949	799.38
789.207	772.38
789.465	657.38
789.723	662.38
789.98	580.38
790.238	632.38
790.496	593.38
790.753	555.38
791.011	613.38
791.268	541.38
791.526	511.38
791.783	545.38
792.041	527.38
792.298	459.38
792.556	512.38
792.813	470.38
793.07	458.38
793.327	462.38
793.584	552.38
793.841	445.38
794.099	475.38
794.356	528.38
794.613	427.38
794.869	481.38
795.126	431.38
795.383	420.38
795.64	455.38
795.897	397.38
796.153	436.38
796.41	438.38
796.667	417.38
796.923	430.38
797.18	444.38
797.436	454.38
797.693	417.38
797.949	471.38
798.206	501.38
798.462	407.38
798.718	487.38
798.974	444.38
799.231	488.38
799.487	467.38
799.743	494.38
799.999	520.38
800.255	518.38
800.511	508.38
800.767	543.38
801.023	522.38
801.279	557.38
801.534	588.38
801.79	675.38
802.046	677.38
802.302	843.38
802.557	938.38
802.813	1202.38
803.068	1454.38
803.324	2019.38
803.579	2753.38
803.835	3725.38
804.09	5100.38
804.345	6620.38
804.601	8401.38
804.856	10093.38
805.111	11594.38
805.366	12763.38
805.621	13716.38
805.876	14234.38
806.131	14638.38
806.386	15067.38
806.641	15193.38
806.896	15569.38
807.151	15882.38
807.406	16013.38
807.661	16374.38
807.915	16670.38
808.17	16957.38
808.425	17134.38
808.679	17185.38
808.934	17455.38
809.188	17597.38
809.443	17889.38
809.697	18004.38
809.951	18118.38
810.206	18361.38
810.46	18454.38
810.714	18713.38
810.968	18804.38
811.223	19010.38
811.477	19105.38
811.731	19291.38
811.985	19450.38
812.239	19352.38
812.493	19507.38
812.747	19558.38
813	19725.38
813.254	19658.38
813.508	19844.38
813.762	19901.38
814.015	20050.38
814.269	20200.38
814.522	20357.38
814.776	20684.38
815.03	20949.38
815.283	21285.38
815.536	21534.38
815.79	21970.38
816.043	22169.38
816.296	22568.38
816.55	22803.38
816.803	22994.38
817.056	23441.38
817.309	23534.38
817.562	23770.38
817.815	24046.38
818.068	24319.38
818.321	24425.38
818.574	24747.38
818.827	25036.38
819.079	25448.38
819.332	25871.38
819.585	26205.38
819.838	26565.38
820.09	26683.38
820.343	26866.38
820.595	26904.38
820.848	27087.38
821.1	27241.38
821.353	27180.38
821.605	27133.38
821.857	27239.38
822.11	27042.38
822.362	26931.38
822.614	26992.38
822.866	26868.38
823.118	27051.38
823.37	27199.38
823.622	27072.38
823.874	27334.38
824.126	27564.38
824.378	27439.38
824.63	27425.38
824.882	27595.38
825.134	27589.38
825.385	27502.38
825.637	27512.38
825.888	27371.38
826.14	27277.38
826.392	27256.38
826.643	27037.38
826.895	27097.38
827.146	26882.38
827.397	26941.38
827.649	26984.38
827.9	26777.38
828.151	26955.38
828.402	26861.38
828.653	27118.38
828.905	27104.38
829.156	27084.38
829.407	27220.38
829.658	27392.38
829.909	27464.38
830.159	27591.38
830.41	27462.38
830.661	27124.38
830.912	26875.38
831.162	26823.38
831.413	26762.38
831.664	26857.38
831.914	26720.38
832.165	26773.38
832.415	26761.38
832.666	26824.38
832.916	26848.38
833.167	26774.38
833.417	26784.38
833.667	26615.38
833.917	26565.38
834.168	26599.38
834.418	26585.38
834.668	26382.38
834.918	26234.38
835.168	26215.38
835.418	26104.38
835.668	26062.38
835.918	26041.38
836.167	25936.38
836.417	25857.38
836.667	25926.38
836.917	25899.38
837.166	25844.38
837.416	25859.38
837.666	25853.38
837.915	25883.38
838.165	25934.38
838.414	25674.38
838.663	25744.38
838.913	25799.38
839.162	25861.38
839.411	25773.38
839.661	25546.38
839.91	25503.38
840.159	25573.38
840.408	25561.38
840.657	25572.38
840.906	25688.38
841.155	25739.38
841.404	25578.38
841.653	25625.38
841.902	25690.38
842.15	25704.38
842.399	25805.38
842.648	25750.38
842.897	25598.38
843.145	25508.38
843.394	25381.38
843.642	25194.38
843.891	25063.38
844.139	24865.38
844.388	24794.38
844.636	24723.38
844.884	24637.38
845.133	24633.38
845.381	24654.38
845.629	24673.38
845.877	24740.38
846.125	24718.38
846.373	24772.38
846.621	24473.38
846.869	24496.38
847.117	24231.38
847.365	24223.38
847.613	24073.38
847.861	24144.38
848.108	24122.38
848.356	24020.38
848.604	24040.38
848.851	23986.38
849.099	24099.38
849.346	24317.38
849.594	24218.38
849.841	24315.38
850.089	24546.38
850.336	24398.38
850.583	24608.38
850.831	24427.38
851.078	24202.38
851.325	24237.38
851.572	24500.38
851.819	24176.38
852.066	23596.38
852.313	23238.38
852.56	23152.38
852.807	22926.38
853.054	22975.38
853.301	23075.38
853.548	22984.38
853.794	23155.38
854.041	23210.38
854.288	23409.38
854.534	23574.38
854.781	23398.38
855.028	23370.38
855.274	23452.38
855.52	23358.38
855.767	23319.38
856.013	23393.38
856.26	23668.38
856.506	23153.38
856.752	23141.38
856.998	23159.38
857.244	23193.38
857.49	23294.38
857.736	23321.38
857.982	23393.38
858.228	23185.38
858.474	22986.38
858.72	22772.38
858.966	22629.38
859.212	22488.38
859.458	22196.38
859.703	21996.38
859.949	21684.38
860.195	21630.38
860.44	21489.38
860.686	21620.38
860.931	21646.38
861.177	21379.38
861.422	21153.38
861.667	21090.38
861.913	21108.38
862.158	21229.38
862.403	21221.38
862.648	21187.38
862.893	21231.38
863.138	21265.38
863.384	21163.38
863.629	21131.38
863.873	21099.38
864.118	21137.38
864.363	21031.38
864.608	20939.38
864.853	20914.38
865.098	20744.38
865.342	20760.38
865.587	20659.38
865.832	20611.38
866.076	20639.38
866.321	20483.38
866.565	20478.38
866.81	20355.38
867.054	20326.38
867.298	20291.38
867.543	20204.38
867.787	20256.38
868.031	20223.38
868.275	20057.38
868.519	20171.38
868.764	20159.38
869.008	20064.38
869.252	20085.38
869.496	20047.38
869.739	20098.38
869.983	20118.38
870.227	20205.38
870.471	20043.38
870.715	20225.38
870.958	20234.38
871.202	20323.38
871.446	20419.38
871.689	20386.38
871.933	20383.38
872.176	20363.38
872.42	20247.38
872.663	20267.38
872.906	20252.38
873.15	20253.38
873.393	20346.38
873.636	20240.38
873.879	20075.38
874.122	19861.38
874.366	19534.38
874.609	19298.38
874.852	19224.38
875.095	19081.38
875.337	18968.38
875.58	18803.38
875.823	18786.38
876.066	18705.38
876.309	18631.38
876.551	18514.38
876.794	18513.38
877.037	18425.38
877.279	18477.38
877.522	18385.38
877.764	18296.38
878.007	18293.38
878.249	18277.38
878.491	18205.38
878.734	18130.38
878.976	18115.38
879.218	17932.38
879.46	17839.38
879.702	17836.38
879.945	17557.38
880.187	17446.38
880.429	17448.38
880.671	17269.38
880.912	17216.38
881.154	17252.38
881.396	17150.38
881.638	17194.38
881.88	17151.38
882.121	17090.38
882.363	17135.38
882.605	17148.38
882.846	17108.38
883.088	17176.38
883.329	17055.38
883.571	17313.38
883.812	17545.38
884.053	18117.38
884.295	18605.38
884.536	18987.38
884.777	18889.38
885.018	18722.38
885.259	18499.38
885.5	18332.38
885.742	18575.38
885.982	18179.38
886.223	17976.38
886.464	17891.38
886.705	17592.38
886.946	17338.38
887.187	17008.38
887.428	16833.38
887.668	16407.38
887.909	16200.38
888.15	15923.38
888.39	15814.38
888.631	15752.38
888.871	15537.38
889.111	15414.38
889.352	15318.38
889.592	15153.38
889.833	14941.38
890.073	14936.38
890.313	14898.38
890.553	14752.38
890.793	14598.38
891.033	14565.38
891.273	14580.38
891.513	14468.38
891.753	14503.38
891.993	14407.38
892.233	14451.38
892.473	14511.38
892.713	14447.38
892.952	14451.38
893.192	14464.38
893.432	14504.38
893.671	14541.38
893.911	14320.38
894.15	14313.38
894.39	14182.38
894.629	14193.38
894.869	14152.38
895.108	13940.38
895.347	13984.38
895.587	13937.38
895.826	13892.38
896.065	13770.38
896.304	13863.38
896.543	13907.38
896.782	13750.38
897.021	13713.38
897.26	13742.38
897.499	13778.38
897.738	13729.38
897.977	13611.38
898.216	13459.38
898.454	13351.38
898.693	13325.38
898.932	13264.38
899.17	13229.38
899.409	13213.38
899.647	13215.38
899.886	13156.38
900.124	13207.38
900.363	13233.38
900.601	13256.38
900.839	13298.38
901.078	13379.38
901.316	13443.38
901.554	13558.38
901.792	13725.38
902.03	13770.38
902.268	13759.38
902.506	13745.38
902.744	13543.38
902.982	13503.38
903.22	13234.38
903.458	13004.38
903.695	12867.38
903.933	12617.38
904.171	12377.38
904.409	12094.38
904.646	12068.38
904.884	11799.38
905.121	11791.38
905.359	11578.38
905.596	11455.38
905.833	11336.38
906.071	11232.38
906.308	11273.38
906.545	11283.38
906.783	11179.38
907.02	11179.38
907.257	11082.38
907.494	11174.38
907.731	11058.38
907.968	11020.38
908.205	10929.38
908.442	10791.38
908.679	10794.38
908.915	10786.38
909.152	10680.38
909.389	10493.38
909.626	10576.38
909.862	10470.38
910.099	10366.38
910.335	10423.38
910.572	10239.38
910.808	10292.38
911.045	10215.38
911.281	10136.38
911.518	10139.38
911.754	10072.38
911.99	9998.38
912.226	9989.38
912.463	9876.38
912.699	9844.38
912.935	9702.38
913.171	9673.38
913.407	9555.38
913.643	9561.38
913.879	9452.38
914.114	9284.38
914.35	9234.38
914.586	9298.38
914.822	9214.38
915.057	9131.38
915.293	8956.38
915.529	8923.38
915.764	8977.38
916	8897.38
916.235	8970.38
916.471	8921.38
916.706	8839.38
916.941	8839.38
917.177	8800.38
917.412	8880.38
917.647	8829.38
917.882	8783.38
918.117	8811.38
918.352	8773.38
918.588	8737.38
918.823	8569.38
919.057	8546.38
919.292	8382.38
919.527	8457.38
919.762	8339.38
919.997	8297.38
920.232	8123.38
920.466	8097.38
920.701	8055.38
920.935	7949.38
921.17	8008.38
921.405	7903.38
921.639	7912.38
921.873	7829.38
922.108	7813.38
922.342	7829.38
922.576	7728.38
922.811	7747.38
923.045	7763.38
923.279	7709.38
923.513	7501.38
923.747	7568.38
923.981	7571.38
924.215	7459.38
924.449	7438.38
924.683	7382.38
924.917	7399.38
925.151	7324.38
925.385	7372.38
925.618	7346.38
925.852	7292.38
926.086	7234.38
926.319	7222.38
926.553	7256.38
926.786	7295.38
927.02	7202.38
927.253	7251.38
927.486	7232.38
927.72	7173.38
927.953	7200.38
928.186	7134.38
928.42	7143.38
928.653	7054.38
928.886	7026.38
929.119	7042.38
929.352	6976.38
929.585	6914.38
929.818	6833.38
930.051	6857.38
930.284	6808.38
930.516	6731.38
930.749	6705.38
930.982	6616.38
931.215	6685.38
931.447	6562.38
931.68	6622.38
931.912	6573.38
932.145	6540.38
932.377	6554.38
932.61	6645.38
932.842	6530.38
933.074	6561.38
933.307	6513.38
933.539	6560.38
933.771	6543.38
934.003	6501.38
934.236	6539.38
934.468	6558.38
934.7	6426.38
934.932	6464.38
935.164	6490.38
935.395	6378.38
935.627	6446.38
935.859	6355.38
936.091	6340.38
936.323	6358.38
936.554	6382.38
936.786	6251.38
937.017	6208.38
937.249	6287.38
937.481	6190.38
937.712	6277.38
937.943	6219.38
938.175	6191.38
938.406	6206.38
938.637	6222.38
938.869	6151.38
939.1	6166.38
939.331	6061.38
939.562	6110.38
939.793	6124.38
940.024	6132.38
940.255	6009.38
940.486	5977.38
940.717	5946.38
940.948	5969.38
941.179	5892.38
941.409	5938.38
941.64	5912.38
941.871	5838.38
942.102	5862.38
942.332	5840.38
942.563	5911.38
942.793	5901.38
943.024	5874.38
943.254	5886.38
943.484	5867.38
943.715	5914.38
943.945	5896.38
944.175	5791.38
944.405	5771.38
944.636	5802.38
944.866	5823.38
945.096	5801.38
945.326	5753.38
945.556	5818.38
945.786	5792.38
946.016	5668.38
946.245	5642.38
946.475	5629.38
946.705	5585.38
946.935	5600.38
947.164	5548.38
947.394	5459.38
947.624	5509.38
947.853	5483.38
948.083	5426.38
948.312	5435.38
948.542	5329.38
948.771	5344.38
949	5382.38
949.23	5281.38
949.459	5348.38
949.688	5382.38
949.917	5302.38
950.146	5286.38
950.375	5413.38
950.604	5186.38
950.833	5336.38
951.062	5323.38
951.291	5335.38
951.52	5316.38
951.749	5279.38
951.978	5210.38
952.206	5170.38
952.435	5158.38
952.664	5208.38
952.892	5212.38
953.121	5132.38
953.349	5172.38
953.578	5120.38
953.806	5032.38
954.035	5011.38
954.263	5054.38
954.491	4997.38
954.719	4993.38
954.948	4937.38
955.176	4962.38
955.404	4867.38
955.632	4944.38
955.86	4906.38
956.088	4856.38
956.316	4867.38
956.544	4822.38
956.772	4823.38
956.999	4767.38
957.227	4844.38
957.455	4690.38
957.683	4690.38
957.91	4634.38
958.138	4665.38
958.365	4600.38
958.593	4591.38
958.82	4529.38
959.048	4548.38
959.275	4543.38
959.502	4561.38
959.73	4528.38
959.957	4567.38
960.184	4526.38
960.411	4476.38
960.638	4534.38
960.865	4475.38
961.092	4500.38
961.319	4394.38
961.546	4494.38
961.773	4565.38
962	4459.38
962.227	4461.38
962.454	4407.38
962.68	4412.38
962.907	4426.38
963.134	4326.38
963.36	4332.38
963.587	4342.38
963.813	4283.38
964.04	4282.38
964.266	4209.38
964.493	4235.38
964.719	4224.38
964.945	4226.38
965.171	4121.38
965.398	4151.38
965.624	4135.38
965.85	4034.38
966.076	4055.38
966.302	4126.38
966.528	4076.38
966.754	4079.38
966.98	4049.38
967.206	4066.38
967.431	3945.38
967.657	4004.38
967.883	4031.38
968.109	3958.38
968.334	3907.38
968.56	3879.38
968.785	3880.38
969.011	3834.38
969.236	3928.38
969.462	3853.38
969.687	3871.38
969.912	3876.38
970.138	3888.38
970.363	3826.38
970.588	3853.38
970.813	3825.38
971.038	3755.38
971.263	3850.38
971.488	3766.38
971.713	3785.38
971.938	3796.38
972.163	3650.38
972.388	3668.38
972.613	3672.38
972.838	3691.38
973.062	3616.38
973.287	3611.38
973.512	3588.38
973.736	3619.38
973.961	3596.38
974.185	3532.38
974.41	3568.38
974.634	3455.38
974.858	3451.38
975.083	3493.38
975.307	3489.38
975.531	3424.38
975.755	3348.38
975.98	3387.38
976.204	3330.38
976.428	3276.38
976.652	3283.38
976.876	3266.38
977.1	3302.38
977.324	3240.38
977.547	3296.38
977.771	3245.38
977.995	3236.38
978.219	3157.38
978.442	3310.38
978.666	3226.38
978.89	3225.38
979.113	3203.38
979.337	3188.38
979.56	3134.38
979.783	3259.38
980.007	3117.38
980.23	3125.38
980.453	3091.38
980.677	3111.38
980.9	3088.38
981.123	3022.38
981.346	3073.38
981.569	3082.38
981.792	3117.38
982.015	3032.38
982.238	3022.38
982.461	2997.38
982.684	2942.38
982.907	2934.38
983.129	2928.38
983.352	2983.38
983.575	2965.38
983.797	2937.38
984.02	2887.38
984.242	2882.38
984.465	2892.38
984.687	2907.38
984.91	2884.38
985.132	2840.38
985.354	2842.38
985.577	2870.38
985.799	2889.38
986.021	2712.38
986.243	2779.38
986.465	2770.38
986.687	2806.38
986.909	2805.38
987.131	2789.38
987.353	2731.38
987.575	2745.38
987.797	2728.38
988.019	2622.38
988.241	2705.38
988.462	2655.38
988.684	2704.38
988.906	2733.38
989.127	2736.38
989.349	2639.38
989.57	2671.38
989.792	2671.38
990.013	2705.38
990.234	2679.38
990.456	2729.38
990.677	2706.38
990.898	2607.38
991.119	2648.38
991.341	2621.38
991.562	2557.38
991.783	2586.38
992.004	2560.38
992.225	2479.38
992.446	2523.38
992.667	2471.38
992.887	2539.38
993.108	2429.38
993.329	2526.38
993.55	2484.38
993.77	2432.38
993.991	2418.38
994.212	2455.38
994.432	2425.38
994.653	2419.38
994.873	2428.38
995.093	2276.38
995.314	2359.38
995.534	2403.38
995.754	2433.38
995.975	2434.38
996.195	2322.38
996.415	2373.38
996.635	2345.38
996.855	2393.38
997.075	2342.38
997.295	2385.38
997.515	2322.38
997.735	2364.38
997.955	2356.38
998.174	2354.38
998.394	2304.38
998.614	2372.38
998.834	2305.38
999.053	2361.38
999.273	2284.38
999.492	2354.38
999.712	2269.38
999.931	2219.38
1000.151	2288.38
1000.37	2254.38
1000.589	2287.38
1000.809	2192.38
1001.028	2315.38
1001.247	2216.38
1001.466	2131.38
1001.685	2265.38
1001.904	2162.38
1002.123	2170.38
1002.342	2174.38
1002.561	2123.38
1002.78	2150.38
1002.999	2193.38
1003.218	2119.38
1003.436	2075.38
1003.655	2113.38
1003.874	2095.38
1004.092	2088.38
1004.311	2126.38
1004.53	2086.38
1004.748	2137.38
1004.966	2045.38
1005.185	2109.38
1005.403	2099.38
1005.622	2095.38
1005.84	2145.38
1006.058	2052.38
1006.276	2086.38
1006.494	2586.38
1006.712	2102.38
1006.931	2168.38
1007.149	2045.38
1007.367	2083.38
1007.584	2142.38
1007.802	2175.38
1008.02	2140.38
1008.238	2263.38
1008.456	2260.38
1008.673	2142.38
1008.891	2285.38
1009.109	2255.38
1009.326	2343.38
1009.544	2473.38
1009.761	2423.38
1009.979	2577.38
1010.196	2678.38
1010.413	2834.38
1010.631	2993.38
1010.848	3073.38
1011.065	3103.38
1011.282	3072.38
1011.5	3002.38
1011.717	3119.38
1011.934	3006.38
1012.151	3037.38
1012.368	3000.38
1012.585	2959.38
1012.801	3024.38
1013.018	2980.38
1013.235	2932.38
1013.452	3007.38
1013.669	3016.38
1013.885	3012.38
1014.102	3061.38
1014.318	3045.38
1014.535	3035.38
1014.751	3013.38
1014.968	3010.38
1015.184	3010.38
1015.401	2893.38
1015.617	2889.38
1015.833	2792.38
1016.049	2790.38
1016.266	2791.38
1016.482	2740.38
1016.698	2668.38
1016.914	2678.38
1017.13	2629.38
1017.346	2619.38
1017.562	2650.38
1017.778	2573.38
1017.993	2538.38
1018.209	2617.38
1018.425	2559.38
1018.641	2558.38
1018.856	2477.38
1019.072	2513.38
1019.288	2594.38
1019.503	2508.38
1019.719	2439.38
1019.934	2413.38
1020.149	2493.38
1020.365	2379.38
1020.58	2347.38
1020.795	2324.38
1021.011	2206.38
1021.226	2159.38
1021.441	2145.38
1021.656	2053.38
1021.871	1984.38
1022.086	1974.38
1022.301	1940.38
1022.516	1872.38
1022.731	1936.38
1022.946	1851.38
1023.16	1786.38
1023.375	1712.38
1023.59	1687.38
1023.804	1634.38
1024.019	1721.38
1024.234	1550.38
1024.448	1588.38
1024.663	1484.38
1024.877	1476.38
1025.092	1499.38
1025.306	1467.38
1025.52	1336.38
1025.734	1421.38
1025.949	1307.38
1026.163	1284.38
1026.377	1212.38
1026.591	1245.38
1026.805	1166.38
1027.019	1142.38
1027.233	1108.38
1027.447	1048.38
1027.661	1136.38
1027.875	1076.38
1028.088	1089.38
1028.302	1011.38
1028.516	982.38
1028.73	969.38
1028.943	933.38
1029.157	875.38
1029.37	825.38
1029.584	-1.62
1029.797	0.38
1030.011	-3.62
1030.224	-4.62
