Data from QEP037381__53__14-44-45-874.txt Node

Date: Wed Dec 21 14:44:45 EST 2022
User: dcclab
Spectrometer: QEP03738
Trigger mode: 4
Integration Time (sec): 1.000000E1
Scans to average: 1
Electric dark correction enabled: true
Nonlinearity correction enabled: false
Boxcar width: 0
XAxis mode: Wavelengths
Number of Pixels in Spectrum: 1044
>>>>>Begin Spectral Data<<<<<
784.041	12.38
784.3	2.38
784.558	-3.62
784.817	-2.62
785.075	99080.38
785.334	17456.38
785.592	8274.38
785.851	5780.38
786.109	4345.38
786.368	3428.38
786.626	2778.38
786.884	2286.38
787.143	1924.38
787.401	1584.38
787.659	1422.38
787.917	1236.38
788.175	1109.38
788.433	1001.38
788.691	895.38
788.949	822.38
789.207	800.38
789.465	696.38
789.723	664.38
789.98	613.38
790.238	651.38
790.496	618.38
790.753	585.38
791.011	616.38
791.268	557.38
791.526	540.38
791.783	568.38
792.041	537.38
792.298	458.38
792.556	525.38
792.813	496.38
793.07	458.38
793.327	460.38
793.584	549.38
793.841	475.38
794.099	469.38
794.356	540.38
794.613	437.38
794.869	491.38
795.126	438.38
795.383	433.38
795.64	445.38
795.897	403.38
796.153	464.38
796.41	452.38
796.667	428.38
796.923	445.38
797.18	447.38
797.436	467.38
797.693	415.38
797.949	495.38
798.206	508.38
798.462	432.38
798.718	487.38
798.974	472.38
799.231	507.38
799.487	492.38
799.743	526.38
799.999	539.38
800.255	542.38
800.511	536.38
800.767	588.38
801.023	601.38
801.279	609.38
801.534	653.38
801.79	708.38
802.046	760.38
802.302	918.38
802.557	1026.38
802.813	1312.38
803.068	1655.38
803.324	2297.38
803.579	3144.38
803.835	4382.38
804.09	6069.38
804.345	8007.38
804.601	10199.38
804.856	12390.38
805.111	14333.38
805.366	15873.38
805.621	16973.38
805.876	17701.38
806.131	18235.38
806.386	18544.38
806.641	18912.38
806.896	19182.38
807.151	19501.38
807.406	19816.38
807.661	20180.38
807.915	20576.38
808.17	20795.38
808.425	21054.38
808.679	21169.38
808.934	21389.38
809.188	21647.38
809.443	21733.38
809.697	21983.38
809.951	22259.38
810.206	22363.38
810.46	22578.38
810.714	22805.38
810.968	22954.38
811.223	23138.38
811.477	23359.38
811.731	23476.38
811.985	23494.38
812.239	23598.38
812.493	23715.38
812.747	23861.38
813	23928.38
813.254	24005.38
813.508	24072.38
813.762	24247.38
814.015	24308.38
814.269	24506.38
814.522	24648.38
814.776	25029.38
815.03	25259.38
815.283	25584.38
815.536	26014.38
815.79	26387.38
816.043	26676.38
816.296	27191.38
816.55	27413.38
816.803	27752.38
817.056	28200.38
817.309	28290.38
817.562	28582.38
817.815	28727.38
818.068	28930.38
818.321	29287.38
818.574	29506.38
818.827	29949.38
819.079	30359.38
819.332	30723.38
819.585	31142.38
819.838	31507.38
820.09	31745.38
820.343	31983.38
820.595	31984.38
820.848	32250.38
821.1	32281.38
821.353	32327.38
821.605	32356.38
821.857	32223.38
822.11	32134.38
822.362	32078.38
822.614	32052.38
822.866	32003.38
823.118	32007.38
823.37	32171.38
823.622	32127.38
823.874	32286.38
824.126	32281.38
824.378	32406.38
824.63	32548.38
824.882	32622.38
825.134	32505.38
825.385	32457.38
825.637	32401.38
825.888	32154.38
826.14	32165.38
826.392	32082.38
826.643	31895.38
826.895	31790.38
827.146	31638.38
827.397	31530.38
827.649	31678.38
827.9	31532.38
828.151	31653.38
828.402	31597.38
828.653	31681.38
828.905	31717.38
829.156	31758.38
829.407	31617.38
829.658	31816.38
829.909	31896.38
830.159	31716.38
830.41	31620.38
830.661	31251.38
830.912	31092.38
831.162	31059.38
831.413	30804.38
831.664	30914.38
831.914	30965.38
832.165	30862.38
832.415	30927.38
832.666	30913.38
832.916	30868.38
833.167	30808.38
833.417	30855.38
833.667	30640.38
833.917	30458.38
834.168	30509.38
834.418	30394.38
834.668	30285.38
834.918	30064.38
835.168	29961.38
835.418	29926.38
835.668	29879.38
835.918	29773.38
836.167	29709.38
836.417	29597.38
836.667	29532.38
836.917	29551.38
837.166	29397.38
837.416	29506.38
837.666	29457.38
837.915	29317.38
838.165	29385.38
838.414	28942.38
838.663	29007.38
838.913	29080.38
839.162	28976.38
839.411	29088.38
839.661	28720.38
839.91	28785.38
840.159	28777.38
840.408	28577.38
840.657	28637.38
840.906	28498.38
841.155	28649.38
841.404	28374.38
841.653	28647.38
841.902	28583.38
842.15	28669.38
842.399	28668.38
842.648	28609.38
842.897	28378.38
843.145	28180.38
843.394	28160.38
843.642	28000.38
843.891	27897.38
844.139	27724.38
844.388	27602.38
844.636	27344.38
844.884	27438.38
845.133	27227.38
845.381	27358.38
845.629	27267.38
845.877	27141.38
846.125	27194.38
846.373	27061.38
846.621	26983.38
846.869	26889.38
847.117	26849.38
847.365	26599.38
847.613	26486.38
847.861	26360.38
848.108	26430.38
848.356	26375.38
848.604	26223.38
848.851	26274.38
849.099	26417.38
849.346	26337.38
849.594	26422.38
849.841	26441.38
850.089	26529.38
850.336	26706.38
850.583	26552.38
850.831	26482.38
851.078	26220.38
851.325	26193.38
851.572	26247.38
851.819	25919.38
852.066	25449.38
852.313	25135.38
852.56	25033.38
852.807	24887.38
853.054	24792.38
853.301	24731.38
853.548	24786.38
853.794	24892.38
854.041	25040.38
854.288	24923.38
854.534	25150.38
854.781	25075.38
855.028	25159.38
855.274	24990.38
855.52	24746.38
855.767	24628.38
856.013	24563.38
856.26	24916.38
856.506	24414.38
856.752	24398.38
856.998	24428.38
857.244	24344.38
857.49	24546.38
857.736	24548.38
857.982	24541.38
858.228	24493.38
858.474	24165.38
858.72	24249.38
858.966	23976.38
859.212	23760.38
859.458	23562.38
859.703	23351.38
859.949	23086.38
860.195	22884.38
860.44	22741.38
860.686	22672.38
860.931	22608.38
861.177	22420.38
861.422	22426.38
861.667	22402.38
861.913	22309.38
862.158	22360.38
862.403	22437.38
862.648	22547.38
862.893	22518.38
863.138	22464.38
863.384	22413.38
863.629	22360.38
863.873	22265.38
864.118	22244.38
864.363	22083.38
864.608	22085.38
864.853	22038.38
865.098	21861.38
865.342	21701.38
865.587	21677.38
865.832	21670.38
866.076	21582.38
866.321	21466.38
866.565	21490.38
866.81	21286.38
867.054	21258.38
867.298	21208.38
867.543	21032.38
867.787	21093.38
868.031	20966.38
868.275	20884.38
868.519	20810.38
868.764	20915.38
869.008	20832.38
869.252	20804.38
869.496	20631.38
869.739	20555.38
869.983	20643.38
870.227	20542.38
870.471	20479.38
870.715	20581.38
870.958	20622.38
871.202	20636.38
871.446	20594.38
871.689	20627.38
871.933	20590.38
872.176	20548.38
872.42	20507.38
872.663	20544.38
872.906	20444.38
873.15	20404.38
873.393	20230.38
873.636	20190.38
873.879	20034.38
874.122	19861.38
874.366	19516.38
874.609	19472.38
874.852	19265.38
875.095	19207.38
875.337	19060.38
875.58	18966.38
875.823	18944.38
876.066	18894.38
876.309	18875.38
876.551	18707.38
876.794	18560.38
877.037	18644.38
877.279	18496.38
877.522	18525.38
877.764	18532.38
878.007	18601.38
878.249	18453.38
878.491	18446.38
878.734	18516.38
878.976	18378.38
879.218	18292.38
879.46	18167.38
879.702	18082.38
879.945	17874.38
880.187	17829.38
880.429	17581.38
880.671	17553.38
880.912	17488.38
881.154	17470.38
881.396	17280.38
881.638	17316.38
881.88	17340.38
882.121	17322.38
882.363	17263.38
882.605	17215.38
882.846	17087.38
883.088	17085.38
883.329	17039.38
883.571	16953.38
883.812	17092.38
884.053	17256.38
884.295	17393.38
884.536	17633.38
884.777	17480.38
885.018	17413.38
885.259	17303.38
885.5	17194.38
885.742	17459.38
885.982	17128.38
886.223	17038.38
886.464	16955.38
886.705	16827.38
886.946	16751.38
887.187	16487.38
887.428	16435.38
887.668	16163.38
887.909	15999.38
888.15	15877.38
888.39	15873.38
888.631	15748.38
888.871	15593.38
889.111	15438.38
889.352	15379.38
889.592	15232.38
889.833	15170.38
890.073	15122.38
890.313	14989.38
890.553	14743.38
890.793	14719.38
891.033	14667.38
891.273	14625.38
891.513	14526.38
891.753	14616.38
891.993	14544.38
892.233	14522.38
892.473	14573.38
892.713	14562.38
892.952	14564.38
893.192	14526.38
893.432	14451.38
893.671	14469.38
893.911	14316.38
894.15	14251.38
894.39	14078.38
894.629	14119.38
894.869	14068.38
895.108	13857.38
895.347	13832.38
895.587	13818.38
895.826	13677.38
896.065	13664.38
896.304	13766.38
896.543	13754.38
896.782	13516.38
897.021	13565.38
897.26	13575.38
897.499	13595.38
897.738	13369.38
897.977	13330.38
898.216	13255.38
898.454	13177.38
898.693	13048.38
898.932	12969.38
899.17	12921.38
899.409	12826.38
899.647	12818.38
899.886	12787.38
900.124	12734.38
900.363	12721.38
900.601	12814.38
900.839	12712.38
901.078	12769.38
901.316	12792.38
901.554	12739.38
901.792	12869.38
902.03	12776.38
902.268	12790.38
902.506	12862.38
902.744	12671.38
902.982	12594.38
903.22	12439.38
903.458	12284.38
903.695	12235.38
903.933	12094.38
904.171	11874.38
904.409	11734.38
904.646	11638.38
904.884	11449.38
905.121	11392.38
905.359	11288.38
905.596	11164.38
905.833	11030.38
906.071	11020.38
906.308	10977.38
906.545	10978.38
906.783	10936.38
907.02	10885.38
907.257	10831.38
907.494	10813.38
907.731	10854.38
907.968	10802.38
908.205	10684.38
908.442	10557.38
908.679	10596.38
908.915	10539.38
909.152	10486.38
909.389	10272.38
909.626	10208.38
909.862	10178.38
910.099	10117.38
910.335	10190.38
910.572	9994.38
910.808	10051.38
911.045	9995.38
911.281	9921.38
911.518	9967.38
911.754	9808.38
911.99	9804.38
912.226	9738.38
912.463	9661.38
912.699	9549.38
912.935	9532.38
913.171	9405.38
913.407	9361.38
913.643	9359.38
913.879	9177.38
914.114	9147.38
914.35	9020.38
914.586	8967.38
914.822	8835.38
915.057	8880.38
915.293	8720.38
915.529	8693.38
915.764	8699.38
916	8679.38
916.235	8686.38
916.471	8646.38
916.706	8544.38
916.941	8578.38
917.177	8485.38
917.412	8580.38
917.647	8538.38
917.882	8489.38
918.117	8548.38
918.352	8517.38
918.588	8476.38
918.823	8341.38
919.057	8290.38
919.292	8160.38
919.527	8220.38
919.762	8050.38
919.997	8013.38
920.232	7896.38
920.466	7841.38
920.701	7689.38
920.935	7629.38
921.17	7647.38
921.405	7585.38
921.639	7593.38
921.873	7566.38
922.108	7549.38
922.342	7459.38
922.576	7505.38
922.811	7429.38
923.045	7424.38
923.279	7435.38
923.513	7222.38
923.747	7294.38
923.981	7281.38
924.215	7231.38
924.449	7119.38
924.683	7074.38
924.917	7009.38
925.151	6988.38
925.385	7072.38
925.618	7025.38
925.852	6905.38
926.086	6881.38
926.319	6924.38
926.553	6933.38
926.786	6843.38
927.02	6909.38
927.253	6951.38
927.486	6816.38
927.72	6789.38
927.953	6852.38
928.186	6768.38
928.42	6794.38
928.653	6772.38
928.886	6671.38
929.119	6662.38
929.352	6615.38
929.585	6587.38
929.818	6528.38
930.051	6614.38
930.284	6465.38
930.516	6354.38
930.749	6337.38
930.982	6400.38
931.215	6282.38
931.447	6195.38
931.68	6156.38
931.912	6177.38
932.145	6195.38
932.377	6159.38
932.61	6332.38
932.842	6087.38
933.074	6203.38
933.307	6142.38
933.539	6254.38
933.771	6261.38
934.003	6170.38
934.236	6218.38
934.468	6189.38
934.7	6131.38
934.932	6072.38
935.164	5999.38
935.395	6024.38
935.627	6000.38
935.859	6006.38
936.091	5930.38
936.323	5996.38
936.554	6039.38
936.786	5894.38
937.017	5829.38
937.249	5918.38
937.481	5779.38
937.712	5863.38
937.943	5834.38
938.175	5733.38
938.406	5821.38
938.637	5823.38
938.869	5736.38
939.1	5746.38
939.331	5763.38
939.562	5747.38
939.793	5691.38
940.024	5715.38
940.255	5660.38
940.486	5638.38
940.717	5597.38
940.948	5537.38
941.179	5483.38
941.409	5551.38
941.64	5479.38
941.871	5537.38
942.102	5425.38
942.332	5458.38
942.563	5508.38
942.793	5507.38
943.024	5427.38
943.254	5475.38
943.484	5509.38
943.715	5523.38
943.945	5472.38
944.175	5403.38
944.405	5370.38
944.636	5387.38
944.866	5407.38
945.096	5388.38
945.326	5302.38
945.556	5414.38
945.786	5381.38
946.016	5281.38
946.245	5208.38
946.475	5213.38
946.705	5251.38
946.935	5190.38
947.164	5169.38
947.394	5092.38
947.624	5084.38
947.853	5079.38
948.083	5065.38
948.312	5030.38
948.542	4983.38
948.771	4977.38
949	4963.38
949.23	4941.38
949.459	4941.38
949.688	5068.38
949.917	4958.38
950.146	4942.38
950.375	4996.38
950.604	4868.38
950.833	4908.38
951.062	4909.38
951.291	4879.38
951.52	4882.38
951.749	4875.38
951.978	4785.38
952.206	4817.38
952.435	4736.38
952.664	4806.38
952.892	4767.38
953.121	4727.38
953.349	4760.38
953.578	4756.38
953.806	4727.38
954.035	4664.38
954.263	4650.38
954.491	4623.38
954.719	4596.38
954.948	4576.38
955.176	4551.38
955.404	4463.38
955.632	4555.38
955.86	4512.38
956.088	4521.38
956.316	4503.38
956.544	4546.38
956.772	4434.38
956.999	4388.38
957.227	4467.38
957.455	4335.38
957.683	4324.38
957.91	4298.38
958.138	4265.38
958.365	4274.38
958.593	4221.38
958.82	4154.38
959.048	4255.38
959.275	4184.38
959.502	4200.38
959.73	4094.38
959.957	4143.38
960.184	4242.38
960.411	4100.38
960.638	4205.38
960.865	4157.38
961.092	4182.38
961.319	4070.38
961.546	4129.38
961.773	4187.38
962	4098.38
962.227	4166.38
962.454	4101.38
962.68	4086.38
962.907	3995.38
963.134	4001.38
963.36	3939.38
963.587	4045.38
963.813	3915.38
964.04	3939.38
964.266	3849.38
964.493	3981.38
964.719	3912.38
964.945	3843.38
965.171	3752.38
965.398	3788.38
965.624	3852.38
965.85	3747.38
966.076	3704.38
966.302	3793.38
966.528	3749.38
966.754	3730.38
966.98	3716.38
967.206	3695.38
967.431	3630.38
967.657	3703.38
967.883	3653.38
968.109	3675.38
968.334	3587.38
968.56	3622.38
968.785	3597.38
969.011	3541.38
969.236	3601.38
969.462	3555.38
969.687	3549.38
969.912	3625.38
970.138	3618.38
970.363	3480.38
970.588	3505.38
970.813	3464.38
971.038	3440.38
971.263	3460.38
971.488	3479.38
971.713	3477.38
971.938	3442.38
972.163	3335.38
972.388	3417.38
972.613	3325.38
972.838	3342.38
973.062	3318.38
973.287	3316.38
973.512	3268.38
973.736	3284.38
973.961	3285.38
974.185	3270.38
974.41	3237.38
974.634	3178.38
974.858	3157.38
975.083	3219.38
975.307	3184.38
975.531	3130.38
975.755	3097.38
975.98	3106.38
976.204	3021.38
976.428	3019.38
976.652	3028.38
976.876	3000.38
977.1	3014.38
977.324	2954.38
977.547	3024.38
977.771	2997.38
977.995	2995.38
978.219	2921.38
978.442	2989.38
978.666	2928.38
978.89	2965.38
979.113	2928.38
979.337	2913.38
979.56	2858.38
979.783	2970.38
980.007	2872.38
980.23	2889.38
980.453	2843.38
980.677	2853.38
980.9	2816.38
981.123	2746.38
981.346	2821.38
981.569	2816.38
981.792	2803.38
982.015	2766.38
982.238	2761.38
982.461	2755.38
982.684	2672.38
982.907	2672.38
983.129	2674.38
983.352	2708.38
983.575	2650.38
983.797	2647.38
984.02	2607.38
984.242	2605.38
984.465	2602.38
984.687	2613.38
984.91	2626.38
985.132	2606.38
985.354	2604.38
985.577	2605.38
985.799	2601.38
986.021	2490.38
986.243	2512.38
986.465	2519.38
986.687	2541.38
986.909	2575.38
987.131	2546.38
987.353	2454.38
987.575	2503.38
987.797	2454.38
988.019	2424.38
988.241	2448.38
988.462	2387.38
988.684	2474.38
988.906	2471.38
989.127	2512.38
989.349	2389.38
989.57	2407.38
989.792	2432.38
990.013	2454.38
990.234	2451.38
990.456	2463.38
990.677	2422.38
990.898	2375.38
991.119	2379.38
991.341	2391.38
991.562	2291.38
991.783	2375.38
992.004	2279.38
992.225	2242.38
992.446	2316.38
992.667	2174.38
992.887	2263.38
993.108	2175.38
993.329	2281.38
993.55	2264.38
993.77	2154.38
993.991	2166.38
994.212	2201.38
994.432	2189.38
994.653	2184.38
994.873	2163.38
995.093	2066.38
995.314	2089.38
995.534	2176.38
995.754	2184.38
995.975	2178.38
996.195	2069.38
996.415	2115.38
996.635	2099.38
996.855	2116.38
997.075	2087.38
997.295	2045.38
997.515	2035.38
997.735	2135.38
997.955	2051.38
998.174	2073.38
998.394	2025.38
998.614	2070.38
998.834	2030.38
999.053	2096.38
999.273	2018.38
999.492	2104.38
999.712	2042.38
999.931	2006.38
1000.151	2022.38
1000.37	2004.38
1000.589	2031.38
1000.809	1991.38
1001.028	2088.38
1001.247	2001.38
1001.466	1886.38
1001.685	2043.38
1001.904	1954.38
1002.123	1930.38
1002.342	1930.38
1002.561	1864.38
1002.78	1927.38
1002.999	1993.38
1003.218	1914.38
1003.436	1894.38
1003.655	1923.38
1003.874	1864.38
1004.092	1899.38
1004.311	1926.38
1004.53	1879.38
1004.748	1925.38
1004.966	1854.38
1005.185	1927.38
1005.403	1898.38
1005.622	1882.38
1005.84	1953.38
1006.058	1822.38
1006.276	1842.38
1006.494	2329.38
1006.712	1833.38
1006.931	1898.38
1007.149	1817.38
1007.367	1817.38
1007.584	1869.38
1007.802	1880.38
1008.02	1831.38
1008.238	1927.38
1008.456	1938.38
1008.673	1784.38
1008.891	1912.38
1009.109	1841.38
1009.326	1904.38
1009.544	1979.38
1009.761	1910.38
1009.979	1975.38
1010.196	1992.38
1010.413	2110.38
1010.631	2135.38
1010.848	2161.38
1011.065	2192.38
1011.282	2125.38
1011.5	2052.38
1011.717	2161.38
1011.934	2088.38
1012.151	2128.38
1012.368	2086.38
1012.585	2022.38
1012.801	2093.38
1013.018	2074.38
1013.235	2021.38
1013.452	2041.38
1013.669	2025.38
1013.885	2034.38
1014.102	2074.38
1014.318	2039.38
1014.535	1998.38
1014.751	2056.38
1014.968	2002.38
1015.184	2018.38
1015.401	1952.38
1015.617	1986.38
1015.833	1908.38
1016.049	1884.38
1016.266	1886.38
1016.482	1865.38
1016.698	1813.38
1016.914	1842.38
1017.13	1797.38
1017.346	1792.38
1017.562	1869.38
1017.778	1757.38
1017.993	1746.38
1018.209	1778.38
1018.425	1767.38
1018.641	1707.38
1018.856	1726.38
1019.072	1722.38
1019.288	1783.38
1019.503	1733.38
1019.719	1655.38
1019.934	1654.38
1020.149	1726.38
1020.365	1648.38
1020.58	1590.38
1020.795	1664.38
1021.011	1624.38
1021.226	1576.38
1021.441	1593.38
1021.656	1493.38
1021.871	1426.38
1022.086	1418.38
1022.301	1377.38
1022.516	1405.38
1022.731	1474.38
1022.946	1344.38
1023.16	1330.38
1023.375	1305.38
1023.59	1253.38
1023.804	1255.38
1024.019	1343.38
1024.234	1204.38
1024.448	1241.38
1024.663	1141.38
1024.877	1168.38
1025.092	1166.38
1025.306	1183.38
1025.52	1086.38
1025.734	1171.38
1025.949	1056.38
1026.163	1051.38
1026.377	990.38
1026.591	1030.38
1026.805	966.38
1027.019	925.38
1027.233	913.38
1027.447	870.38
1027.661	960.38
1027.875	891.38
1028.088	870.38
1028.302	831.38
1028.516	804.38
1028.73	799.38
1028.943	787.38
1029.157	721.38
1029.37	677.38
1029.584	-3.62
1029.797	-2.62
1030.011	1.38
1030.224	-3.62
