Data from QEP037381__56__14-45-15-873.txt Node

Date: Wed Dec 21 14:45:15 EST 2022
User: dcclab
Spectrometer: QEP03738
Trigger mode: 4
Integration Time (sec): 1.000000E1
Scans to average: 1
Electric dark correction enabled: true
Nonlinearity correction enabled: false
Boxcar width: 0
XAxis mode: Wavelengths
Number of Pixels in Spectrum: 1044
>>>>>Begin Spectral Data<<<<<
784.041	12.38
784.3	-1.62
784.558	2.38
784.817	-3.62
785.075	95618.38
785.334	16942.38
785.592	7998.38
785.851	5589.38
786.109	4204.38
786.368	3304.38
786.626	2704.38
786.884	2214.38
787.143	1869.38
787.401	1557.38
787.659	1416.38
787.917	1219.38
788.175	1121.38
788.433	991.38
788.691	898.38
788.949	812.38
789.207	801.38
789.465	689.38
789.723	646.38
789.98	603.38
790.238	633.38
790.496	607.38
790.753	575.38
791.011	607.38
791.268	552.38
791.526	540.38
791.783	523.38
792.041	535.38
792.298	450.38
792.556	504.38
792.813	505.38
793.07	470.38
793.327	462.38
793.584	537.38
793.841	464.38
794.099	474.38
794.356	519.38
794.613	446.38
794.869	477.38
795.126	427.38
795.383	412.38
795.64	434.38
795.897	388.38
796.153	449.38
796.41	435.38
796.667	413.38
796.923	428.38
797.18	423.38
797.436	458.38
797.693	404.38
797.949	470.38
798.206	504.38
798.462	415.38
798.718	473.38
798.974	457.38
799.231	496.38
799.487	479.38
799.743	493.38
799.999	518.38
800.255	512.38
800.511	513.38
800.767	532.38
801.023	547.38
801.279	578.38
801.534	615.38
801.79	656.38
802.046	694.38
802.302	831.38
802.557	958.38
802.813	1174.38
803.068	1466.38
803.324	2057.38
803.579	2802.38
803.835	3899.38
804.09	5335.38
804.345	6917.38
804.601	8692.38
804.856	10543.38
805.111	12137.38
805.366	13377.38
805.621	14381.38
805.876	15067.38
806.131	15414.38
806.386	15714.38
806.641	16036.38
806.896	16294.38
807.151	16551.38
807.406	16680.38
807.661	17109.38
807.915	17362.38
808.17	17622.38
808.425	17807.38
808.679	17931.38
808.934	18188.38
809.188	18291.38
809.443	18409.38
809.697	18680.38
809.951	18732.38
810.206	18975.38
810.46	19119.38
810.714	19230.38
810.968	19480.38
811.223	19454.38
811.477	19638.38
811.731	19851.38
811.985	19982.38
812.239	20077.38
812.493	20102.38
812.747	20220.38
813	20258.38
813.254	20388.38
813.508	20393.38
813.762	20452.38
814.015	20695.38
814.269	20647.38
814.522	20860.38
814.776	21181.38
815.03	21341.38
815.283	21675.38
815.536	22008.38
815.79	22277.38
816.043	22590.38
816.296	22908.38
816.55	23194.38
816.803	23543.38
817.056	23738.38
817.309	24049.38
817.562	24213.38
817.815	24432.38
818.068	24608.38
818.321	24765.38
818.574	25004.38
818.827	25403.38
819.079	25679.38
819.332	26160.38
819.585	26398.38
819.838	26713.38
820.09	26907.38
820.343	27030.38
820.595	27121.38
820.848	27301.38
821.1	27481.38
821.353	27406.38
821.605	27488.38
821.857	27403.38
822.11	27292.38
822.362	27336.38
822.614	27141.38
822.866	27173.38
823.118	27274.38
823.37	27292.38
823.622	27346.38
823.874	27413.38
824.126	27614.38
824.378	27495.38
824.63	27628.38
824.882	27722.38
825.134	27543.38
825.385	27602.38
825.637	27484.38
825.888	27463.38
826.14	27321.38
826.392	27294.38
826.643	26989.38
826.895	27060.38
827.146	26914.38
827.397	26879.38
827.649	26912.38
827.9	26883.38
828.151	26850.38
828.402	26887.38
828.653	27015.38
828.905	27020.38
829.156	27114.38
829.407	26919.38
829.658	27097.38
829.909	27177.38
830.159	27052.38
830.41	27046.38
830.661	26863.38
830.912	26518.38
831.162	26489.38
831.413	26390.38
831.664	26434.38
831.914	26542.38
832.165	26387.38
832.415	26386.38
832.666	26264.38
832.916	26360.38
833.167	26332.38
833.417	26422.38
833.667	26216.38
833.917	26113.38
834.168	26123.38
834.418	25935.38
834.668	25897.38
834.918	25931.38
835.168	25663.38
835.418	25562.38
835.668	25586.38
835.918	25531.38
836.167	25308.38
836.417	25386.38
836.667	25315.38
836.917	25318.38
837.166	24962.38
837.416	25231.38
837.666	25226.38
837.915	25116.38
838.165	25050.38
838.414	24982.38
838.663	24960.38
838.913	24959.38
839.162	24739.38
839.411	24798.38
839.661	24623.38
839.91	24548.38
840.159	24596.38
840.408	24570.38
840.657	24657.38
840.906	24575.38
841.155	24629.38
841.404	24532.38
841.653	24481.38
841.902	24591.38
842.15	24665.38
842.399	24568.38
842.648	24561.38
842.897	24459.38
843.145	24309.38
843.394	24178.38
843.642	23975.38
843.891	23778.38
844.139	23818.38
844.388	23702.38
844.636	23502.38
844.884	23583.38
845.133	23506.38
845.381	23527.38
845.629	23425.38
845.877	23506.38
846.125	23336.38
846.373	23448.38
846.621	23244.38
846.869	23230.38
847.117	23142.38
847.365	23056.38
847.613	22787.38
847.861	22818.38
848.108	22771.38
848.356	22703.38
848.604	22608.38
848.851	22692.38
849.099	22669.38
849.346	22677.38
849.594	22868.38
849.841	22855.38
850.089	22927.38
850.336	22891.38
850.583	22921.38
850.831	22718.38
851.078	22666.38
851.325	22668.38
851.572	22679.38
851.819	22365.38
852.066	22096.38
852.313	21714.38
852.56	21545.38
852.807	21553.38
853.054	21474.38
853.301	21432.38
853.548	21432.38
853.794	21478.38
854.041	21620.38
854.288	21693.38
854.534	21860.38
854.781	21884.38
855.028	21622.38
855.274	21665.38
855.52	21528.38
855.767	21387.38
856.013	21486.38
856.26	21720.38
856.506	21228.38
856.752	21198.38
856.998	21238.38
857.244	21319.38
857.49	21354.38
857.736	21329.38
857.982	21338.38
858.228	21244.38
858.474	21044.38
858.72	20944.38
858.966	20786.38
859.212	20552.38
859.458	20348.38
859.703	20182.38
859.949	19951.38
860.195	19894.38
860.44	19759.38
860.686	19674.38
860.931	19693.38
861.177	19587.38
861.422	19457.38
861.667	19337.38
861.913	19414.38
862.158	19407.38
862.403	19518.38
862.648	19562.38
862.893	19468.38
863.138	19482.38
863.384	19361.38
863.629	19383.38
863.873	19348.38
864.118	19244.38
864.363	19183.38
864.608	19096.38
864.853	19159.38
865.098	18943.38
865.342	18829.38
865.587	18852.38
865.832	18919.38
866.076	18781.38
866.321	18610.38
866.565	18628.38
866.81	18454.38
867.054	18441.38
867.298	18409.38
867.543	18355.38
867.787	18377.38
868.031	18287.38
868.275	18284.38
868.519	18137.38
868.764	18231.38
869.008	18096.38
869.252	18127.38
869.496	17978.38
869.739	18003.38
869.983	17950.38
870.227	17876.38
870.471	17884.38
870.715	17990.38
870.958	18070.38
871.202	17989.38
871.446	18143.38
871.689	18004.38
871.933	17995.38
872.176	17994.38
872.42	17847.38
872.663	17897.38
872.906	17924.38
873.15	17846.38
873.393	17766.38
873.636	17687.38
873.879	17530.38
874.122	17422.38
874.366	17047.38
874.609	16995.38
874.852	16897.38
875.095	16850.38
875.337	16730.38
875.58	16612.38
875.823	16626.38
876.066	16519.38
876.309	16501.38
876.551	16259.38
876.794	16205.38
877.037	16315.38
877.279	16230.38
877.522	16214.38
877.764	16310.38
878.007	16204.38
878.249	16110.38
878.491	16097.38
878.734	16181.38
878.976	16103.38
879.218	15901.38
879.46	15912.38
879.702	15673.38
879.945	15748.38
880.187	15445.38
880.429	15463.38
880.671	15348.38
880.912	15289.38
881.154	15179.38
881.396	15146.38
881.638	15165.38
881.88	15122.38
882.121	15006.38
882.363	15047.38
882.605	15081.38
882.846	15004.38
883.088	14978.38
883.329	15037.38
883.571	14937.38
883.812	15014.38
884.053	15251.38
884.295	15408.38
884.536	15666.38
884.777	15559.38
885.018	15371.38
885.259	15335.38
885.5	15217.38
885.742	15523.38
885.982	15242.38
886.223	15159.38
886.464	14985.38
886.705	14766.38
886.946	14792.38
887.187	14421.38
887.428	14414.38
887.668	14185.38
887.909	14008.38
888.15	13901.38
888.39	13851.38
888.631	13698.38
888.871	13653.38
889.111	13529.38
889.352	13480.38
889.592	13338.38
889.833	13171.38
890.073	13089.38
890.313	13081.38
890.553	12976.38
890.793	12852.38
891.033	12831.38
891.273	12740.38
891.513	12743.38
891.753	12648.38
891.993	12645.38
892.233	12712.38
892.473	12823.38
892.713	12731.38
892.952	12654.38
893.192	12629.38
893.432	12657.38
893.671	12714.38
893.911	12598.38
894.15	12515.38
894.39	12426.38
894.629	12388.38
894.869	12313.38
895.108	12256.38
895.347	12058.38
895.587	12130.38
895.826	11944.38
896.065	11955.38
896.304	11994.38
896.543	11962.38
896.782	11861.38
897.021	11860.38
897.26	11763.38
897.499	11882.38
897.738	11824.38
897.977	11655.38
898.216	11632.38
898.454	11510.38
898.693	11436.38
898.932	11405.38
899.17	11353.38
899.409	11300.38
899.647	11256.38
899.886	11201.38
900.124	11243.38
900.363	11212.38
900.601	11256.38
900.839	11201.38
901.078	11266.38
901.316	11278.38
901.554	11293.38
901.792	11339.38
902.03	11278.38
902.268	11340.38
902.506	11277.38
902.744	11180.38
902.982	11178.38
903.22	11010.38
903.458	10874.38
903.695	10725.38
903.933	10683.38
904.171	10426.38
904.409	10348.38
904.646	10248.38
904.884	10102.38
905.121	10046.38
905.359	9880.38
905.596	9766.38
905.833	9712.38
906.071	9706.38
906.308	9640.38
906.545	9644.38
906.783	9582.38
907.02	9592.38
907.257	9533.38
907.494	9549.38
907.731	9497.38
907.968	9484.38
908.205	9377.38
908.442	9286.38
908.679	9302.38
908.915	9192.38
909.152	9154.38
909.389	9019.38
909.626	9002.38
909.862	8974.38
910.099	8871.38
910.335	8955.38
910.572	8812.38
910.808	8816.38
911.045	8728.38
911.281	8720.38
911.518	8722.38
911.754	8625.38
911.99	8637.38
912.226	8589.38
912.463	8470.38
912.699	8391.38
912.935	8399.38
913.171	8307.38
913.407	8176.38
913.643	8215.38
913.879	8139.38
914.114	8070.38
914.35	7936.38
914.586	7864.38
914.822	7750.38
915.057	7860.38
915.293	7722.38
915.529	7628.38
915.764	7763.38
916	7659.38
916.235	7575.38
916.471	7556.38
916.706	7530.38
916.941	7546.38
917.177	7549.38
917.412	7544.38
917.647	7536.38
917.882	7472.38
918.117	7503.38
918.352	7468.38
918.588	7460.38
918.823	7352.38
919.057	7294.38
919.292	7087.38
919.527	7270.38
919.762	7058.38
919.997	7052.38
920.232	6898.38
920.466	6968.38
920.701	6779.38
920.935	6773.38
921.17	6726.38
921.405	6683.38
921.639	6712.38
921.873	6626.38
922.108	6688.38
922.342	6629.38
922.576	6559.38
922.811	6526.38
923.045	6559.38
923.279	6602.38
923.513	6455.38
923.747	6475.38
923.981	6380.38
924.215	6298.38
924.449	6281.38
924.683	6234.38
924.917	6197.38
925.151	6197.38
925.385	6223.38
925.618	6118.38
925.852	6144.38
926.086	6091.38
926.319	6081.38
926.553	6101.38
926.786	6151.38
927.02	6060.38
927.253	6094.38
927.486	6128.38
927.72	5993.38
927.953	6066.38
928.186	6058.38
928.42	6034.38
928.653	5971.38
928.886	5919.38
929.119	5909.38
929.352	5904.38
929.585	5789.38
929.818	5777.38
930.051	5749.38
930.284	5742.38
930.516	5606.38
930.749	5621.38
930.982	5579.38
931.215	5583.38
931.447	5595.38
931.68	5535.38
931.912	5486.38
932.145	5456.38
932.377	5491.38
932.61	5563.38
932.842	5403.38
933.074	5497.38
933.307	5428.38
933.539	5509.38
933.771	5533.38
934.003	5421.38
934.236	5506.38
934.468	5518.38
934.7	5375.38
934.932	5432.38
935.164	5377.38
935.395	5368.38
935.627	5380.38
935.859	5356.38
936.091	5286.38
936.323	5276.38
936.554	5309.38
936.786	5299.38
937.017	5158.38
937.249	5198.38
937.481	5173.38
937.712	5216.38
937.943	5116.38
938.175	5154.38
938.406	5146.38
938.637	5168.38
938.869	5099.38
939.1	5135.38
939.331	5112.38
939.562	5065.38
939.793	5089.38
940.024	5059.38
940.255	5050.38
940.486	5028.38
940.717	5020.38
940.948	4950.38
941.179	4873.38
941.409	4918.38
941.64	4864.38
941.871	4882.38
942.102	4858.38
942.332	4924.38
942.563	4927.38
942.793	4931.38
943.024	4842.38
943.254	4827.38
943.484	4955.38
943.715	4917.38
943.945	4901.38
944.175	4811.38
944.405	4808.38
944.636	4826.38
944.866	4773.38
945.096	4791.38
945.326	4759.38
945.556	4786.38
945.786	4792.38
946.016	4731.38
946.245	4598.38
946.475	4659.38
946.705	4613.38
946.935	4579.38
947.164	4544.38
947.394	4561.38
947.624	4519.38
947.853	4556.38
948.083	4530.38
948.312	4480.38
948.542	4420.38
948.771	4377.38
949	4377.38
949.23	4402.38
949.459	4414.38
949.688	4457.38
949.917	4410.38
950.146	4414.38
950.375	4481.38
950.604	4367.38
950.833	4427.38
951.062	4429.38
951.291	4396.38
951.52	4287.38
951.749	4346.38
951.978	4294.38
952.206	4287.38
952.435	4273.38
952.664	4307.38
952.892	4305.38
953.121	4236.38
953.349	4283.38
953.578	4231.38
953.806	4170.38
954.035	4157.38
954.263	4183.38
954.491	4094.38
954.719	4164.38
954.948	4098.38
955.176	4007.38
955.404	3980.38
955.632	4030.38
955.86	4045.38
956.088	4033.38
956.316	4063.38
956.544	4038.38
956.772	3957.38
956.999	3923.38
957.227	4009.38
957.455	3942.38
957.683	3901.38
957.91	3841.38
958.138	3810.38
958.365	3827.38
958.593	3756.38
958.82	3741.38
959.048	3803.38
959.275	3761.38
959.502	3730.38
959.73	3704.38
959.957	3748.38
960.184	3761.38
960.411	3727.38
960.638	3722.38
960.865	3733.38
961.092	3727.38
961.319	3638.38
961.546	3725.38
961.773	3754.38
962	3636.38
962.227	3711.38
962.454	3703.38
962.68	3590.38
962.907	3657.38
963.134	3573.38
963.36	3581.38
963.587	3665.38
963.813	3495.38
964.04	3539.38
964.266	3486.38
964.493	3522.38
964.719	3528.38
964.945	3500.38
965.171	3404.38
965.398	3426.38
965.624	3442.38
965.85	3349.38
966.076	3350.38
966.302	3381.38
966.528	3342.38
966.754	3345.38
966.98	3358.38
967.206	3335.38
967.431	3242.38
967.657	3293.38
967.883	3337.38
968.109	3269.38
968.334	3210.38
968.56	3216.38
968.785	3226.38
969.011	3215.38
969.236	3237.38
969.462	3216.38
969.687	3184.38
969.912	3219.38
970.138	3249.38
970.363	3140.38
970.588	3196.38
970.813	3148.38
971.038	3147.38
971.263	3148.38
971.488	3112.38
971.713	3126.38
971.938	3142.38
972.163	3025.38
972.388	3024.38
972.613	3019.38
972.838	3051.38
973.062	3020.38
973.287	3005.38
973.512	2910.38
973.736	2950.38
973.961	2936.38
974.185	2913.38
974.41	2929.38
974.634	2843.38
974.858	2846.38
975.083	2872.38
975.307	2903.38
975.531	2833.38
975.755	2769.38
975.98	2755.38
976.204	2728.38
976.428	2698.38
976.652	2711.38
976.876	2687.38
977.1	2730.38
977.324	2661.38
977.547	2748.38
977.771	2745.38
977.995	2714.38
978.219	2654.38
978.442	2775.38
978.666	2649.38
978.89	2686.38
979.113	2657.38
979.337	2643.38
979.56	2627.38
979.783	2704.38
980.007	2584.38
980.23	2619.38
980.453	2549.38
980.677	2598.38
980.9	2609.38
981.123	2470.38
981.346	2585.38
981.569	2511.38
981.792	2556.38
982.015	2514.38
982.238	2480.38
982.461	2489.38
982.684	2399.38
982.907	2411.38
983.129	2382.38
983.352	2456.38
983.575	2441.38
983.797	2419.38
984.02	2374.38
984.242	2364.38
984.465	2375.38
984.687	2352.38
984.91	2432.38
985.132	2395.38
985.354	2395.38
985.577	2395.38
985.799	2320.38
986.021	2256.38
986.243	2276.38
986.465	2302.38
986.687	2350.38
986.909	2387.38
987.131	2321.38
987.353	2258.38
987.575	2267.38
987.797	2223.38
988.019	2162.38
988.241	2247.38
988.462	2175.38
988.684	2257.38
988.906	2301.38
989.127	2292.38
989.349	2156.38
989.57	2202.38
989.792	2226.38
990.013	2218.38
990.234	2228.38
990.456	2252.38
990.677	2220.38
990.898	2180.38
991.119	2171.38
991.341	2143.38
991.562	2101.38
991.783	2163.38
992.004	2072.38
992.225	2035.38
992.446	2094.38
992.667	2004.38
992.887	2074.38
993.108	1988.38
993.329	2113.38
993.55	2060.38
993.77	1989.38
993.991	1997.38
994.212	2050.38
994.432	1997.38
994.653	2023.38
994.873	1986.38
995.093	1877.38
995.314	1910.38
995.534	1988.38
995.754	2030.38
995.975	2003.38
996.195	1887.38
996.415	1945.38
996.635	1948.38
996.855	1940.38
997.075	1900.38
997.295	1896.38
997.515	1870.38
997.735	1931.38
997.955	1874.38
998.174	1887.38
998.394	1881.38
998.614	1921.38
998.834	1861.38
999.053	1940.38
999.273	1909.38
999.492	1947.38
999.712	1856.38
999.931	1832.38
1000.151	1873.38
1000.37	1835.38
1000.589	1926.38
1000.809	1810.38
1001.028	1938.38
1001.247	1864.38
1001.466	1744.38
1001.685	1900.38
1001.904	1817.38
1002.123	1801.38
1002.342	1818.38
1002.561	1757.38
1002.78	1792.38
1002.999	1873.38
1003.218	1762.38
1003.436	1747.38
1003.655	1768.38
1003.874	1758.38
1004.092	1785.38
1004.311	1787.38
1004.53	1749.38
1004.748	1787.38
1004.966	1736.38
1005.185	1804.38
1005.403	1776.38
1005.622	1757.38
1005.84	1831.38
1006.058	1697.38
1006.276	1753.38
1006.494	2231.38
1006.712	1714.38
1006.931	1789.38
1007.149	1673.38
1007.367	1688.38
1007.584	1741.38
1007.802	1758.38
1008.02	1723.38
1008.238	1819.38
1008.456	1785.38
1008.673	1680.38
1008.891	1785.38
1009.109	1743.38
1009.326	1797.38
1009.544	1918.38
1009.761	1783.38
1009.979	1848.38
1010.196	1917.38
1010.413	2013.38
1010.631	2052.38
1010.848	2109.38
1011.065	2128.38
1011.282	2029.38
1011.5	1985.38
1011.717	2092.38
1011.934	2040.38
1012.151	2014.38
1012.368	2014.38
1012.585	1976.38
1012.801	2031.38
1013.018	1996.38
1013.235	1956.38
1013.452	1958.38
1013.669	1990.38
1013.885	1969.38
1014.102	1994.38
1014.318	1941.38
1014.535	1961.38
1014.751	1980.38
1014.968	1954.38
1015.184	1998.38
1015.401	1879.38
1015.617	1932.38
1015.833	1836.38
1016.049	1875.38
1016.266	1831.38
1016.482	1869.38
1016.698	1777.38
1016.914	1797.38
1017.13	1757.38
1017.346	1761.38
1017.562	1797.38
1017.778	1706.38
1017.993	1708.38
1018.209	1747.38
1018.425	1711.38
1018.641	1678.38
1018.856	1658.38
1019.072	1695.38
1019.288	1721.38
1019.503	1683.38
1019.719	1607.38
1019.934	1594.38
1020.149	1667.38
1020.365	1610.38
1020.58	1551.38
1020.795	1586.38
1021.011	1513.38
1021.226	1516.38
1021.441	1511.38
1021.656	1411.38
1021.871	1381.38
1022.086	1377.38
1022.301	1349.38
1022.516	1327.38
1022.731	1386.38
1022.946	1312.38
1023.16	1273.38
1023.375	1252.38
1023.59	1221.38
1023.804	1172.38
1024.019	1272.38
1024.234	1137.38
1024.448	1182.38
1024.663	1090.38
1024.877	1078.38
1025.092	1122.38
1025.306	1126.38
1025.52	1023.38
1025.734	1111.38
1025.949	1005.38
1026.163	994.38
1026.377	924.38
1026.591	983.38
1026.805	912.38
1027.019	897.38
1027.233	870.38
1027.447	806.38
1027.661	939.38
1027.875	846.38
1028.088	848.38
1028.302	780.38
1028.516	763.38
1028.73	763.38
1028.943	748.38
1029.157	719.38
1029.37	665.38
1029.584	-3.62
1029.797	-1.62
1030.011	-1.62
1030.224	-2.62
