Data from QEP037381__106__15-04-56-079.txt Node

Date: Wed Dec 21 15:04:56 EST 2022
User: dcclab
Spectrometer: QEP03738
Trigger mode: 4
Integration Time (sec): 1.000000E1
Scans to average: 1
Electric dark correction enabled: true
Nonlinearity correction enabled: false
Boxcar width: 0
XAxis mode: Wavelengths
Number of Pixels in Spectrum: 1044
>>>>>Begin Spectral Data<<<<<
784.041	16.5
784.3	2.5
784.558	-3.5
784.817	-3.5
785.075	91378.5
785.334	15988.5
785.592	7584.5
785.851	5177.5
786.109	3934.5
786.368	3004.5
786.626	2449.5
786.884	2017.5
787.143	1689.5
787.401	1381.5
787.659	1271.5
787.917	1103.5
788.175	1002.5
788.433	878.5
788.691	777.5
788.949	740.5
789.207	702.5
789.465	623.5
789.723	598.5
789.98	558.5
790.238	591.5
790.496	558.5
790.753	537.5
791.011	601.5
791.268	522.5
791.526	505.5
791.783	509.5
792.041	506.5
792.298	426.5
792.556	486.5
792.813	472.5
793.07	450.5
793.327	433.5
793.584	519.5
793.841	440.5
794.099	455.5
794.356	522.5
794.613	420.5
794.869	464.5
795.126	431.5
795.383	416.5
795.64	420.5
795.897	397.5
796.153	432.5
796.41	446.5
796.667	400.5
796.923	411.5
797.18	419.5
797.436	455.5
797.693	400.5
797.949	461.5
798.206	488.5
798.462	400.5
798.718	456.5
798.974	433.5
799.231	461.5
799.487	478.5
799.743	471.5
799.999	490.5
800.255	487.5
800.511	481.5
800.767	547.5
801.023	528.5
801.279	550.5
801.534	577.5
801.79	618.5
802.046	653.5
802.302	783.5
802.557	878.5
802.813	1094.5
803.068	1358.5
803.324	1826.5
803.579	2458.5
803.835	3341.5
804.09	4559.5
804.345	5939.5
804.601	7476.5
804.856	8997.5
805.111	10447.5
805.366	11458.5
805.621	12305.5
805.876	12891.5
806.131	13317.5
806.386	13483.5
806.641	13659.5
806.896	14030.5
807.151	14346.5
807.406	14451.5
807.661	14690.5
807.915	14964.5
808.17	15175.5
808.425	15416.5
808.679	15531.5
808.934	15730.5
809.188	15854.5
809.443	16044.5
809.697	16254.5
809.951	16328.5
810.206	16566.5
810.46	16662.5
810.714	16786.5
810.968	17019.5
811.223	17090.5
811.477	17203.5
811.731	17404.5
811.985	17501.5
812.239	17487.5
812.493	17634.5
812.747	17694.5
813	17635.5
813.254	17866.5
813.508	17948.5
813.762	17915.5
814.015	18079.5
814.269	18233.5
814.522	18394.5
814.776	18602.5
815.03	18894.5
815.283	19170.5
815.536	19438.5
815.79	19664.5
816.043	20003.5
816.296	20296.5
816.55	20533.5
816.803	20714.5
817.056	21104.5
817.309	21140.5
817.562	21489.5
817.815	21672.5
818.068	21775.5
818.321	22100.5
818.574	22206.5
818.827	22611.5
819.079	22859.5
819.332	23389.5
819.585	23540.5
819.838	23892.5
820.09	23931.5
820.343	24116.5
820.595	24273.5
820.848	24476.5
821.1	24481.5
821.353	24523.5
821.605	24448.5
821.857	24557.5
822.11	24294.5
822.362	24256.5
822.614	24270.5
822.866	24341.5
823.118	24320.5
823.37	24414.5
823.622	24541.5
823.874	24558.5
824.126	24718.5
824.378	24600.5
824.63	24744.5
824.882	24774.5
825.134	24690.5
825.385	24810.5
825.637	24623.5
825.888	24614.5
826.14	24598.5
826.392	24547.5
826.643	24380.5
826.895	24158.5
827.146	24218.5
827.397	24123.5
827.649	24130.5
827.9	24057.5
828.151	24133.5
828.402	24176.5
828.653	24360.5
828.905	24365.5
829.156	24337.5
829.407	24327.5
829.658	24494.5
829.909	24564.5
830.159	24603.5
830.41	24502.5
830.661	24337.5
830.912	24228.5
831.162	24192.5
831.413	24085.5
831.664	24136.5
831.914	24103.5
832.165	24012.5
832.415	23977.5
832.666	24037.5
832.916	24034.5
833.167	24036.5
833.417	24045.5
833.667	23875.5
833.917	23868.5
834.168	23776.5
834.418	23738.5
834.668	23714.5
834.918	23526.5
835.168	23586.5
835.418	23303.5
835.668	23411.5
835.918	23268.5
836.167	23246.5
836.417	23239.5
836.667	23312.5
836.917	23264.5
837.166	23173.5
837.416	23216.5
837.666	23230.5
837.915	23136.5
838.165	23179.5
838.414	22983.5
838.663	22974.5
838.913	23139.5
839.162	22974.5
839.411	23071.5
839.661	23068.5
839.91	22899.5
840.159	22886.5
840.408	22873.5
840.657	22988.5
840.906	22901.5
841.155	22937.5
841.404	23001.5
841.653	23032.5
841.902	23039.5
842.15	23130.5
842.399	23088.5
842.648	23013.5
842.897	22964.5
843.145	22721.5
843.394	22624.5
843.642	22639.5
843.891	22561.5
844.139	22346.5
844.388	22143.5
844.636	22004.5
844.884	22063.5
845.133	22120.5
845.381	22085.5
845.629	22092.5
845.877	22083.5
846.125	22051.5
846.373	22073.5
846.621	21958.5
846.869	21828.5
847.117	21692.5
847.365	21545.5
847.613	21514.5
847.861	21606.5
848.108	21477.5
848.356	21416.5
848.604	21547.5
848.851	21393.5
849.099	21420.5
849.346	21476.5
849.594	21679.5
849.841	21673.5
850.089	21797.5
850.336	21804.5
850.583	21849.5
850.831	21890.5
851.078	21719.5
851.325	21740.5
851.572	21802.5
851.819	21567.5
852.066	20963.5
852.313	20734.5
852.56	20624.5
852.807	20464.5
853.054	20452.5
853.301	20396.5
853.548	20464.5
853.794	20728.5
854.041	20783.5
854.288	20734.5
854.534	20967.5
854.781	20984.5
855.028	20797.5
855.274	20920.5
855.52	20756.5
855.767	20724.5
856.013	20838.5
856.26	21089.5
856.506	20490.5
856.752	20474.5
856.998	20448.5
857.244	20568.5
857.49	20776.5
857.736	20711.5
857.982	20775.5
858.228	20595.5
858.474	20367.5
858.72	20293.5
858.966	20102.5
859.212	19900.5
859.458	19732.5
859.703	19465.5
859.949	19315.5
860.195	19210.5
860.44	19064.5
860.686	19066.5
860.931	19148.5
861.177	18908.5
861.422	18712.5
861.667	18644.5
861.913	18688.5
862.158	18687.5
862.403	18798.5
862.648	18727.5
862.893	18722.5
863.138	18755.5
863.384	18678.5
863.629	18672.5
863.873	18642.5
864.118	18720.5
864.363	18568.5
864.608	18514.5
864.853	18410.5
865.098	18271.5
865.342	18205.5
865.587	18208.5
865.832	18216.5
866.076	18218.5
866.321	18179.5
866.565	18141.5
866.81	17958.5
867.054	17906.5
867.298	17948.5
867.543	17798.5
867.787	17769.5
868.031	17766.5
868.275	17714.5
868.519	17719.5
868.764	17733.5
869.008	17616.5
869.252	17703.5
869.496	17690.5
869.739	17572.5
869.983	17710.5
870.227	17743.5
870.471	17716.5
870.715	17890.5
870.958	17865.5
871.202	17861.5
871.446	17999.5
871.689	17834.5
871.933	17943.5
872.176	17978.5
872.42	17856.5
872.663	17797.5
872.906	17856.5
873.15	17810.5
873.393	17762.5
873.636	17805.5
873.879	17688.5
874.122	17453.5
874.366	17090.5
874.609	17049.5
874.852	16808.5
875.095	16633.5
875.337	16651.5
875.58	16373.5
875.823	16517.5
876.066	16422.5
876.309	16442.5
876.551	16239.5
876.794	16171.5
877.037	16261.5
877.279	16039.5
877.522	15958.5
877.764	16058.5
878.007	15997.5
878.249	15961.5
878.491	15851.5
878.734	15860.5
878.976	15871.5
879.218	15716.5
879.46	15589.5
879.702	15474.5
879.945	15382.5
880.187	15196.5
880.429	15220.5
880.671	15137.5
880.912	15034.5
881.154	14920.5
881.396	14870.5
881.638	14943.5
881.88	14934.5
882.121	14956.5
882.363	14853.5
882.605	14868.5
882.846	14943.5
883.088	14914.5
883.329	14946.5
883.571	14959.5
883.812	15188.5
884.053	15665.5
884.295	15951.5
884.536	16281.5
884.777	16077.5
885.018	15959.5
885.259	15907.5
885.5	15727.5
885.742	16024.5
885.982	15652.5
886.223	15525.5
886.464	15382.5
886.705	15143.5
886.946	14942.5
887.187	14595.5
887.428	14418.5
887.668	14113.5
887.909	13983.5
888.15	13738.5
888.39	13695.5
888.631	13523.5
888.871	13395.5
889.111	13389.5
889.352	13216.5
889.592	13064.5
889.833	13012.5
890.073	12862.5
890.313	12910.5
890.553	12719.5
890.793	12681.5
891.033	12558.5
891.273	12525.5
891.513	12453.5
891.753	12496.5
891.993	12427.5
892.233	12505.5
892.473	12559.5
892.713	12510.5
892.952	12349.5
893.192	12508.5
893.432	12549.5
893.671	12433.5
893.911	12361.5
894.15	12399.5
894.39	12178.5
894.629	12171.5
894.869	12159.5
895.108	12132.5
895.347	12011.5
895.587	11967.5
895.826	11905.5
896.065	11934.5
896.304	11878.5
896.543	11853.5
896.782	11758.5
897.021	11722.5
897.26	11749.5
897.499	11769.5
897.738	11784.5
897.977	11651.5
898.216	11568.5
898.454	11511.5
898.693	11378.5
898.932	11373.5
899.17	11327.5
899.409	11225.5
899.647	11303.5
899.886	11297.5
900.124	11358.5
900.363	11291.5
900.601	11329.5
900.839	11400.5
901.078	11404.5
901.316	11474.5
901.554	11561.5
901.792	11671.5
902.03	11659.5
902.268	11695.5
902.506	11693.5
902.744	11574.5
902.982	11458.5
903.22	11252.5
903.458	11029.5
903.695	10838.5
903.933	10681.5
904.171	10439.5
904.409	10265.5
904.646	10222.5
904.884	10100.5
905.121	9964.5
905.359	9782.5
905.596	9781.5
905.833	9624.5
906.071	9623.5
906.308	9566.5
906.545	9484.5
906.783	9442.5
907.02	9457.5
907.257	9382.5
907.494	9398.5
907.731	9346.5
907.968	9370.5
908.205	9278.5
908.442	9195.5
908.679	9161.5
908.915	9094.5
909.152	9042.5
909.389	8918.5
909.626	8817.5
909.862	8815.5
910.099	8719.5
910.335	8759.5
910.572	8675.5
910.808	8694.5
911.045	8595.5
911.281	8561.5
911.518	8560.5
911.754	8464.5
911.99	8456.5
912.226	8379.5
912.463	8329.5
912.699	8290.5
912.935	8209.5
913.171	8140.5
913.407	8024.5
913.643	8079.5
913.879	7960.5
914.114	7863.5
914.35	7789.5
914.586	7731.5
914.822	7673.5
915.057	7700.5
915.293	7505.5
915.529	7537.5
915.764	7554.5
916	7481.5
916.235	7527.5
916.471	7506.5
916.706	7395.5
916.941	7406.5
917.177	7359.5
917.412	7451.5
917.647	7412.5
917.882	7367.5
918.117	7363.5
918.352	7306.5
918.588	7315.5
918.823	7245.5
919.057	7171.5
919.292	7020.5
919.527	7082.5
919.762	6965.5
919.997	6989.5
920.232	6783.5
920.466	6840.5
920.701	6664.5
920.935	6615.5
921.17	6657.5
921.405	6607.5
921.639	6660.5
921.873	6552.5
922.108	6608.5
922.342	6531.5
922.576	6447.5
922.811	6429.5
923.045	6522.5
923.279	6406.5
923.513	6359.5
923.747	6341.5
923.981	6336.5
924.215	6222.5
924.449	6200.5
924.683	6170.5
924.917	6187.5
925.151	6097.5
925.385	6133.5
925.618	6098.5
925.852	6070.5
926.086	5974.5
926.319	6073.5
926.553	6039.5
926.786	6037.5
927.02	5980.5
927.253	6024.5
927.486	5992.5
927.72	5966.5
927.953	5965.5
928.186	5979.5
928.42	5970.5
928.653	5850.5
928.886	5879.5
929.119	5832.5
929.352	5830.5
929.585	5797.5
929.818	5710.5
930.051	5724.5
930.284	5661.5
930.516	5539.5
930.749	5505.5
930.982	5579.5
931.215	5474.5
931.447	5443.5
931.68	5439.5
931.912	5400.5
932.145	5441.5
932.377	5441.5
932.61	5580.5
932.842	5398.5
933.074	5447.5
933.307	5381.5
933.539	5475.5
933.771	5433.5
934.003	5363.5
934.236	5423.5
934.468	5471.5
934.7	5367.5
934.932	5347.5
935.164	5337.5
935.395	5265.5
935.627	5354.5
935.859	5327.5
936.091	5210.5
936.323	5241.5
936.554	5326.5
936.786	5217.5
937.017	5157.5
937.249	5202.5
937.481	5043.5
937.712	5161.5
937.943	5130.5
938.175	5138.5
938.406	5115.5
938.637	5108.5
938.869	5013.5
939.1	5077.5
939.331	5064.5
939.562	5028.5
939.793	5025.5
940.024	5077.5
940.255	5070.5
940.486	4973.5
940.717	4944.5
940.948	4901.5
941.179	4853.5
941.409	4904.5
941.64	4871.5
941.871	4845.5
942.102	4827.5
942.332	4859.5
942.563	4911.5
942.793	4915.5
943.024	4813.5
943.254	4826.5
943.484	4893.5
943.715	4852.5
943.945	4811.5
944.175	4804.5
944.405	4773.5
944.636	4749.5
944.866	4824.5
945.096	4803.5
945.326	4708.5
945.556	4760.5
945.786	4790.5
946.016	4668.5
946.245	4642.5
946.475	4604.5
946.705	4619.5
946.935	4543.5
947.164	4617.5
947.394	4496.5
947.624	4493.5
947.853	4545.5
948.083	4504.5
948.312	4445.5
948.542	4376.5
948.771	4359.5
949	4377.5
949.23	4373.5
949.459	4410.5
949.688	4490.5
949.917	4397.5
950.146	4375.5
950.375	4434.5
950.604	4343.5
950.833	4390.5
951.062	4410.5
951.291	4318.5
951.52	4302.5
951.749	4285.5
951.978	4275.5
952.206	4284.5
952.435	4257.5
952.664	4296.5
952.892	4256.5
953.121	4212.5
953.349	4271.5
953.578	4211.5
953.806	4160.5
954.035	4195.5
954.263	4170.5
954.491	4099.5
954.719	4166.5
954.948	4097.5
955.176	4027.5
955.404	3951.5
955.632	4034.5
955.86	4031.5
956.088	4018.5
956.316	4010.5
956.544	4000.5
956.772	3924.5
956.999	3912.5
957.227	3987.5
957.455	3869.5
957.683	3861.5
957.91	3811.5
958.138	3776.5
958.365	3830.5
958.593	3759.5
958.82	3762.5
959.048	3768.5
959.275	3754.5
959.502	3772.5
959.73	3730.5
959.957	3742.5
960.184	3782.5
960.411	3706.5
960.638	3757.5
960.865	3668.5
961.092	3738.5
961.319	3613.5
961.546	3681.5
961.773	3712.5
962	3645.5
962.227	3690.5
962.454	3656.5
962.68	3595.5
962.907	3642.5
963.134	3564.5
963.36	3539.5
963.587	3576.5
963.813	3504.5
964.04	3491.5
964.266	3462.5
964.493	3504.5
964.719	3486.5
964.945	3508.5
965.171	3369.5
965.398	3423.5
965.624	3454.5
965.85	3383.5
966.076	3331.5
966.302	3391.5
966.528	3347.5
966.754	3354.5
966.98	3359.5
967.206	3312.5
967.431	3292.5
967.657	3314.5
967.883	3242.5
968.109	3308.5
968.334	3217.5
968.56	3215.5
968.785	3215.5
969.011	3196.5
969.236	3244.5
969.462	3145.5
969.687	3188.5
969.912	3236.5
970.138	3229.5
970.363	3150.5
970.588	3162.5
970.813	3119.5
971.038	3112.5
971.263	3127.5
971.488	3112.5
971.713	3119.5
971.938	3108.5
972.163	3021.5
972.388	3005.5
972.613	3011.5
972.838	3025.5
973.062	3036.5
973.287	3014.5
973.512	2921.5
973.736	2964.5
973.961	2952.5
974.185	2923.5
974.41	2926.5
974.634	2859.5
974.858	2842.5
975.083	2902.5
975.307	2888.5
975.531	2843.5
975.755	2753.5
975.98	2792.5
976.204	2726.5
976.428	2700.5
976.652	2696.5
976.876	2685.5
977.1	2708.5
977.324	2681.5
977.547	2745.5
977.771	2725.5
977.995	2648.5
978.219	2595.5
978.442	2729.5
978.666	2666.5
978.89	2665.5
979.113	2678.5
979.337	2677.5
979.56	2622.5
979.783	2715.5
980.007	2574.5
980.23	2580.5
980.453	2567.5
980.677	2620.5
980.9	2603.5
981.123	2482.5
981.346	2585.5
981.569	2557.5
981.792	2580.5
982.015	2515.5
982.238	2462.5
982.461	2513.5
982.684	2420.5
982.907	2402.5
983.129	2404.5
983.352	2422.5
983.575	2441.5
983.797	2408.5
984.02	2388.5
984.242	2387.5
984.465	2386.5
984.687	2362.5
984.91	2428.5
985.132	2407.5
985.354	2382.5
985.577	2347.5
985.799	2336.5
986.021	2240.5
986.243	2274.5
986.465	2281.5
986.687	2315.5
986.909	2379.5
987.131	2290.5
987.353	2243.5
987.575	2303.5
987.797	2248.5
988.019	2215.5
988.241	2281.5
988.462	2219.5
988.684	2272.5
988.906	2320.5
989.127	2298.5
989.349	2162.5
989.57	2248.5
989.792	2233.5
990.013	2241.5
990.234	2264.5
990.456	2287.5
990.677	2228.5
990.898	2151.5
991.119	2171.5
991.341	2181.5
991.562	2134.5
991.783	2154.5
992.004	2105.5
992.225	2101.5
992.446	2122.5
992.667	2060.5
992.887	2084.5
993.108	2005.5
993.329	2147.5
993.55	2075.5
993.77	1998.5
993.991	1989.5
994.212	2042.5
994.432	2046.5
994.653	2040.5
994.873	2013.5
995.093	1905.5
995.314	1958.5
995.534	2031.5
995.754	2049.5
995.975	2047.5
996.195	1962.5
996.415	2036.5
996.635	1973.5
996.855	1972.5
997.075	1977.5
997.295	1938.5
997.515	1940.5
997.735	1989.5
997.955	1955.5
998.174	1956.5
998.394	1904.5
998.614	1987.5
998.834	1913.5
999.053	2008.5
999.273	1974.5
999.492	1980.5
999.712	1930.5
999.931	1876.5
1000.151	1927.5
1000.37	1892.5
1000.589	1932.5
1000.809	1844.5
1001.028	1962.5
1001.247	1878.5
1001.466	1807.5
1001.685	1933.5
1001.904	1862.5
1002.123	1854.5
1002.342	1828.5
1002.561	1801.5
1002.78	1796.5
1002.999	1876.5
1003.218	1806.5
1003.436	1781.5
1003.655	1827.5
1003.874	1739.5
1004.092	1801.5
1004.311	1788.5
1004.53	1803.5
1004.748	1845.5
1004.966	1790.5
1005.185	1835.5
1005.403	1794.5
1005.622	1808.5
1005.84	1861.5
1006.058	1757.5
1006.276	1808.5
1006.494	2309.5
1006.712	1801.5
1006.931	1819.5
1007.149	1733.5
1007.367	1769.5
1007.584	1815.5
1007.802	1845.5
1008.02	1796.5
1008.238	1896.5
1008.456	1904.5
1008.673	1767.5
1008.891	1881.5
1009.109	1859.5
1009.326	1937.5
1009.544	2034.5
1009.761	1965.5
1009.979	2076.5
1010.196	2093.5
1010.413	2256.5
1010.631	2291.5
1010.848	2383.5
1011.065	2410.5
1011.282	2350.5
1011.5	2309.5
1011.717	2413.5
1011.934	2336.5
1012.151	2355.5
1012.368	2319.5
1012.585	2256.5
1012.801	2356.5
1013.018	2282.5
1013.235	2289.5
1013.452	2297.5
1013.669	2313.5
1013.885	2305.5
1014.102	2337.5
1014.318	2301.5
1014.535	2293.5
1014.751	2338.5
1014.968	2311.5
1015.184	2336.5
1015.401	2221.5
1015.617	2247.5
1015.833	2173.5
1016.049	2175.5
1016.266	2162.5
1016.482	2156.5
1016.698	2065.5
1016.914	2093.5
1017.13	2070.5
1017.346	2056.5
1017.562	2110.5
1017.778	2047.5
1017.993	1981.5
1018.209	2071.5
1018.425	2032.5
1018.641	1993.5
1018.856	1968.5
1019.072	1995.5
1019.288	2044.5
1019.503	1960.5
1019.719	1933.5
1019.934	1942.5
1020.149	1995.5
1020.365	1917.5
1020.58	1863.5
1020.795	1899.5
1021.011	1781.5
1021.226	1772.5
1021.441	1771.5
1021.656	1674.5
1021.871	1610.5
1022.086	1578.5
1022.301	1592.5
1022.516	1534.5
1022.731	1608.5
1022.946	1499.5
1023.16	1491.5
1023.375	1436.5
1023.59	1385.5
1023.804	1332.5
1024.019	1447.5
1024.234	1309.5
1024.448	1309.5
1024.663	1263.5
1024.877	1269.5
1025.092	1250.5
1025.306	1260.5
1025.52	1143.5
1025.734	1217.5
1025.949	1126.5
1026.163	1095.5
1026.377	1052.5
1026.591	1088.5
1026.805	1045.5
1027.019	965.5
1027.233	949.5
1027.447	902.5
1027.661	997.5
1027.875	925.5
1028.088	946.5
1028.302	859.5
1028.516	827.5
1028.73	836.5
1028.943	818.5
1029.157	766.5
1029.37	712.5
1029.584	-1.5
1029.797	-4.5
1030.011	-3.5
1030.224	-2.5
