Data from QEP037381__116__15-06-36-079.txt Node

Date: Wed Dec 21 15:06:36 EST 2022
User: dcclab
Spectrometer: QEP03738
Trigger mode: 4
Integration Time (sec): 1.000000E1
Scans to average: 1
Electric dark correction enabled: true
Nonlinearity correction enabled: false
Boxcar width: 0
XAxis mode: Wavelengths
Number of Pixels in Spectrum: 1044
>>>>>Begin Spectral Data<<<<<
784.041	15.75
784.3	1.75
784.558	-1.25
784.817	-5.25
785.075	89589.75
785.334	15712.75
785.592	7399.75
785.851	5106.75
786.109	3867.75
786.368	3028.75
786.626	2450.75
786.884	1977.75
787.143	1669.75
787.401	1344.75
787.659	1229.75
787.917	1069.75
788.175	993.75
788.433	885.75
788.691	794.75
788.949	733.75
789.207	717.75
789.465	627.75
789.723	588.75
789.98	550.75
790.238	589.75
790.496	551.75
790.753	528.75
791.011	586.75
791.268	517.75
791.526	498.75
791.783	526.75
792.041	510.75
792.298	431.75
792.556	499.75
792.813	476.75
793.07	452.75
793.327	447.75
793.584	523.75
793.841	452.75
794.099	457.75
794.356	511.75
794.613	438.75
794.869	462.75
795.126	427.75
795.383	403.75
795.64	431.75
795.897	397.75
796.153	456.75
796.41	439.75
796.667	412.75
796.923	435.75
797.18	417.75
797.436	463.75
797.693	414.75
797.949	468.75
798.206	494.75
798.462	421.75
798.718	472.75
798.974	462.75
799.231	497.75
799.487	478.75
799.743	499.75
799.999	536.75
800.255	515.75
800.511	505.75
800.767	544.75
801.023	544.75
801.279	576.75
801.534	632.75
801.79	683.75
802.046	700.75
802.302	836.75
802.557	952.75
802.813	1179.75
803.068	1448.75
803.324	2012.75
803.579	2754.75
803.835	3760.75
804.09	5131.75
804.345	6778.75
804.601	8529.75
804.856	10434.75
805.111	12048.75
805.366	13356.75
805.621	14264.75
805.876	15013.75
806.131	15450.75
806.386	15758.75
806.641	16013.75
806.896	16441.75
807.151	16837.75
807.406	17087.75
807.661	17290.75
807.915	17684.75
808.17	18015.75
808.425	18249.75
808.679	18373.75
808.934	18646.75
809.188	18917.75
809.443	19113.75
809.697	19331.75
809.951	19549.75
810.206	19734.75
810.46	19866.75
810.714	20170.75
810.968	20353.75
811.223	20473.75
811.477	20735.75
811.731	20841.75
811.985	21106.75
812.239	21048.75
812.493	21153.75
812.747	21413.75
813	21400.75
813.254	21611.75
813.508	21752.75
813.762	21906.75
814.015	21945.75
814.269	22183.75
814.522	22432.75
814.776	22703.75
815.03	23098.75
815.283	23390.75
815.536	23788.75
815.79	24329.75
816.043	24690.75
816.296	25061.75
816.55	25314.75
816.803	25619.75
817.056	25943.75
817.309	26366.75
817.562	26576.75
817.815	26926.75
818.068	27207.75
818.321	27593.75
818.574	27970.75
818.827	28234.75
819.079	28751.75
819.332	29140.75
819.585	29550.75
819.838	29928.75
820.09	30180.75
820.343	30535.75
820.595	30503.75
820.848	30882.75
821.1	30963.75
821.353	30965.75
821.605	30936.75
821.857	30991.75
822.11	30809.75
822.362	30859.75
822.614	30922.75
822.866	30931.75
823.118	30957.75
823.37	31069.75
823.622	31251.75
823.874	31278.75
824.126	31446.75
824.378	31469.75
824.63	31579.75
824.882	31711.75
825.134	31743.75
825.385	31685.75
825.637	31727.75
825.888	31671.75
826.14	31556.75
826.392	31592.75
826.643	31306.75
826.895	31379.75
827.146	31301.75
827.397	31191.75
827.649	31303.75
827.9	31197.75
828.151	31286.75
828.402	31487.75
828.653	31684.75
828.905	31772.75
829.156	31860.75
829.407	31722.75
829.658	31844.75
829.909	31929.75
830.159	31977.75
830.41	31748.75
830.661	31559.75
830.912	31293.75
831.162	31373.75
831.413	31289.75
831.664	31477.75
831.914	31317.75
832.165	31464.75
832.415	31336.75
832.666	31570.75
832.916	31534.75
833.167	31406.75
833.417	31414.75
833.667	31314.75
833.917	31266.75
834.168	31393.75
834.418	31216.75
834.668	31093.75
834.918	30875.75
835.168	30855.75
835.418	30802.75
835.668	30817.75
835.918	30847.75
836.167	30739.75
836.417	30613.75
836.667	30720.75
836.917	30706.75
837.166	30688.75
837.416	30818.75
837.666	30746.75
837.915	30781.75
838.165	30671.75
838.414	30606.75
838.663	30506.75
838.913	30523.75
839.162	30505.75
839.411	30558.75
839.661	30396.75
839.91	30511.75
840.159	30301.75
840.408	30489.75
840.657	30354.75
840.906	30560.75
841.155	30586.75
841.404	30513.75
841.653	30518.75
841.902	30636.75
842.15	30711.75
842.399	30806.75
842.648	30756.75
842.897	30751.75
843.145	30461.75
843.394	30248.75
843.642	30125.75
843.891	30046.75
844.139	29921.75
844.388	29856.75
844.636	29585.75
844.884	29610.75
845.133	29753.75
845.381	29670.75
845.629	29617.75
845.877	29731.75
846.125	29695.75
846.373	29677.75
846.621	29637.75
846.869	29517.75
847.117	29327.75
847.365	29248.75
847.613	29209.75
847.861	29093.75
848.108	29190.75
848.356	29129.75
848.604	28991.75
848.851	29043.75
849.099	29029.75
849.346	29139.75
849.594	29311.75
849.841	29533.75
850.089	29571.75
850.336	29733.75
850.583	29794.75
850.831	29658.75
851.078	29518.75
851.325	29422.75
851.572	29488.75
851.819	29269.75
852.066	28620.75
852.313	28274.75
852.56	28170.75
852.807	28035.75
853.054	27880.75
853.301	27965.75
853.548	28136.75
853.794	28191.75
854.041	28391.75
854.288	28431.75
854.534	28647.75
854.781	28706.75
855.028	28489.75
855.274	28589.75
855.52	28458.75
855.767	28212.75
856.013	28278.75
856.26	28526.75
856.506	28088.75
856.752	28082.75
856.998	28071.75
857.244	28090.75
857.49	28320.75
857.736	28371.75
857.982	28540.75
858.228	28361.75
858.474	28185.75
858.72	28136.75
858.966	27763.75
859.212	27475.75
859.458	27284.75
859.703	26936.75
859.949	26700.75
860.195	26603.75
860.44	26491.75
860.686	26460.75
860.931	26464.75
861.177	26363.75
861.422	26063.75
861.667	26070.75
861.913	26126.75
862.158	26256.75
862.403	26376.75
862.648	26384.75
862.893	26482.75
863.138	26488.75
863.384	26442.75
863.629	26318.75
863.873	26376.75
864.118	26420.75
864.363	26184.75
864.608	26245.75
864.853	26096.75
865.098	25923.75
865.342	25961.75
865.587	25765.75
865.832	25825.75
866.076	25807.75
866.321	25664.75
866.565	25593.75
866.81	25538.75
867.054	25476.75
867.298	25365.75
867.543	25418.75
867.787	25316.75
868.031	25285.75
868.275	25177.75
868.519	25217.75
868.764	25308.75
869.008	25185.75
869.252	25155.75
869.496	24952.75
869.739	25153.75
869.983	25167.75
870.227	25159.75
870.471	25194.75
870.715	25283.75
870.958	25297.75
871.202	25311.75
871.446	25488.75
871.689	25403.75
871.933	25467.75
872.176	25394.75
872.42	25363.75
872.663	25266.75
872.906	25187.75
873.15	25260.75
873.393	25131.75
873.636	25042.75
873.879	24827.75
874.122	24607.75
874.366	24292.75
874.609	24168.75
874.852	24011.75
875.095	23850.75
875.337	23748.75
875.58	23708.75
875.823	23667.75
876.066	23677.75
876.309	23640.75
876.551	23348.75
876.794	23285.75
877.037	23224.75
877.279	23267.75
877.522	23225.75
877.764	23249.75
878.007	23144.75
878.249	23183.75
878.491	23092.75
878.734	23199.75
878.976	23014.75
879.218	22999.75
879.46	22982.75
879.702	22766.75
879.945	22641.75
880.187	22349.75
880.429	22273.75
880.671	22160.75
880.912	22166.75
881.154	22103.75
881.396	21941.75
881.638	22092.75
881.88	21971.75
882.121	21973.75
882.363	22015.75
882.605	21994.75
882.846	21959.75
883.088	21970.75
883.329	21838.75
883.571	21894.75
883.812	22039.75
884.053	22339.75
884.295	22688.75
884.536	22931.75
884.777	22763.75
885.018	22666.75
885.259	22557.75
885.5	22499.75
885.742	22808.75
885.982	22505.75
886.223	22348.75
886.464	22227.75
886.705	21960.75
886.946	21774.75
887.187	21557.75
887.428	21408.75
887.668	21117.75
887.909	20875.75
888.15	20686.75
888.39	20596.75
888.631	20464.75
888.871	20267.75
889.111	20252.75
889.352	20101.75
889.592	19850.75
889.833	19677.75
890.073	19559.75
890.313	19497.75
890.553	19321.75
890.793	19176.75
891.033	19327.75
891.273	19096.75
891.513	19032.75
891.753	19066.75
891.993	19015.75
892.233	19025.75
892.473	19229.75
892.713	19170.75
892.952	19032.75
893.192	19185.75
893.432	19089.75
893.671	19146.75
893.911	18987.75
894.15	18978.75
894.39	18813.75
894.629	18680.75
894.869	18639.75
895.108	18503.75
895.347	18576.75
895.587	18395.75
895.826	18408.75
896.065	18308.75
896.304	18260.75
896.543	18336.75
896.782	18151.75
897.021	18166.75
897.26	18059.75
897.499	18117.75
897.738	18047.75
897.977	17964.75
898.216	17733.75
898.454	17649.75
898.693	17569.75
898.932	17471.75
899.17	17369.75
899.409	17179.75
899.647	17368.75
899.886	17251.75
900.124	17295.75
900.363	17213.75
900.601	17254.75
900.839	17375.75
901.078	17403.75
901.316	17487.75
901.554	17500.75
901.792	17605.75
902.03	17480.75
902.268	17597.75
902.506	17621.75
902.744	17379.75
902.982	17328.75
903.22	16990.75
903.458	16856.75
903.695	16645.75
903.933	16506.75
904.171	16301.75
904.409	16043.75
904.646	15874.75
904.884	15677.75
905.121	15582.75
905.359	15419.75
905.596	15257.75
905.833	15165.75
906.071	15003.75
906.308	14989.75
906.545	15056.75
906.783	14990.75
907.02	14924.75
907.257	14876.75
907.494	14865.75
907.731	14795.75
907.968	14752.75
908.205	14720.75
908.442	14538.75
908.679	14493.75
908.915	14387.75
909.152	14341.75
909.389	14136.75
909.626	14136.75
909.862	13905.75
910.099	13981.75
910.335	14002.75
910.572	13791.75
910.808	13843.75
911.045	13819.75
911.281	13783.75
911.518	13785.75
911.754	13609.75
911.99	13561.75
912.226	13493.75
912.463	13355.75
912.699	13308.75
912.935	13257.75
913.171	13127.75
913.407	12996.75
913.643	12922.75
913.879	12800.75
914.114	12668.75
914.35	12592.75
914.586	12491.75
914.822	12308.75
915.057	12357.75
915.293	12160.75
915.529	12148.75
915.764	12134.75
916	12092.75
916.235	12120.75
916.471	12142.75
916.706	12047.75
916.941	12003.75
917.177	12127.75
917.412	12050.75
917.647	12034.75
917.882	11900.75
918.117	11963.75
918.352	11918.75
918.588	11960.75
918.823	11784.75
919.057	11622.75
919.292	11452.75
919.527	11491.75
919.762	11358.75
919.997	11240.75
920.232	11093.75
920.466	11097.75
920.701	10969.75
920.935	10884.75
921.17	10839.75
921.405	10733.75
921.639	10796.75
921.873	10758.75
922.108	10676.75
922.342	10696.75
922.576	10563.75
922.811	10538.75
923.045	10568.75
923.279	10546.75
923.513	10329.75
923.747	10388.75
923.981	10290.75
924.215	10330.75
924.449	10303.75
924.683	10199.75
924.917	10108.75
925.151	10070.75
925.385	10176.75
925.618	10032.75
925.852	10031.75
926.086	9894.75
926.319	9948.75
926.553	9937.75
926.786	9930.75
927.02	9951.75
927.253	9963.75
927.486	9964.75
927.72	9818.75
927.953	9930.75
928.186	9860.75
928.42	9813.75
928.653	9686.75
928.886	9668.75
929.119	9637.75
929.352	9623.75
929.585	9545.75
929.818	9485.75
930.051	9408.75
930.284	9412.75
930.516	9264.75
930.749	9181.75
930.982	9178.75
931.215	9159.75
931.447	9111.75
931.68	10320.75
931.912	9118.75
932.145	9018.75
932.377	8971.75
932.61	9113.75
932.842	8964.75
933.074	9058.75
933.307	8943.75
933.539	9063.75
933.771	9014.75
934.003	8951.75
934.236	8981.75
934.468	9041.75
934.7	8981.75
934.932	8991.75
935.164	8892.75
935.395	8890.75
935.627	8839.75
935.859	8844.75
936.091	8702.75
936.323	8752.75
936.554	8797.75
936.786	8685.75
937.017	8640.75
937.249	8626.75
937.481	8524.75
937.712	8630.75
937.943	8625.75
938.175	8529.75
938.406	8528.75
938.637	8532.75
938.869	8496.75
939.1	8493.75
939.331	8447.75
939.562	8493.75
939.793	8445.75
940.024	8422.75
940.255	8399.75
940.486	8292.75
940.717	8259.75
940.948	8297.75
941.179	8183.75
941.409	8240.75
941.64	8228.75
941.871	8133.75
942.102	8165.75
942.332	8169.75
942.563	8223.75
942.793	8168.75
943.024	8141.75
943.254	8064.75
943.484	8170.75
943.715	8194.75
943.945	8156.75
944.175	8136.75
944.405	8079.75
944.636	8079.75
944.866	8098.75
945.096	8115.75
945.326	8003.75
945.556	8033.75
945.786	7980.75
946.016	7896.75
946.245	7844.75
946.475	7777.75
946.705	7794.75
946.935	7802.75
947.164	7743.75
947.394	7583.75
947.624	7652.75
947.853	7641.75
948.083	7610.75
948.312	7538.75
948.542	7481.75
948.771	7410.75
949	7476.75
949.23	7443.75
949.459	7426.75
949.688	7531.75
949.917	7498.75
950.146	7448.75
950.375	7483.75
950.604	7382.75
950.833	7439.75
951.062	7442.75
951.291	7345.75
951.52	7362.75
951.749	7352.75
951.978	7276.75
952.206	7307.75
952.435	7250.75
952.664	7268.75
952.892	7243.75
953.121	7250.75
953.349	7201.75
953.578	7192.75
953.806	7146.75
954.035	7076.75
954.263	7077.75
954.491	7002.75
954.719	7062.75
954.948	6946.75
955.176	6921.75
955.404	6896.75
955.632	6911.75
955.86	6884.75
956.088	6824.75
956.316	6828.75
956.544	6801.75
956.772	6780.75
956.999	6694.75
957.227	6753.75
957.455	6627.75
957.683	6581.75
957.91	6522.75
958.138	6480.75
958.365	6489.75
958.593	6443.75
958.82	6396.75
959.048	6466.75
959.275	6403.75
959.502	6351.75
959.73	6343.75
959.957	6375.75
960.184	6363.75
960.411	6309.75
960.638	6373.75
960.865	6326.75
961.092	6356.75
961.319	6216.75
961.546	6338.75
961.773	6302.75
962	6247.75
962.227	6360.75
962.454	6240.75
962.68	6196.75
962.907	6229.75
963.134	6137.75
963.36	6091.75
963.587	6103.75
963.813	6032.75
964.04	6037.75
964.266	5965.75
964.493	6004.75
964.719	5952.75
964.945	5962.75
965.171	5787.75
965.398	5831.75
965.624	5856.75
965.85	5798.75
966.076	5742.75
966.302	5773.75
966.528	5633.75
966.754	5711.75
966.98	5678.75
967.206	5701.75
967.431	5599.75
967.657	5638.75
967.883	5560.75
968.109	5541.75
968.334	5504.75
968.56	5503.75
968.785	5508.75
969.011	5508.75
969.236	5499.75
969.462	5399.75
969.687	5440.75
969.912	5474.75
970.138	5455.75
970.363	5426.75
970.588	5391.75
970.813	5340.75
971.038	5324.75
971.263	5287.75
971.488	5335.75
971.713	5371.75
971.938	5274.75
972.163	5221.75
972.388	5248.75
972.613	5173.75
972.838	5144.75
973.062	5199.75
973.287	5128.75
973.512	5039.75
973.736	5051.75
973.961	5049.75
974.185	4988.75
974.41	4939.75
974.634	4865.75
974.858	4890.75
975.083	4899.75
975.307	4866.75
975.531	4837.75
975.755	4742.75
975.98	4769.75
976.204	4699.75
976.428	4687.75
976.652	4692.75
976.876	4628.75
977.1	4632.75
977.324	4589.75
977.547	4644.75
977.771	4609.75
977.995	4566.75
978.219	4485.75
978.442	4641.75
978.666	4508.75
978.89	4526.75
979.113	4480.75
979.337	4494.75
979.56	4438.75
979.783	4496.75
980.007	4428.75
980.23	4464.75
980.453	4379.75
980.677	4421.75
980.9	4344.75
981.123	4259.75
981.346	4361.75
981.569	4328.75
981.792	4261.75
982.015	4244.75
982.238	4179.75
982.461	4205.75
982.684	4198.75
982.907	4118.75
983.129	4113.75
983.352	4134.75
983.575	4100.75
983.797	4060.75
984.02	4066.75
984.242	4023.75
984.465	4006.75
984.687	4008.75
984.91	4046.75
985.132	3967.75
985.354	3986.75
985.577	3929.75
985.799	3890.75
986.021	3815.75
986.243	3846.75
986.465	3900.75
986.687	3870.75
986.909	3892.75
987.131	3834.75
987.353	3814.75
987.575	3861.75
987.797	3805.75
988.019	3694.75
988.241	3773.75
988.462	3691.75
988.684	3732.75
988.906	3821.75
989.127	3745.75
989.349	3650.75
989.57	3670.75
989.792	3709.75
990.013	3740.75
990.234	3703.75
990.456	3749.75
990.677	3652.75
990.898	3578.75
991.119	3569.75
991.341	3600.75
991.562	3533.75
991.783	3539.75
992.004	3511.75
992.225	3500.75
992.446	3494.75
992.667	3357.75
992.887	3461.75
993.108	3335.75
993.329	3406.75
993.55	3358.75
993.77	3323.75
993.991	3283.75
994.212	3327.75
994.432	3304.75
994.653	3281.75
994.873	3232.75
995.093	3130.75
995.314	3162.75
995.534	3205.75
995.754	3256.75
995.975	3236.75
996.195	3106.75
996.415	3169.75
996.635	3157.75
996.855	3165.75
997.075	3140.75
997.295	3099.75
997.515	3107.75
997.735	3117.75
997.955	3104.75
998.174	3082.75
998.394	2993.75
998.614	3093.75
998.834	3044.75
999.053	3095.75
999.273	3052.75
999.492	3109.75
999.712	3012.75
999.931	2956.75
1000.151	3011.75
1000.37	2958.75
1000.589	3053.75
1000.809	2934.75
1001.028	2997.75
1001.247	2958.75
1001.466	2841.75
1001.685	2979.75
1001.904	2877.75
1002.123	2822.75
1002.342	2822.75
1002.561	2761.75
1002.78	2815.75
1002.999	2832.75
1003.218	2801.75
1003.436	2741.75
1003.655	2780.75
1003.874	2754.75
1004.092	2730.75
1004.311	2983.75
1004.53	2738.75
1004.748	2748.75
1004.966	2698.75
1005.185	2770.75
1005.403	2715.75
1005.622	2660.75
1005.84	2754.75
1006.058	2626.75
1006.276	2623.75
1006.494	3122.75
1006.712	2634.75
1006.931	2677.75
1007.149	2615.75
1007.367	2607.75
1007.584	2658.75
1007.802	2660.75
1008.02	2618.75
1008.238	2711.75
1008.456	2684.75
1008.673	2581.75
1008.891	2699.75
1009.109	2712.75
1009.326	2693.75
1009.544	2789.75
1009.761	2678.75
1009.979	2831.75
1010.196	2818.75
1010.413	2942.75
1010.631	2992.75
1010.848	3075.75
1011.065	3064.75
1011.282	3024.75
1011.5	2948.75
1011.717	3050.75
1011.934	2947.75
1012.151	2985.75
1012.368	2967.75
1012.585	2861.75
1012.801	2954.75
1013.018	2875.75
1013.235	2858.75
1013.452	2860.75
1013.669	2928.75
1013.885	2903.75
1014.102	2948.75
1014.318	2872.75
1014.535	2839.75
1014.751	2851.75
1014.968	2829.75
1015.184	2882.75
1015.401	2777.75
1015.617	2794.75
1015.833	2730.75
1016.049	2700.75
1016.266	2658.75
1016.482	2653.75
1016.698	2577.75
1016.914	2655.75
1017.13	2595.75
1017.346	2548.75
1017.562	2622.75
1017.778	2544.75
1017.993	2519.75
1018.209	2550.75
1018.425	2524.75
1018.641	2488.75
1018.856	2450.75
1019.072	2461.75
1019.288	2522.75
1019.503	2458.75
1019.719	2371.75
1019.934	2385.75
1020.149	2481.75
1020.365	2384.75
1020.58	2298.75
1020.795	2325.75
1021.011	2251.75
1021.226	2191.75
1021.441	2231.75
1021.656	2139.75
1021.871	2084.75
1022.086	2050.75
1022.301	2010.75
1022.516	1992.75
1022.731	2036.75
1022.946	1915.75
1023.16	1914.75
1023.375	1851.75
1023.59	1861.75
1023.804	1795.75
1024.019	1860.75
1024.234	1714.75
1024.448	1743.75
1024.663	1675.75
1024.877	1653.75
1025.092	1661.75
1025.306	1638.75
1025.52	1546.75
1025.734	1581.75
1025.949	1538.75
1026.163	1483.75
1026.377	1399.75
1026.591	1416.75
1026.805	1360.75
1027.019	1345.75
1027.233	1297.75
1027.447	1245.75
1027.661	1332.75
1027.875	1248.75
1028.088	1235.75
1028.302	1172.75
1028.516	1145.75
1028.73	1095.75
1028.943	1081.75
1029.157	1015.75
1029.37	969.75
1029.584	-2.25
1029.797	-4.25
1030.011	-3.25
1030.224	-1.25
