Data from QEP037381__115__15-06-26-080.txt Node

Date: Wed Dec 21 15:06:26 EST 2022
User: dcclab
Spectrometer: QEP03738
Trigger mode: 4
Integration Time (sec): 1.000000E1
Scans to average: 1
Electric dark correction enabled: true
Nonlinearity correction enabled: false
Boxcar width: 0
XAxis mode: Wavelengths
Number of Pixels in Spectrum: 1044
>>>>>Begin Spectral Data<<<<<
784.041	11.5
784.3	-0.5
784.558	-3.5
784.817	-2.5
785.075	85710.5
785.334	14796.5
785.592	7027.5
785.851	4919.5
786.109	3722.5
786.368	2906.5
786.626	2327.5
786.884	1932.5
787.143	1640.5
787.401	1353.5
787.659	1228.5
787.917	1049.5
788.175	969.5
788.433	857.5
788.691	782.5
788.949	743.5
789.207	705.5
789.465	581.5
789.723	596.5
789.98	543.5
790.238	582.5
790.496	540.5
790.753	499.5
791.011	588.5
791.268	511.5
791.526	506.5
791.783	520.5
792.041	480.5
792.298	394.5
792.556	470.5
792.813	463.5
793.07	435.5
793.327	419.5
793.584	509.5
793.841	419.5
794.099	439.5
794.356	516.5
794.613	408.5
794.869	438.5
795.126	413.5
795.383	397.5
795.64	402.5
795.897	357.5
796.153	416.5
796.41	403.5
796.667	380.5
796.923	406.5
797.18	395.5
797.436	431.5
797.693	397.5
797.949	445.5
798.206	466.5
798.462	395.5
798.718	442.5
798.974	405.5
799.231	460.5
799.487	452.5
799.743	453.5
799.999	470.5
800.255	451.5
800.511	451.5
800.767	482.5
801.023	472.5
801.279	497.5
801.534	524.5
801.79	563.5
802.046	560.5
802.302	687.5
802.557	780.5
802.813	931.5
803.068	1112.5
803.324	1522.5
803.579	2019.5
803.835	2707.5
804.09	3660.5
804.345	4737.5
804.601	5891.5
804.856	7134.5
805.111	8268.5
805.366	9120.5
805.621	9726.5
805.876	10169.5
806.131	10397.5
806.386	10691.5
806.641	10764.5
806.896	11014.5
807.151	11274.5
807.406	11326.5
807.661	11585.5
807.915	11880.5
808.17	11996.5
808.425	12166.5
808.679	12258.5
808.934	12430.5
809.188	12539.5
809.443	12676.5
809.697	12864.5
809.951	12952.5
810.206	13005.5
810.46	13186.5
810.714	13236.5
810.968	13500.5
811.223	13520.5
811.477	13725.5
811.731	13816.5
811.985	13777.5
812.239	13881.5
812.493	13896.5
812.747	14044.5
813	13986.5
813.254	14103.5
813.508	14308.5
813.762	14237.5
814.015	14326.5
814.269	14423.5
814.522	14559.5
814.776	14800.5
815.03	14988.5
815.283	15152.5
815.536	15418.5
815.79	15689.5
816.043	15914.5
816.296	16081.5
816.55	16257.5
816.803	16501.5
817.056	16781.5
817.309	16918.5
817.562	17158.5
817.815	17340.5
818.068	17473.5
818.321	17568.5
818.574	17835.5
818.827	18127.5
819.079	18247.5
819.332	18701.5
819.585	18923.5
819.838	19114.5
820.09	19255.5
820.343	19342.5
820.595	19400.5
820.848	19561.5
821.1	19680.5
821.353	19607.5
821.605	19587.5
821.857	19709.5
822.11	19432.5
822.362	19450.5
822.614	19320.5
822.866	19491.5
823.118	19374.5
823.37	19604.5
823.622	19642.5
823.874	19646.5
824.126	19786.5
824.378	19829.5
824.63	19949.5
824.882	19854.5
825.134	19834.5
825.385	19784.5
825.637	19757.5
825.888	19716.5
826.14	19755.5
826.392	19652.5
826.643	19552.5
826.895	19468.5
827.146	19480.5
827.397	19337.5
827.649	19492.5
827.9	19380.5
828.151	19394.5
828.402	19420.5
828.653	19595.5
828.905	19503.5
829.156	19642.5
829.407	19611.5
829.658	19651.5
829.909	19877.5
830.159	19898.5
830.41	19770.5
830.661	19533.5
830.912	19400.5
831.162	19419.5
831.413	19366.5
831.664	19449.5
831.914	19386.5
832.165	19354.5
832.415	19307.5
832.666	19296.5
832.916	19457.5
833.167	19416.5
833.417	19451.5
833.667	19247.5
833.917	19191.5
834.168	19226.5
834.418	19203.5
834.668	19155.5
834.918	19048.5
835.168	18909.5
835.418	18842.5
835.668	18784.5
835.918	18892.5
836.167	18772.5
836.417	18653.5
836.667	18749.5
836.917	18748.5
837.166	18716.5
837.416	18764.5
837.666	18812.5
837.915	18738.5
838.165	18723.5
838.414	18658.5
838.663	18732.5
838.913	18648.5
839.162	18614.5
839.411	18705.5
839.661	18567.5
839.91	18607.5
840.159	18517.5
840.408	18585.5
840.657	18534.5
840.906	18666.5
841.155	18642.5
841.404	18633.5
841.653	18591.5
841.902	18634.5
842.15	18699.5
842.399	18818.5
842.648	18704.5
842.897	18709.5
843.145	18435.5
843.394	18371.5
843.642	18263.5
843.891	18282.5
844.139	18096.5
844.388	17985.5
844.636	17879.5
844.884	17979.5
845.133	17942.5
845.381	17931.5
845.629	17879.5
845.877	17853.5
846.125	17931.5
846.373	17797.5
846.621	17840.5
846.869	17784.5
847.117	17673.5
847.365	17581.5
847.613	17532.5
847.861	17547.5
848.108	17548.5
848.356	17519.5
848.604	17541.5
848.851	17537.5
849.099	17504.5
849.346	17589.5
849.594	17693.5
849.841	17734.5
850.089	17810.5
850.336	17935.5
850.583	17952.5
850.831	17804.5
851.078	17832.5
851.325	17878.5
851.572	17899.5
851.819	17744.5
852.066	17299.5
852.313	17016.5
852.56	16799.5
852.807	16786.5
853.054	16755.5
853.301	16752.5
853.548	16867.5
853.794	16956.5
854.041	17104.5
854.288	16997.5
854.534	17230.5
854.781	17220.5
855.028	17201.5
855.274	17097.5
855.52	17001.5
855.767	17079.5
856.013	17159.5
856.26	17335.5
856.506	16906.5
856.752	16839.5
856.998	16818.5
857.244	16911.5
857.49	17013.5
857.736	17121.5
857.982	16990.5
858.228	16898.5
858.474	16934.5
858.72	16695.5
858.966	16547.5
859.212	16305.5
859.458	16192.5
859.703	16024.5
859.949	15843.5
860.195	15821.5
860.44	15743.5
860.686	15741.5
860.931	15743.5
861.177	15575.5
861.422	15500.5
861.667	15391.5
861.913	15384.5
862.158	15390.5
862.403	15394.5
862.648	15531.5
862.893	15529.5
863.138	15519.5
863.384	15378.5
863.629	15473.5
863.873	15463.5
864.118	15390.5
864.363	15331.5
864.608	15295.5
864.853	15178.5
865.098	15158.5
865.342	15069.5
865.587	15047.5
865.832	15210.5
866.076	15170.5
866.321	14988.5
866.565	14902.5
866.81	14782.5
867.054	14825.5
867.298	14814.5
867.543	14791.5
867.787	14786.5
868.031	14763.5
868.275	14786.5
868.519	14655.5
868.764	14697.5
869.008	14701.5
869.252	14744.5
869.496	14727.5
869.739	14755.5
869.983	14837.5
870.227	14745.5
870.471	14747.5
870.715	14842.5
870.958	14873.5
871.202	14908.5
871.446	14994.5
871.689	14911.5
871.933	14991.5
872.176	14833.5
872.42	14866.5
872.663	14832.5
872.906	14923.5
873.15	14904.5
873.393	14842.5
873.636	14855.5
873.879	14695.5
874.122	14554.5
874.366	14356.5
874.609	14192.5
874.852	14104.5
875.095	13956.5
875.337	13793.5
875.58	13778.5
875.823	13803.5
876.066	13754.5
876.309	13765.5
876.551	13569.5
876.794	13569.5
877.037	13608.5
877.279	13474.5
877.522	13459.5
877.764	13457.5
878.007	13381.5
878.249	13419.5
878.491	13220.5
878.734	13235.5
878.976	13278.5
879.218	13133.5
879.46	13146.5
879.702	13086.5
879.945	12978.5
880.187	12794.5
880.429	12716.5
880.671	12776.5
880.912	12709.5
881.154	12577.5
881.396	12521.5
881.638	12608.5
881.88	12539.5
882.121	12498.5
882.363	12613.5
882.605	12546.5
882.846	12490.5
883.088	12585.5
883.329	12439.5
883.571	12557.5
883.812	12882.5
884.053	13178.5
884.295	13556.5
884.536	13752.5
884.777	13698.5
885.018	13651.5
885.259	13517.5
885.5	13328.5
885.742	13576.5
885.982	13332.5
886.223	13130.5
886.464	13047.5
886.705	12815.5
886.946	12672.5
887.187	12329.5
887.428	12258.5
887.668	11993.5
887.909	11834.5
888.15	11633.5
888.39	11600.5
888.631	11549.5
888.871	11365.5
889.111	11292.5
889.352	11240.5
889.592	11062.5
889.833	10975.5
890.073	10944.5
890.313	10949.5
890.553	10753.5
890.793	10684.5
891.033	10625.5
891.273	10645.5
891.513	10578.5
891.753	10637.5
891.993	10503.5
892.233	10638.5
892.473	10644.5
892.713	10697.5
892.952	10567.5
893.192	10596.5
893.432	10643.5
893.671	10568.5
893.911	10545.5
894.15	10539.5
894.39	10377.5
894.629	10331.5
894.869	10388.5
895.108	10259.5
895.347	10216.5
895.587	10239.5
895.826	10214.5
896.065	10168.5
896.304	10140.5
896.543	10171.5
896.782	10105.5
897.021	10101.5
897.26	10065.5
897.499	10138.5
897.738	10092.5
897.977	9981.5
898.216	9925.5
898.454	9876.5
898.693	9705.5
898.932	9818.5
899.17	9789.5
899.409	9702.5
899.647	9706.5
899.886	9686.5
900.124	9783.5
900.363	9696.5
900.601	9757.5
900.839	9825.5
901.078	9892.5
901.316	9924.5
901.554	10023.5
901.792	10127.5
902.03	10080.5
902.268	10128.5
902.506	10125.5
902.744	9974.5
902.982	10001.5
903.22	9649.5
903.458	9530.5
903.695	9445.5
903.933	9247.5
904.171	9018.5
904.409	8903.5
904.646	8825.5
904.884	8636.5
905.121	8563.5
905.359	8474.5
905.596	8346.5
905.833	8258.5
906.071	8236.5
906.308	8197.5
906.545	8241.5
906.783	8122.5
907.02	8154.5
907.257	8086.5
907.494	8071.5
907.731	8058.5
907.968	8088.5
908.205	7992.5
908.442	7912.5
908.679	7802.5
908.915	7844.5
909.152	7764.5
909.389	7572.5
909.626	7634.5
909.862	7505.5
910.099	7504.5
910.335	7579.5
910.572	7437.5
910.808	7454.5
911.045	7347.5
911.281	7340.5
911.518	7429.5
911.754	7322.5
911.99	7349.5
912.226	7265.5
912.463	7101.5
912.699	7103.5
912.935	7097.5
913.171	7051.5
913.407	6929.5
913.643	6958.5
913.879	6870.5
914.114	6835.5
914.35	6714.5
914.586	6689.5
914.822	6600.5
915.057	6654.5
915.293	6529.5
915.529	6441.5
915.764	6496.5
916	6449.5
916.235	6441.5
916.471	6499.5
916.706	6363.5
916.941	6379.5
917.177	6412.5
917.412	6449.5
917.647	6474.5
917.882	6405.5
918.117	6442.5
918.352	6384.5
918.588	6399.5
918.823	6234.5
919.057	6203.5
919.292	6044.5
919.527	6160.5
919.762	6060.5
919.997	6032.5
920.232	5975.5
920.466	5906.5
920.701	5738.5
920.935	5794.5
921.17	5731.5
921.405	5677.5
921.639	5732.5
921.873	5727.5
922.108	5721.5
922.342	5659.5
922.576	5579.5
922.811	5604.5
923.045	5598.5
923.279	5590.5
923.513	5440.5
923.747	5531.5
923.981	5473.5
924.215	5456.5
924.449	5394.5
924.683	5363.5
924.917	5356.5
925.151	5310.5
925.385	5361.5
925.618	5298.5
925.852	5295.5
926.086	5250.5
926.319	5303.5
926.553	5265.5
926.786	5248.5
927.02	5280.5
927.253	5252.5
927.486	5225.5
927.72	5220.5
927.953	5218.5
928.186	5160.5
928.42	5216.5
928.653	5092.5
928.886	5051.5
929.119	5141.5
929.352	5075.5
929.585	5036.5
929.818	4948.5
930.051	4983.5
930.284	4973.5
930.516	4870.5
930.749	4817.5
930.982	4844.5
931.215	4831.5
931.447	4753.5
931.68	4749.5
931.912	4714.5
932.145	4690.5
932.377	4811.5
932.61	4852.5
932.842	4722.5
933.074	4751.5
933.307	4720.5
933.539	4745.5
933.771	4762.5
934.003	4698.5
934.236	4766.5
934.468	4780.5
934.7	4693.5
934.932	4701.5
935.164	4637.5
935.395	4653.5
935.627	4624.5
935.859	4650.5
936.091	4518.5
936.323	4651.5
936.554	4624.5
936.786	4561.5
937.017	4506.5
937.249	4531.5
937.481	4484.5
937.712	4547.5
937.943	4512.5
938.175	4501.5
938.406	4462.5
938.637	4539.5
938.869	4423.5
939.1	4507.5
939.331	4422.5
939.562	4494.5
939.793	4430.5
940.024	4388.5
940.255	4448.5
940.486	4333.5
940.717	4345.5
940.948	4285.5
941.179	4257.5
941.409	4271.5
941.64	4243.5
941.871	4324.5
942.102	4214.5
942.332	4273.5
942.563	4307.5
942.793	4262.5
943.024	4181.5
943.254	4259.5
943.484	4302.5
943.715	4253.5
943.945	4235.5
944.175	4217.5
944.405	4155.5
944.636	4160.5
944.866	4229.5
945.096	4226.5
945.326	4121.5
945.556	4153.5
945.786	4172.5
946.016	4104.5
946.245	4068.5
946.475	4073.5
946.705	4029.5
946.935	3994.5
947.164	3985.5
947.394	3997.5
947.624	3946.5
947.853	3957.5
948.083	3957.5
948.312	3954.5
948.542	3868.5
948.771	3848.5
949	3894.5
949.23	3865.5
949.459	3891.5
949.688	3912.5
949.917	3911.5
950.146	3875.5
950.375	3919.5
950.604	3792.5
950.833	3897.5
951.062	3857.5
951.291	3812.5
951.52	3799.5
951.749	3809.5
951.978	3747.5
952.206	3785.5
952.435	3743.5
952.664	3748.5
952.892	3765.5
953.121	3733.5
953.349	3717.5
953.578	3722.5
953.806	3709.5
954.035	3599.5
954.263	3626.5
954.491	3588.5
954.719	3603.5
954.948	3604.5
955.176	3572.5
955.404	3530.5
955.632	3559.5
955.86	3568.5
956.088	3526.5
956.316	3534.5
956.544	3546.5
956.772	3473.5
956.999	3450.5
957.227	3583.5
957.455	3425.5
957.683	3422.5
957.91	3352.5
958.138	3349.5
958.365	3364.5
958.593	3346.5
958.82	3249.5
959.048	3384.5
959.275	3285.5
959.502	3257.5
959.73	3290.5
959.957	3315.5
960.184	3341.5
960.411	3299.5
960.638	3301.5
960.865	3241.5
961.092	3289.5
961.319	3212.5
961.546	3328.5
961.773	3300.5
962	3227.5
962.227	3286.5
962.454	3224.5
962.68	3161.5
962.907	3198.5
963.134	3154.5
963.36	3154.5
963.587	3175.5
963.813	3096.5
964.04	3134.5
964.266	3081.5
964.493	3156.5
964.719	3128.5
964.945	3091.5
965.171	3014.5
965.398	3037.5
965.624	3091.5
965.85	2969.5
966.076	2996.5
966.302	2982.5
966.528	2952.5
966.754	2961.5
966.98	2983.5
967.206	2959.5
967.431	2880.5
967.657	2944.5
967.883	2931.5
968.109	2922.5
968.334	2861.5
968.56	2859.5
968.785	2864.5
969.011	2820.5
969.236	2842.5
969.462	2806.5
969.687	2819.5
969.912	2888.5
970.138	2884.5
970.363	2799.5
970.588	2842.5
970.813	2779.5
971.038	2775.5
971.263	2803.5
971.488	2756.5
971.713	2830.5
971.938	2785.5
972.163	2658.5
972.388	2728.5
972.613	2664.5
972.838	2696.5
973.062	2696.5
973.287	2689.5
973.512	2631.5
973.736	2635.5
973.961	2621.5
974.185	2590.5
974.41	2667.5
974.634	2540.5
974.858	2524.5
975.083	2574.5
975.307	2598.5
975.531	2514.5
975.755	2453.5
975.98	2470.5
976.204	2393.5
976.428	2371.5
976.652	2413.5
976.876	2394.5
977.1	2426.5
977.324	2396.5
977.547	2412.5
977.771	2446.5
977.995	2404.5
978.219	2365.5
978.442	2479.5
978.666	2378.5
978.89	2348.5
979.113	2385.5
979.337	2357.5
979.56	2334.5
979.783	2415.5
980.007	2298.5
980.23	2297.5
980.453	2299.5
980.677	2308.5
980.9	2283.5
981.123	2226.5
981.346	2305.5
981.569	2286.5
981.792	2287.5
982.015	2253.5
982.238	2198.5
982.461	2251.5
982.684	2202.5
982.907	2142.5
983.129	2158.5
983.352	2198.5
983.575	2185.5
983.797	2195.5
984.02	2102.5
984.242	2111.5
984.465	2128.5
984.687	2164.5
984.91	2175.5
985.132	2118.5
985.354	2180.5
985.577	2134.5
985.799	2095.5
986.021	1995.5
986.243	2051.5
986.465	2077.5
986.687	2112.5
986.909	2127.5
987.131	2070.5
987.353	2050.5
987.575	2093.5
987.797	2024.5
988.019	1976.5
988.241	2058.5
988.462	1988.5
988.684	2042.5
988.906	2080.5
989.127	2063.5
989.349	1988.5
989.57	1990.5
989.792	2020.5
990.013	2046.5
990.234	2055.5
990.456	2053.5
990.677	2045.5
990.898	1982.5
991.119	1963.5
991.341	1994.5
991.562	1914.5
991.783	1985.5
992.004	1912.5
992.225	1883.5
992.446	1955.5
992.667	1817.5
992.887	1923.5
993.108	1821.5
993.329	1955.5
993.55	1896.5
993.77	1808.5
993.991	1822.5
994.212	1844.5
994.432	1823.5
994.653	1826.5
994.873	1864.5
995.093	1743.5
995.314	1775.5
995.534	1862.5
995.754	1812.5
995.975	1889.5
996.195	1749.5
996.415	1813.5
996.635	1789.5
996.855	1816.5
997.075	1774.5
997.295	1766.5
997.515	1759.5
997.735	1807.5
997.955	1774.5
998.174	1795.5
998.394	1749.5
998.614	1788.5
998.834	1757.5
999.053	1794.5
999.273	1777.5
999.492	1826.5
999.712	1774.5
999.931	1724.5
1000.151	1757.5
1000.37	1745.5
1000.589	1800.5
1000.809	1682.5
1001.028	1825.5
1001.247	1733.5
1001.466	1630.5
1001.685	1772.5
1001.904	1696.5
1002.123	1700.5
1002.342	1710.5
1002.561	1631.5
1002.78	1661.5
1002.999	1720.5
1003.218	1685.5
1003.436	1645.5
1003.655	1682.5
1003.874	1625.5
1004.092	1665.5
1004.311	1676.5
1004.53	1621.5
1004.748	1730.5
1004.966	1644.5
1005.185	1667.5
1005.403	1702.5
1005.622	1654.5
1005.84	1715.5
1006.058	1633.5
1006.276	1645.5
1006.494	2124.5
1006.712	1666.5
1006.931	1724.5
1007.149	1634.5
1007.367	1646.5
1007.584	1689.5
1007.802	1715.5
1008.02	1666.5
1008.238	1766.5
1008.456	1769.5
1008.673	1654.5
1008.891	1771.5
1009.109	1741.5
1009.326	1816.5
1009.544	1930.5
1009.761	1845.5
1009.979	1967.5
1010.196	1996.5
1010.413	2101.5
1010.631	2203.5
1010.848	2224.5
1011.065	2275.5
1011.282	2227.5
1011.5	2157.5
1011.717	2233.5
1011.934	2187.5
1012.151	2272.5
1012.368	2199.5
1012.585	2133.5
1012.801	2207.5
1013.018	2188.5
1013.235	2154.5
1013.452	2187.5
1013.669	2222.5
1013.885	2199.5
1014.102	2223.5
1014.318	2241.5
1014.535	2172.5
1014.751	2200.5
1014.968	2151.5
1015.184	2224.5
1015.401	2139.5
1015.617	2144.5
1015.833	2073.5
1016.049	2048.5
1016.266	2023.5
1016.482	2050.5
1016.698	1910.5
1016.914	2003.5
1017.13	1958.5
1017.346	1942.5
1017.562	1998.5
1017.778	1950.5
1017.993	1908.5
1018.209	1961.5
1018.425	1897.5
1018.641	1885.5
1018.856	1888.5
1019.072	1877.5
1019.288	1966.5
1019.503	1890.5
1019.719	1837.5
1019.934	1812.5
1020.149	1900.5
1020.365	1831.5
1020.58	1751.5
1020.795	1775.5
1021.011	1734.5
1021.226	1686.5
1021.441	1667.5
1021.656	1597.5
1021.871	1505.5
1022.086	1512.5
1022.301	1494.5
1022.516	1475.5
1022.731	1538.5
1022.946	1448.5
1023.16	1404.5
1023.375	1357.5
1023.59	1336.5
1023.804	1280.5
1024.019	1372.5
1024.234	1230.5
1024.448	1264.5
1024.663	1180.5
1024.877	1180.5
1025.092	1222.5
1025.306	1190.5
1025.52	1095.5
1025.734	1169.5
1025.949	1071.5
1026.163	1051.5
1026.377	994.5
1026.591	1039.5
1026.805	971.5
1027.019	935.5
1027.233	909.5
1027.447	854.5
1027.661	950.5
1027.875	888.5
1028.088	884.5
1028.302	811.5
1028.516	784.5
1028.73	811.5
1028.943	786.5
1029.157	719.5
1029.37	677.5
1029.584	-2.5
1029.797	-1.5
1030.011	1.5
1030.224	-2.5
