Data from QEP037381__103__15-04-26-078.txt Node

Date: Wed Dec 21 15:04:26 EST 2022
User: dcclab
Spectrometer: QEP03738
Trigger mode: 4
Integration Time (sec): 1.000000E1
Scans to average: 1
Electric dark correction enabled: true
Nonlinearity correction enabled: false
Boxcar width: 0
XAxis mode: Wavelengths
Number of Pixels in Spectrum: 1044
>>>>>Begin Spectral Data<<<<<
784.041	13.62
784.3	-0.38
784.558	-2.38
784.817	-3.38
785.075	93681.62
785.334	15848.62
785.592	7424.62
785.851	5103.62
786.109	3888.62
786.368	3049.62
786.626	2410.62
786.884	2033.62
787.143	1686.62
787.401	1428.62
787.659	1225.62
787.917	1079.62
788.175	992.62
788.433	885.62
788.691	795.62
788.949	1326.62
789.207	835.62
789.465	633.62
789.723	594.62
789.98	542.62
790.238	588.62
790.496	549.62
790.753	517.62
791.011	574.62
791.268	513.62
791.526	496.62
791.783	514.62
792.041	504.62
792.298	421.62
792.556	462.62
792.813	470.62
793.07	449.62
793.327	435.62
793.584	507.62
793.841	429.62
794.099	456.62
794.356	514.62
794.613	423.62
794.869	454.62
795.126	404.62
795.383	400.62
795.64	405.62
795.897	375.62
796.153	428.62
796.41	422.62
796.667	389.62
796.923	397.62
797.18	402.62
797.436	447.62
797.693	392.62
797.949	454.62
798.206	483.62
798.462	391.62
798.718	453.62
798.974	412.62
799.231	461.62
799.487	471.62
799.743	447.62
799.999	485.62
800.255	481.62
800.511	457.62
800.767	496.62
801.023	487.62
801.279	516.62
801.534	544.62
801.79	575.62
802.046	599.62
802.302	729.62
802.557	814.62
802.813	975.62
803.068	1179.62
803.324	1601.62
803.579	2113.62
803.835	2841.62
804.09	3921.62
804.345	5114.62
804.601	6399.62
804.856	7740.62
805.111	8914.62
805.366	9965.62
805.621	10639.62
805.876	11234.62
806.131	11497.62
806.386	11646.62
806.641	11899.62
806.896	12186.62
807.151	12389.62
807.406	12574.62
807.661	12796.62
807.915	13033.62
808.17	13271.62
808.425	13499.62
808.679	13577.62
808.934	13746.62
809.188	13761.62
809.443	14006.62
809.697	14217.62
809.951	14266.62
810.206	14369.62
810.46	14628.62
810.714	14698.62
810.968	14880.62
811.223	14888.62
811.477	15067.62
811.731	15267.62
811.985	15224.62
812.239	15344.62
812.493	15407.62
812.747	15473.62
813	15405.62
813.254	15543.62
813.508	15616.62
813.762	15743.62
814.015	15906.62
814.269	15912.62
814.522	16077.62
814.776	16322.62
815.03	16511.62
815.283	16718.62
815.536	16924.62
815.79	17320.62
816.043	17577.62
816.296	17782.62
816.55	18055.62
816.803	18204.62
817.056	18573.62
817.309	18551.62
817.562	18881.62
817.815	19061.62
818.068	19190.62
818.321	19355.62
818.574	19549.62
818.827	19926.62
819.079	20107.62
819.332	20587.62
819.585	20777.62
819.838	20965.62
820.09	21081.62
820.343	21214.62
820.595	21219.62
820.848	21502.62
821.1	21588.62
821.353	21619.62
821.605	21529.62
821.857	21587.62
822.11	21363.62
822.362	21505.62
822.614	21407.62
822.866	21366.62
823.118	21323.62
823.37	21443.62
823.622	21444.62
823.874	21685.62
824.126	21792.62
824.378	21558.62
824.63	21769.62
824.882	21763.62
825.134	21809.62
825.385	21833.62
825.637	21752.62
825.888	21689.62
826.14	21634.62
826.392	21598.62
826.643	21479.62
826.895	21344.62
827.146	21260.62
827.397	21208.62
827.649	21245.62
827.9	21212.62
828.151	21282.62
828.402	21233.62
828.653	21378.62
828.905	21451.62
829.156	21512.62
829.407	21440.62
829.658	21508.62
829.909	21667.62
830.159	21760.62
830.41	21550.62
830.661	21336.62
830.912	21243.62
831.162	21248.62
831.413	21322.62
831.664	21322.62
831.914	21228.62
832.165	21194.62
832.415	21112.62
832.666	21184.62
832.916	21201.62
833.167	21200.62
833.417	21167.62
833.667	21078.62
833.917	21124.62
834.168	21095.62
834.418	20984.62
834.668	20834.62
834.918	20781.62
835.168	20688.62
835.418	20634.62
835.668	20614.62
835.918	20538.62
836.167	20500.62
836.417	20453.62
836.667	20469.62
836.917	20451.62
837.166	20345.62
837.416	20458.62
837.666	20374.62
837.915	20410.62
838.165	20321.62
838.414	20325.62
838.663	20194.62
838.913	20225.62
839.162	20284.62
839.411	20371.62
839.661	20241.62
839.91	20199.62
840.159	20280.62
840.408	20119.62
840.657	20221.62
840.906	20220.62
841.155	20187.62
841.404	20217.62
841.653	20226.62
841.902	20233.62
842.15	20360.62
842.399	20296.62
842.648	20300.62
842.897	20217.62
843.145	19994.62
843.394	19922.62
843.642	19745.62
843.891	19823.62
844.139	19553.62
844.388	19392.62
844.636	19418.62
844.884	19396.62
845.133	19420.62
845.381	19434.62
845.629	19484.62
845.877	19420.62
846.125	19385.62
846.373	19451.62
846.621	19374.62
846.869	19283.62
847.117	19277.62
847.365	19015.62
847.613	19064.62
847.861	18987.62
848.108	18993.62
848.356	18926.62
848.604	18795.62
848.851	18872.62
849.099	18934.62
849.346	19066.62
849.594	19077.62
849.841	19177.62
850.089	19165.62
850.336	19302.62
850.583	19297.62
850.831	19293.62
851.078	19285.62
851.325	19309.62
851.572	19483.62
851.819	19160.62
852.066	18636.62
852.313	18377.62
852.56	18181.62
852.807	18120.62
853.054	18110.62
853.301	18141.62
853.548	18219.62
853.794	18350.62
854.041	18370.62
854.288	18384.62
854.534	18613.62
854.781	18517.62
855.028	18341.62
855.274	18489.62
855.52	18307.62
855.767	18275.62
856.013	18410.62
856.26	18683.62
856.506	18082.62
856.752	18130.62
856.998	18080.62
857.244	18179.62
857.49	18319.62
857.736	18265.62
857.982	18242.62
858.228	18197.62
858.474	17871.62
858.72	17877.62
858.966	17646.62
859.212	17564.62
859.458	17297.62
859.703	17228.62
859.949	16927.62
860.195	17004.62
860.44	16810.62
860.686	16784.62
860.931	16804.62
861.177	16645.62
861.422	16619.62
861.667	16389.62
861.913	16365.62
862.158	16503.62
862.403	16567.62
862.648	16490.62
862.893	16577.62
863.138	16598.62
863.384	16443.62
863.629	16466.62
863.873	16441.62
864.118	16346.62
864.363	16358.62
864.608	16342.62
864.853	16276.62
865.098	16279.62
865.342	16112.62
865.587	16040.62
865.832	16032.62
866.076	16035.62
866.321	15970.62
866.565	15940.62
866.81	15880.62
867.054	15849.62
867.298	15806.62
867.543	15730.62
867.787	15754.62
868.031	15796.62
868.275	15680.62
868.519	15776.62
868.764	15694.62
869.008	15647.62
869.252	15737.62
869.496	15724.62
869.739	15665.62
869.983	15802.62
870.227	15789.62
870.471	15746.62
870.715	15906.62
870.958	15886.62
871.202	16027.62
871.446	16026.62
871.689	15932.62
871.933	15966.62
872.176	15862.62
872.42	15887.62
872.663	15853.62
872.906	15774.62
873.15	15799.62
873.393	15731.62
873.636	15831.62
873.879	15695.62
874.122	15421.62
874.366	15206.62
874.609	15093.62
874.852	14930.62
875.095	14840.62
875.337	14741.62
875.58	14628.62
875.823	14628.62
876.066	14659.62
876.309	14586.62
876.551	14493.62
876.794	14360.62
877.037	14395.62
877.279	14278.62
877.522	14241.62
877.764	14257.62
878.007	14180.62
878.249	14188.62
878.491	14096.62
878.734	14057.62
878.976	14063.62
879.218	13906.62
879.46	13832.62
879.702	13771.62
879.945	13653.62
880.187	13501.62
880.429	13556.62
880.671	13438.62
880.912	13342.62
881.154	13391.62
881.396	13245.62
881.638	13413.62
881.88	13338.62
882.121	13216.62
882.363	13312.62
882.605	13334.62
882.846	13274.62
883.088	13360.62
883.329	13315.62
883.571	13465.62
883.812	13584.62
884.053	13894.62
884.295	14300.62
884.536	14551.62
884.777	14408.62
885.018	14358.62
885.259	14353.62
885.5	14077.62
885.742	14400.62
885.982	14068.62
886.223	13905.62
886.464	13739.62
886.705	13550.62
886.946	13421.62
887.187	13111.62
887.428	12970.62
887.668	12736.62
887.909	12461.62
888.15	12310.62
888.39	12262.62
888.631	12253.62
888.871	12125.62
889.111	11947.62
889.352	11921.62
889.592	11758.62
889.833	11666.62
890.073	11527.62
890.313	11612.62
890.553	11341.62
890.793	11372.62
891.033	11287.62
891.273	11247.62
891.513	11232.62
891.753	11246.62
891.993	11280.62
892.233	11221.62
892.473	11348.62
892.713	11261.62
892.952	11219.62
893.192	11313.62
893.432	11291.62
893.671	11259.62
893.911	11232.62
894.15	11080.62
894.39	11009.62
894.629	11021.62
894.869	10944.62
895.108	10938.62
895.347	10807.62
895.587	10883.62
895.826	10834.62
896.065	10800.62
896.304	10878.62
896.543	10869.62
896.782	10724.62
897.021	10614.62
897.26	10782.62
897.499	10787.62
897.738	10802.62
897.977	10656.62
898.216	10512.62
898.454	10454.62
898.693	10443.62
898.932	10328.62
899.17	10324.62
899.409	10302.62
899.647	10345.62
899.886	10346.62
900.124	10360.62
900.363	10383.62
900.601	10474.62
900.839	10479.62
901.078	10560.62
901.316	10544.62
901.554	10713.62
901.792	10835.62
902.03	10755.62
902.268	10875.62
902.506	10894.62
902.744	10698.62
902.982	10611.62
903.22	10394.62
903.458	10221.62
903.695	10030.62
903.933	9815.62
904.171	9653.62
904.409	9473.62
904.646	9378.62
904.884	9234.62
905.121	9131.62
905.359	9025.62
905.596	8983.62
905.833	8717.62
906.071	8708.62
906.308	8721.62
906.545	8708.62
906.783	8658.62
907.02	8624.62
907.257	8617.62
907.494	8624.62
907.731	8569.62
907.968	8556.62
908.205	8389.62
908.442	8408.62
908.679	8388.62
908.915	8292.62
909.152	8291.62
909.389	8142.62
909.626	8084.62
909.862	7998.62
910.099	7997.62
910.335	8079.62
910.572	7896.62
910.808	7862.62
911.045	7873.62
911.281	7832.62
911.518	7881.62
911.754	7731.62
911.99	7690.62
912.226	7663.62
912.463	7624.62
912.699	7560.62
912.935	7466.62
913.171	7462.62
913.407	7390.62
913.643	7362.62
913.879	7304.62
914.114	7222.62
914.35	7160.62
914.586	7111.62
914.822	6977.62
915.057	7036.62
915.293	6910.62
915.529	6862.62
915.764	6957.62
916	6856.62
916.235	6881.62
916.471	6883.62
916.706	6783.62
916.941	6781.62
917.177	6813.62
917.412	6838.62
917.647	6750.62
917.882	6771.62
918.117	6739.62
918.352	6667.62
918.588	6755.62
918.823	6629.62
919.057	6538.62
919.292	6471.62
919.527	6548.62
919.762	6421.62
919.997	6382.62
920.232	6302.62
920.466	6304.62
920.701	6169.62
920.935	6167.62
921.17	6146.62
921.405	6071.62
921.639	6133.62
921.873	6077.62
922.108	6066.62
922.342	6029.62
922.576	5940.62
922.811	5955.62
923.045	5928.62
923.279	5929.62
923.513	5836.62
923.747	5922.62
923.981	5808.62
924.215	5821.62
924.449	5773.62
924.683	5685.62
924.917	5655.62
925.151	5634.62
925.385	5690.62
925.618	5646.62
925.852	5570.62
926.086	5587.62
926.319	5601.62
926.553	5596.62
926.786	5592.62
927.02	5582.62
927.253	5618.62
927.486	5603.62
927.72	5522.62
927.953	5593.62
928.186	5495.62
928.42	5558.62
928.653	5471.62
928.886	5387.62
929.119	5448.62
929.352	5381.62
929.585	5361.62
929.818	5300.62
930.051	5331.62
930.284	5267.62
930.516	5173.62
930.749	5164.62
930.982	5200.62
931.215	5139.62
931.447	5044.62
931.68	5056.62
931.912	5100.62
932.145	5026.62
932.377	5046.62
932.61	5163.62
932.842	4991.62
933.074	5098.62
933.307	4988.62
933.539	5112.62
933.771	5052.62
934.003	4991.62
934.236	5063.62
934.468	5125.62
934.7	4970.62
934.932	5032.62
935.164	4962.62
935.395	4909.62
935.627	4936.62
935.859	4993.62
936.091	4913.62
936.323	4936.62
936.554	4931.62
936.786	4908.62
937.017	4863.62
937.249	4897.62
937.481	4738.62
937.712	4837.62
937.943	4786.62
938.175	4771.62
938.406	4795.62
938.637	4840.62
938.869	4743.62
939.1	4815.62
939.331	4712.62
939.562	4739.62
939.793	4684.62
940.024	4735.62
940.255	4730.62
940.486	4629.62
940.717	4589.62
940.948	4615.62
941.179	4580.62
941.409	4594.62
941.64	4577.62
941.871	4594.62
942.102	4560.62
942.332	4575.62
942.563	4573.62
942.793	4555.62
943.024	4523.62
943.254	4559.62
943.484	4538.62
943.715	4548.62
943.945	4539.62
944.175	4435.62
944.405	4445.62
944.636	4441.62
944.866	4507.62
945.096	4491.62
945.326	4425.62
945.556	4395.62
945.786	4499.62
946.016	4399.62
946.245	4332.62
946.475	4357.62
946.705	4357.62
946.935	4325.62
947.164	4281.62
947.394	4240.62
947.624	4270.62
947.853	4303.62
948.083	4209.62
948.312	4189.62
948.542	4133.62
948.771	4142.62
949	4105.62
949.23	4100.62
949.459	4111.62
949.688	4163.62
949.917	4115.62
950.146	4123.62
950.375	4150.62
950.604	4049.62
950.833	4124.62
951.062	4130.62
951.291	4054.62
951.52	4065.62
951.749	4059.62
951.978	3995.62
952.206	4018.62
952.435	3989.62
952.664	4020.62
952.892	4003.62
953.121	3985.62
953.349	3979.62
953.578	3966.62
953.806	3903.62
954.035	3843.62
954.263	3905.62
954.491	3832.62
954.719	3855.62
954.948	3807.62
955.176	3797.62
955.404	3708.62
955.632	3774.62
955.86	3791.62
956.088	3746.62
956.316	3766.62
956.544	3763.62
956.772	3661.62
956.999	3613.62
957.227	3753.62
957.455	3601.62
957.683	3600.62
957.91	3577.62
958.138	3569.62
958.365	3572.62
958.593	3559.62
958.82	3535.62
959.048	3542.62
959.275	3514.62
959.502	3531.62
959.73	3494.62
959.957	3498.62
960.184	3564.62
960.411	3476.62
960.638	3504.62
960.865	3484.62
961.092	3541.62
961.319	3412.62
961.546	3509.62
961.773	3481.62
962	3451.62
962.227	3509.62
962.454	3461.62
962.68	3427.62
962.907	3370.62
963.134	3387.62
963.36	3399.62
963.587	3385.62
963.813	3308.62
964.04	3309.62
964.266	3238.62
964.493	3305.62
964.719	3323.62
964.945	3303.62
965.171	3174.62
965.398	3218.62
965.624	3265.62
965.85	3190.62
966.076	3181.62
966.302	3182.62
966.528	3142.62
966.754	3161.62
966.98	3121.62
967.206	3068.62
967.431	3079.62
967.657	3168.62
967.883	3110.62
968.109	3070.62
968.334	3067.62
968.56	3054.62
968.785	3036.62
969.011	2979.62
969.236	3051.62
969.462	2998.62
969.687	2975.62
969.912	3033.62
970.138	3064.62
970.363	2954.62
970.588	3018.62
970.813	2958.62
971.038	2894.62
971.263	2965.62
971.488	2935.62
971.713	2959.62
971.938	2960.62
972.163	2834.62
972.388	2856.62
972.613	2845.62
972.838	2863.62
973.062	2852.62
973.287	2822.62
973.512	2766.62
973.736	2813.62
973.961	2783.62
974.185	2765.62
974.41	2801.62
974.634	2676.62
974.858	2701.62
975.083	2717.62
975.307	2736.62
975.531	2695.62
975.755	2624.62
975.98	2617.62
976.204	2552.62
976.428	2555.62
976.652	2534.62
976.876	2543.62
977.1	2592.62
977.324	2530.62
977.547	2551.62
977.771	2582.62
977.995	2544.62
978.219	2482.62
978.442	2590.62
978.666	2518.62
978.89	2506.62
979.113	2527.62
979.337	2511.62
979.56	2463.62
979.783	2527.62
980.007	2404.62
980.23	2432.62
980.453	2394.62
980.677	2441.62
980.9	2428.62
981.123	2319.62
981.346	2453.62
981.569	2420.62
981.792	2430.62
982.015	2375.62
982.238	2347.62
982.461	2371.62
982.684	2314.62
982.907	2288.62
983.129	2308.62
983.352	2356.62
983.575	2291.62
983.797	2285.62
984.02	2248.62
984.242	2269.62
984.465	2273.62
984.687	2287.62
984.91	2284.62
985.132	2252.62
985.354	2247.62
985.577	2228.62
985.799	2236.62
986.021	2152.62
986.243	2166.62
986.465	2192.62
986.687	2204.62
986.909	2251.62
987.131	2178.62
987.353	2154.62
987.575	2179.62
987.797	2127.62
988.019	2092.62
988.241	2132.62
988.462	2099.62
988.684	2162.62
988.906	2171.62
989.127	2181.62
989.349	2065.62
989.57	2124.62
989.792	2129.62
990.013	2136.62
990.234	2120.62
990.456	2169.62
990.677	2134.62
990.898	2125.62
991.119	2077.62
991.341	2059.62
991.562	2023.62
991.783	2112.62
992.004	1998.62
992.225	1971.62
992.446	2037.62
992.667	1920.62
992.887	2002.62
993.108	1917.62
993.329	2030.62
993.55	1980.62
993.77	1933.62
993.991	1930.62
994.212	1976.62
994.432	1943.62
994.653	1957.62
994.873	1945.62
995.093	1798.62
995.314	1878.62
995.534	1927.62
995.754	1945.62
995.975	1977.62
996.195	1841.62
996.415	1886.62
996.635	1879.62
996.855	1888.62
997.075	1871.62
997.295	1866.62
997.515	1875.62
997.735	1903.62
997.955	1872.62
998.174	1839.62
998.394	1806.62
998.614	1867.62
998.834	1849.62
999.053	1892.62
999.273	1877.62
999.492	1917.62
999.712	1841.62
999.931	1785.62
1000.151	1830.62
1000.37	1831.62
1000.589	1858.62
1000.809	1771.62
1001.028	1901.62
1001.247	1810.62
1001.466	1723.62
1001.685	1866.62
1001.904	1785.62
1002.123	1800.62
1002.342	1771.62
1002.561	1738.62
1002.78	1731.62
1002.999	1794.62
1003.218	1732.62
1003.436	1741.62
1003.655	1770.62
1003.874	1705.62
1004.092	1698.62
1004.311	1786.62
1004.53	1726.62
1004.748	1789.62
1004.966	1714.62
1005.185	1763.62
1005.403	1756.62
1005.622	1728.62
1005.84	1799.62
1006.058	1691.62
1006.276	1721.62
1006.494	2213.62
1006.712	1721.62
1006.931	1784.62
1007.149	1681.62
1007.367	1694.62
1007.584	1748.62
1007.802	1816.62
1008.02	1777.62
1008.238	1826.62
1008.456	1834.62
1008.673	1713.62
1008.891	1823.62
1009.109	1793.62
1009.326	1882.62
1009.544	1980.62
1009.761	1915.62
1009.979	2041.62
1010.196	2051.62
1010.413	2206.62
1010.631	2275.62
1010.848	2300.62
1011.065	2367.62
1011.282	2330.62
1011.5	2275.62
1011.717	2363.62
1011.934	2270.62
1012.151	2306.62
1012.368	2300.62
1012.585	2252.62
1012.801	2298.62
1013.018	2301.62
1013.235	2259.62
1013.452	2269.62
1013.669	2289.62
1013.885	2277.62
1014.102	2335.62
1014.318	2340.62
1014.535	2275.62
1014.751	2289.62
1014.968	2272.62
1015.184	2300.62
1015.401	2180.62
1015.617	2209.62
1015.833	2180.62
1016.049	2162.62
1016.266	2129.62
1016.482	2141.62
1016.698	2083.62
1016.914	2089.62
1017.13	2041.62
1017.346	2071.62
1017.562	2117.62
1017.778	2051.62
1017.993	2025.62
1018.209	2068.62
1018.425	2075.62
1018.641	2038.62
1018.856	1996.62
1019.072	2051.62
1019.288	2071.62
1019.503	2012.62
1019.719	1954.62
1019.934	1938.62
1020.149	2033.62
1020.365	1968.62
1020.58	1898.62
1020.795	1909.62
1021.011	1835.62
1021.226	1780.62
1021.441	1800.62
1021.656	1680.62
1021.871	1647.62
1022.086	1597.62
1022.301	1582.62
1022.516	1551.62
1022.731	1617.62
1022.946	1519.62
1023.16	1508.62
1023.375	1454.62
1023.59	1426.62
1023.804	1381.62
1024.019	1457.62
1024.234	1336.62
1024.448	1324.62
1024.663	1278.62
1024.877	1270.62
1025.092	1246.62
1025.306	1276.62
1025.52	1169.62
1025.734	1249.62
1025.949	1158.62
1026.163	1120.62
1026.377	1042.62
1026.591	1110.62
1026.805	1015.62
1027.019	1022.62
1027.233	973.62
1027.447	929.62
1027.661	1012.62
1027.875	943.62
1028.088	981.62
1028.302	881.62
1028.516	857.62
1028.73	849.62
1028.943	831.62
1029.157	761.62
1029.37	735.62
1029.584	-2.38
1029.797	0.62
1030.011	-3.38
1030.224	-2.38
