Data from QEP037381__114__15-06-16-079.txt Node

Date: Wed Dec 21 15:06:16 EST 2022
User: dcclab
Spectrometer: QEP03738
Trigger mode: 4
Integration Time (sec): 1.000000E1
Scans to average: 1
Electric dark correction enabled: true
Nonlinearity correction enabled: false
Boxcar width: 0
XAxis mode: Wavelengths
Number of Pixels in Spectrum: 1044
>>>>>Begin Spectral Data<<<<<
784.041	12.25
784.3	-0.75
784.558	-4.75
784.817	-2.75
785.075	87081.25
785.334	15289.25
785.592	7249.25
785.851	5059.25
786.109	3829.25
786.368	2939.25
786.626	2417.25
786.884	2012.25
787.143	1657.25
787.401	1388.25
787.659	1235.25
787.917	1081.25
788.175	994.25
788.433	882.25
788.691	795.25
788.949	731.25
789.207	708.25
789.465	604.25
789.723	594.25
789.98	532.25
790.238	578.25
790.496	530.25
790.753	525.25
791.011	571.25
791.268	516.25
791.526	495.25
791.783	508.25
792.041	490.25
792.298	418.25
792.556	473.25
792.813	459.25
793.07	446.25
793.327	420.25
793.584	500.25
793.841	430.25
794.099	457.25
794.356	497.25
794.613	412.25
794.869	453.25
795.126	416.25
795.383	382.25
795.64	412.25
795.897	363.25
796.153	431.25
796.41	417.25
796.667	404.25
796.923	405.25
797.18	411.25
797.436	435.25
797.693	388.25
797.949	435.25
798.206	460.25
798.462	394.25
798.718	455.25
798.974	433.25
799.231	465.25
799.487	455.25
799.743	450.25
799.999	465.25
800.255	475.25
800.511	452.25
800.767	508.25
801.023	480.25
801.279	493.25
801.534	541.25
801.79	586.25
802.046	591.25
802.302	698.25
802.557	787.25
802.813	959.25
803.068	1162.25
803.324	1560.25
803.579	2028.25
803.835	2736.25
804.09	3728.25
804.345	4797.25
804.601	5986.25
804.856	7302.25
805.111	8324.25
805.366	9160.25
805.621	9733.25
805.876	10228.25
806.131	10550.25
806.386	10755.25
806.641	10907.25
806.896	11109.25
807.151	11388.25
807.406	11583.25
807.661	11689.25
807.915	11943.25
808.17	12232.25
808.425	12285.25
808.679	12383.25
808.934	12617.25
809.188	12642.25
809.443	12829.25
809.697	12977.25
809.951	13142.25
810.206	13247.25
810.46	13362.25
810.714	13494.25
810.968	13686.25
811.223	13678.25
811.477	13881.25
811.731	13955.25
811.985	14044.25
812.239	13950.25
812.493	14157.25
812.747	14187.25
813	14234.25
813.254	14308.25
813.508	14485.25
813.762	14440.25
814.015	14509.25
814.269	14573.25
814.522	14797.25
814.776	14909.25
815.03	15148.25
815.283	15426.25
815.536	15660.25
815.79	15976.25
816.043	16148.25
816.296	16378.25
816.55	16560.25
816.803	16713.25
817.056	17017.25
817.309	17173.25
817.562	17362.25
817.815	17510.25
818.068	17652.25
818.321	17845.25
818.574	18115.25
818.827	18250.25
819.079	18517.25
819.332	18965.25
819.585	19086.25
819.838	19533.25
820.09	19507.25
820.343	19686.25
820.595	19687.25
820.848	19784.25
821.1	19902.25
821.353	19884.25
821.605	19814.25
821.857	19985.25
822.11	19779.25
822.362	19740.25
822.614	19767.25
822.866	19818.25
823.118	19736.25
823.37	19873.25
823.622	19904.25
823.874	20087.25
824.126	20155.25
824.378	20064.25
824.63	20202.25
824.882	20124.25
825.134	20248.25
825.385	20166.25
825.637	20219.25
825.888	20069.25
826.14	20112.25
826.392	19893.25
826.643	19797.25
826.895	19909.25
827.146	19806.25
827.397	19630.25
827.649	19726.25
827.9	19593.25
828.151	19523.25
828.402	19684.25
828.653	19903.25
828.905	19944.25
829.156	19904.25
829.407	19806.25
829.658	20022.25
829.909	20068.25
830.159	20215.25
830.41	20099.25
830.661	19785.25
830.912	19726.25
831.162	19698.25
831.413	19731.25
831.664	19752.25
831.914	19693.25
832.165	19613.25
832.415	19672.25
832.666	19590.25
832.916	19749.25
833.167	19738.25
833.417	19635.25
833.667	19629.25
833.917	19553.25
834.168	19570.25
834.418	19527.25
834.668	19282.25
834.918	19433.25
835.168	19300.25
835.418	19107.25
835.668	19179.25
835.918	19157.25
836.167	19121.25
836.417	18900.25
836.667	19137.25
836.917	19119.25
837.166	18929.25
837.416	19032.25
837.666	19001.25
837.915	18977.25
838.165	19023.25
838.414	18904.25
838.663	18818.25
838.913	18908.25
839.162	18889.25
839.411	18951.25
839.661	18860.25
839.91	18778.25
840.159	18803.25
840.408	18778.25
840.657	18850.25
840.906	18897.25
841.155	18880.25
841.404	18858.25
841.653	18883.25
841.902	18878.25
842.15	18971.25
842.399	19074.25
842.648	18994.25
842.897	18893.25
843.145	18828.25
843.394	18676.25
843.642	18507.25
843.891	18544.25
844.139	18354.25
844.388	18137.25
844.636	18122.25
844.884	18166.25
845.133	18095.25
845.381	18136.25
845.629	18185.25
845.877	18189.25
846.125	18096.25
846.373	18175.25
846.621	18119.25
846.869	18055.25
847.117	18022.25
847.365	17867.25
847.613	17750.25
847.861	17680.25
848.108	17852.25
848.356	17758.25
848.604	17780.25
848.851	17741.25
849.099	17794.25
849.346	17870.25
849.594	17835.25
849.841	17984.25
850.089	18035.25
850.336	18039.25
850.583	18156.25
850.831	18117.25
851.078	18099.25
851.325	18097.25
851.572	18151.25
851.819	17904.25
852.066	17570.25
852.313	17202.25
852.56	17045.25
852.807	16975.25
853.054	16892.25
853.301	16946.25
853.548	16899.25
853.794	17136.25
854.041	17147.25
854.288	17256.25
854.534	17406.25
854.781	17337.25
855.028	17319.25
855.274	17346.25
855.52	17251.25
855.767	17203.25
856.013	17281.25
856.26	17605.25
856.506	17041.25
856.752	17010.25
856.998	17075.25
857.244	17031.25
857.49	17247.25
857.736	17195.25
857.982	17287.25
858.228	17123.25
858.474	17020.25
858.72	16851.25
858.966	16728.25
859.212	16542.25
859.458	16300.25
859.703	16195.25
859.949	15961.25
860.195	15922.25
860.44	15910.25
860.686	15814.25
860.931	15929.25
861.177	15669.25
861.422	15620.25
861.667	15487.25
861.913	15347.25
862.158	15502.25
862.403	15571.25
862.648	15624.25
862.893	15685.25
863.138	15586.25
863.384	15546.25
863.629	15515.25
863.873	15496.25
864.118	15450.25
864.363	15432.25
864.608	15452.25
864.853	15385.25
865.098	15297.25
865.342	15224.25
865.587	15237.25
865.832	15200.25
866.076	15097.25
866.321	15155.25
866.565	15145.25
866.81	15028.25
867.054	14934.25
867.298	14932.25
867.543	14863.25
867.787	14841.25
868.031	14874.25
868.275	14860.25
868.519	14809.25
868.764	14816.25
869.008	14785.25
869.252	14899.25
869.496	14896.25
869.739	14914.25
869.983	15013.25
870.227	14919.25
870.471	14929.25
870.715	15012.25
870.958	15111.25
871.202	15145.25
871.446	15185.25
871.689	15073.25
871.933	15055.25
872.176	15087.25
872.42	15066.25
872.663	15046.25
872.906	15048.25
873.15	14938.25
873.393	15003.25
873.636	15061.25
873.879	14932.25
874.122	14742.25
874.366	14378.25
874.609	14272.25
874.852	14261.25
875.095	14144.25
875.337	14017.25
875.58	13899.25
875.823	13924.25
876.066	13809.25
876.309	13911.25
876.551	13724.25
876.794	13719.25
877.037	13659.25
877.279	13565.25
877.522	13602.25
877.764	13634.25
878.007	13377.25
878.249	13454.25
878.491	13362.25
878.734	13426.25
878.976	13333.25
879.218	13302.25
879.46	13211.25
879.702	13150.25
879.945	13033.25
880.187	12875.25
880.429	12912.25
880.671	12798.25
880.912	12769.25
881.154	12796.25
881.396	12590.25
881.638	12723.25
881.88	12660.25
882.121	12562.25
882.363	12570.25
882.605	12718.25
882.846	12631.25
883.088	12684.25
883.329	12634.25
883.571	12877.25
883.812	12947.25
884.053	13427.25
884.295	13755.25
884.536	14130.25
884.777	13956.25
885.018	13827.25
885.259	13779.25
885.5	13578.25
885.742	13817.25
885.982	13540.25
886.223	13360.25
886.464	13187.25
886.705	12978.25
886.946	12865.25
887.187	12530.25
887.428	12393.25
887.668	12001.25
887.909	11920.25
888.15	11732.25
888.39	11635.25
888.631	11685.25
888.871	11426.25
889.111	11324.25
889.352	11288.25
889.592	11146.25
889.833	11059.25
890.073	10972.25
890.313	11000.25
890.553	10803.25
890.793	10784.25
891.033	10820.25
891.273	10703.25
891.513	10675.25
891.753	10703.25
891.993	10605.25
892.233	10681.25
892.473	10686.25
892.713	10771.25
892.952	10658.25
893.192	10708.25
893.432	10690.25
893.671	10706.25
893.911	10595.25
894.15	10588.25
894.39	10502.25
894.629	10482.25
894.869	10437.25
895.108	10399.25
895.347	10262.25
895.587	10222.25
895.826	10267.25
896.065	10189.25
896.304	10294.25
896.543	10312.25
896.782	10161.25
897.021	10177.25
897.26	10238.25
897.499	10253.25
897.738	10192.25
897.977	10114.25
898.216	10048.25
898.454	9968.25
898.693	9892.25
898.932	9945.25
899.17	9867.25
899.409	9809.25
899.647	9794.25
899.886	9816.25
900.124	9899.25
900.363	9823.25
900.601	9900.25
900.839	9926.25
901.078	9954.25
901.316	10046.25
901.554	10134.25
901.792	10321.25
902.03	10286.25
902.268	10274.25
902.506	10385.25
902.744	10211.25
902.982	10094.25
903.22	9882.25
903.458	9745.25
903.695	9590.25
903.933	9384.25
904.171	9146.25
904.409	9052.25
904.646	8991.25
904.884	8764.25
905.121	8702.25
905.359	8544.25
905.596	8545.25
905.833	8373.25
906.071	8369.25
906.308	8305.25
906.545	8327.25
906.783	8219.25
907.02	8210.25
907.257	8215.25
907.494	8203.25
907.731	8147.25
907.968	8150.25
908.205	8145.25
908.442	8025.25
908.679	7960.25
908.915	7887.25
909.152	7957.25
909.389	7703.25
909.626	7712.25
909.862	7698.25
910.099	7656.25
910.335	7675.25
910.572	7503.25
910.808	7545.25
911.045	7526.25
911.281	7532.25
911.518	7495.25
911.754	7425.25
911.99	7420.25
912.226	7402.25
912.463	7246.25
912.699	7248.25
912.935	7181.25
913.171	7135.25
913.407	7040.25
913.643	7091.25
913.879	7046.25
914.114	6965.25
914.35	6868.25
914.586	6810.25
914.822	6730.25
915.057	6754.25
915.293	6625.25
915.529	6609.25
915.764	6638.25
916	6630.25
916.235	6612.25
916.471	6551.25
916.706	6524.25
916.941	6513.25
917.177	6551.25
917.412	6599.25
917.647	6563.25
917.882	6497.25
918.117	6543.25
918.352	6494.25
918.588	6517.25
918.823	6366.25
919.057	6363.25
919.292	6242.25
919.527	6311.25
919.762	6183.25
919.997	6164.25
920.232	6052.25
920.466	6060.25
920.701	5932.25
920.935	5946.25
921.17	5919.25
921.405	5848.25
921.639	5900.25
921.873	5841.25
922.108	5817.25
922.342	5801.25
922.576	5740.25
922.811	5713.25
923.045	5730.25
923.279	5768.25
923.513	5556.25
923.747	5689.25
923.981	5666.25
924.215	5546.25
924.449	5569.25
924.683	5489.25
924.917	5434.25
925.151	5473.25
925.385	5496.25
925.618	5391.25
925.852	5462.25
926.086	5362.25
926.319	5388.25
926.553	5424.25
926.786	5413.25
927.02	5363.25
927.253	5372.25
927.486	5427.25
927.72	5315.25
927.953	5366.25
928.186	5315.25
928.42	5345.25
928.653	5214.25
928.886	5174.25
929.119	5282.25
929.352	5203.25
929.585	5181.25
929.818	5113.25
930.051	5125.25
930.284	5094.25
930.516	4987.25
930.749	4991.25
930.982	5032.25
931.215	4968.25
931.447	4834.25
931.68	4933.25
931.912	4925.25
932.145	4908.25
932.377	4924.25
932.61	4968.25
932.842	4831.25
933.074	4934.25
933.307	4826.25
933.539	4909.25
933.771	4902.25
934.003	4849.25
934.236	4916.25
934.468	4912.25
934.7	4772.25
934.932	4847.25
935.164	4726.25
935.395	4764.25
935.627	4850.25
935.859	4778.25
936.091	4778.25
936.323	4740.25
936.554	4775.25
936.786	4691.25
937.017	4638.25
937.249	4716.25
937.481	4577.25
937.712	4686.25
937.943	4610.25
938.175	4586.25
938.406	4667.25
938.637	4683.25
938.869	4535.25
939.1	4614.25
939.331	4565.25
939.562	4582.25
939.793	4518.25
940.024	4548.25
940.255	4566.25
940.486	4534.25
940.717	4459.25
940.948	4487.25
941.179	4412.25
941.409	4433.25
941.64	4404.25
941.871	4400.25
942.102	4366.25
942.332	4382.25
942.563	4444.25
942.793	4420.25
943.024	4351.25
943.254	4419.25
943.484	4433.25
943.715	4427.25
943.945	4376.25
944.175	4298.25
944.405	4316.25
944.636	4363.25
944.866	4441.25
945.096	4379.25
945.326	4254.25
945.556	4339.25
945.786	4327.25
946.016	4314.25
946.245	4221.25
946.475	4188.25
946.705	4177.25
946.935	4193.25
947.164	4141.25
947.394	4097.25
947.624	4101.25
947.853	4113.25
948.083	4103.25
948.312	4085.25
948.542	4056.25
948.771	4047.25
949	3994.25
949.23	4026.25
949.459	4009.25
949.688	4046.25
949.917	4005.25
950.146	4036.25
950.375	4075.25
950.604	3961.25
950.833	4026.25
951.062	4023.25
951.291	3961.25
951.52	3916.25
951.749	3898.25
951.978	3907.25
952.206	3900.25
952.435	3892.25
952.664	3901.25
952.892	3871.25
953.121	3810.25
953.349	3883.25
953.578	3890.25
953.806	3793.25
954.035	3778.25
954.263	3769.25
954.491	3779.25
954.719	3766.25
954.948	3775.25
955.176	3683.25
955.404	3655.25
955.632	3698.25
955.86	3720.25
956.088	3643.25
956.316	3674.25
956.544	3650.25
956.772	3643.25
956.999	3582.25
957.227	3641.25
957.455	3548.25
957.683	3554.25
957.91	3528.25
958.138	3456.25
958.365	3519.25
958.593	3503.25
958.82	3397.25
959.048	3518.25
959.275	3451.25
959.502	3442.25
959.73	3410.25
959.957	3462.25
960.184	3458.25
960.411	3390.25
960.638	3444.25
960.865	3388.25
961.092	3405.25
961.319	3314.25
961.546	3410.25
961.773	3397.25
962	3348.25
962.227	3402.25
962.454	3346.25
962.68	3332.25
962.907	3332.25
963.134	3273.25
963.36	3324.25
963.587	3300.25
963.813	3211.25
964.04	3250.25
964.266	3182.25
964.493	3279.25
964.719	3240.25
964.945	3215.25
965.171	3087.25
965.398	3164.25
965.624	3170.25
965.85	3081.25
966.076	3073.25
966.302	3114.25
966.528	3124.25
966.754	3082.25
966.98	3115.25
967.206	3110.25
967.431	3007.25
967.657	3078.25
967.883	3032.25
968.109	3046.25
968.334	3009.25
968.56	2958.25
968.785	2999.25
969.011	2944.25
969.236	3013.25
969.462	2932.25
969.687	2946.25
969.912	3006.25
970.138	2968.25
970.363	2950.25
970.588	2947.25
970.813	2880.25
971.038	2883.25
971.263	2866.25
971.488	2922.25
971.713	2896.25
971.938	2891.25
972.163	2812.25
972.388	2798.25
972.613	2789.25
972.838	2841.25
973.062	2795.25
973.287	2778.25
973.512	2693.25
973.736	2735.25
973.961	2710.25
974.185	2694.25
974.41	2742.25
974.634	2638.25
974.858	2610.25
975.083	2668.25
975.307	2715.25
975.531	2635.25
975.755	2566.25
975.98	2589.25
976.204	2538.25
976.428	2463.25
976.652	2517.25
976.876	2495.25
977.1	2552.25
977.324	2501.25
977.547	2548.25
977.771	2558.25
977.995	2495.25
978.219	2433.25
978.442	2556.25
978.666	2475.25
978.89	2447.25
979.113	2486.25
979.337	2437.25
979.56	2393.25
979.783	2514.25
980.007	2396.25
980.23	2415.25
980.453	2371.25
980.677	2428.25
980.9	2378.25
981.123	2332.25
981.346	2396.25
981.569	2387.25
981.792	2402.25
982.015	2355.25
982.238	2294.25
982.461	2332.25
982.684	2271.25
982.907	2275.25
983.129	2266.25
983.352	2315.25
983.575	2262.25
983.797	2258.25
984.02	2226.25
984.242	2229.25
984.465	2238.25
984.687	2218.25
984.91	2261.25
985.132	2257.25
985.354	2265.25
985.577	2221.25
985.799	2185.25
986.021	2083.25
986.243	2157.25
986.465	2138.25
986.687	2212.25
986.909	2223.25
987.131	2161.25
987.353	2126.25
987.575	2142.25
987.797	2097.25
988.019	2061.25
988.241	2123.25
988.462	2076.25
988.684	2102.25
988.906	2123.25
989.127	2179.25
989.349	2062.25
989.57	2079.25
989.792	2082.25
990.013	2110.25
990.234	2123.25
990.456	2151.25
990.677	2124.25
990.898	2059.25
991.119	2074.25
991.341	2075.25
991.562	2033.25
991.783	2031.25
992.004	1964.25
992.225	1956.25
992.446	1982.25
992.667	1901.25
992.887	1975.25
993.108	1888.25
993.329	2005.25
993.55	1957.25
993.77	1883.25
993.991	1896.25
994.212	1922.25
994.432	1919.25
994.653	1941.25
994.873	1911.25
995.093	1800.25
995.314	1829.25
995.534	1906.25
995.754	1904.25
995.975	1925.25
996.195	1845.25
996.415	1882.25
996.635	1840.25
996.855	1860.25
997.075	1845.25
997.295	1842.25
997.515	1848.25
997.735	1891.25
997.955	1875.25
998.174	1832.25
998.394	1822.25
998.614	1833.25
998.834	1833.25
999.053	1881.25
999.273	1856.25
999.492	1881.25
999.712	1785.25
999.931	1800.25
1000.151	1844.25
1000.37	1786.25
1000.589	1837.25
1000.809	1786.25
1001.028	1875.25
1001.247	1800.25
1001.466	1706.25
1001.685	1846.25
1001.904	1768.25
1002.123	1758.25
1002.342	1741.25
1002.561	1727.25
1002.78	1763.25
1002.999	1800.25
1003.218	1744.25
1003.436	1679.25
1003.655	1768.25
1003.874	1696.25
1004.092	1696.25
1004.311	1731.25
1004.53	1705.25
1004.748	1789.25
1004.966	1675.25
1005.185	1752.25
1005.403	1707.25
1005.622	1727.25
1005.84	1777.25
1006.058	1679.25
1006.276	1695.25
1006.494	2214.25
1006.712	1728.25
1006.931	1784.25
1007.149	1697.25
1007.367	1694.25
1007.584	1755.25
1007.802	1787.25
1008.02	1720.25
1008.238	1832.25
1008.456	1827.25
1008.673	1688.25
1008.891	1835.25
1009.109	1800.25
1009.326	1851.25
1009.544	1967.25
1009.761	1897.25
1009.979	1998.25
1010.196	2083.25
1010.413	2160.25
1010.631	2255.25
1010.848	2340.25
1011.065	2354.25
1011.282	2325.25
1011.5	2249.25
1011.717	2370.25
1011.934	2278.25
1012.151	2297.25
1012.368	2301.25
1012.585	2230.25
1012.801	2295.25
1013.018	2264.25
1013.235	2259.25
1013.452	2242.25
1013.669	2296.25
1013.885	2279.25
1014.102	2333.25
1014.318	2302.25
1014.535	2236.25
1014.751	2269.25
1014.968	2288.25
1015.184	2301.25
1015.401	2218.25
1015.617	2209.25
1015.833	2154.25
1016.049	2141.25
1016.266	2137.25
1016.482	2097.25
1016.698	2066.25
1016.914	2066.25
1017.13	2043.25
1017.346	2019.25
1017.562	2066.25
1017.778	2025.25
1017.993	2012.25
1018.209	2048.25
1018.425	2020.25
1018.641	1963.25
1018.856	1978.25
1019.072	2002.25
1019.288	2047.25
1019.503	1974.25
1019.719	1933.25
1019.934	1921.25
1020.149	1990.25
1020.365	1890.25
1020.58	1820.25
1020.795	1860.25
1021.011	1808.25
1021.226	1755.25
1021.441	1759.25
1021.656	1656.25
1021.871	1573.25
1022.086	1575.25
1022.301	1551.25
1022.516	1532.25
1022.731	1560.25
1022.946	1452.25
1023.16	1456.25
1023.375	1378.25
1023.59	1401.25
1023.804	1344.25
1024.019	1426.25
1024.234	1292.25
1024.448	1311.25
1024.663	1242.25
1024.877	1229.25
1025.092	1250.25
1025.306	1243.25
1025.52	1126.25
1025.734	1221.25
1025.949	1139.25
1026.163	1098.25
1026.377	1030.25
1026.591	1082.25
1026.805	981.25
1027.019	978.25
1027.233	957.25
1027.447	883.25
1027.661	980.25
1027.875	919.25
1028.088	933.25
1028.302	839.25
1028.516	825.25
1028.73	828.25
1028.943	819.25
1029.157	754.25
1029.37	718.25
1029.584	3.25
1029.797	0.25
1030.011	-2.75
1030.224	-4.75
