Data from QEP037381__107__15-05-06-079.txt Node

Date: Wed Dec 21 15:05:06 EST 2022
User: dcclab
Spectrometer: QEP03738
Trigger mode: 4
Integration Time (sec): 1.000000E1
Scans to average: 1
Electric dark correction enabled: true
Nonlinearity correction enabled: false
Boxcar width: 0
XAxis mode: Wavelengths
Number of Pixels in Spectrum: 1044
>>>>>Begin Spectral Data<<<<<
784.041	11.88
784.3	-0.12
784.558	-1.12
784.817	-7.12
785.075	90727.88
785.334	15702.88
785.592	7441.88
785.851	5159.88
786.109	3926.88
786.368	3078.88
786.626	2479.88
786.884	2056.88
787.143	1734.88
787.401	1410.88
787.659	1257.88
787.917	1099.88
788.175	1018.88
788.433	883.88
788.691	791.88
788.949	728.88
789.207	707.88
789.465	617.88
789.723	593.88
789.98	535.88
790.238	595.88
790.496	547.88
790.753	526.88
791.011	567.88
791.268	523.88
791.526	489.88
791.783	505.88
792.041	503.88
792.298	422.88
792.556	490.88
792.813	450.88
793.07	446.88
793.327	435.88
793.584	502.88
793.841	434.88
794.099	445.88
794.356	492.88
794.613	413.88
794.869	445.88
795.126	416.88
795.383	397.88
795.64	419.88
795.897	374.88
796.153	424.88
796.41	415.88
796.667	392.88
796.923	399.88
797.18	400.88
797.436	419.88
797.693	381.88
797.949	448.88
798.206	476.88
798.462	379.88
798.718	438.88
798.974	404.88
799.231	462.88
799.487	434.88
799.743	449.88
799.999	478.88
800.255	464.88
800.511	459.88
800.767	491.88
801.023	475.88
801.279	506.88
801.534	524.88
801.79	571.88
802.046	571.88
802.302	690.88
802.557	770.88
802.813	901.88
803.068	1076.88
803.324	1455.88
803.579	1907.88
803.835	2553.88
804.09	3553.88
804.345	4524.88
804.601	5691.88
804.856	6837.88
805.111	7893.88
805.366	8723.88
805.621	9303.88
805.876	9688.88
806.131	10059.88
806.386	10241.88
806.641	10400.88
806.896	10621.88
807.151	10840.88
807.406	10955.88
807.661	11122.88
807.915	11348.88
808.17	11526.88
808.425	11726.88
808.679	11780.88
808.934	11922.88
809.188	12063.88
809.443	12161.88
809.697	12337.88
809.951	12261.88
810.206	12511.88
810.46	12581.88
810.714	12837.88
810.968	12919.88
811.223	12904.88
811.477	13083.88
811.731	13174.88
811.985	13232.88
812.239	13259.88
812.493	13375.88
812.747	13342.88
813	13399.88
813.254	13554.88
813.508	13594.88
813.762	13561.88
814.015	13653.88
814.269	13775.88
814.522	13901.88
814.776	14079.88
815.03	14314.88
815.283	14462.88
815.536	14660.88
815.79	14855.88
816.043	15076.88
816.296	15334.88
816.55	15476.88
816.803	15763.88
817.056	15955.88
817.309	16055.88
817.562	16274.88
817.815	16381.88
818.068	16393.88
818.321	16700.88
818.574	16865.88
818.827	17177.88
819.079	17385.88
819.332	17770.88
819.585	17873.88
819.838	18100.88
820.09	18216.88
820.343	18322.88
820.595	18346.88
820.848	18509.88
821.1	18563.88
821.353	18560.88
821.605	18480.88
821.857	18554.88
822.11	18421.88
822.362	18449.88
822.614	18388.88
822.866	18412.88
823.118	18361.88
823.37	18505.88
823.622	18570.88
823.874	18566.88
824.126	18679.88
824.378	18713.88
824.63	18741.88
824.882	18831.88
825.134	18706.88
825.385	18786.88
825.637	18665.88
825.888	18735.88
826.14	18640.88
826.392	18507.88
826.643	18362.88
826.895	18539.88
827.146	18183.88
827.397	18274.88
827.649	18351.88
827.9	18219.88
828.151	18258.88
828.402	18338.88
828.653	18407.88
828.905	18523.88
829.156	18457.88
829.407	18411.88
829.658	18494.88
829.909	18589.88
830.159	18623.88
830.41	18496.88
830.661	18435.88
830.912	18335.88
831.162	18281.88
831.413	18172.88
831.664	18313.88
831.914	18181.88
832.165	18234.88
832.415	18216.88
832.666	18177.88
832.916	18182.88
833.167	18255.88
833.417	18235.88
833.667	18153.88
833.917	18207.88
834.168	18171.88
834.418	18066.88
834.668	17966.88
834.918	17863.88
835.168	17855.88
835.418	17636.88
835.668	17680.88
835.918	17737.88
836.167	17631.88
836.417	17544.88
836.667	17614.88
836.917	17628.88
837.166	17587.88
837.416	17638.88
837.666	17542.88
837.915	17582.88
838.165	17561.88
838.414	17441.88
838.663	17453.88
838.913	17443.88
839.162	17431.88
839.411	17486.88
839.661	17376.88
839.91	17346.88
840.159	17345.88
840.408	17344.88
840.657	17426.88
840.906	17418.88
841.155	17403.88
841.404	17504.88
841.653	17446.88
841.902	17505.88
842.15	17511.88
842.399	17611.88
842.648	17487.88
842.897	17384.88
843.145	17218.88
843.394	17187.88
843.642	17108.88
843.891	17081.88
844.139	16910.88
844.388	16788.88
844.636	16684.88
844.884	16779.88
845.133	16669.88
845.381	16710.88
845.629	16799.88
845.877	16663.88
846.125	16806.88
846.373	16602.88
846.621	16585.88
846.869	16608.88
847.117	16582.88
847.365	16461.88
847.613	16362.88
847.861	16460.88
848.108	16335.88
848.356	16354.88
848.604	16331.88
848.851	16368.88
849.099	16321.88
849.346	16452.88
849.594	16470.88
849.841	16526.88
850.089	16589.88
850.336	16679.88
850.583	16768.88
850.831	16676.88
851.078	16592.88
851.325	16725.88
851.572	16819.88
851.819	16546.88
852.066	16071.88
852.313	15807.88
852.56	15643.88
852.807	15516.88
853.054	15532.88
853.301	15550.88
853.548	15663.88
853.794	15752.88
854.041	15855.88
854.288	15826.88
854.534	16057.88
854.781	15983.88
855.028	15808.88
855.274	15947.88
855.52	15906.88
855.767	15827.88
856.013	15909.88
856.26	16158.88
856.506	15732.88
856.752	15672.88
856.998	15669.88
857.244	15677.88
857.49	15791.88
857.736	15776.88
857.982	15884.88
858.228	15728.88
858.474	15629.88
858.72	15546.88
858.966	15353.88
859.212	15078.88
859.458	14984.88
859.703	14818.88
859.949	14634.88
860.195	14563.88
860.44	14583.88
860.686	14576.88
860.931	14598.88
861.177	14415.88
861.422	14399.88
861.667	14285.88
861.913	14260.88
862.158	14226.88
862.403	14262.88
862.648	14354.88
862.893	14294.88
863.138	14426.88
863.384	14300.88
863.629	14260.88
863.873	14278.88
864.118	14314.88
864.363	14108.88
864.608	14156.88
864.853	14085.88
865.098	13992.88
865.342	14030.88
865.587	13891.88
865.832	13919.88
866.076	13882.88
866.321	13835.88
866.565	13836.88
866.81	13698.88
867.054	13777.88
867.298	13727.88
867.543	13660.88
867.787	13742.88
868.031	13600.88
868.275	13551.88
868.519	13538.88
868.764	13576.88
869.008	13622.88
869.252	13597.88
869.496	13641.88
869.739	13637.88
869.983	13718.88
870.227	13698.88
870.471	13655.88
870.715	13758.88
870.958	13838.88
871.202	13854.88
871.446	13859.88
871.689	13904.88
871.933	13843.88
872.176	13718.88
872.42	13781.88
872.663	13682.88
872.906	13781.88
873.15	13694.88
873.393	13611.88
873.636	13731.88
873.879	13617.88
874.122	13467.88
874.366	13186.88
874.609	13063.88
874.852	12963.88
875.095	12993.88
875.337	12812.88
875.58	12716.88
875.823	12774.88
876.066	12727.88
876.309	12629.88
876.551	12515.88
876.794	12455.88
877.037	12525.88
877.279	12415.88
877.522	12493.88
877.764	12390.88
878.007	12329.88
878.249	12366.88
878.491	12230.88
878.734	12235.88
878.976	12216.88
879.218	12080.88
879.46	12074.88
879.702	11961.88
879.945	11885.88
880.187	11727.88
880.429	11722.88
880.671	11672.88
880.912	11640.88
881.154	11535.88
881.396	11474.88
881.638	11551.88
881.88	11655.88
882.121	11524.88
882.363	11534.88
882.605	11528.88
882.846	11553.88
883.088	11559.88
883.329	11615.88
883.571	11606.88
883.812	11862.88
884.053	12161.88
884.295	12496.88
884.536	12664.88
884.777	12646.88
885.018	12545.88
885.259	12408.88
885.5	12242.88
885.742	12525.88
885.982	12265.88
886.223	12077.88
886.464	11931.88
886.705	11804.88
886.946	11671.88
887.187	11388.88
887.428	11257.88
887.668	11031.88
887.909	10855.88
888.15	10690.88
888.39	10631.88
888.631	10600.88
888.871	10471.88
889.111	10356.88
889.352	10288.88
889.592	10208.88
889.833	10162.88
890.073	10053.88
890.313	10031.88
890.553	9915.88
890.793	9864.88
891.033	9775.88
891.273	9766.88
891.513	9794.88
891.753	9761.88
891.993	9708.88
892.233	9737.88
892.473	9875.88
892.713	9711.88
892.952	9738.88
893.192	9707.88
893.432	9726.88
893.671	9709.88
893.911	9644.88
894.15	9588.88
894.39	9566.88
894.629	9564.88
894.869	9521.88
895.108	9486.88
895.347	9375.88
895.587	9383.88
895.826	9353.88
896.065	9323.88
896.304	9377.88
896.543	9369.88
896.782	9267.88
897.021	9314.88
897.26	9324.88
897.499	9341.88
897.738	9342.88
897.977	9250.88
898.216	9182.88
898.454	9071.88
898.693	8984.88
898.932	9076.88
899.17	9029.88
899.409	8910.88
899.647	8965.88
899.886	8948.88
900.124	9020.88
900.363	8928.88
900.601	9027.88
900.839	9061.88
901.078	9074.88
901.316	9242.88
901.554	9313.88
901.792	9379.88
902.03	9369.88
902.268	9406.88
902.506	9333.88
902.744	9205.88
902.982	9214.88
903.22	8922.88
903.458	8787.88
903.695	8724.88
903.933	8560.88
904.171	8360.88
904.409	8263.88
904.646	8106.88
904.884	7959.88
905.121	7928.88
905.359	7790.88
905.596	7790.88
905.833	7631.88
906.071	7640.88
906.308	7610.88
906.545	7572.88
906.783	7463.88
907.02	7540.88
907.257	7439.88
907.494	7416.88
907.731	7434.88
907.968	7489.88
908.205	7348.88
908.442	7269.88
908.679	7243.88
908.915	7246.88
909.152	7123.88
909.389	7029.88
909.626	7067.88
909.862	6963.88
910.099	6975.88
910.335	6932.88
910.572	6882.88
910.808	6855.88
911.045	6829.88
911.281	6806.88
911.518	6787.88
911.754	6746.88
911.99	6766.88
912.226	6702.88
912.463	6580.88
912.699	6591.88
912.935	6493.88
913.171	6442.88
913.407	6423.88
913.643	6378.88
913.879	6287.88
914.114	6285.88
914.35	6160.88
914.586	6183.88
914.822	6107.88
915.057	6098.88
915.293	6004.88
915.529	5917.88
915.764	6041.88
916	6039.88
916.235	5958.88
916.471	5968.88
916.706	5888.88
916.941	5905.88
917.177	5865.88
917.412	5957.88
917.647	5938.88
917.882	5827.88
918.117	5911.88
918.352	5818.88
918.588	5875.88
918.823	5797.88
919.057	5732.88
919.292	5652.88
919.527	5654.88
919.762	5555.88
919.997	5613.88
920.232	5454.88
920.466	5456.88
920.701	5330.88
920.935	5373.88
921.17	5358.88
921.405	5245.88
921.639	5325.88
921.873	5210.88
922.108	5270.88
922.342	5237.88
922.576	5195.88
922.811	5154.88
923.045	5209.88
923.279	5186.88
923.513	5071.88
923.747	5094.88
923.981	5057.88
924.215	5005.88
924.449	4931.88
924.683	4989.88
924.917	4904.88
925.151	4913.88
925.385	4983.88
925.618	4902.88
925.852	4907.88
926.086	4855.88
926.319	4874.88
926.553	4875.88
926.786	4891.88
927.02	4839.88
927.253	4858.88
927.486	4848.88
927.72	4809.88
927.953	4834.88
928.186	4807.88
928.42	4790.88
928.653	4745.88
928.886	4689.88
929.119	4723.88
929.352	4662.88
929.585	4682.88
929.818	4603.88
930.051	4583.88
930.284	4610.88
930.516	4478.88
930.749	4463.88
930.982	4456.88
931.215	4485.88
931.447	4410.88
931.68	4444.88
931.912	4376.88
932.145	4398.88
932.377	4400.88
932.61	4512.88
932.842	4343.88
933.074	4411.88
933.307	4368.88
933.539	4441.88
933.771	4420.88
934.003	4403.88
934.236	4424.88
934.468	4435.88
934.7	4349.88
934.932	4342.88
935.164	4317.88
935.395	4298.88
935.627	4281.88
935.859	4295.88
936.091	4210.88
936.323	4273.88
936.554	4311.88
936.786	4225.88
937.017	4199.88
937.249	4259.88
937.481	4165.88
937.712	4221.88
937.943	4209.88
938.175	4124.88
938.406	4199.88
938.637	4159.88
938.869	4093.88
939.1	4138.88
939.331	4107.88
939.562	4128.88
939.793	4133.88
940.024	4120.88
940.255	4101.88
940.486	4075.88
940.717	4041.88
940.948	4020.88
941.179	3933.88
941.409	3988.88
941.64	3971.88
941.871	4011.88
942.102	3959.88
942.332	3985.88
942.563	3999.88
942.793	3958.88
943.024	3930.88
943.254	3947.88
943.484	3989.88
943.715	3960.88
943.945	3981.88
944.175	3906.88
944.405	3868.88
944.636	3888.88
944.866	3959.88
945.096	3925.88
945.326	3815.88
945.556	3903.88
945.786	3880.88
946.016	3872.88
946.245	3795.88
946.475	3755.88
946.705	3759.88
946.935	3719.88
947.164	3814.88
947.394	3684.88
947.624	3748.88
947.853	3728.88
948.083	3667.88
948.312	3605.88
948.542	3607.88
948.771	3589.88
949	3603.88
949.23	3609.88
949.459	3575.88
949.688	3656.88
949.917	3615.88
950.146	3539.88
950.375	3661.88
950.604	3544.88
950.833	3620.88
951.062	3571.88
951.291	3537.88
951.52	3527.88
951.749	3524.88
951.978	3492.88
952.206	3460.88
952.435	3519.88
952.664	3494.88
952.892	3497.88
953.121	3483.88
953.349	3477.88
953.578	3464.88
953.806	3447.88
954.035	3361.88
954.263	3383.88
954.491	3340.88
954.719	3411.88
954.948	3333.88
955.176	3347.88
955.404	3271.88
955.632	3309.88
955.86	3309.88
956.088	3276.88
956.316	3275.88
956.544	3265.88
956.772	3253.88
956.999	3192.88
957.227	3297.88
957.455	3178.88
957.683	3208.88
957.91	3169.88
958.138	3119.88
958.365	3138.88
958.593	3128.88
958.82	3091.88
959.048	3109.88
959.275	3114.88
959.502	3046.88
959.73	3045.88
959.957	3081.88
960.184	3097.88
960.411	3016.88
960.638	3111.88
960.865	3015.88
961.092	3073.88
961.319	2997.88
961.546	3030.88
961.773	3028.88
962	3048.88
962.227	3031.88
962.454	2975.88
962.68	2995.88
962.907	3011.88
963.134	2927.88
963.36	2961.88
963.587	3012.88
963.813	2893.88
964.04	2938.88
964.266	2863.88
964.493	2933.88
964.719	2899.88
964.945	2911.88
965.171	2801.88
965.398	2860.88
965.624	2837.88
965.85	2765.88
966.076	2772.88
966.302	2796.88
966.528	2764.88
966.754	2782.88
966.98	2751.88
967.206	2728.88
967.431	2686.88
967.657	2748.88
967.883	2723.88
968.109	2733.88
968.334	2678.88
968.56	2686.88
968.785	2652.88
969.011	2639.88
969.236	2664.88
969.462	2633.88
969.687	2634.88
969.912	2662.88
970.138	2698.88
970.363	2617.88
970.588	2669.88
970.813	2573.88
971.038	2549.88
971.263	2608.88
971.488	2603.88
971.713	2635.88
971.938	2609.88
972.163	2500.88
972.388	2543.88
972.613	2515.88
972.838	2507.88
973.062	2496.88
973.287	2499.88
973.512	2457.88
973.736	2514.88
973.961	2438.88
974.185	2414.88
974.41	2485.88
974.634	2377.88
974.858	2352.88
975.083	2399.88
975.307	2433.88
975.531	2355.88
975.755	2318.88
975.98	2362.88
976.204	2293.88
976.428	2249.88
976.652	2285.88
976.876	2260.88
977.1	2281.88
977.324	2226.88
977.547	2265.88
977.771	2290.88
977.995	2235.88
978.219	2192.88
978.442	2306.88
978.666	2235.88
978.89	2218.88
979.113	2234.88
979.337	2196.88
979.56	2168.88
979.783	2256.88
980.007	2162.88
980.23	2188.88
980.453	2152.88
980.677	2170.88
980.9	2182.88
981.123	2122.88
981.346	2190.88
981.569	2147.88
981.792	2176.88
982.015	2090.88
982.238	2073.88
982.461	2102.88
982.684	2072.88
982.907	2041.88
983.129	2024.88
983.352	2058.88
983.575	2060.88
983.797	2018.88
984.02	2032.88
984.242	2003.88
984.465	2013.88
984.687	2046.88
984.91	2044.88
985.132	2006.88
985.354	2048.88
985.577	2007.88
985.799	2011.88
986.021	1907.88
986.243	1927.88
986.465	1933.88
986.687	1997.88
986.909	1996.88
987.131	1970.88
987.353	1901.88
987.575	1943.88
987.797	1922.88
988.019	1852.88
988.241	1903.88
988.462	1845.88
988.684	1911.88
988.906	1937.88
989.127	1952.88
989.349	1841.88
989.57	1862.88
989.792	1913.88
990.013	1914.88
990.234	1916.88
990.456	1934.88
990.677	1904.88
990.898	1868.88
991.119	1850.88
991.341	1876.88
991.562	1796.88
991.783	1859.88
992.004	1798.88
992.225	1757.88
992.446	1829.88
992.667	1760.88
992.887	1842.88
993.108	1713.88
993.329	1845.88
993.55	1802.88
993.77	1717.88
993.991	1696.88
994.212	1770.88
994.432	1748.88
994.653	1760.88
994.873	1741.88
995.093	1633.88
995.314	1694.88
995.534	1735.88
995.754	1752.88
995.975	1758.88
996.195	1676.88
996.415	1707.88
996.635	1709.88
996.855	1698.88
997.075	1693.88
997.295	1683.88
997.515	1675.88
997.735	1700.88
997.955	1685.88
998.174	1663.88
998.394	1660.88
998.614	1707.88
998.834	1659.88
999.053	1729.88
999.273	1677.88
999.492	1745.88
999.712	1683.88
999.931	1629.88
1000.151	1665.88
1000.37	1627.88
1000.589	1693.88
1000.809	1622.88
1001.028	1724.88
1001.247	1670.88
1001.466	1550.88
1001.685	1712.88
1001.904	1628.88
1002.123	1602.88
1002.342	1592.88
1002.561	1594.88
1002.78	1604.88
1002.999	1649.88
1003.218	1613.88
1003.436	1576.88
1003.655	1628.88
1003.874	1545.88
1004.092	1599.88
1004.311	1631.88
1004.53	1581.88
1004.748	1644.88
1004.966	1573.88
1005.185	1615.88
1005.403	1608.88
1005.622	1585.88
1005.84	1634.88
1006.058	1548.88
1006.276	1587.88
1006.494	2090.88
1006.712	1592.88
1006.931	1643.88
1007.149	1574.88
1007.367	1588.88
1007.584	1610.88
1007.802	1645.88
1008.02	1608.88
1008.238	1702.88
1008.456	1698.88
1008.673	1558.88
1008.891	1713.88
1009.109	1636.88
1009.326	1707.88
1009.544	1819.88
1009.761	1724.88
1009.979	1825.88
1010.196	1889.88
1010.413	2018.88
1010.631	2054.88
1010.848	2175.88
1011.065	2154.88
1011.282	2108.88
1011.5	2043.88
1011.717	2133.88
1011.934	2059.88
1012.151	2135.88
1012.368	2107.88
1012.585	2028.88
1012.801	2092.88
1013.018	2074.88
1013.235	2027.88
1013.452	2072.88
1013.669	2077.88
1013.885	2057.88
1014.102	2114.88
1014.318	2089.88
1014.535	2043.88
1014.751	2060.88
1014.968	2092.88
1015.184	2106.88
1015.401	1995.88
1015.617	2044.88
1015.833	1960.88
1016.049	1977.88
1016.266	1940.88
1016.482	1948.88
1016.698	1868.88
1016.914	1954.88
1017.13	1860.88
1017.346	1840.88
1017.562	1929.88
1017.778	1853.88
1017.993	1818.88
1018.209	1878.88
1018.425	1851.88
1018.641	1827.88
1018.856	1792.88
1019.072	1818.88
1019.288	1853.88
1019.503	1806.88
1019.719	1732.88
1019.934	1757.88
1020.149	1807.88
1020.365	1736.88
1020.58	1700.88
1020.795	1719.88
1021.011	1637.88
1021.226	1594.88
1021.441	1590.88
1021.656	1504.88
1021.871	1431.88
1022.086	1430.88
1022.301	1438.88
1022.516	1418.88
1022.731	1474.88
1022.946	1377.88
1023.16	1350.88
1023.375	1310.88
1023.59	1289.88
1023.804	1247.88
1024.019	1332.88
1024.234	1188.88
1024.448	1208.88
1024.663	1160.88
1024.877	1147.88
1025.092	1179.88
1025.306	1147.88
1025.52	1046.88
1025.734	1118.88
1025.949	1050.88
1026.163	999.88
1026.377	947.88
1026.591	992.88
1026.805	926.88
1027.019	931.88
1027.233	871.88
1027.447	813.88
1027.661	930.88
1027.875	868.88
1028.088	878.88
1028.302	783.88
1028.516	770.88
1028.73	769.88
1028.943	762.88
1029.157	697.88
1029.37	651.88
1029.584	-0.12
1029.797	-2.12
1030.011	-1.12
1030.224	-0.12
