Data from QEP037381__434__17-02-57-243.txt Node

Date: Fri Dec 16 17:02:57 EST 2022
User: dcclab
Spectrometer: QEP03738
Trigger mode: 4
Integration Time (sec): 1.000000E1
Scans to average: 1
Electric dark correction enabled: true
Nonlinearity correction enabled: false
Boxcar width: 0
XAxis mode: Wavelengths
Number of Pixels in Spectrum: 1044
>>>>>Begin Spectral Data<<<<<
784.041	10.62
784.3	3.62
784.558	-4.38
784.817	-4.38
785.075	109595.62
785.334	19030.62
785.592	8969.62
785.851	6179.62
786.109	4638.62
786.368	3598.62
786.626	2908.62
786.884	2405.62
787.143	2046.62
787.401	1668.62
787.659	1505.62
787.917	1265.62
788.175	1177.62
788.433	1038.62
788.691	943.62
788.949	858.62
789.207	833.62
789.465	738.62
789.723	690.62
789.98	667.62
790.238	688.62
790.496	640.62
790.753	614.62
791.011	666.62
791.268	581.62
791.526	574.62
791.783	589.62
792.041	556.62
792.298	497.62
792.556	553.62
792.813	542.62
793.07	509.62
793.327	499.62
793.584	576.62
793.841	496.62
794.099	509.62
794.356	561.62
794.613	466.62
794.869	517.62
795.126	476.62
795.383	463.62
795.64	478.62
795.897	437.62
796.153	490.62
796.41	487.62
796.667	481.62
796.923	485.62
797.18	491.62
797.436	512.62
797.693	478.62
797.949	526.62
798.206	563.62
798.462	479.62
798.718	542.62
798.974	528.62
799.231	568.62
799.487	558.62
799.743	587.62
799.999	622.62
800.255	621.62
800.511	620.62
800.767	669.62
801.023	669.62
801.279	721.62
801.534	770.62
801.79	853.62
802.046	919.62
802.302	1134.62
802.557	1329.62
802.813	1719.62
803.068	2223.62
803.324	3138.62
803.579	4440.62
803.835	6269.62
804.09	8851.62
804.345	11833.62
804.601	15051.62
804.856	18309.62
805.111	21186.62
805.366	23336.62
805.621	24920.62
805.876	25863.62
806.131	26647.62
806.386	27151.62
806.641	27701.62
806.896	27905.62
807.151	28486.62
807.406	29078.62
807.661	29594.62
807.915	30070.62
808.17	30416.62
808.425	30725.62
808.679	31003.62
808.934	31297.62
809.188	31748.62
809.443	32123.62
809.697	32280.62
809.951	32545.62
810.206	32786.62
810.46	33202.62
810.714	33492.62
810.968	33637.62
811.223	33930.62
811.477	34184.62
811.731	34625.62
811.985	34701.62
812.239	34808.62
812.493	35053.62
812.747	35036.62
813	35153.62
813.254	35326.62
813.508	35612.62
813.762	35617.62
814.015	35886.62
814.269	36186.62
814.522	36518.62
814.776	36898.62
815.03	37327.62
815.283	37806.62
815.536	38397.62
815.79	39113.62
816.043	39530.62
816.296	40014.62
816.55	40478.62
816.803	40901.62
817.056	41436.62
817.309	41666.62
817.562	42078.62
817.815	42615.62
818.068	43034.62
818.321	43361.62
818.574	43734.62
818.827	44487.62
819.079	44823.62
819.332	45650.62
819.585	46026.62
819.838	46668.62
820.09	47094.62
820.343	47442.62
820.595	47586.62
820.848	48056.62
821.1	48093.62
821.353	48020.62
821.605	48027.62
821.857	48158.62
822.11	47934.62
822.362	47981.62
822.614	47590.62
822.866	47715.62
823.118	47573.62
823.37	47737.62
823.622	47853.62
823.874	47934.62
824.126	48016.62
824.378	48320.62
824.63	48393.62
824.882	48406.62
825.134	48401.62
825.385	48421.62
825.637	48247.62
825.888	48230.62
826.14	48013.62
826.392	47864.62
826.643	47650.62
826.895	47511.62
827.146	47278.62
827.397	47205.62
827.649	47299.62
827.9	47124.62
828.151	47213.62
828.402	47319.62
828.653	47489.62
828.905	47337.62
829.156	47614.62
829.407	47322.62
829.658	47513.62
829.909	47277.62
830.159	47201.62
830.41	46937.62
830.661	46657.62
830.912	46367.62
831.162	46313.62
831.413	46113.62
831.664	46093.62
831.914	46198.62
832.165	46094.62
832.415	46138.62
832.666	46274.62
832.916	45975.62
833.167	45840.62
833.417	45910.62
833.667	45752.62
833.917	45653.62
834.168	45587.62
834.418	45295.62
834.668	45133.62
834.918	44896.62
835.168	44730.62
835.418	44644.62
835.668	44431.62
835.918	44527.62
836.167	44313.62
836.417	44204.62
836.667	44091.62
836.917	43965.62
837.166	44098.62
837.416	43971.62
837.666	43839.62
837.915	43629.62
838.165	43537.62
838.414	43398.62
838.663	43166.62
838.913	43111.62
839.162	42962.62
839.411	43041.62
839.661	42772.62
839.91	42721.62
840.159	42590.62
840.408	42432.62
840.657	42410.62
840.906	42485.62
841.155	42290.62
841.404	42458.62
841.653	42426.62
841.902	42297.62
842.15	42426.62
842.399	42236.62
842.648	42119.62
842.897	41910.62
843.145	41777.62
843.394	41557.62
843.642	41323.62
843.891	41135.62
844.139	41063.62
844.388	40721.62
844.636	40676.62
844.884	40593.62
845.133	40433.62
845.381	40314.62
845.629	40215.62
845.877	40044.62
846.125	40111.62
846.373	39988.62
846.621	39959.62
846.869	39785.62
847.117	39498.62
847.365	39378.62
847.613	39124.62
847.861	38974.62
848.108	38905.62
848.356	38755.62
848.604	38758.62
848.851	38667.62
849.099	38801.62
849.346	38789.62
849.594	38936.62
849.841	38904.62
850.089	39128.62
850.336	39209.62
850.583	39077.62
850.831	38803.62
851.078	38509.62
851.325	38382.62
851.572	38306.62
851.819	37933.62
852.066	37374.62
852.313	37131.62
852.56	36788.62
852.807	36694.62
853.054	36396.62
853.301	36288.62
853.548	36209.62
853.794	36445.62
854.041	36496.62
854.288	36546.62
854.534	36969.62
854.781	36907.62
855.028	36536.62
855.274	36577.62
855.52	36238.62
855.767	35955.62
856.013	35898.62
856.26	36096.62
856.506	35552.62
856.752	35538.62
856.998	35593.62
857.244	35605.62
857.49	35534.62
857.736	35822.62
857.982	35825.62
858.228	35550.62
858.474	35393.62
858.72	35304.62
858.966	35009.62
859.212	34742.62
859.458	34313.62
859.703	33963.62
859.949	33483.62
860.195	33255.62
860.44	33175.62
860.686	32974.62
860.931	32912.62
861.177	32812.62
861.422	32790.62
861.667	32658.62
861.913	32664.62
862.158	32759.62
862.403	32794.62
862.648	32838.62
862.893	32844.62
863.138	32775.62
863.384	32758.62
863.629	32727.62
863.873	32717.62
864.118	32588.62
864.363	32237.62
864.608	32311.62
864.853	32063.62
865.098	31925.62
865.342	31736.62
865.587	31613.62
865.832	31591.62
866.076	31477.62
866.321	31244.62
866.565	31240.62
866.81	31043.62
867.054	30937.62
867.298	30935.62
867.543	30773.62
867.787	30646.62
868.031	30700.62
868.275	30513.62
868.519	30571.62
868.764	30251.62
869.008	30198.62
869.252	30191.62
869.496	29982.62
869.739	29908.62
869.983	29803.62
870.227	29602.62
870.471	29611.62
870.715	29559.62
870.958	29692.62
871.202	29573.62
871.446	29743.62
871.689	29643.62
871.933	29791.62
872.176	29722.62
872.42	29627.62
872.663	29490.62
872.906	29356.62
873.15	29089.62
873.393	28919.62
873.636	28766.62
873.879	28483.62
874.122	28236.62
874.366	27966.62
874.609	27876.62
874.852	27652.62
875.095	27547.62
875.337	27341.62
875.58	27306.62
875.823	27229.62
876.066	27095.62
876.309	27169.62
876.551	26854.62
876.794	26714.62
877.037	26771.62
877.279	26686.62
877.522	26705.62
877.764	26787.62
878.007	26771.62
878.249	26597.62
878.491	26652.62
878.734	26590.62
878.976	26546.62
879.218	26366.62
879.46	26228.62
879.702	26074.62
879.945	26015.62
880.187	25751.62
880.429	25478.62
880.671	25287.62
880.912	25228.62
881.154	25121.62
881.396	25045.62
881.638	25101.62
881.88	24919.62
882.121	24887.62
882.363	24991.62
882.605	24784.62
882.846	24715.62
883.088	24596.62
883.329	24494.62
883.571	24353.62
883.812	24193.62
884.053	24298.62
884.295	24402.62
884.536	24479.62
884.777	24317.62
885.018	24280.62
885.259	24271.62
885.5	24092.62
885.742	24251.62
885.982	24133.62
886.223	24061.62
886.464	23974.62
886.705	23840.62
886.946	23688.62
887.187	23614.62
887.428	23395.62
887.668	23230.62
887.909	22886.62
888.15	22800.62
888.39	22700.62
888.631	22583.62
888.871	22456.62
889.111	22186.62
889.352	22129.62
889.592	21949.62
889.833	21707.62
890.073	21565.62
890.313	21425.62
890.553	21408.62
890.793	21211.62
891.033	21201.62
891.273	21011.62
891.513	20905.62
891.753	20819.62
891.993	20878.62
892.233	20994.62
892.473	21061.62
892.713	20939.62
892.952	20843.62
893.192	20961.62
893.432	20778.62
893.671	20822.62
893.911	20674.62
894.15	20480.62
894.39	20374.62
894.629	20152.62
894.869	20196.62
895.108	20091.62
895.347	19907.62
895.587	19875.62
895.826	19703.62
896.065	19700.62
896.304	19658.62
896.543	19576.62
896.782	19490.62
897.021	19448.62
897.26	19368.62
897.499	19391.62
897.738	19317.62
897.977	19126.62
898.216	18916.62
898.454	18685.62
898.693	18619.62
898.932	18542.62
899.17	18436.62
899.409	18363.62
899.647	18273.62
899.886	18117.62
900.124	18182.62
900.363	18192.62
900.601	18140.62
900.839	18208.62
901.078	18113.62
901.316	18097.62
901.554	18164.62
901.792	18004.62
902.03	18038.62
902.268	17966.62
902.506	17925.62
902.744	17832.62
902.982	17820.62
903.22	17589.62
903.458	17476.62
903.695	17333.62
903.933	17236.62
904.171	16995.62
904.409	16755.62
904.646	16553.62
904.884	16257.62
905.121	16310.62
905.359	16188.62
905.596	15990.62
905.833	15763.62
906.071	15824.62
906.308	15775.62
906.545	15812.62
906.783	15632.62
907.02	15583.62
907.257	15510.62
907.494	15494.62
907.731	15414.62
907.968	15463.62
908.205	15283.62
908.442	15241.62
908.679	15094.62
908.915	15031.62
909.152	14869.62
909.389	14813.62
909.626	14754.62
909.862	14498.62
910.099	14568.62
910.335	14465.62
910.572	14322.62
910.808	14331.62
911.045	14286.62
911.281	14265.62
911.518	14247.62
911.754	14061.62
911.99	13944.62
912.226	13929.62
912.463	13797.62
912.699	13710.62
912.935	13596.62
913.171	13493.62
913.407	13347.62
913.643	13347.62
913.879	13127.62
914.114	13094.62
914.35	12882.62
914.586	12829.62
914.822	12577.62
915.057	12665.62
915.293	12363.62
915.529	12267.62
915.764	12479.62
916	12275.62
916.235	12372.62
916.471	12312.62
916.706	12102.62
916.941	12213.62
917.177	12259.62
917.412	12176.62
917.647	12204.62
917.882	12096.62
918.117	12115.62
918.352	12116.62
918.588	12006.62
918.823	11815.62
919.057	11795.62
919.292	11590.62
919.527	11633.62
919.762	11386.62
919.997	11345.62
920.232	11166.62
920.466	11103.62
920.701	10946.62
920.935	10929.62
921.17	10756.62
921.405	10747.62
921.639	10753.62
921.873	10647.62
922.108	10620.62
922.342	10620.62
922.576	10589.62
922.811	10511.62
923.045	10501.62
923.279	10428.62
923.513	10266.62
923.747	10415.62
923.981	10247.62
924.215	10151.62
924.449	10098.62
924.683	9988.62
924.917	9965.62
925.151	9930.62
925.385	9945.62
925.618	9878.62
925.852	9844.62
926.086	9734.62
926.319	9696.62
926.553	9735.62
926.786	9765.62
927.02	9640.62
927.253	9688.62
927.486	9697.62
927.72	9595.62
927.953	9649.62
928.186	9602.62
928.42	9552.62
928.653	9453.62
928.886	9383.62
929.119	9416.62
929.352	9355.62
929.585	9324.62
929.818	9208.62
930.051	9185.62
930.284	9104.62
930.516	8918.62
930.749	8948.62
930.982	8902.62
931.215	8804.62
931.447	8728.62
931.68	8710.62
931.912	8662.62
932.145	8679.62
932.377	8713.62
932.61	8813.62
932.842	8599.62
933.074	8613.62
933.307	8631.62
933.539	8715.62
933.771	8651.62
934.003	8541.62
934.236	8597.62
934.468	8657.62
934.7	8541.62
934.932	8614.62
935.164	8431.62
935.395	8433.62
935.627	8413.62
935.859	8439.62
936.091	8252.62
936.323	8279.62
936.554	8302.62
936.786	8278.62
937.017	8235.62
937.249	8207.62
937.481	8084.62
937.712	8169.62
937.943	8088.62
938.175	8046.62
938.406	8106.62
938.637	8097.62
938.869	8020.62
939.1	8082.62
939.331	7960.62
939.562	7950.62
939.793	7961.62
940.024	7935.62
940.255	7893.62
940.486	7839.62
940.717	7807.62
940.948	7721.62
941.179	7726.62
941.409	7707.62
941.64	7732.62
941.871	7620.62
942.102	7657.62
942.332	7686.62
942.563	7695.62
942.793	7583.62
943.024	7582.62
943.254	7575.62
943.484	7606.62
943.715	7651.62
943.945	7544.62
944.175	7551.62
944.405	7491.62
944.636	7472.62
944.866	7553.62
945.096	7522.62
945.326	7418.62
945.556	7465.62
945.786	7439.62
946.016	7255.62
946.245	7223.62
946.475	7204.62
946.705	7192.62
946.935	7115.62
947.164	7117.62
947.394	7006.62
947.624	6983.62
947.853	6990.62
948.083	6956.62
948.312	6862.62
948.542	6803.62
948.771	6859.62
949	6855.62
949.23	6841.62
949.459	6805.62
949.688	6846.62
949.917	6807.62
950.146	6806.62
950.375	6860.62
950.604	6756.62
950.833	6794.62
951.062	6738.62
951.291	6740.62
951.52	6660.62
951.749	6682.62
951.978	6612.62
952.206	6595.62
952.435	6579.62
952.664	6625.62
952.892	6607.62
953.121	6545.62
953.349	6499.62
953.578	6479.62
953.806	6429.62
954.035	6337.62
954.263	6384.62
954.491	6234.62
954.719	6282.62
954.948	6245.62
955.176	6194.62
955.404	6180.62
955.632	6128.62
955.86	6085.62
956.088	6161.62
956.316	6078.62
956.544	6081.62
956.772	6011.62
956.999	5981.62
957.227	6001.62
957.455	5894.62
957.683	5880.62
957.91	5867.62
958.138	5744.62
958.365	5756.62
958.593	5750.62
958.82	5709.62
959.048	5756.62
959.275	5669.62
959.502	5667.62
959.73	5609.62
959.957	5624.62
960.184	5655.62
960.411	5634.62
960.638	5601.62
960.865	5555.62
961.092	5601.62
961.319	5480.62
961.546	5588.62
961.773	5586.62
962	5487.62
962.227	5547.62
962.454	5465.62
962.68	5429.62
962.907	5454.62
963.134	5354.62
963.36	5379.62
963.587	5349.62
963.813	5270.62
964.04	5237.62
964.266	5146.62
964.493	5234.62
964.719	5196.62
964.945	5181.62
965.171	5075.62
965.398	5122.62
965.624	5075.62
965.85	4980.62
966.076	4999.62
966.302	5018.62
966.528	4986.62
966.754	5004.62
966.98	4948.62
967.206	4897.62
967.431	4837.62
967.657	4906.62
967.883	4908.62
968.109	4831.62
968.334	4862.62
968.56	4769.62
968.785	4836.62
969.011	4721.62
969.236	4752.62
969.462	4723.62
969.687	4706.62
969.912	4738.62
970.138	4742.62
970.363	4674.62
970.588	4661.62
970.813	4625.62
971.038	4595.62
971.263	4630.62
971.488	4604.62
971.713	4591.62
971.938	4529.62
972.163	4450.62
972.388	4484.62
972.613	4420.62
972.838	4456.62
973.062	4439.62
973.287	4400.62
973.512	4305.62
973.736	4389.62
973.961	4317.62
974.185	4268.62
974.41	4314.62
974.634	4193.62
974.858	4205.62
975.083	4206.62
975.307	4169.62
975.531	4142.62
975.755	4051.62
975.98	4079.62
976.204	4016.62
976.428	4009.62
976.652	3975.62
976.876	3962.62
977.1	3970.62
977.324	3942.62
977.547	3962.62
977.771	3957.62
977.995	3931.62
978.219	3798.62
978.442	3946.62
978.666	3869.62
978.89	3862.62
979.113	3844.62
979.337	3829.62
979.56	3749.62
979.783	3864.62
980.007	3735.62
980.23	3799.62
980.453	3701.62
980.677	3748.62
980.9	3688.62
981.123	3605.62
981.346	3678.62
981.569	3652.62
981.792	3659.62
982.015	3643.62
982.238	3583.62
982.461	3558.62
982.684	3524.62
982.907	3485.62
983.129	3489.62
983.352	3462.62
983.575	3442.62
983.797	3447.62
984.02	3394.62
984.242	3385.62
984.465	3376.62
984.687	3396.62
984.91	3427.62
985.132	3388.62
985.354	3351.62
985.577	3328.62
985.799	3293.62
986.021	3217.62
986.243	3256.62
986.465	3261.62
986.687	3274.62
986.909	3298.62
987.131	3246.62
987.353	3184.62
987.575	3236.62
987.797	3172.62
988.019	3101.62
988.241	3159.62
988.462	3122.62
988.684	3152.62
988.906	3178.62
989.127	3197.62
989.349	3050.62
989.57	3096.62
989.792	3128.62
990.013	3114.62
990.234	3139.62
990.456	3110.62
990.677	3064.62
990.898	3018.62
991.119	2994.62
991.341	3041.62
991.562	2956.62
991.783	2969.62
992.004	2875.62
992.225	2839.62
992.446	2923.62
992.667	2826.62
992.887	2884.62
993.108	2766.62
993.329	2896.62
993.55	2814.62
993.77	2771.62
993.991	2771.62
994.212	2766.62
994.432	2774.62
994.653	2734.62
994.873	2733.62
995.093	2609.62
995.314	2624.62
995.534	2727.62
995.754	2734.62
995.975	2736.62
996.195	2559.62
996.415	2621.62
996.635	2586.62
996.855	2647.62
997.075	2617.62
997.295	2598.62
997.515	2561.62
997.735	2589.62
997.955	2570.62
998.174	2554.62
998.394	2530.62
998.614	2544.62
998.834	2542.62
999.053	2582.62
999.273	2521.62
999.492	2568.62
999.712	2529.62
999.931	2480.62
1000.151	2505.62
1000.37	2478.62
1000.589	2518.62
1000.809	2443.62
1001.028	2531.62
1001.247	2467.62
1001.466	2335.62
1001.685	2455.62
1001.904	2394.62
1002.123	2380.62
1002.342	2370.62
1002.561	2307.62
1002.78	2339.62
1002.999	2404.62
1003.218	2346.62
1003.436	2314.62
1003.655	2365.62
1003.874	2259.62
1004.092	2304.62
1004.311	2301.62
1004.53	2268.62
1004.748	2329.62
1004.966	2257.62
1005.185	2325.62
1005.403	2277.62
1005.622	2250.62
1005.84	2332.62
1006.058	2208.62
1006.276	2254.62
1006.494	2707.62
1006.712	2244.62
1006.931	2221.62
1007.149	2203.62
1007.367	2169.62
1007.584	2200.62
1007.802	2213.62
1008.02	2176.62
1008.238	2272.62
1008.456	2232.62
1008.673	2105.62
1008.891	2186.62
1009.109	2138.62
1009.326	2175.62
1009.544	2267.62
1009.761	2122.62
1009.979	2226.62
1010.196	2198.62
1010.413	2278.62
1010.631	2340.62
1010.848	2320.62
1011.065	2332.62
1011.282	2271.62
1011.5	2189.62
1011.717	2357.62
1011.934	2239.62
1012.151	2247.62
1012.368	2257.62
1012.585	2172.62
1012.801	2246.62
1013.018	2216.62
1013.235	2146.62
1013.452	2164.62
1013.669	2178.62
1013.885	2119.62
1014.102	2185.62
1014.318	2145.62
1014.535	2106.62
1014.751	2121.62
1014.968	2059.62
1015.184	2154.62
1015.401	2095.62
1015.617	2054.62
1015.833	1990.62
1016.049	2023.62
1016.266	1976.62
1016.482	1979.62
1016.698	1930.62
1016.914	1953.62
1017.13	1892.62
1017.346	1902.62
1017.562	1972.62
1017.778	1893.62
1017.993	1859.62
1018.209	1920.62
1018.425	1850.62
1018.641	1819.62
1018.856	1803.62
1019.072	1830.62
1019.288	1880.62
1019.503	1799.62
1019.719	1729.62
1019.934	1742.62
1020.149	1842.62
1020.365	1754.62
1020.58	1735.62
1020.795	1771.62
1021.011	1688.62
1021.226	1638.62
1021.441	1663.62
1021.656	1603.62
1021.871	1546.62
1022.086	1556.62
1022.301	1548.62
1022.516	1535.62
1022.731	1569.62
1022.946	1496.62
1023.16	1480.62
1023.375	1418.62
1023.59	1423.62
1023.804	1410.62
1024.019	1469.62
1024.234	1362.62
1024.448	1373.62
1024.663	1281.62
1024.877	1307.62
1025.092	1341.62
1025.306	1322.62
1025.52	1240.62
1025.734	1286.62
1025.949	1216.62
1026.163	1183.62
1026.377	1123.62
1026.591	1185.62
1026.805	1114.62
1027.019	1100.62
1027.233	1072.62
1027.447	1016.62
1027.661	1068.62
1027.875	1024.62
1028.088	986.62
1028.302	938.62
1028.516	934.62
1028.73	923.62
1028.943	898.62
1029.157	839.62
1029.37	792.62
1029.584	0.62
1029.797	-1.38
1030.011	-1.38
1030.224	-3.38
