Data from QEP037381__417__17-00-07-241.txt Node

Date: Fri Dec 16 17:00:07 EST 2022
User: dcclab
Spectrometer: QEP03738
Trigger mode: 4
Integration Time (sec): 1.000000E1
Scans to average: 1
Electric dark correction enabled: true
Nonlinearity correction enabled: false
Boxcar width: 0
XAxis mode: Wavelengths
Number of Pixels in Spectrum: 1044
>>>>>Begin Spectral Data<<<<<
784.041	13.75
784.3	0.75
784.558	-2.25
784.817	-5.25
785.075	114613.75
785.334	19890.75
785.592	9249.75
785.851	6418.75
786.109	4863.75
786.368	3817.75
786.626	3071.75
786.884	2534.75
787.143	2118.75
787.401	1762.75
787.659	1564.75
787.917	1356.75
788.175	1231.75
788.433	1047.75
788.691	948.75
788.949	890.75
789.207	849.75
789.465	721.75
789.723	695.75
789.98	647.75
790.238	667.75
790.496	647.75
790.753	601.75
791.011	661.75
791.268	602.75
791.526	561.75
791.783	605.75
792.041	559.75
792.298	468.75
792.556	540.75
792.813	541.75
793.07	510.75
793.327	486.75
793.584	565.75
793.841	487.75
794.099	520.75
794.356	574.75
794.613	474.75
794.869	515.75
795.126	468.75
795.383	453.75
795.64	484.75
795.897	430.75
796.153	481.75
796.41	462.75
796.667	452.75
796.923	461.75
797.18	465.75
797.436	494.75
797.693	457.75
797.949	513.75
798.206	540.75
798.462	463.75
798.718	520.75
798.974	509.75
799.231	550.75
799.487	547.75
799.743	541.75
799.999	584.75
800.255	597.75
800.511	581.75
800.767	650.75
801.023	630.75
801.279	681.75
801.534	734.75
801.79	814.75
802.046	857.75
802.302	1046.75
802.557	1253.75
802.813	1580.75
803.068	2052.75
803.324	2868.75
803.579	3972.75
803.835	5665.75
804.09	7851.75
804.345	10443.75
804.601	13249.75
804.856	16207.75
805.111	18618.75
805.366	20708.75
805.621	21951.75
805.876	23025.75
806.131	23588.75
806.386	24083.75
806.641	24386.75
806.896	24760.75
807.151	25227.75
807.406	25605.75
807.661	26038.75
807.915	26580.75
808.17	26941.75
808.425	27117.75
808.679	27356.75
808.934	27732.75
809.188	27967.75
809.443	28256.75
809.697	28520.75
809.951	28875.75
810.206	29007.75
810.46	29337.75
810.714	29518.75
810.968	29816.75
811.223	29968.75
811.477	30176.75
811.731	30445.75
811.985	30636.75
812.239	30630.75
812.493	30897.75
812.747	31169.75
813	31140.75
813.254	31133.75
813.508	31370.75
813.762	31399.75
814.015	31521.75
814.269	31818.75
814.522	32221.75
814.776	32495.75
815.03	32900.75
815.283	33260.75
815.536	33876.75
815.79	34359.75
816.043	34825.75
816.296	35173.75
816.55	35604.75
816.803	35885.75
817.056	36458.75
817.309	36703.75
817.562	37003.75
817.815	37413.75
818.068	37554.75
818.321	38060.75
818.574	38433.75
818.827	39002.75
819.079	39361.75
819.332	40101.75
819.585	40558.75
819.838	41028.75
820.09	41245.75
820.343	41580.75
820.595	41747.75
820.848	42031.75
821.1	42193.75
821.353	42313.75
821.605	42030.75
821.857	42074.75
822.11	42015.75
822.362	42007.75
822.614	41927.75
822.866	41821.75
823.118	41937.75
823.37	42037.75
823.622	41958.75
823.874	42136.75
824.126	42347.75
824.378	42226.75
824.63	42568.75
824.882	42472.75
825.134	42430.75
825.385	42523.75
825.637	42493.75
825.888	42286.75
826.14	42215.75
826.392	41995.75
826.643	41809.75
826.895	41733.75
827.146	41633.75
827.397	41339.75
827.649	41463.75
827.9	41399.75
828.151	41552.75
828.402	41563.75
828.653	41633.75
828.905	41721.75
829.156	41835.75
829.407	41718.75
829.658	41653.75
829.909	41572.75
830.159	41400.75
830.41	41169.75
830.661	41123.75
830.912	40827.75
831.162	40697.75
831.413	40504.75
831.664	40551.75
831.914	40611.75
832.165	40538.75
832.415	40541.75
832.666	40344.75
832.916	40389.75
833.167	40379.75
833.417	40284.75
833.667	40279.75
833.917	39996.75
834.168	40049.75
834.418	39742.75
834.668	39591.75
834.918	39388.75
835.168	39337.75
835.418	39192.75
835.668	39089.75
835.918	39048.75
836.167	38892.75
836.417	38832.75
836.667	38848.75
836.917	38745.75
837.166	38619.75
837.416	38634.75
837.666	38562.75
837.915	38375.75
838.165	38397.75
838.414	38094.75
838.663	38031.75
838.913	37957.75
839.162	37913.75
839.411	37891.75
839.661	37540.75
839.91	37554.75
840.159	37667.75
840.408	37451.75
840.657	37282.75
840.906	37278.75
841.155	37368.75
841.404	37281.75
841.653	37213.75
841.902	37355.75
842.15	37322.75
842.399	37476.75
842.648	37309.75
842.897	37039.75
843.145	36738.75
843.394	36682.75
843.642	36385.75
843.891	36297.75
844.139	36173.75
844.388	35875.75
844.636	35868.75
844.884	35698.75
845.133	35601.75
845.381	35488.75
845.629	35570.75
845.877	35441.75
846.125	35473.75
846.373	35359.75
846.621	35277.75
846.869	35040.75
847.117	34841.75
847.365	34784.75
847.613	34524.75
847.861	34400.75
848.108	34235.75
848.356	34130.75
848.604	34068.75
848.851	34002.75
849.099	34061.75
849.346	34191.75
849.594	34433.75
849.841	34454.75
850.089	34408.75
850.336	34490.75
850.583	34441.75
850.831	34206.75
851.078	34118.75
851.325	33969.75
851.572	33885.75
851.819	33577.75
852.066	33001.75
852.313	32701.75
852.56	32452.75
852.807	32220.75
853.054	32107.75
853.301	32135.75
853.548	31997.75
853.794	32195.75
854.041	32398.75
854.288	32396.75
854.534	32702.75
854.781	32545.75
855.028	32386.75
855.274	32354.75
855.52	32035.75
855.767	31886.75
856.013	31816.75
856.26	32122.75
856.506	31555.75
856.752	31415.75
856.998	31445.75
857.244	31538.75
857.49	31580.75
857.736	31654.75
857.982	31584.75
858.228	31519.75
858.474	31388.75
858.72	31312.75
858.966	30912.75
859.212	30566.75
859.458	30344.75
859.703	29942.75
859.949	29773.75
860.195	29676.75
860.44	29500.75
860.686	29313.75
860.931	29256.75
861.177	28999.75
861.422	28967.75
861.667	28953.75
861.913	28931.75
862.158	29006.75
862.403	29049.75
862.648	29239.75
862.893	29221.75
863.138	29011.75
863.384	29088.75
863.629	28996.75
863.873	28900.75
864.118	28847.75
864.363	28530.75
864.608	28470.75
864.853	28488.75
865.098	28262.75
865.342	28098.75
865.587	28023.75
865.832	28042.75
866.076	27936.75
866.321	27712.75
866.565	27634.75
866.81	27531.75
867.054	27478.75
867.298	27293.75
867.543	27275.75
867.787	27249.75
868.031	27103.75
868.275	27026.75
868.519	27046.75
868.764	26842.75
869.008	26798.75
869.252	26728.75
869.496	26647.75
869.739	26432.75
869.983	26401.75
870.227	26338.75
870.471	26354.75
870.715	26383.75
870.958	26395.75
871.202	26391.75
871.446	26412.75
871.689	26318.75
871.933	26451.75
872.176	26403.75
872.42	26225.75
872.663	26256.75
872.906	26125.75
873.15	25909.75
873.393	25855.75
873.636	25704.75
873.879	25372.75
874.122	25351.75
874.366	24956.75
874.609	24699.75
874.852	24703.75
875.095	24509.75
875.337	24559.75
875.58	24335.75
875.823	24306.75
876.066	24153.75
876.309	24013.75
876.551	23942.75
876.794	23744.75
877.037	23769.75
877.279	23783.75
877.522	23782.75
877.764	23859.75
878.007	23642.75
878.249	23859.75
878.491	23732.75
878.734	23737.75
878.976	23575.75
879.218	23481.75
879.46	23356.75
879.702	23195.75
879.945	22949.75
880.187	22767.75
880.429	22705.75
880.671	22599.75
880.912	22436.75
881.154	22392.75
881.396	22302.75
881.638	22332.75
881.88	22331.75
882.121	22171.75
882.363	22178.75
882.605	22091.75
882.846	21935.75
883.088	21888.75
883.329	21864.75
883.571	21739.75
883.812	21695.75
884.053	21721.75
884.295	21974.75
884.536	21998.75
884.777	21928.75
885.018	21789.75
885.259	21757.75
885.5	21594.75
885.742	21814.75
885.982	21612.75
886.223	21520.75
886.464	21404.75
886.705	21356.75
886.946	21318.75
887.187	20957.75
887.428	20924.75
887.668	20722.75
887.909	20434.75
888.15	20318.75
888.39	20233.75
888.631	20086.75
888.871	20011.75
889.111	19860.75
889.352	19685.75
889.592	19562.75
889.833	19405.75
890.073	19213.75
890.313	19268.75
890.553	18997.75
890.793	19005.75
891.033	18847.75
891.273	18754.75
891.513	18729.75
891.753	18737.75
891.993	18653.75
892.233	18580.75
892.473	18698.75
892.713	18663.75
892.952	18584.75
893.192	18656.75
893.432	18591.75
893.671	18610.75
893.911	18470.75
894.15	18318.75
894.39	18269.75
894.629	18064.75
894.869	17958.75
895.108	17886.75
895.347	17721.75
895.587	17694.75
895.826	17633.75
896.065	17615.75
896.304	17510.75
896.543	17464.75
896.782	17356.75
897.021	17377.75
897.26	17372.75
897.499	17343.75
897.738	17309.75
897.977	17000.75
898.216	16918.75
898.454	16810.75
898.693	16676.75
898.932	16582.75
899.17	16579.75
899.409	16469.75
899.647	16423.75
899.886	16339.75
900.124	16402.75
900.363	16272.75
900.601	16325.75
900.839	16298.75
901.078	16199.75
901.316	16349.75
901.554	16243.75
901.792	16280.75
902.03	16186.75
902.268	16122.75
902.506	16148.75
902.744	16057.75
902.982	16038.75
903.22	15759.75
903.458	15672.75
903.695	15476.75
903.933	15432.75
904.171	15099.75
904.409	14970.75
904.646	14898.75
904.884	14666.75
905.121	14624.75
905.359	14376.75
905.596	14303.75
905.833	14101.75
906.071	14126.75
906.308	14153.75
906.545	14008.75
906.783	14019.75
907.02	14013.75
907.257	13869.75
907.494	13851.75
907.731	13857.75
907.968	13817.75
908.205	13620.75
908.442	13570.75
908.679	13485.75
908.915	13359.75
909.152	13255.75
909.389	13202.75
909.626	13183.75
909.862	13003.75
910.099	12983.75
910.335	12966.75
910.572	12797.75
910.808	12798.75
911.045	12703.75
911.281	12717.75
911.518	12720.75
911.754	12641.75
911.99	12534.75
912.226	12402.75
912.463	12306.75
912.699	12285.75
912.935	12203.75
913.171	12101.75
913.407	11863.75
913.643	11879.75
913.879	11842.75
914.114	11665.75
914.35	11556.75
914.586	11418.75
914.822	11279.75
915.057	11305.75
915.293	11101.75
915.529	11029.75
915.764	11140.75
916	11104.75
916.235	11005.75
916.471	11013.75
916.706	10995.75
916.941	10945.75
917.177	10961.75
917.412	10916.75
917.647	10977.75
917.882	10793.75
918.117	10878.75
918.352	10777.75
918.588	10799.75
918.823	10627.75
919.057	10559.75
919.292	10399.75
919.527	10395.75
919.762	10234.75
919.997	10137.75
920.232	10018.75
920.466	10039.75
920.701	9785.75
920.935	9828.75
921.17	9715.75
921.405	9630.75
921.639	9627.75
921.873	9573.75
922.108	9493.75
922.342	9551.75
922.576	9521.75
922.811	9433.75
923.045	9384.75
923.279	9396.75
923.513	9253.75
923.747	9222.75
923.981	9210.75
924.215	9107.75
924.449	9123.75
924.683	8948.75
924.917	8907.75
925.151	8834.75
925.385	8987.75
925.618	8836.75
925.852	8805.75
926.086	8771.75
926.319	8773.75
926.553	8746.75
926.786	8752.75
927.02	8714.75
927.253	8789.75
927.486	8727.75
927.72	8687.75
927.953	8685.75
928.186	8604.75
928.42	8584.75
928.653	8477.75
928.886	8407.75
929.119	8558.75
929.352	8464.75
929.585	8355.75
929.818	8235.75
930.051	8243.75
930.284	8189.75
930.516	8059.75
930.749	8066.75
930.982	8005.75
931.215	7961.75
931.447	7824.75
931.68	7848.75
931.912	7788.75
932.145	7777.75
932.377	7820.75
932.61	7901.75
932.842	7766.75
933.074	7792.75
933.307	7702.75
933.539	7792.75
933.771	7816.75
934.003	7780.75
934.236	7745.75
934.468	7762.75
934.7	7709.75
934.932	7764.75
935.164	7661.75
935.395	7553.75
935.627	7605.75
935.859	7606.75
936.091	7499.75
936.323	7482.75
936.554	7521.75
936.786	7449.75
937.017	7395.75
937.249	7343.75
937.481	7341.75
937.712	7417.75
937.943	7302.75
938.175	7246.75
938.406	7228.75
938.637	7325.75
938.869	7257.75
939.1	7208.75
939.331	7224.75
939.562	7200.75
939.793	7143.75
940.024	7102.75
940.255	7094.75
940.486	7047.75
940.717	6979.75
940.948	6989.75
941.179	6852.75
941.409	6948.75
941.64	6899.75
941.871	6923.75
942.102	6883.75
942.332	6886.75
942.563	6865.75
942.793	6863.75
943.024	6780.75
943.254	6844.75
943.484	6845.75
943.715	6842.75
943.945	6840.75
944.175	6794.75
944.405	6755.75
944.636	6719.75
944.866	6778.75
945.096	6743.75
945.326	6742.75
945.556	6652.75
945.786	6746.75
946.016	6660.75
946.245	6498.75
946.475	6553.75
946.705	6443.75
946.935	6383.75
947.164	6473.75
947.394	6278.75
947.624	6329.75
947.853	6291.75
948.083	6257.75
948.312	6233.75
948.542	6196.75
948.771	6140.75
949	6154.75
949.23	6089.75
949.459	6127.75
949.688	6208.75
949.917	6142.75
950.146	6137.75
950.375	6200.75
950.604	6071.75
950.833	6112.75
951.062	6080.75
951.291	6013.75
951.52	6027.75
951.749	5996.75
951.978	6010.75
952.206	5917.75
952.435	5937.75
952.664	5933.75
952.892	5898.75
953.121	5913.75
953.349	5885.75
953.578	5851.75
953.806	5799.75
954.035	5712.75
954.263	5753.75
954.491	5633.75
954.719	5698.75
954.948	5575.75
955.176	5639.75
955.404	5511.75
955.632	5582.75
955.86	5572.75
956.088	5552.75
956.316	5507.75
956.544	5479.75
956.772	5389.75
956.999	5358.75
957.227	5378.75
957.455	5286.75
957.683	5340.75
957.91	5264.75
958.138	5224.75
958.365	5168.75
958.593	5186.75
958.82	5083.75
959.048	5201.75
959.275	5154.75
959.502	5122.75
959.73	5068.75
959.957	5062.75
960.184	5143.75
960.411	4989.75
960.638	5084.75
960.865	5044.75
961.092	5068.75
961.319	4933.75
961.546	5066.75
961.773	5027.75
962	5000.75
962.227	5043.75
962.454	4976.75
962.68	4944.75
962.907	4908.75
963.134	4889.75
963.36	4884.75
963.587	4825.75
963.813	4767.75
964.04	4791.75
964.266	4706.75
964.493	4749.75
964.719	4747.75
964.945	4682.75
965.171	4595.75
965.398	4641.75
965.624	4617.75
965.85	4507.75
966.076	4533.75
966.302	4568.75
966.528	4522.75
966.754	4498.75
966.98	4515.75
967.206	4471.75
967.431	4386.75
967.657	4469.75
967.883	4421.75
968.109	4396.75
968.334	4314.75
968.56	4332.75
968.785	4299.75
969.011	4271.75
969.236	4301.75
969.462	4260.75
969.687	4307.75
969.912	4282.75
970.138	4315.75
970.363	4177.75
970.588	4178.75
970.813	4177.75
971.038	4155.75
971.263	4204.75
971.488	4132.75
971.713	4187.75
971.938	4145.75
972.163	4041.75
972.388	4042.75
972.613	4044.75
972.838	4055.75
973.062	4009.75
973.287	3963.75
973.512	3961.75
973.736	3954.75
973.961	3895.75
974.185	3865.75
974.41	3959.75
974.634	3823.75
974.858	3790.75
975.083	3762.75
975.307	3839.75
975.531	3745.75
975.755	3689.75
975.98	3688.75
976.204	3621.75
976.428	3632.75
976.652	3598.75
976.876	3569.75
977.1	3612.75
977.324	3553.75
977.547	3599.75
977.771	3603.75
977.995	3515.75
978.219	3506.75
978.442	3578.75
978.666	3527.75
978.89	3523.75
979.113	3464.75
979.337	3463.75
979.56	3465.75
979.783	3493.75
980.007	3418.75
980.23	3400.75
980.453	3400.75
980.677	3410.75
980.9	3388.75
981.123	3285.75
981.346	3383.75
981.569	3319.75
981.792	3348.75
982.015	3272.75
982.238	3222.75
982.461	3252.75
982.684	3200.75
982.907	3158.75
983.129	3134.75
983.352	3197.75
983.575	3154.75
983.797	3166.75
984.02	3099.75
984.242	3104.75
984.465	3070.75
984.687	3142.75
984.91	3135.75
985.132	3045.75
985.354	3067.75
985.577	3047.75
985.799	2996.75
986.021	2951.75
986.243	2976.75
986.465	2944.75
986.687	2995.75
986.909	3045.75
987.131	2970.75
987.353	2912.75
987.575	2957.75
987.797	2888.75
988.019	2843.75
988.241	2879.75
988.462	2815.75
988.684	2882.75
988.906	2924.75
989.127	2890.75
989.349	2823.75
989.57	2804.75
989.792	2850.75
990.013	2853.75
990.234	2855.75
990.456	2847.75
990.677	2841.75
990.898	2739.75
991.119	2755.75
991.341	2769.75
991.562	2732.75
991.783	2714.75
992.004	2631.75
992.225	2615.75
992.446	2675.75
992.667	2559.75
992.887	2656.75
993.108	2538.75
993.329	2631.75
993.55	2654.75
993.77	2519.75
993.991	2528.75
994.212	2568.75
994.432	2506.75
994.653	2543.75
994.873	2497.75
995.093	2387.75
995.314	2393.75
995.534	2466.75
995.754	2490.75
995.975	2521.75
996.195	2397.75
996.415	2423.75
996.635	2438.75
996.855	2451.75
997.075	2378.75
997.295	2415.75
997.515	2385.75
997.735	2436.75
997.955	2381.75
998.174	2361.75
998.394	2323.75
998.614	2348.75
998.834	2311.75
999.053	2417.75
999.273	2369.75
999.492	2397.75
999.712	2315.75
999.931	2281.75
1000.151	2313.75
1000.37	2298.75
1000.589	2339.75
1000.809	2269.75
1001.028	2353.75
1001.247	2282.75
1001.466	2185.75
1001.685	2279.75
1001.904	2239.75
1002.123	2188.75
1002.342	2208.75
1002.561	2159.75
1002.78	2152.75
1002.999	2248.75
1003.218	2214.75
1003.436	2126.75
1003.655	2198.75
1003.874	2117.75
1004.092	2112.75
1004.311	2170.75
1004.53	2134.75
1004.748	2206.75
1004.966	2086.75
1005.185	2138.75
1005.403	2126.75
1005.622	2125.75
1005.84	2172.75
1006.058	2086.75
1006.276	2099.75
1006.494	2552.75
1006.712	2072.75
1006.931	2126.75
1007.149	2039.75
1007.367	2042.75
1007.584	2046.75
1007.802	2091.75
1008.02	2045.75
1008.238	2111.75
1008.456	2116.75
1008.673	2021.75
1008.891	2072.75
1009.109	2036.75
1009.326	2083.75
1009.544	2147.75
1009.761	2031.75
1009.979	2135.75
1010.196	2108.75
1010.413	2189.75
1010.631	2240.75
1010.848	2250.75
1011.065	2263.75
1011.282	2193.75
1011.5	2135.75
1011.717	2244.75
1011.934	2155.75
1012.151	2214.75
1012.368	2160.75
1012.585	2067.75
1012.801	2177.75
1013.018	2114.75
1013.235	2081.75
1013.452	2111.75
1013.669	2108.75
1013.885	2060.75
1014.102	2134.75
1014.318	2057.75
1014.535	2044.75
1014.751	2042.75
1014.968	2054.75
1015.184	2055.75
1015.401	1953.75
1015.617	2018.75
1015.833	1951.75
1016.049	1952.75
1016.266	1913.75
1016.482	1921.75
1016.698	1840.75
1016.914	1902.75
1017.13	1836.75
1017.346	1852.75
1017.562	1902.75
1017.778	1838.75
1017.993	1805.75
1018.209	1842.75
1018.425	1806.75
1018.641	1748.75
1018.856	1724.75
1019.072	1758.75
1019.288	1825.75
1019.503	1764.75
1019.719	1678.75
1019.934	1696.75
1020.149	1762.75
1020.365	1688.75
1020.58	1670.75
1020.795	1717.75
1021.011	1616.75
1021.226	1575.75
1021.441	1621.75
1021.656	1544.75
1021.871	1461.75
1022.086	1490.75
1022.301	1487.75
1022.516	1476.75
1022.731	1490.75
1022.946	1416.75
1023.16	1434.75
1023.375	1342.75
1023.59	1369.75
1023.804	1307.75
1024.019	1403.75
1024.234	1286.75
1024.448	1332.75
1024.663	1254.75
1024.877	1241.75
1025.092	1266.75
1025.306	1278.75
1025.52	1190.75
1025.734	1251.75
1025.949	1172.75
1026.163	1122.75
1026.377	1073.75
1026.591	1111.75
1026.805	1045.75
1027.019	1035.75
1027.233	969.75
1027.447	925.75
1027.661	1019.75
1027.875	959.75
1028.088	968.75
1028.302	878.75
1028.516	907.75
1028.73	870.75
1028.943	867.75
1029.157	793.75
1029.37	740.75
1029.584	0.75
1029.797	-1.25
1030.011	-5.25
1030.224	-1.25
