Data from QEP037381__429__17-02-07-242.txt Node

Date: Fri Dec 16 17:02:07 EST 2022
User: dcclab
Spectrometer: QEP03738
Trigger mode: 4
Integration Time (sec): 1.000000E1
Scans to average: 1
Electric dark correction enabled: true
Nonlinearity correction enabled: false
Boxcar width: 0
XAxis mode: Wavelengths
Number of Pixels in Spectrum: 1044
>>>>>Begin Spectral Data<<<<<
784.041	10.5
784.3	0.5
784.558	-0.5
784.817	-3.5
785.075	112781.5
785.334	19752.5
785.592	9279.5
785.851	6387.5
786.109	4811.5
786.368	3744.5
786.626	3039.5
786.884	2521.5
787.143	2111.5
787.401	1753.5
787.659	1558.5
787.917	1353.5
788.175	1224.5
788.433	1083.5
788.691	980.5
788.949	912.5
789.207	832.5
789.465	730.5
789.723	717.5
789.98	645.5
790.238	674.5
790.496	646.5
790.753	607.5
791.011	660.5
791.268	579.5
791.526	560.5
791.783	578.5
792.041	567.5
792.298	487.5
792.556	529.5
792.813	488.5
793.07	502.5
793.327	498.5
793.584	544.5
793.841	497.5
794.099	512.5
794.356	568.5
794.613	450.5
794.869	499.5
795.126	453.5
795.383	449.5
795.64	464.5
795.897	426.5
796.153	478.5
796.41	468.5
796.667	445.5
796.923	454.5
797.18	465.5
797.436	505.5
797.693	447.5
797.949	497.5
798.206	531.5
798.462	451.5
798.718	510.5
798.974	490.5
799.231	543.5
799.487	524.5
799.743	533.5
799.999	562.5
800.255	578.5
800.511	563.5
800.767	606.5
801.023	618.5
801.279	651.5
801.534	678.5
801.79	744.5
802.046	800.5
802.302	987.5
802.557	1157.5
802.813	1432.5
803.068	1808.5
803.324	2569.5
803.579	3540.5
803.835	5003.5
804.09	6960.5
804.345	9167.5
804.601	11639.5
804.856	14118.5
805.111	16345.5
805.366	18099.5
805.621	19279.5
805.876	20192.5
806.131	20654.5
806.386	21078.5
806.641	21371.5
806.896	21860.5
807.151	22114.5
807.406	22518.5
807.661	22922.5
807.915	23288.5
808.17	23553.5
808.425	23815.5
808.679	23974.5
808.934	24285.5
809.188	24500.5
809.443	24785.5
809.697	24918.5
809.951	25077.5
810.206	25381.5
810.46	25495.5
810.714	25760.5
810.968	26037.5
811.223	26146.5
811.477	26503.5
811.731	26713.5
811.985	26757.5
812.239	26838.5
812.493	26992.5
812.747	27172.5
813	27171.5
813.254	27370.5
813.508	27375.5
813.762	27459.5
814.015	27578.5
814.269	27770.5
814.522	28076.5
814.776	28345.5
815.03	28712.5
815.283	29041.5
815.536	29505.5
815.79	29787.5
816.043	30225.5
816.296	30758.5
816.55	30981.5
816.803	31343.5
817.056	31714.5
817.309	32019.5
817.562	32311.5
817.815	32649.5
818.068	32817.5
818.321	33131.5
818.574	33441.5
818.827	33964.5
819.079	34221.5
819.332	35009.5
819.585	35109.5
819.838	35596.5
820.09	35888.5
820.343	36140.5
820.595	36266.5
820.848	36505.5
821.1	36659.5
821.353	36611.5
821.605	36550.5
821.857	36596.5
822.11	36447.5
822.362	36354.5
822.614	36445.5
822.866	36404.5
823.118	36204.5
823.37	36549.5
823.622	36512.5
823.874	36673.5
824.126	36765.5
824.378	36686.5
824.63	36797.5
824.882	36953.5
825.134	36973.5
825.385	37015.5
825.637	36825.5
825.888	36664.5
826.14	36525.5
826.392	36386.5
826.643	36224.5
826.895	36280.5
827.146	36077.5
827.397	35950.5
827.649	36132.5
827.9	35929.5
828.151	35871.5
828.402	35916.5
828.653	36138.5
828.905	36156.5
829.156	36172.5
829.407	36182.5
829.658	36044.5
829.909	36102.5
830.159	36068.5
830.41	35857.5
830.661	35657.5
830.912	35474.5
831.162	35344.5
831.413	35182.5
831.664	35281.5
831.914	35228.5
832.165	35071.5
832.415	35211.5
832.666	35212.5
832.916	35196.5
833.167	35125.5
833.417	35072.5
833.667	34906.5
833.917	34886.5
834.168	34741.5
834.418	34613.5
834.668	34490.5
834.918	34129.5
835.168	34153.5
835.418	34067.5
835.668	33974.5
835.918	33779.5
836.167	33830.5
836.417	33706.5
836.667	33641.5
836.917	33676.5
837.166	33607.5
837.416	33516.5
837.666	33500.5
837.915	33471.5
838.165	33320.5
838.414	33146.5
838.663	33034.5
838.913	33043.5
839.162	32834.5
839.411	32885.5
839.661	32813.5
839.91	32690.5
840.159	32573.5
840.408	32570.5
840.657	32444.5
840.906	32490.5
841.155	32464.5
841.404	32311.5
841.653	32420.5
841.902	32413.5
842.15	32446.5
842.399	32393.5
842.648	32365.5
842.897	32338.5
843.145	32089.5
843.394	31832.5
843.642	31766.5
843.891	31465.5
844.139	31423.5
844.388	31169.5
844.636	31160.5
844.884	31043.5
845.133	31014.5
845.381	30971.5
845.629	30979.5
845.877	30894.5
846.125	30651.5
846.373	30742.5
846.621	30595.5
846.869	30438.5
847.117	30352.5
847.365	30129.5
847.613	29931.5
847.861	29981.5
848.108	29821.5
848.356	29671.5
848.604	29564.5
848.851	29750.5
849.099	29776.5
849.346	29742.5
849.594	29871.5
849.841	29962.5
850.089	29903.5
850.336	30012.5
850.583	29930.5
850.831	29658.5
851.078	29626.5
851.325	29454.5
851.572	29400.5
851.819	29122.5
852.066	28737.5
852.313	28535.5
852.56	28358.5
852.807	28137.5
853.054	27906.5
853.301	27962.5
853.548	28040.5
853.794	28095.5
854.041	28222.5
854.288	28168.5
854.534	28490.5
854.781	28393.5
855.028	28261.5
855.274	28061.5
855.52	28076.5
855.767	27828.5
856.013	27787.5
856.26	28061.5
856.506	27481.5
856.752	27452.5
856.998	27469.5
857.244	27517.5
857.49	27553.5
857.736	27736.5
857.982	27589.5
858.228	27402.5
858.474	27322.5
858.72	27293.5
858.966	26950.5
859.212	26763.5
859.458	26468.5
859.703	26108.5
859.949	25922.5
860.195	25814.5
860.44	25599.5
860.686	25484.5
860.931	25496.5
861.177	25306.5
861.422	25210.5
861.667	25227.5
861.913	25330.5
862.158	25288.5
862.403	25294.5
862.648	25300.5
862.893	25278.5
863.138	25344.5
863.384	25207.5
863.629	25232.5
863.873	25203.5
864.118	25081.5
864.363	24920.5
864.608	24975.5
864.853	24815.5
865.098	24528.5
865.342	24546.5
865.587	24392.5
865.832	24301.5
866.076	24242.5
866.321	24123.5
866.565	24007.5
866.81	23869.5
867.054	23863.5
867.298	23897.5
867.543	23834.5
867.787	23706.5
868.031	23653.5
868.275	23547.5
868.519	23468.5
868.764	23472.5
869.008	23331.5
869.252	23382.5
869.496	23169.5
869.739	23140.5
869.983	23049.5
870.227	23015.5
870.471	22907.5
870.715	22957.5
870.958	23180.5
871.202	22904.5
871.446	23122.5
871.689	23012.5
871.933	23094.5
872.176	23056.5
872.42	22961.5
872.663	22921.5
872.906	22857.5
873.15	22663.5
873.393	22609.5
873.636	22525.5
873.879	22237.5
874.122	22168.5
874.366	21860.5
874.609	21693.5
874.852	21512.5
875.095	21414.5
875.337	21282.5
875.58	21218.5
875.823	21122.5
876.066	21113.5
876.309	21118.5
876.551	20928.5
876.794	20753.5
877.037	20738.5
877.279	20714.5
877.522	20754.5
877.764	20804.5
878.007	20680.5
878.249	20770.5
878.491	20686.5
878.734	20625.5
878.976	20590.5
879.218	20529.5
879.46	20418.5
879.702	20307.5
879.945	20042.5
880.187	19895.5
880.429	19730.5
880.671	19574.5
880.912	19529.5
881.154	19452.5
881.396	19299.5
881.638	19441.5
881.88	19341.5
882.121	19331.5
882.363	19319.5
882.605	19261.5
882.846	19148.5
883.088	19156.5
883.329	19052.5
883.571	18964.5
883.812	19097.5
884.053	19192.5
884.295	19306.5
884.536	19466.5
884.777	19219.5
885.018	19150.5
885.259	19055.5
885.5	19042.5
885.742	19115.5
885.982	18987.5
886.223	18849.5
886.464	18771.5
886.705	18608.5
886.946	18528.5
887.187	18403.5
887.428	18324.5
887.668	18118.5
887.909	17873.5
888.15	17719.5
888.39	17629.5
888.631	17521.5
888.871	17418.5
889.111	17276.5
889.352	17250.5
889.592	17066.5
889.833	16957.5
890.073	16764.5
890.313	16756.5
890.553	16532.5
890.793	16550.5
891.033	16376.5
891.273	16302.5
891.513	16351.5
891.753	16319.5
891.993	16232.5
892.233	16318.5
892.473	16345.5
892.713	16286.5
892.952	16221.5
893.192	16340.5
893.432	16201.5
893.671	16264.5
893.911	16102.5
894.15	15975.5
894.39	15867.5
894.629	15809.5
894.869	15695.5
895.108	15609.5
895.347	15527.5
895.587	15430.5
895.826	15335.5
896.065	15261.5
896.304	15312.5
896.543	15292.5
896.782	15141.5
897.021	15267.5
897.26	15097.5
897.499	15092.5
897.738	15059.5
897.977	14843.5
898.216	14843.5
898.454	14639.5
898.693	14445.5
898.932	14553.5
899.17	14395.5
899.409	14364.5
899.647	14415.5
899.886	14231.5
900.124	14307.5
900.363	14213.5
900.601	14283.5
900.839	14178.5
901.078	14256.5
901.316	14280.5
901.554	14264.5
901.792	14268.5
902.03	14234.5
902.268	14222.5
902.506	14144.5
902.744	14038.5
902.982	14059.5
903.22	13795.5
903.458	13743.5
903.695	13637.5
903.933	13441.5
904.171	13193.5
904.409	13054.5
904.646	13024.5
904.884	12851.5
905.121	12784.5
905.359	12579.5
905.596	12475.5
905.833	12314.5
906.071	12418.5
906.308	12327.5
906.545	12360.5
906.783	12237.5
907.02	12188.5
907.257	12095.5
907.494	12103.5
907.731	12116.5
907.968	12033.5
908.205	11963.5
908.442	11856.5
908.679	11795.5
908.915	11775.5
909.152	11595.5
909.389	11431.5
909.626	11425.5
909.862	11321.5
910.099	11381.5
910.335	11389.5
910.572	11180.5
910.808	11179.5
911.045	11206.5
911.281	11075.5
911.518	11125.5
911.754	10986.5
911.99	10919.5
912.226	10907.5
912.463	10767.5
912.699	10728.5
912.935	10539.5
913.171	10517.5
913.407	10442.5
913.643	10494.5
913.879	10309.5
914.114	10177.5
914.35	10097.5
914.586	10023.5
914.822	9884.5
915.057	9906.5
915.293	9689.5
915.529	9633.5
915.764	9723.5
916	9668.5
916.235	9618.5
916.471	9687.5
916.706	9545.5
916.941	9621.5
917.177	9571.5
917.412	9600.5
917.647	9575.5
917.882	9422.5
918.117	9566.5
918.352	9416.5
918.588	9425.5
918.823	9275.5
919.057	9211.5
919.292	9063.5
919.527	9074.5
919.762	8875.5
919.997	8871.5
920.232	8716.5
920.466	8772.5
920.701	8563.5
920.935	8613.5
921.17	8552.5
921.405	8440.5
921.639	8459.5
921.873	8367.5
922.108	8355.5
922.342	8363.5
922.576	8303.5
922.811	8274.5
923.045	8246.5
923.279	8258.5
923.513	8064.5
923.747	8138.5
923.981	8049.5
924.215	8059.5
924.449	7892.5
924.683	7950.5
924.917	7766.5
925.151	7774.5
925.385	7849.5
925.618	7784.5
925.852	7712.5
926.086	7667.5
926.319	7667.5
926.553	7739.5
926.786	7615.5
927.02	7670.5
927.253	7688.5
927.486	7649.5
927.72	7540.5
927.953	7580.5
928.186	7544.5
928.42	7509.5
928.653	7543.5
928.886	7415.5
929.119	7438.5
929.352	7300.5
929.585	7311.5
929.818	7203.5
930.051	7265.5
930.284	7134.5
930.516	7040.5
930.749	6989.5
930.982	7038.5
931.215	6983.5
931.447	6820.5
931.68	6912.5
931.912	6890.5
932.145	6891.5
932.377	6894.5
932.61	7023.5
932.842	6752.5
933.074	6857.5
933.307	6794.5
933.539	6852.5
933.771	6913.5
934.003	6805.5
934.236	6826.5
934.468	6876.5
934.7	6748.5
934.932	6789.5
935.164	6660.5
935.395	6666.5
935.627	6620.5
935.859	6588.5
936.091	6605.5
936.323	6590.5
936.554	6629.5
936.786	6500.5
937.017	6460.5
937.249	6512.5
937.481	6397.5
937.712	6432.5
937.943	6446.5
938.175	6463.5
938.406	6379.5
938.637	6433.5
938.869	6322.5
939.1	6375.5
939.331	6330.5
939.562	6359.5
939.793	6263.5
940.024	6290.5
940.255	6287.5
940.486	6177.5
940.717	6152.5
940.948	6066.5
941.179	6116.5
941.409	6045.5
941.64	6086.5
941.871	6091.5
942.102	5997.5
942.332	6094.5
942.563	6059.5
942.793	6090.5
943.024	5975.5
943.254	5991.5
943.484	6107.5
943.715	6068.5
943.945	6018.5
944.175	5929.5
944.405	5949.5
944.636	5905.5
944.866	5951.5
945.096	5959.5
945.326	5827.5
945.556	5891.5
945.786	5869.5
946.016	5791.5
946.245	5766.5
946.475	5707.5
946.705	5628.5
946.935	5673.5
947.164	5651.5
947.394	5575.5
947.624	5551.5
947.853	5573.5
948.083	5514.5
948.312	5445.5
948.542	5448.5
948.771	5451.5
949	5373.5
949.23	5409.5
949.459	5456.5
949.688	5453.5
949.917	5420.5
950.146	5357.5
950.375	5423.5
950.604	5349.5
950.833	5412.5
951.062	5393.5
951.291	5334.5
951.52	5291.5
951.749	5332.5
951.978	5220.5
952.206	5212.5
952.435	5180.5
952.664	5226.5
952.892	5205.5
953.121	5142.5
953.349	5195.5
953.578	5173.5
953.806	5133.5
954.035	5031.5
954.263	5057.5
954.491	4997.5
954.719	4979.5
954.948	4929.5
955.176	4937.5
955.404	4820.5
955.632	4873.5
955.86	4926.5
956.088	4854.5
956.316	4794.5
956.544	4895.5
956.772	4750.5
956.999	4759.5
957.227	4789.5
957.455	4653.5
957.683	4662.5
957.91	4646.5
958.138	4584.5
958.365	4632.5
958.593	4582.5
958.82	4498.5
959.048	4597.5
959.275	4492.5
959.502	4482.5
959.73	4489.5
959.957	4467.5
960.184	4534.5
960.411	4442.5
960.638	4545.5
960.865	4393.5
961.092	4440.5
961.319	4400.5
961.546	4439.5
961.773	4444.5
962	4416.5
962.227	4433.5
962.454	4366.5
962.68	4358.5
962.907	4303.5
963.134	4272.5
963.36	4294.5
963.587	4254.5
963.813	4211.5
964.04	4218.5
964.266	4129.5
964.493	4202.5
964.719	4146.5
964.945	4160.5
965.171	4041.5
965.398	4126.5
965.624	4083.5
965.85	4055.5
966.076	4023.5
966.302	4048.5
966.528	3986.5
966.754	3999.5
966.98	3979.5
967.206	3969.5
967.431	3904.5
967.657	3959.5
967.883	3945.5
968.109	3896.5
968.334	3829.5
968.56	3834.5
968.785	3847.5
969.011	3806.5
969.236	3861.5
969.462	3739.5
969.687	3822.5
969.912	3829.5
970.138	3805.5
970.363	3737.5
970.588	3754.5
970.813	3714.5
971.038	3669.5
971.263	3691.5
971.488	3719.5
971.713	3693.5
971.938	3663.5
972.163	3628.5
972.388	3582.5
972.613	3584.5
972.838	3588.5
973.062	3560.5
973.287	3540.5
973.512	3440.5
973.736	3532.5
973.961	3480.5
974.185	3462.5
974.41	3443.5
974.634	3335.5
974.858	3378.5
975.083	3430.5
975.307	3403.5
975.531	3316.5
975.755	3235.5
975.98	3295.5
976.204	3192.5
976.428	3220.5
976.652	3226.5
976.876	3174.5
977.1	3230.5
977.324	3166.5
977.547	3181.5
977.771	3219.5
977.995	3178.5
978.219	3103.5
978.442	3198.5
978.666	3140.5
978.89	3126.5
979.113	3140.5
979.337	3139.5
979.56	3070.5
979.783	3134.5
980.007	3001.5
980.23	3068.5
980.453	3008.5
980.677	3039.5
980.9	3011.5
981.123	2913.5
981.346	2973.5
981.569	2984.5
981.792	2996.5
982.015	2916.5
982.238	2909.5
982.461	2903.5
982.684	2884.5
982.907	2816.5
983.129	2813.5
983.352	2836.5
983.575	2821.5
983.797	2799.5
984.02	2764.5
984.242	2774.5
984.465	2740.5
984.687	2743.5
984.91	2775.5
985.132	2756.5
985.354	2781.5
985.577	2730.5
985.799	2709.5
986.021	2612.5
986.243	2689.5
986.465	2611.5
986.687	2664.5
986.909	2724.5
987.131	2677.5
987.353	2612.5
987.575	2643.5
987.797	2592.5
988.019	2532.5
988.241	2599.5
988.462	2511.5
988.684	2599.5
988.906	2606.5
989.127	2642.5
989.349	2519.5
989.57	2544.5
989.792	2561.5
990.013	2577.5
990.234	2552.5
990.456	2577.5
990.677	2544.5
990.898	2487.5
991.119	2483.5
991.341	2501.5
991.562	2423.5
991.783	2465.5
992.004	2408.5
992.225	2371.5
992.446	2394.5
992.667	2312.5
992.887	2386.5
993.108	2305.5
993.329	2428.5
993.55	2346.5
993.77	2263.5
993.991	2315.5
994.212	2313.5
994.432	2279.5
994.653	2284.5
994.873	2275.5
995.093	2129.5
995.314	2220.5
995.534	2278.5
995.754	2283.5
995.975	2268.5
996.195	2187.5
996.415	2227.5
996.635	2190.5
996.855	2178.5
997.075	2179.5
997.295	2187.5
997.515	2131.5
997.735	2194.5
997.955	2140.5
998.174	2174.5
998.394	2125.5
998.614	2154.5
998.834	2127.5
999.053	2161.5
999.273	2151.5
999.492	2184.5
999.712	2125.5
999.931	2055.5
1000.151	2145.5
1000.37	2078.5
1000.589	2128.5
1000.809	2056.5
1001.028	2181.5
1001.247	2095.5
1001.466	1998.5
1001.685	2106.5
1001.904	2046.5
1002.123	1994.5
1002.342	2033.5
1002.561	1981.5
1002.78	2006.5
1002.999	2045.5
1003.218	1966.5
1003.436	1972.5
1003.655	2024.5
1003.874	1920.5
1004.092	1974.5
1004.311	1962.5
1004.53	1943.5
1004.748	1995.5
1004.966	1939.5
1005.185	1965.5
1005.403	1967.5
1005.622	1920.5
1005.84	1985.5
1006.058	1876.5
1006.276	1942.5
1006.494	2428.5
1006.712	1896.5
1006.931	1969.5
1007.149	1878.5
1007.367	1875.5
1007.584	1906.5
1007.802	1940.5
1008.02	1859.5
1008.238	1970.5
1008.456	1983.5
1008.673	1822.5
1008.891	1940.5
1009.109	1881.5
1009.326	1925.5
1009.544	2033.5
1009.761	1909.5
1009.979	1998.5
1010.196	1994.5
1010.413	2104.5
1010.631	2126.5
1010.848	2103.5
1011.065	2152.5
1011.282	2082.5
1011.5	2036.5
1011.717	2126.5
1011.934	2081.5
1012.151	2116.5
1012.368	2075.5
1012.585	2020.5
1012.801	2062.5
1013.018	1996.5
1013.235	2010.5
1013.452	2000.5
1013.669	2025.5
1013.885	2006.5
1014.102	2024.5
1014.318	1973.5
1014.535	1949.5
1014.751	1962.5
1014.968	1985.5
1015.184	2003.5
1015.401	1880.5
1015.617	1925.5
1015.833	1835.5
1016.049	1840.5
1016.266	1882.5
1016.482	1856.5
1016.698	1776.5
1016.914	1815.5
1017.13	1783.5
1017.346	1773.5
1017.562	1826.5
1017.778	1733.5
1017.993	1719.5
1018.209	1761.5
1018.425	1734.5
1018.641	1702.5
1018.856	1635.5
1019.072	1697.5
1019.288	1746.5
1019.503	1705.5
1019.719	1633.5
1019.934	1618.5
1020.149	1688.5
1020.365	1603.5
1020.58	1583.5
1020.795	1664.5
1021.011	1558.5
1021.226	1543.5
1021.441	1579.5
1021.656	1503.5
1021.871	1405.5
1022.086	1406.5
1022.301	1399.5
1022.516	1397.5
1022.731	1402.5
1022.946	1369.5
1023.16	1344.5
1023.375	1286.5
1023.59	1258.5
1023.804	1272.5
1024.019	1324.5
1024.234	1210.5
1024.448	1236.5
1024.663	1181.5
1024.877	1185.5
1025.092	1185.5
1025.306	1186.5
1025.52	1082.5
1025.734	1180.5
1025.949	1096.5
1026.163	1091.5
1026.377	1014.5
1026.591	1074.5
1026.805	977.5
1027.019	950.5
1027.233	939.5
1027.447	917.5
1027.661	996.5
1027.875	939.5
1028.088	904.5
1028.302	825.5
1028.516	818.5
1028.73	829.5
1028.943	808.5
1029.157	761.5
1029.37	703.5
1029.584	0.5
1029.797	-2.5
1030.011	-3.5
1030.224	-1.5
