Data from QEP037381__132__15-15-42-882.txt Node

Date: Wed Dec 21 15:15:42 EST 2022
User: dcclab
Spectrometer: QEP03738
Trigger mode: 4
Integration Time (sec): 1.000000E1
Scans to average: 1
Electric dark correction enabled: true
Nonlinearity correction enabled: false
Boxcar width: 0
XAxis mode: Wavelengths
Number of Pixels in Spectrum: 1044
>>>>>Begin Spectral Data<<<<<
784.041	14.12
784.3	-0.88
784.558	-2.88
784.817	-0.88
785.075	89793.12
785.334	15118.12
785.592	7032.12
785.851	4807.12
786.109	3653.12
786.368	2870.12
786.626	2285.12
786.884	1907.12
787.143	1613.12
787.401	1305.12
787.659	1222.12
787.917	1040.12
788.175	973.12
788.433	840.12
788.691	756.12
788.949	713.12
789.207	696.12
789.465	591.12
789.723	576.12
789.98	542.12
790.238	572.12
790.496	546.12
790.753	517.12
791.011	562.12
791.268	497.12
791.526	496.12
791.783	499.12
792.041	483.12
792.298	414.12
792.556	475.12
792.813	450.12
793.07	437.12
793.327	423.12
793.584	491.12
793.841	430.12
794.099	438.12
794.356	504.12
794.613	400.12
794.869	445.12
795.126	406.12
795.383	391.12
795.64	407.12
795.897	362.12
796.153	417.12
796.41	410.12
796.667	406.12
796.923	391.12
797.18	401.12
797.436	429.12
797.693	379.12
797.949	441.12
798.206	465.12
798.462	385.12
798.718	431.12
798.974	401.12
799.231	462.12
799.487	441.12
799.743	449.12
799.999	455.12
800.255	455.12
800.511	432.12
800.767	482.12
801.023	453.12
801.279	496.12
801.534	506.12
801.79	542.12
802.046	549.12
802.302	655.12
802.557	688.12
802.813	830.12
803.068	962.12
803.324	1314.12
803.579	1709.12
803.835	2291.12
804.09	3116.12
804.345	4075.12
804.601	5105.12
804.856	6202.12
805.111	7201.12
805.366	7884.12
805.621	8439.12
805.876	8871.12
806.131	9121.12
806.386	9220.12
806.641	9423.12
806.896	9562.12
807.151	9853.12
807.406	9936.12
807.661	10121.12
807.915	10290.12
808.17	10534.12
808.425	10596.12
808.679	10724.12
808.934	10920.12
809.188	11032.12
809.443	11111.12
809.697	11329.12
809.951	11342.12
810.206	11521.12
810.46	11597.12
810.714	11814.12
810.968	11901.12
811.223	11881.12
811.477	12063.12
811.731	12195.12
811.985	12168.12
812.239	12266.12
812.493	12313.12
812.747	12394.12
813	12389.12
813.254	12509.12
813.508	12598.12
813.762	12640.12
814.015	12736.12
814.269	12899.12
814.522	12948.12
814.776	13211.12
815.03	13380.12
815.283	13511.12
815.536	13725.12
815.79	14061.12
816.043	14168.12
816.296	14470.12
816.55	14551.12
816.803	14840.12
817.056	15122.12
817.309	15099.12
817.562	15241.12
817.815	15600.12
818.068	15590.12
818.321	15902.12
818.574	16027.12
818.827	16298.12
819.079	16523.12
819.332	16778.12
819.585	16960.12
819.838	17265.12
820.09	17348.12
820.343	17467.12
820.595	17486.12
820.848	17641.12
821.1	17766.12
821.353	17833.12
821.605	17809.12
821.857	17821.12
822.11	17563.12
822.362	17688.12
822.614	17641.12
822.866	17666.12
823.118	17701.12
823.37	17862.12
823.622	17819.12
823.874	17857.12
824.126	18026.12
824.378	18018.12
824.63	18125.12
824.882	18128.12
825.134	18114.12
825.385	18016.12
825.637	17957.12
825.888	17943.12
826.14	17932.12
826.392	17902.12
826.643	17746.12
826.895	17759.12
827.146	17676.12
827.397	17656.12
827.649	17817.12
827.9	17626.12
828.151	17705.12
828.402	17758.12
828.653	17770.12
828.905	17804.12
829.156	17959.12
829.407	17802.12
829.658	17896.12
829.909	18001.12
830.159	18090.12
830.41	18069.12
830.661	17947.12
830.912	17866.12
831.162	17753.12
831.413	17781.12
831.664	17903.12
831.914	17681.12
832.165	17791.12
832.415	17707.12
832.666	17764.12
832.916	17885.12
833.167	17798.12
833.417	17728.12
833.667	17693.12
833.917	17626.12
834.168	17824.12
834.418	17660.12
834.668	17613.12
834.918	17538.12
835.168	17461.12
835.418	17331.12
835.668	17326.12
835.918	17341.12
836.167	17347.12
836.417	17247.12
836.667	17299.12
836.917	17361.12
837.166	17253.12
837.416	17256.12
837.666	17317.12
837.915	17174.12
838.165	17197.12
838.414	17223.12
838.663	17155.12
838.913	17229.12
839.162	17113.12
839.411	17263.12
839.661	17127.12
839.91	17115.12
840.159	17232.12
840.408	17157.12
840.657	17161.12
840.906	17245.12
841.155	17250.12
841.404	17226.12
841.653	17234.12
841.902	17282.12
842.15	17358.12
842.399	17394.12
842.648	17362.12
842.897	17314.12
843.145	17162.12
843.394	17061.12
843.642	16965.12
843.891	16967.12
844.139	16807.12
844.388	16772.12
844.636	16669.12
844.884	16555.12
845.133	16687.12
845.381	16656.12
845.629	16788.12
845.877	16728.12
846.125	16712.12
846.373	16791.12
846.621	16672.12
846.869	16613.12
847.117	16532.12
847.365	16358.12
847.613	16335.12
847.861	16413.12
848.108	16333.12
848.356	16330.12
848.604	16341.12
848.851	16384.12
849.099	16364.12
849.346	16437.12
849.594	16622.12
849.841	16630.12
850.089	16679.12
850.336	16810.12
850.583	16874.12
850.831	16870.12
851.078	16757.12
851.325	16939.12
851.572	16983.12
851.819	16816.12
852.066	16240.12
852.313	15980.12
852.56	15846.12
852.807	15770.12
853.054	15680.12
853.301	15732.12
853.548	15770.12
853.794	15977.12
854.041	16033.12
854.288	16081.12
854.534	16255.12
854.781	16147.12
855.028	16082.12
855.274	16077.12
855.52	15973.12
855.767	15892.12
856.013	15997.12
856.26	16320.12
856.506	15846.12
856.752	15818.12
856.998	15873.12
857.244	15858.12
857.49	15971.12
857.736	16050.12
857.982	16029.12
858.228	15973.12
858.474	15807.12
858.72	15719.12
858.966	15507.12
859.212	15459.12
859.458	15184.12
859.703	15049.12
859.949	14905.12
860.195	14830.12
860.44	14883.12
860.686	14820.12
860.931	14856.12
861.177	14742.12
861.422	14597.12
861.667	14514.12
861.913	14428.12
862.158	14476.12
862.403	14673.12
862.648	14615.12
862.893	14794.12
863.138	14722.12
863.384	14589.12
863.629	14637.12
863.873	14618.12
864.118	14553.12
864.363	14443.12
864.608	14576.12
864.853	14515.12
865.098	14471.12
865.342	14344.12
865.587	14333.12
865.832	14324.12
866.076	14353.12
866.321	14302.12
866.565	14346.12
866.81	14147.12
867.054	14192.12
867.298	14207.12
867.543	14040.12
867.787	14199.12
868.031	14080.12
868.275	14094.12
868.519	14120.12
868.764	14141.12
869.008	14154.12
869.252	14257.12
869.496	14148.12
869.739	14127.12
869.983	14215.12
870.227	14171.12
870.471	14211.12
870.715	14336.12
870.958	14374.12
871.202	14300.12
871.446	14496.12
871.689	14402.12
871.933	14344.12
872.176	14306.12
872.42	14277.12
872.663	14258.12
872.906	14298.12
873.15	14209.12
873.393	14171.12
873.636	14253.12
873.879	14093.12
874.122	13945.12
874.366	13746.12
874.609	13700.12
874.852	13601.12
875.095	13436.12
875.337	13385.12
875.58	13413.12
875.823	13286.12
876.066	13258.12
876.309	13277.12
876.551	13166.12
876.794	13132.12
877.037	13152.12
877.279	12993.12
877.522	13000.12
877.764	13063.12
878.007	12969.12
878.249	12957.12
878.491	12886.12
878.734	12903.12
878.976	12869.12
879.218	12655.12
879.46	12782.12
879.702	12694.12
879.945	12550.12
880.187	12410.12
880.429	12401.12
880.671	12334.12
880.912	12326.12
881.154	12192.12
881.396	12136.12
881.638	12315.12
881.88	12207.12
882.121	12233.12
882.363	12293.12
882.605	12329.12
882.846	12250.12
883.088	12231.12
883.329	12342.12
883.571	12355.12
883.812	12453.12
884.053	12744.12
884.295	13101.12
884.536	13327.12
884.777	13293.12
885.018	13263.12
885.259	13250.12
885.5	13090.12
885.742	13343.12
885.982	12937.12
886.223	12865.12
886.464	12746.12
886.705	12559.12
886.946	12442.12
887.187	12103.12
887.428	11946.12
887.668	11830.12
887.909	11668.12
888.15	11437.12
888.39	11459.12
888.631	11343.12
888.871	11243.12
889.111	11169.12
889.352	10989.12
889.592	10943.12
889.833	10866.12
890.073	10768.12
890.313	10812.12
890.553	10677.12
890.793	10593.12
891.033	10509.12
891.273	10536.12
891.513	10507.12
891.753	10456.12
891.993	10521.12
892.233	10493.12
892.473	10540.12
892.713	10577.12
892.952	10489.12
893.192	10675.12
893.432	10525.12
893.671	10640.12
893.911	10572.12
894.15	10477.12
894.39	10374.12
894.629	10369.12
894.869	10282.12
895.108	10241.12
895.347	10228.12
895.587	10282.12
895.826	10174.12
896.065	10171.12
896.304	10125.12
896.543	10207.12
896.782	10114.12
897.021	10198.12
897.26	10189.12
897.499	10229.12
897.738	10226.12
897.977	10135.12
898.216	10041.12
898.454	9968.12
898.693	9965.12
898.932	9991.12
899.17	9904.12
899.409	9822.12
899.647	9845.12
899.886	9821.12
900.124	9922.12
900.363	9870.12
900.601	9890.12
900.839	10033.12
901.078	10048.12
901.316	10189.12
901.554	10215.12
901.792	10338.12
902.03	10403.12
902.268	10435.12
902.506	10423.12
902.744	10238.12
902.982	10148.12
903.22	9894.12
903.458	9728.12
903.695	9596.12
903.933	9427.12
904.171	9271.12
904.409	9080.12
904.646	8994.12
904.884	8887.12
905.121	8765.12
905.359	8710.12
905.596	8598.12
905.833	8423.12
906.071	8333.12
906.308	8410.12
906.545	8408.12
906.783	8264.12
907.02	8308.12
907.257	8287.12
907.494	8242.12
907.731	8258.12
907.968	8179.12
908.205	8144.12
908.442	8075.12
908.679	8078.12
908.915	7963.12
909.152	7923.12
909.389	7802.12
909.626	7784.12
909.862	7817.12
910.099	7644.12
910.335	7702.12
910.572	7623.12
910.808	7651.12
911.045	7597.12
911.281	7548.12
911.518	7621.12
911.754	7475.12
911.99	7490.12
912.226	7461.12
912.463	7334.12
912.699	7321.12
912.935	7272.12
913.171	7261.12
913.407	7092.12
913.643	7173.12
913.879	7102.12
914.114	6977.12
914.35	6931.12
914.586	6897.12
914.822	6800.12
915.057	6893.12
915.293	6723.12
915.529	6703.12
915.764	6780.12
916	6741.12
916.235	6657.12
916.471	6756.12
916.706	6591.12
916.941	6654.12
917.177	6624.12
917.412	6711.12
917.647	6670.12
917.882	6648.12
918.117	6596.12
918.352	6586.12
918.588	6627.12
918.823	6525.12
919.057	6464.12
919.292	6324.12
919.527	6409.12
919.762	6295.12
919.997	6263.12
920.232	6176.12
920.466	6168.12
920.701	6009.12
920.935	6075.12
921.17	6021.12
921.405	5957.12
921.639	5987.12
921.873	5965.12
922.108	5975.12
922.342	5952.12
922.576	5898.12
922.811	5876.12
923.045	5910.12
923.279	5915.12
923.513	5726.12
923.747	5815.12
923.981	5714.12
924.215	5716.12
924.449	5668.12
924.683	5620.12
924.917	5642.12
925.151	5615.12
925.385	5668.12
925.618	5593.12
925.852	5580.12
926.086	5521.12
926.319	5550.12
926.553	5559.12
926.786	5581.12
927.02	5544.12
927.253	5589.12
927.486	5558.12
927.72	5468.12
927.953	5529.12
928.186	5451.12
928.42	5471.12
928.653	5409.12
928.886	5423.12
929.119	5465.12
929.352	5412.12
929.585	5386.12
929.818	5255.12
930.051	5311.12
930.284	5283.12
930.516	5138.12
930.749	5158.12
930.982	5184.12
931.215	5132.12
931.447	5047.12
931.68	5048.12
931.912	5092.12
932.145	5047.12
932.377	5055.12
932.61	5229.12
932.842	4993.12
933.074	5145.12
933.307	5024.12
933.539	5187.12
933.771	5184.12
934.003	5161.12
934.236	5404.12
934.468	5458.12
934.7	5479.12
934.932	5499.12
935.164	5403.12
935.395	5321.12
935.627	5210.12
935.859	5131.12
936.091	5040.12
936.323	5013.12
936.554	5037.12
936.786	4981.12
937.017	4900.12
937.249	4888.12
937.481	4894.12
937.712	4921.12
937.943	4873.12
938.175	4874.12
938.406	4844.12
938.637	4953.12
938.869	4855.12
939.1	4926.12
939.331	4938.12
939.562	4942.12
939.793	5034.12
940.024	5378.12
940.255	5864.12
940.486	6337.12
940.717	6467.12
940.948	6180.12
941.179	5820.12
941.409	5405.12
941.64	5145.12
941.871	4959.12
942.102	4791.12
942.332	4747.12
942.563	4740.12
942.793	4648.12
943.024	4617.12
943.254	4651.12
943.484	4734.12
943.715	4683.12
943.945	4664.12
944.175	4596.12
944.405	4581.12
944.636	4560.12
944.866	4622.12
945.096	4624.12
945.326	4511.12
945.556	4569.12
945.786	4635.12
946.016	4571.12
946.245	4452.12
946.475	4461.12
946.705	4468.12
946.935	4409.12
947.164	4392.12
947.394	4359.12
947.624	4396.12
947.853	4407.12
948.083	4321.12
948.312	4300.12
948.542	4262.12
948.771	4198.12
949	4234.12
949.23	4221.12
949.459	4292.12
949.688	4320.12
949.917	4274.12
950.146	4243.12
950.375	4327.12
950.604	4240.12
950.833	4303.12
951.062	4291.12
951.291	4216.12
951.52	4205.12
951.749	4154.12
951.978	4145.12
952.206	4141.12
952.435	4124.12
952.664	4129.12
952.892	4144.12
953.121	4124.12
953.349	4129.12
953.578	4138.12
953.806	4047.12
954.035	3952.12
954.263	4050.12
954.491	3977.12
954.719	4018.12
954.948	3974.12
955.176	3933.12
955.404	3840.12
955.632	3941.12
955.86	3915.12
956.088	3912.12
956.316	3882.12
956.544	3921.12
956.772	3876.12
956.999	3766.12
957.227	3885.12
957.455	3775.12
957.683	3830.12
957.91	3766.12
958.138	3748.12
958.365	3723.12
958.593	3702.12
958.82	3653.12
959.048	3737.12
959.275	3722.12
959.502	3681.12
959.73	3621.12
959.957	3652.12
960.184	3696.12
960.411	3621.12
960.638	3659.12
960.865	3646.12
961.092	3630.12
961.319	3538.12
961.546	3671.12
961.773	3658.12
962	3586.12
962.227	3641.12
962.454	3600.12
962.68	3564.12
962.907	3606.12
963.134	3550.12
963.36	3559.12
963.587	3562.12
963.813	3458.12
964.04	3500.12
964.266	3404.12
964.493	3471.12
964.719	3442.12
964.945	3469.12
965.171	3367.12
965.398	3376.12
965.624	3374.12
965.85	3318.12
966.076	3303.12
966.302	3338.12
966.528	3343.12
966.754	3377.12
966.98	3318.12
967.206	3267.12
967.431	3200.12
967.657	3286.12
967.883	3280.12
968.109	3266.12
968.334	3197.12
968.56	3179.12
968.785	3165.12
969.011	3134.12
969.236	3176.12
969.462	3169.12
969.687	3168.12
969.912	3180.12
970.138	3201.12
970.363	3124.12
970.588	3142.12
970.813	3119.12
971.038	3116.12
971.263	3129.12
971.488	3093.12
971.713	3109.12
971.938	3103.12
972.163	2971.12
972.388	3013.12
972.613	3001.12
972.838	3001.12
973.062	3027.12
973.287	3006.12
973.512	2926.12
973.736	2978.12
973.961	2959.12
974.185	2928.12
974.41	2913.12
974.634	2822.12
974.858	2884.12
975.083	2904.12
975.307	2886.12
975.531	2805.12
975.755	2753.12
975.98	2784.12
976.204	2758.12
976.428	2739.12
976.652	2702.12
976.876	2697.12
977.1	2718.12
977.324	2685.12
977.547	2752.12
977.771	2737.12
977.995	2712.12
978.219	2642.12
978.442	2766.12
978.666	2666.12
978.89	2661.12
979.113	2660.12
979.337	2654.12
979.56	2626.12
979.783	2681.12
980.007	2610.12
980.23	2639.12
980.453	2583.12
980.677	2589.12
980.9	2643.12
981.123	2503.12
981.346	2577.12
981.569	2568.12
981.792	2592.12
982.015	2565.12
982.238	2539.12
982.461	2537.12
982.684	2525.12
982.907	2435.12
983.129	2455.12
983.352	2506.12
983.575	2450.12
983.797	2486.12
984.02	2410.12
984.242	2413.12
984.465	2375.12
984.687	2419.12
984.91	2408.12
985.132	2405.12
985.354	2410.12
985.577	2368.12
985.799	2328.12
986.021	2287.12
986.243	2287.12
986.465	2319.12
986.687	2367.12
986.909	2381.12
987.131	2340.12
987.353	2305.12
987.575	2312.12
987.797	2286.12
988.019	2257.12
988.241	2302.12
988.462	2251.12
988.684	2312.12
988.906	2336.12
989.127	2351.12
989.349	2233.12
989.57	2253.12
989.792	2267.12
990.013	2281.12
990.234	2299.12
990.456	2321.12
990.677	2267.12
990.898	2221.12
991.119	2184.12
991.341	2239.12
991.562	2171.12
991.783	2189.12
992.004	2144.12
992.225	2115.12
992.446	2179.12
992.667	2107.12
992.887	2149.12
993.108	2068.12
993.329	2171.12
993.55	2109.12
993.77	2081.12
993.991	2062.12
994.212	2072.12
994.432	2062.12
994.653	2082.12
994.873	2044.12
995.093	1947.12
995.314	2005.12
995.534	2104.12
995.754	2091.12
995.975	2106.12
996.195	1972.12
996.415	2032.12
996.635	2002.12
996.855	2040.12
997.075	1981.12
997.295	2008.12
997.515	1965.12
997.735	2045.12
997.955	2004.12
998.174	2007.12
998.394	1990.12
998.614	2017.12
998.834	1981.12
999.053	2043.12
999.273	2000.12
999.492	2035.12
999.712	1992.12
999.931	1915.12
1000.151	1953.12
1000.37	1963.12
1000.589	1995.12
1000.809	1921.12
1001.028	2000.12
1001.247	1952.12
1001.466	1827.12
1001.685	1981.12
1001.904	1910.12
1002.123	1887.12
1002.342	1910.12
1002.561	1869.12
1002.78	1879.12
1002.999	1933.12
1003.218	1848.12
1003.436	1824.12
1003.655	1902.12
1003.874	1818.12
1004.092	1835.12
1004.311	1902.12
1004.53	1855.12
1004.748	1924.12
1004.966	1838.12
1005.185	1904.12
1005.403	1884.12
1005.622	1828.12
1005.84	1922.12
1006.058	1802.12
1006.276	1848.12
1006.494	2361.12
1006.712	1868.12
1006.931	1885.12
1007.149	1818.12
1007.367	1823.12
1007.584	1864.12
1007.802	1915.12
1008.02	1866.12
1008.238	1964.12
1008.456	1983.12
1008.673	1852.12
1008.891	1953.12
1009.109	1947.12
1009.326	2015.12
1009.544	2095.12
1009.761	2033.12
1009.979	2167.12
1010.196	2198.12
1010.413	2303.12
1010.631	2423.12
1010.848	2515.12
1011.065	2494.12
1011.282	2504.12
1011.5	2375.12
1011.717	2506.12
1011.934	2436.12
1012.151	2522.12
1012.368	2429.12
1012.585	2403.12
1012.801	2470.12
1013.018	2444.12
1013.235	2445.12
1013.452	2452.12
1013.669	2466.12
1013.885	2442.12
1014.102	2501.12
1014.318	2474.12
1014.535	2466.12
1014.751	2480.12
1014.968	2479.12
1015.184	2499.12
1015.401	2390.12
1015.617	2434.12
1015.833	2381.12
1016.049	2374.12
1016.266	2347.12
1016.482	2338.12
1016.698	2283.12
1016.914	2333.12
1017.13	2314.12
1017.346	2259.12
1017.562	2308.12
1017.778	2253.12
1017.993	2229.12
1018.209	2293.12
1018.425	2300.12
1018.641	2244.12
1018.856	2244.12
1019.072	2263.12
1019.288	2288.12
1019.503	2242.12
1019.719	2161.12
1019.934	2137.12
1020.149	2274.12
1020.365	2172.12
1020.58	2086.12
1020.795	2130.12
1021.011	2021.12
1021.226	1997.12
1021.441	2005.12
1021.656	1892.12
1021.871	1820.12
1022.086	1795.12
1022.301	1791.12
1022.516	1723.12
1022.731	1768.12
1022.946	1678.12
1023.16	1668.12
1023.375	1633.12
1023.59	1597.12
1023.804	1527.12
1024.019	1649.12
1024.234	1524.12
1024.448	1494.12
1024.663	1403.12
1024.877	1422.12
1025.092	1422.12
1025.306	1391.12
1025.52	1316.12
1025.734	1350.12
1025.949	1294.12
1026.163	1260.12
1026.377	1148.12
1026.591	1217.12
1026.805	1152.12
1027.019	1132.12
1027.233	1061.12
1027.447	1007.12
1027.661	1114.12
1027.875	1055.12
1028.088	1052.12
1028.302	985.12
1028.516	952.12
1028.73	961.12
1028.943	928.12
1029.157	869.12
1029.37	788.12
1029.584	-1.88
1029.797	-0.88
1030.011	-3.88
1030.224	-2.88
