Data from QEP037381__136__15-16-22-882.txt Node

Date: Wed Dec 21 15:16:22 EST 2022
User: dcclab
Spectrometer: QEP03738
Trigger mode: 4
Integration Time (sec): 1.000000E1
Scans to average: 1
Electric dark correction enabled: true
Nonlinearity correction enabled: false
Boxcar width: 0
XAxis mode: Wavelengths
Number of Pixels in Spectrum: 1044
>>>>>Begin Spectral Data<<<<<
784.041	13.75
784.3	1.75
784.558	-4.25
784.817	-3.25
785.075	90182.75
785.334	15218.75
785.592	7009.75
785.851	4859.75
786.109	3648.75
786.368	2836.75
786.626	2321.75
786.884	1908.75
787.143	1593.75
787.401	1311.75
787.659	1195.75
787.917	1054.75
788.175	968.75
788.433	833.75
788.691	759.75
788.949	693.75
789.207	678.75
789.465	591.75
789.723	586.75
789.98	536.75
790.238	568.75
790.496	529.75
790.753	517.75
791.011	573.75
791.268	501.75
791.526	485.75
791.783	514.75
792.041	498.75
792.298	408.75
792.556	472.75
792.813	448.75
793.07	437.75
793.327	414.75
793.584	494.75
793.841	421.75
794.099	442.75
794.356	497.75
794.613	406.75
794.869	435.75
795.126	412.75
795.383	373.75
795.64	410.75
795.897	354.75
796.153	412.75
796.41	401.75
796.667	390.75
796.923	390.75
797.18	401.75
797.436	420.75
797.693	392.75
797.949	424.75
798.206	440.75
798.462	372.75
798.718	427.75
798.974	406.75
799.231	428.75
799.487	425.75
799.743	434.75
799.999	450.75
800.255	452.75
800.511	417.75
800.767	463.75
801.023	437.75
801.279	478.75
801.534	485.75
801.79	514.75
802.046	513.75
802.302	604.75
802.557	638.75
802.813	748.75
803.068	861.75
803.324	1148.75
803.579	1456.75
803.835	1980.75
804.09	2720.75
804.345	3460.75
804.601	4362.75
804.856	5309.75
805.111	6219.75
805.366	6762.75
805.621	7247.75
805.876	7650.75
806.131	7844.75
806.386	7990.75
806.641	8052.75
806.896	8250.75
807.151	8484.75
807.406	8558.75
807.661	8734.75
807.915	8887.75
808.17	9081.75
808.425	9142.75
808.679	9243.75
808.934	9470.75
809.188	9547.75
809.443	9614.75
809.697	9740.75
809.951	9745.75
810.206	9849.75
810.46	9979.75
810.714	10130.75
810.968	10217.75
811.223	10262.75
811.477	10420.75
811.731	10534.75
811.985	10490.75
812.239	10414.75
812.493	10632.75
812.747	10676.75
813	10626.75
813.254	10804.75
813.508	10815.75
813.762	10875.75
814.015	10966.75
814.269	11044.75
814.522	11159.75
814.776	11318.75
815.03	11403.75
815.283	11626.75
815.536	11869.75
815.79	11972.75
816.043	12235.75
816.296	12465.75
816.55	12559.75
816.803	12655.75
817.056	12901.75
817.309	12955.75
817.562	13081.75
817.815	13332.75
818.068	13398.75
818.321	13530.75
818.574	13693.75
818.827	13935.75
819.079	14017.75
819.332	14527.75
819.585	14642.75
819.838	14912.75
820.09	14868.75
820.343	14944.75
820.595	14963.75
820.848	15079.75
821.1	15240.75
821.353	15193.75
821.605	15143.75
821.857	15184.75
822.11	15130.75
822.362	15094.75
822.614	15076.75
822.866	15117.75
823.118	15085.75
823.37	15261.75
823.622	15238.75
823.874	15271.75
824.126	15414.75
824.378	15412.75
824.63	15468.75
824.882	15543.75
825.134	15426.75
825.385	15502.75
825.637	15481.75
825.888	15361.75
826.14	15417.75
826.392	15358.75
826.643	15327.75
826.895	15168.75
827.146	15102.75
827.397	15090.75
827.649	15140.75
827.9	15084.75
828.151	15114.75
828.402	15169.75
828.653	15240.75
828.905	15244.75
829.156	15397.75
829.407	15296.75
829.658	15303.75
829.909	15467.75
830.159	15454.75
830.41	15444.75
830.661	15394.75
830.912	15199.75
831.162	15183.75
831.413	15164.75
831.664	15251.75
831.914	15105.75
832.165	15187.75
832.415	15164.75
832.666	15133.75
832.916	15211.75
833.167	15207.75
833.417	15178.75
833.667	15151.75
833.917	15155.75
834.168	15187.75
834.418	15085.75
834.668	14948.75
834.918	14904.75
835.168	14889.75
835.418	14925.75
835.668	14823.75
835.918	14763.75
836.167	14760.75
836.417	14667.75
836.667	14758.75
836.917	14785.75
837.166	14703.75
837.416	14790.75
837.666	14743.75
837.915	14751.75
838.165	14706.75
838.414	14604.75
838.663	14630.75
838.913	14626.75
839.162	14608.75
839.411	14699.75
839.661	14585.75
839.91	14621.75
840.159	14567.75
840.408	14682.75
840.657	14645.75
840.906	14636.75
841.155	14736.75
841.404	14671.75
841.653	14639.75
841.902	14661.75
842.15	14816.75
842.399	14717.75
842.648	14795.75
842.897	14674.75
843.145	14632.75
843.394	14515.75
843.642	14427.75
843.891	14399.75
844.139	14251.75
844.388	14202.75
844.636	14048.75
844.884	14200.75
845.133	14120.75
845.381	14262.75
845.629	14177.75
845.877	14099.75
846.125	14233.75
846.373	14294.75
846.621	14141.75
846.869	14114.75
847.117	13977.75
847.365	13926.75
847.613	13937.75
847.861	13821.75
848.108	13824.75
848.356	13800.75
848.604	13843.75
848.851	13938.75
849.099	13928.75
849.346	13905.75
849.594	13990.75
849.841	14102.75
850.089	14099.75
850.336	14255.75
850.583	14212.75
850.831	14222.75
851.078	14254.75
851.325	14336.75
851.572	14404.75
851.819	14216.75
852.066	13715.75
852.313	13409.75
852.56	13409.75
852.807	13298.75
853.054	13275.75
853.301	13335.75
853.548	13464.75
853.794	13560.75
854.041	13555.75
854.288	13573.75
854.534	13683.75
854.781	13613.75
855.028	13585.75
855.274	13682.75
855.52	13535.75
855.767	13474.75
856.013	13595.75
856.26	13916.75
856.506	13316.75
856.752	13312.75
856.998	13399.75
857.244	13440.75
857.49	13546.75
857.736	13507.75
857.982	13542.75
858.228	13445.75
858.474	13328.75
858.72	13255.75
858.966	13109.75
859.212	13027.75
859.458	12849.75
859.703	12677.75
859.949	12577.75
860.195	12607.75
860.44	12571.75
860.686	12465.75
860.931	12453.75
861.177	12345.75
861.422	12274.75
861.667	12231.75
861.913	12181.75
862.158	12260.75
862.403	12253.75
862.648	12338.75
862.893	12396.75
863.138	12327.75
863.384	12294.75
863.629	12350.75
863.873	12286.75
864.118	12304.75
864.363	12202.75
864.608	12194.75
864.853	12185.75
865.098	12152.75
865.342	11979.75
865.587	11918.75
865.832	12047.75
866.076	11995.75
866.321	12013.75
866.565	11974.75
866.81	11814.75
867.054	11863.75
867.298	11820.75
867.543	11800.75
867.787	11886.75
868.031	11785.75
868.275	11791.75
868.519	11790.75
868.764	11854.75
869.008	11827.75
869.252	11870.75
869.496	11793.75
869.739	11794.75
869.983	11834.75
870.227	11895.75
870.471	11826.75
870.715	11994.75
870.958	12062.75
871.202	11982.75
871.446	11961.75
871.689	11971.75
871.933	12016.75
872.176	11960.75
872.42	11899.75
872.663	11872.75
872.906	11906.75
873.15	11931.75
873.393	11865.75
873.636	11909.75
873.879	11748.75
874.122	11682.75
874.366	11480.75
874.609	11414.75
874.852	11306.75
875.095	11281.75
875.337	11189.75
875.58	11055.75
875.823	11078.75
876.066	11072.75
876.309	11058.75
876.551	10972.75
876.794	10883.75
877.037	10944.75
877.279	10790.75
877.522	10794.75
877.764	10799.75
878.007	10770.75
878.249	10722.75
878.491	10749.75
878.734	10730.75
878.976	10654.75
879.218	10633.75
879.46	10579.75
879.702	10563.75
879.945	10430.75
880.187	10281.75
880.429	10303.75
880.671	10204.75
880.912	10205.75
881.154	10155.75
881.396	10030.75
881.638	10188.75
881.88	10104.75
882.121	10088.75
882.363	10116.75
882.605	10223.75
882.846	10134.75
883.088	10126.75
883.329	10141.75
883.571	10238.75
883.812	10399.75
884.053	10622.75
884.295	10983.75
884.536	11212.75
884.777	11136.75
885.018	11126.75
885.259	11016.75
885.5	10879.75
885.742	11130.75
885.982	10895.75
886.223	10651.75
886.464	10575.75
886.705	10341.75
886.946	10356.75
887.187	10040.75
887.428	9953.75
887.668	9769.75
887.909	9673.75
888.15	9401.75
888.39	9431.75
888.631	9400.75
888.871	9311.75
889.111	9178.75
889.352	9069.75
889.592	9056.75
889.833	8945.75
890.073	8896.75
890.313	8893.75
890.553	8786.75
890.793	8736.75
891.033	8680.75
891.273	8706.75
891.513	8652.75
891.753	8670.75
891.993	8622.75
892.233	8645.75
892.473	8775.75
892.713	8734.75
892.952	8642.75
893.192	8707.75
893.432	8692.75
893.671	8675.75
893.911	8692.75
894.15	8640.75
894.39	8530.75
894.629	8478.75
894.869	8478.75
895.108	8494.75
895.347	8332.75
895.587	8401.75
895.826	8366.75
896.065	8341.75
896.304	8465.75
896.543	8406.75
896.782	8327.75
897.021	8320.75
897.26	8423.75
897.499	8436.75
897.738	8442.75
897.977	8345.75
898.216	8289.75
898.454	8204.75
898.693	8096.75
898.932	8152.75
899.17	8103.75
899.409	8095.75
899.647	8060.75
899.886	8071.75
900.124	8107.75
900.363	8096.75
900.601	8250.75
900.839	8231.75
901.078	8276.75
901.316	8342.75
901.554	8435.75
901.792	8481.75
902.03	8540.75
902.268	8533.75
902.506	8587.75
902.744	8452.75
902.982	8348.75
903.22	8141.75
903.458	8038.75
903.695	7863.75
903.933	7796.75
904.171	7596.75
904.409	7488.75
904.646	7371.75
904.884	7206.75
905.121	7220.75
905.359	7089.75
905.596	7043.75
905.833	6950.75
906.071	6926.75
906.308	6923.75
906.545	6857.75
906.783	6793.75
907.02	6812.75
907.257	6758.75
907.494	6805.75
907.731	6742.75
907.968	6710.75
908.205	6686.75
908.442	6577.75
908.679	6561.75
908.915	6553.75
909.152	6495.75
909.389	6413.75
909.626	6367.75
909.862	6339.75
910.099	6305.75
910.335	6276.75
910.572	6213.75
910.808	6287.75
911.045	6248.75
911.281	6121.75
911.518	6226.75
911.754	6131.75
911.99	6166.75
912.226	6070.75
912.463	5983.75
912.699	5986.75
912.935	5975.75
913.171	5908.75
913.407	5798.75
913.643	5873.75
913.879	5792.75
914.114	5734.75
914.35	5660.75
914.586	5626.75
914.822	5579.75
915.057	5593.75
915.293	5465.75
915.529	5432.75
915.764	5544.75
916	5507.75
916.235	5488.75
916.471	5491.75
916.706	5432.75
916.941	5461.75
917.177	5424.75
917.412	5429.75
917.647	5406.75
917.882	5465.75
918.117	5401.75
918.352	5417.75
918.588	5428.75
918.823	5392.75
919.057	5318.75
919.292	5146.75
919.527	5277.75
919.762	5124.75
919.997	5218.75
920.232	5108.75
920.466	5098.75
920.701	4968.75
920.935	4981.75
921.17	4968.75
921.405	4868.75
921.639	4908.75
921.873	4877.75
922.108	4932.75
922.342	4889.75
922.576	4795.75
922.811	4828.75
923.045	4823.75
923.279	4840.75
923.513	4689.75
923.747	4779.75
923.981	4750.75
924.215	4650.75
924.449	4612.75
924.683	4575.75
924.917	4623.75
925.151	4543.75
925.385	4662.75
925.618	4602.75
925.852	4574.75
926.086	4486.75
926.319	4553.75
926.553	4535.75
926.786	4579.75
927.02	4516.75
927.253	4595.75
927.486	4521.75
927.72	4503.75
927.953	4511.75
928.186	4513.75
928.42	4504.75
928.653	4438.75
928.886	4400.75
929.119	4436.75
929.352	4368.75
929.585	4360.75
929.818	4347.75
930.051	4357.75
930.284	4369.75
930.516	4230.75
930.749	4190.75
930.982	4211.75
931.215	4186.75
931.447	4170.75
931.68	4158.75
931.912	4120.75
932.145	4111.75
932.377	4213.75
932.61	4276.75
932.842	4097.75
933.074	4190.75
933.307	4094.75
933.539	4240.75
933.771	4206.75
934.003	4135.75
934.236	4199.75
934.468	4189.75
934.7	4145.75
934.932	4151.75
935.164	4102.75
935.395	4115.75
935.627	4104.75
935.859	4166.75
936.091	4026.75
936.323	4078.75
936.554	4076.75
936.786	4059.75
937.017	3974.75
937.249	4020.75
937.481	3962.75
937.712	4053.75
937.943	3966.75
938.175	3993.75
938.406	3978.75
938.637	4017.75
938.869	3911.75
939.1	3950.75
939.331	3922.75
939.562	3943.75
939.793	3980.75
940.024	3913.75
940.255	3977.75
940.486	3892.75
940.717	3879.75
940.948	3830.75
941.179	3820.75
941.409	3820.75
941.64	3793.75
941.871	3820.75
942.102	3798.75
942.332	3826.75
942.563	3873.75
942.793	3789.75
943.024	3807.75
943.254	3764.75
943.484	3824.75
943.715	3818.75
943.945	3825.75
944.175	3769.75
944.405	3736.75
944.636	3734.75
944.866	3758.75
945.096	3791.75
945.326	3726.75
945.556	3758.75
945.786	3777.75
946.016	3682.75
946.245	3671.75
946.475	3651.75
946.705	3660.75
946.935	3628.75
947.164	3587.75
947.394	3580.75
947.624	3563.75
947.853	3602.75
948.083	3595.75
948.312	3521.75
948.542	3490.75
948.771	3478.75
949	3484.75
949.23	3451.75
949.459	3521.75
949.688	3550.75
949.917	3506.75
950.146	3507.75
950.375	3559.75
950.604	3448.75
950.833	3515.75
951.062	3541.75
951.291	3453.75
951.52	3413.75
951.749	3423.75
951.978	3429.75
952.206	3412.75
952.435	3369.75
952.664	3404.75
952.892	3423.75
953.121	3391.75
953.349	3432.75
953.578	3367.75
953.806	3363.75
954.035	3315.75
954.263	3326.75
954.491	3311.75
954.719	3281.75
954.948	3291.75
955.176	3274.75
955.404	3204.75
955.632	3261.75
955.86	3238.75
956.088	3228.75
956.316	3250.75
956.544	3254.75
956.772	3163.75
956.999	3157.75
957.227	3268.75
957.455	3120.75
957.683	3141.75
957.91	3107.75
958.138	3065.75
958.365	3079.75
958.593	3062.75
958.82	3005.75
959.048	3094.75
959.275	3033.75
959.502	3029.75
959.73	3025.75
959.957	3014.75
960.184	3035.75
960.411	2986.75
960.638	3118.75
960.865	2991.75
961.092	3025.75
961.319	2913.75
961.546	3042.75
961.773	3032.75
962	2980.75
962.227	3037.75
962.454	2976.75
962.68	2950.75
962.907	2986.75
963.134	2921.75
963.36	2949.75
963.587	2921.75
963.813	2854.75
964.04	2875.75
964.266	2851.75
964.493	2887.75
964.719	2882.75
964.945	2864.75
965.171	2777.75
965.398	2799.75
965.624	2839.75
965.85	2747.75
966.076	2781.75
966.302	2777.75
966.528	2744.75
966.754	2757.75
966.98	2778.75
967.206	2727.75
967.431	2667.75
967.657	2730.75
967.883	2733.75
968.109	2716.75
968.334	2666.75
968.56	2641.75
968.785	2644.75
969.011	2632.75
969.236	2686.75
969.462	2619.75
969.687	2643.75
969.912	2689.75
970.138	2711.75
970.363	2608.75
970.588	2649.75
970.813	2620.75
971.038	2565.75
971.263	2615.75
971.488	2586.75
971.713	2650.75
971.938	2623.75
972.163	2512.75
972.388	2544.75
972.613	2523.75
972.838	2546.75
973.062	2549.75
973.287	2491.75
973.512	2440.75
973.736	2490.75
973.961	2453.75
974.185	2442.75
974.41	2496.75
974.634	2368.75
974.858	2428.75
975.083	2421.75
975.307	2432.75
975.531	2370.75
975.755	2297.75
975.98	2355.75
976.204	2249.75
976.428	2294.75
976.652	2305.75
976.876	2249.75
977.1	2311.75
977.324	2252.75
977.547	2327.75
977.771	2314.75
977.995	2276.75
978.219	2209.75
978.442	2330.75
978.666	2277.75
978.89	2256.75
979.113	2257.75
979.337	2222.75
979.56	2194.75
979.783	2291.75
980.007	2194.75
980.23	2196.75
980.453	2152.75
980.677	2199.75
980.9	2177.75
981.123	2111.75
981.346	2196.75
981.569	2187.75
981.792	2182.75
982.015	2149.75
982.238	2113.75
982.461	2112.75
982.684	2090.75
982.907	2083.75
983.129	2075.75
983.352	2111.75
983.575	2113.75
983.797	2120.75
984.02	2012.75
984.242	2015.75
984.465	2078.75
984.687	2073.75
984.91	2077.75
985.132	2038.75
985.354	2079.75
985.577	2046.75
985.799	2021.75
986.021	1916.75
986.243	1967.75
986.465	1996.75
986.687	2036.75
986.909	2077.75
987.131	1991.75
987.353	1967.75
987.575	1991.75
987.797	1938.75
988.019	1910.75
988.241	1967.75
988.462	1914.75
988.684	1994.75
988.906	1996.75
989.127	2011.75
989.349	1885.75
989.57	1906.75
989.792	1945.75
990.013	1987.75
990.234	1944.75
990.456	2015.75
990.677	1975.75
990.898	1922.75
991.119	1935.75
991.341	1951.75
991.562	1888.75
991.783	1916.75
992.004	1848.75
992.225	1806.75
992.446	1874.75
992.667	1794.75
992.887	1891.75
993.108	1725.75
993.329	1876.75
993.55	1815.75
993.77	1765.75
993.991	1764.75
994.212	1816.75
994.432	1765.75
994.653	1776.75
994.873	1783.75
995.093	1678.75
995.314	1753.75
995.534	1777.75
995.754	1824.75
995.975	1839.75
996.195	1728.75
996.415	1773.75
996.635	1749.75
996.855	1774.75
997.075	1757.75
997.295	1758.75
997.515	1731.75
997.735	1785.75
997.955	1738.75
998.174	1730.75
998.394	1708.75
998.614	1786.75
998.834	1733.75
999.053	1765.75
999.273	1745.75
999.492	1807.75
999.712	1716.75
999.931	1700.75
1000.151	1717.75
1000.37	1708.75
1000.589	1778.75
1000.809	1700.75
1001.028	1798.75
1001.247	1761.75
1001.466	1601.75
1001.685	1743.75
1001.904	1667.75
1002.123	1693.75
1002.342	1690.75
1002.561	1604.75
1002.78	1690.75
1002.999	1719.75
1003.218	1668.75
1003.436	1619.75
1003.655	1697.75
1003.874	1601.75
1004.092	1637.75
1004.311	1672.75
1004.53	1638.75
1004.748	1726.75
1004.966	1614.75
1005.185	1674.75
1005.403	1656.75
1005.622	1649.75
1005.84	1731.75
1006.058	1623.75
1006.276	1646.75
1006.494	2161.75
1006.712	1661.75
1006.931	1717.75
1007.149	1653.75
1007.367	1630.75
1007.584	1692.75
1007.802	1736.75
1008.02	1670.75
1008.238	1777.75
1008.456	1794.75
1008.673	1666.75
1008.891	1809.75
1009.109	1780.75
1009.326	1841.75
1009.544	1934.75
1009.761	1901.75
1009.979	2009.75
1010.196	2056.75
1010.413	2205.75
1010.631	2274.75
1010.848	2358.75
1011.065	2364.75
1011.282	2352.75
1011.5	2299.75
1011.717	2360.75
1011.934	2340.75
1012.151	2378.75
1012.368	2354.75
1012.585	2291.75
1012.801	2354.75
1013.018	2360.75
1013.235	2325.75
1013.452	2313.75
1013.669	2341.75
1013.885	2339.75
1014.102	2393.75
1014.318	2359.75
1014.535	2347.75
1014.751	2374.75
1014.968	2345.75
1015.184	2349.75
1015.401	2285.75
1015.617	2274.75
1015.833	2263.75
1016.049	2223.75
1016.266	2201.75
1016.482	2219.75
1016.698	2162.75
1016.914	2160.75
1017.13	2153.75
1017.346	2138.75
1017.562	2201.75
1017.778	2170.75
1017.993	2103.75
1018.209	2143.75
1018.425	2140.75
1018.641	2124.75
1018.856	2084.75
1019.072	2094.75
1019.288	2171.75
1019.503	2099.75
1019.719	2032.75
1019.934	2027.75
1020.149	2114.75
1020.365	2039.75
1020.58	1985.75
1020.795	1995.75
1021.011	1909.75
1021.226	1863.75
1021.441	1835.75
1021.656	1755.75
1021.871	1669.75
1022.086	1680.75
1022.301	1633.75
1022.516	1628.75
1022.731	1692.75
1022.946	1561.75
1023.16	1565.75
1023.375	1519.75
1023.59	1477.75
1023.804	1438.75
1024.019	1491.75
1024.234	1366.75
1024.448	1391.75
1024.663	1283.75
1024.877	1323.75
1025.092	1321.75
1025.306	1300.75
1025.52	1182.75
1025.734	1246.75
1025.949	1166.75
1026.163	1151.75
1026.377	1077.75
1026.591	1150.75
1026.805	1024.75
1027.019	1036.75
1027.233	999.75
1027.447	944.75
1027.661	1029.75
1027.875	960.75
1028.088	996.75
1028.302	907.75
1028.516	870.75
1028.73	882.75
1028.943	856.75
1029.157	809.75
1029.37	743.75
1029.584	-2.25
1029.797	-1.25
1030.011	-3.25
1030.224	-1.25
