Data from QEP037381__139__15-16-52-882.txt Node

Date: Wed Dec 21 15:16:52 EST 2022
User: dcclab
Spectrometer: QEP03738
Trigger mode: 4
Integration Time (sec): 1.000000E1
Scans to average: 1
Electric dark correction enabled: true
Nonlinearity correction enabled: false
Boxcar width: 0
XAxis mode: Wavelengths
Number of Pixels in Spectrum: 1044
>>>>>Begin Spectral Data<<<<<
784.041	13.12
784.3	0.12
784.558	-1.88
784.817	-3.88
785.075	91093.12
785.334	15598.12
785.592	7169.12
785.851	5017.12
786.109	3757.12
786.368	2954.12
786.626	2378.12
786.884	2013.12
787.143	1706.12
787.401	1394.12
787.659	1260.12
787.917	1092.12
788.175	996.12
788.433	876.12
788.691	790.12
788.949	729.12
789.207	703.12
789.465	591.12
789.723	583.12
789.98	529.12
790.238	595.12
790.496	539.12
790.753	517.12
791.011	570.12
791.268	508.12
791.526	496.12
791.783	501.12
792.041	493.12
792.298	415.12
792.556	479.12
792.813	469.12
793.07	450.12
793.327	412.12
793.584	519.12
793.841	431.12
794.099	445.12
794.356	496.12
794.613	418.12
794.869	442.12
795.126	412.12
795.383	379.12
795.64	420.12
795.897	370.12
796.153	439.12
796.41	407.12
796.667	387.12
796.923	393.12
797.18	388.12
797.436	431.12
797.693	397.12
797.949	438.12
798.206	467.12
798.462	378.12
798.718	448.12
798.974	407.12
799.231	460.12
799.487	438.12
799.743	450.12
799.999	483.12
800.255	466.12
800.511	460.12
800.767	487.12
801.023	476.12
801.279	515.12
801.534	534.12
801.79	560.12
802.046	572.12
802.302	693.12
802.557	763.12
802.813	941.12
803.068	1068.12
803.324	1480.12
803.579	1911.12
803.835	2588.12
804.09	3522.12
804.345	4505.12
804.601	5697.12
804.856	6972.12
805.111	8013.12
805.366	9047.12
805.621	9581.12
805.876	10115.12
806.131	10439.12
806.386	10584.12
806.641	10763.12
806.896	11005.12
807.151	11289.12
807.406	11401.12
807.661	11669.12
807.915	11913.12
808.17	12126.12
808.425	12267.12
808.679	12368.12
808.934	12517.12
809.188	12669.12
809.443	12870.12
809.697	13015.12
809.951	13094.12
810.206	13258.12
810.46	13412.12
810.714	13547.12
810.968	13702.12
811.223	13746.12
811.477	13930.12
811.731	13997.12
811.985	14088.12
812.239	14183.12
812.493	14131.12
812.747	14315.12
813	14358.12
813.254	14465.12
813.508	14430.12
813.762	14573.12
814.015	14626.12
814.269	14885.12
814.522	15024.12
814.776	15187.12
815.03	15322.12
815.283	15649.12
815.536	15882.12
815.79	16125.12
816.043	16437.12
816.296	16673.12
816.55	16837.12
816.803	17068.12
817.056	17347.12
817.309	17406.12
817.562	17703.12
817.815	17922.12
818.068	18058.12
818.321	18247.12
818.574	18510.12
818.827	18802.12
819.079	19066.12
819.332	19481.12
819.585	19566.12
819.838	19967.12
820.09	20041.12
820.343	20181.12
820.595	20236.12
820.848	20392.12
821.1	20496.12
821.353	20559.12
821.605	20521.12
821.857	20539.12
822.11	20317.12
822.362	20289.12
822.614	20321.12
822.866	20345.12
823.118	20341.12
823.37	20424.12
823.622	20590.12
823.874	20638.12
824.126	20700.12
824.378	20793.12
824.63	20897.12
824.882	20872.12
825.134	20859.12
825.385	20893.12
825.637	20788.12
825.888	20703.12
826.14	20768.12
826.392	20711.12
826.643	20597.12
826.895	20499.12
827.146	20391.12
827.397	20404.12
827.649	20506.12
827.9	20472.12
828.151	20510.12
828.402	20531.12
828.653	20634.12
828.905	20710.12
829.156	20795.12
829.407	20737.12
829.658	20742.12
829.909	20893.12
830.159	20876.12
830.41	20760.12
830.661	20627.12
830.912	20512.12
831.162	20494.12
831.413	20473.12
831.664	20509.12
831.914	20456.12
832.165	20443.12
832.415	20353.12
832.666	20498.12
832.916	20439.12
833.167	20418.12
833.417	20585.12
833.667	20396.12
833.917	20374.12
834.168	20403.12
834.418	20334.12
834.668	20301.12
834.918	20117.12
835.168	20213.12
835.418	20004.12
835.668	19930.12
835.918	20042.12
836.167	19954.12
836.417	19847.12
836.667	19877.12
836.917	19870.12
837.166	19803.12
837.416	19997.12
837.666	19844.12
837.915	19864.12
838.165	19836.12
838.414	19741.12
838.663	19879.12
838.913	19764.12
839.162	19721.12
839.411	19735.12
839.661	19730.12
839.91	19619.12
840.159	19675.12
840.408	19656.12
840.657	19695.12
840.906	19675.12
841.155	19729.12
841.404	19641.12
841.653	19807.12
841.902	19832.12
842.15	19818.12
842.399	19992.12
842.648	19738.12
842.897	19799.12
843.145	19652.12
843.394	19458.12
843.642	19325.12
843.891	19341.12
844.139	19246.12
844.388	19159.12
844.636	19075.12
844.884	19116.12
845.133	19058.12
845.381	19070.12
845.629	19170.12
845.877	19050.12
846.125	19047.12
846.373	18982.12
846.621	19061.12
846.869	18927.12
847.117	18805.12
847.365	18742.12
847.613	18759.12
847.861	18672.12
848.108	18645.12
848.356	18622.12
848.604	18602.12
848.851	18426.12
849.099	18609.12
849.346	18711.12
849.594	18813.12
849.841	18973.12
850.089	19079.12
850.336	19084.12
850.583	19241.12
850.831	19158.12
851.078	19051.12
851.325	19027.12
851.572	19159.12
851.819	18877.12
852.066	18475.12
852.313	18175.12
852.56	18001.12
852.807	17888.12
853.054	17852.12
853.301	17854.12
853.548	18018.12
853.794	18080.12
854.041	18166.12
854.288	18218.12
854.534	18453.12
854.781	18400.12
855.028	18325.12
855.274	18173.12
855.52	18202.12
855.767	18056.12
856.013	18004.12
856.26	18412.12
856.506	17955.12
856.752	17985.12
856.998	17907.12
857.244	18096.12
857.49	18129.12
857.736	18156.12
857.982	18162.12
858.228	18049.12
858.474	18001.12
858.72	17751.12
858.966	17743.12
859.212	17525.12
859.458	17313.12
859.703	17073.12
859.949	16953.12
860.195	16909.12
860.44	16914.12
860.686	16799.12
860.931	16915.12
861.177	16594.12
861.422	16630.12
861.667	16480.12
861.913	16449.12
862.158	16566.12
862.403	16561.12
862.648	16677.12
862.893	16741.12
863.138	16648.12
863.384	16642.12
863.629	16590.12
863.873	16565.12
864.118	16581.12
864.363	16451.12
864.608	16508.12
864.853	16487.12
865.098	16366.12
865.342	16280.12
865.587	16196.12
865.832	16220.12
866.076	16247.12
866.321	16113.12
866.565	16103.12
866.81	15996.12
867.054	16019.12
867.298	16054.12
867.543	15813.12
867.787	15946.12
868.031	15953.12
868.275	15881.12
868.519	15833.12
868.764	15821.12
869.008	15840.12
869.252	15944.12
869.496	15791.12
869.739	15868.12
869.983	15783.12
870.227	15946.12
870.471	15828.12
870.715	16116.12
870.958	16077.12
871.202	16064.12
871.446	16084.12
871.689	16080.12
871.933	16094.12
872.176	16090.12
872.42	16074.12
872.663	15928.12
872.906	16050.12
873.15	15972.12
873.393	15871.12
873.636	15912.12
873.879	15729.12
874.122	15676.12
874.366	15343.12
874.609	15326.12
874.852	15186.12
875.095	15097.12
875.337	15107.12
875.58	14920.12
875.823	14939.12
876.066	14867.12
876.309	14859.12
876.551	14713.12
876.794	14618.12
877.037	14741.12
877.279	14618.12
877.522	14650.12
877.764	14598.12
878.007	14555.12
878.249	14540.12
878.491	14565.12
878.734	14504.12
878.976	14489.12
879.218	14435.12
879.46	14286.12
879.702	14254.12
879.945	14125.12
880.187	14027.12
880.429	13960.12
880.671	13861.12
880.912	13855.12
881.154	13845.12
881.396	13693.12
881.638	13787.12
881.88	13699.12
882.121	13753.12
882.363	13772.12
882.605	13734.12
882.846	13775.12
883.088	13739.12
883.329	13713.12
883.571	13684.12
883.812	13868.12
884.053	14183.12
884.295	14518.12
884.536	14761.12
884.777	14644.12
885.018	14582.12
885.259	14668.12
885.5	14430.12
885.742	14619.12
885.982	14363.12
886.223	14261.12
886.464	14071.12
886.705	13926.12
886.946	13702.12
887.187	13524.12
887.428	13393.12
887.668	13181.12
887.909	12987.12
888.15	12797.12
888.39	12780.12
888.631	12719.12
888.871	12528.12
889.111	12477.12
889.352	12380.12
889.592	12246.12
889.833	12119.12
890.073	12089.12
890.313	12071.12
890.553	11963.12
890.793	11892.12
891.033	11905.12
891.273	11730.12
891.513	11781.12
891.753	11828.12
891.993	11787.12
892.233	11840.12
892.473	11898.12
892.713	11766.12
892.952	11754.12
893.192	11756.12
893.432	11868.12
893.671	11802.12
893.911	11726.12
894.15	11690.12
894.39	11510.12
894.629	11522.12
894.869	11546.12
895.108	11445.12
895.347	11411.12
895.587	11396.12
895.826	11337.12
896.065	11444.12
896.304	11382.12
896.543	11331.12
896.782	11235.12
897.021	11287.12
897.26	11279.12
897.499	11372.12
897.738	11324.12
897.977	11155.12
898.216	11176.12
898.454	11088.12
898.693	10954.12
898.932	10991.12
899.17	10910.12
899.409	10917.12
899.647	10790.12
899.886	10841.12
900.124	10852.12
900.363	10837.12
900.601	10927.12
900.839	10969.12
901.078	11103.12
901.316	11138.12
901.554	11178.12
901.792	11262.12
902.03	11283.12
902.268	11255.12
902.506	11225.12
902.744	11107.12
902.982	11014.12
903.22	10766.12
903.458	10679.12
903.695	10569.12
903.933	10354.12
904.171	10211.12
904.409	10079.12
904.646	9840.12
904.884	9661.12
905.121	9750.12
905.359	9573.12
905.596	9425.12
905.833	9301.12
906.071	9248.12
906.308	9277.12
906.545	9247.12
906.783	9175.12
907.02	9189.12
907.257	9184.12
907.494	9217.12
907.731	9160.12
907.968	9105.12
908.205	9008.12
908.442	8981.12
908.679	8961.12
908.915	8899.12
909.152	8822.12
909.389	8713.12
909.626	8677.12
909.862	8548.12
910.099	8576.12
910.335	8602.12
910.572	8410.12
910.808	8466.12
911.045	8460.12
911.281	8401.12
911.518	8473.12
911.754	8357.12
911.99	8357.12
912.226	8253.12
912.463	8159.12
912.699	8149.12
912.935	8029.12
913.171	7992.12
913.407	7898.12
913.643	7903.12
913.879	7894.12
914.114	7722.12
914.35	7673.12
914.586	7661.12
914.822	7523.12
915.057	7598.12
915.293	7389.12
915.529	7474.12
915.764	7480.12
916	7412.12
916.235	7378.12
916.471	7426.12
916.706	7300.12
916.941	7378.12
917.177	7310.12
917.412	7395.12
917.647	7351.12
917.882	7321.12
918.117	7308.12
918.352	7251.12
918.588	7294.12
918.823	7193.12
919.057	7162.12
919.292	7018.12
919.527	7046.12
919.762	6960.12
919.997	6926.12
920.232	6826.12
920.466	6855.12
920.701	6703.12
920.935	6671.12
921.17	6682.12
921.405	6560.12
921.639	6652.12
921.873	6573.12
922.108	6608.12
922.342	6562.12
922.576	6491.12
922.811	6409.12
923.045	6522.12
923.279	6442.12
923.513	6334.12
923.747	6416.12
923.981	6383.12
924.215	6313.12
924.449	6274.12
924.683	6174.12
924.917	6176.12
925.151	6192.12
925.385	6201.12
925.618	6125.12
925.852	6125.12
926.086	6054.12
926.319	6046.12
926.553	6113.12
926.786	6092.12
927.02	6078.12
927.253	6089.12
927.486	6094.12
927.72	5994.12
927.953	6082.12
928.186	6038.12
928.42	5992.12
928.653	5954.12
928.886	5898.12
929.119	5975.12
929.352	5953.12
929.585	5850.12
929.818	5775.12
930.051	5824.12
930.284	5690.12
930.516	5617.12
930.749	5659.12
930.982	5629.12
931.215	5654.12
931.447	5541.12
931.68	5526.12
931.912	5587.12
932.145	5566.12
932.377	5539.12
932.61	5665.12
932.842	5465.12
933.074	5558.12
933.307	5465.12
933.539	5638.12
933.771	5572.12
934.003	5536.12
934.236	5542.12
934.468	5622.12
934.7	5491.12
934.932	5548.12
935.164	5460.12
935.395	5448.12
935.627	5451.12
935.859	5394.12
936.091	5390.12
936.323	5430.12
936.554	5440.12
936.786	5388.12
937.017	5295.12
937.249	5405.12
937.481	5267.12
937.712	5296.12
937.943	5318.12
938.175	5277.12
938.406	5272.12
938.637	5324.12
938.869	5247.12
939.1	5234.12
939.331	5250.12
939.562	5222.12
939.793	5228.12
940.024	5230.12
940.255	5198.12
940.486	5125.12
940.717	5071.12
940.948	5067.12
941.179	5057.12
941.409	5082.12
941.64	5031.12
941.871	5063.12
942.102	5017.12
942.332	5050.12
942.563	5059.12
942.793	5066.12
943.024	5022.12
943.254	5001.12
943.484	5039.12
943.715	5066.12
943.945	5058.12
944.175	4997.12
944.405	4958.12
944.636	4958.12
944.866	5004.12
945.096	4992.12
945.326	4935.12
945.556	4925.12
945.786	4962.12
946.016	4972.12
946.245	4819.12
946.475	4775.12
946.705	4778.12
946.935	4782.12
947.164	4780.12
947.394	4727.12
947.624	4753.12
947.853	4793.12
948.083	4692.12
948.312	4669.12
948.542	4618.12
948.771	4601.12
949	4597.12
949.23	4563.12
949.459	4573.12
949.688	4642.12
949.917	4558.12
950.146	4609.12
950.375	4612.12
950.604	4510.12
950.833	4611.12
951.062	4587.12
951.291	4557.12
951.52	4485.12
951.749	4497.12
951.978	4474.12
952.206	4491.12
952.435	4472.12
952.664	4471.12
952.892	4532.12
953.121	4456.12
953.349	4411.12
953.578	4458.12
953.806	4380.12
954.035	4330.12
954.263	4355.12
954.491	4305.12
954.719	4304.12
954.948	4220.12
955.176	4249.12
955.404	4215.12
955.632	4216.12
955.86	4229.12
956.088	4179.12
956.316	4251.12
956.544	4222.12
956.772	4129.12
956.999	4108.12
957.227	4201.12
957.455	4093.12
957.683	4081.12
957.91	4025.12
958.138	4032.12
958.365	4002.12
958.593	3985.12
958.82	3932.12
959.048	4004.12
959.275	3954.12
959.502	3912.12
959.73	3904.12
959.957	3955.12
960.184	3982.12
960.411	3906.12
960.638	3924.12
960.865	3887.12
961.092	3938.12
961.319	3812.12
961.546	3919.12
961.773	3901.12
962	3857.12
962.227	3885.12
962.454	3846.12
962.68	3829.12
962.907	3794.12
963.134	3783.12
963.36	3751.12
963.587	3786.12
963.813	3726.12
964.04	3687.12
964.266	3675.12
964.493	3767.12
964.719	3717.12
964.945	3633.12
965.171	3552.12
965.398	3613.12
965.624	3657.12
965.85	3560.12
966.076	3543.12
966.302	3557.12
966.528	3513.12
966.754	3558.12
966.98	3503.12
967.206	3467.12
967.431	3414.12
967.657	3529.12
967.883	3512.12
968.109	3484.12
968.334	3427.12
968.56	3433.12
968.785	3379.12
969.011	3365.12
969.236	3461.12
969.462	3368.12
969.687	3357.12
969.912	3429.12
970.138	3396.12
970.363	3330.12
970.588	3385.12
970.813	3306.12
971.038	3307.12
971.263	3343.12
971.488	3309.12
971.713	3343.12
971.938	3351.12
972.163	3183.12
972.388	3216.12
972.613	3201.12
972.838	3242.12
973.062	3196.12
973.287	3174.12
973.512	3127.12
973.736	3152.12
973.961	3126.12
974.185	3115.12
974.41	3154.12
974.634	3050.12
974.858	3025.12
975.083	3064.12
975.307	3063.12
975.531	2987.12
975.755	2960.12
975.98	2980.12
976.204	2884.12
976.428	2878.12
976.652	2893.12
976.876	2843.12
977.1	2929.12
977.324	2862.12
977.547	2894.12
977.771	2905.12
977.995	2842.12
978.219	2786.12
978.442	2909.12
978.666	2839.12
978.89	2810.12
979.113	2819.12
979.337	2810.12
979.56	2749.12
979.783	2831.12
980.007	2746.12
980.23	2746.12
980.453	2729.12
980.677	2749.12
980.9	2756.12
981.123	2671.12
981.346	2730.12
981.569	2739.12
981.792	2733.12
982.015	2666.12
982.238	2645.12
982.461	2664.12
982.684	2613.12
982.907	2586.12
983.129	2559.12
983.352	2590.12
983.575	2571.12
983.797	2595.12
984.02	2519.12
984.242	2500.12
984.465	2552.12
984.687	2540.12
984.91	2535.12
985.132	2529.12
985.354	2545.12
985.577	2517.12
985.799	2478.12
986.021	2394.12
986.243	2464.12
986.465	2411.12
986.687	2474.12
986.909	2502.12
987.131	2451.12
987.353	2405.12
987.575	2456.12
987.797	2386.12
988.019	2365.12
988.241	2401.12
988.462	2353.12
988.684	2451.12
988.906	2438.12
989.127	2410.12
989.349	2335.12
989.57	2367.12
989.792	2379.12
990.013	2399.12
990.234	2407.12
990.456	2393.12
990.677	2384.12
990.898	2307.12
991.119	2285.12
991.341	2325.12
991.562	2276.12
991.783	2297.12
992.004	2224.12
992.225	2220.12
992.446	2262.12
992.667	2162.12
992.887	2257.12
993.108	2154.12
993.329	2276.12
993.55	2217.12
993.77	2129.12
993.991	2123.12
994.212	2187.12
994.432	2125.12
994.653	2137.12
994.873	2157.12
995.093	2033.12
995.314	2061.12
995.534	2135.12
995.754	2141.12
995.975	2163.12
996.195	2053.12
996.415	2106.12
996.635	2073.12
996.855	2082.12
997.075	2084.12
997.295	2062.12
997.515	2029.12
997.735	2101.12
997.955	2019.12
998.174	2078.12
998.394	2027.12
998.614	2060.12
998.834	2042.12
999.053	2102.12
999.273	2027.12
999.492	2090.12
999.712	2029.12
999.931	1980.12
1000.151	2043.12
1000.37	1996.12
1000.589	2033.12
1000.809	1951.12
1001.028	2066.12
1001.247	2015.12
1001.466	1899.12
1001.685	2042.12
1001.904	1974.12
1002.123	1950.12
1002.342	1928.12
1002.561	1869.12
1002.78	1928.12
1002.999	1978.12
1003.218	1893.12
1003.436	1880.12
1003.655	1935.12
1003.874	1866.12
1004.092	1862.12
1004.311	1908.12
1004.53	1853.12
1004.748	1899.12
1004.966	1854.12
1005.185	1909.12
1005.403	1901.12
1005.622	1891.12
1005.84	1956.12
1006.058	1872.12
1006.276	1882.12
1006.494	2357.12
1006.712	1879.12
1006.931	1958.12
1007.149	1828.12
1007.367	1871.12
1007.584	1884.12
1007.802	1935.12
1008.02	1890.12
1008.238	1993.12
1008.456	1964.12
1008.673	1840.12
1008.891	1954.12
1009.109	1906.12
1009.326	1987.12
1009.544	2078.12
1009.761	2016.12
1009.979	2138.12
1010.196	2147.12
1010.413	2273.12
1010.631	2377.12
1010.848	2413.12
1011.065	2464.12
1011.282	2405.12
1011.5	2326.12
1011.717	2435.12
1011.934	2344.12
1012.151	2396.12
1012.368	2351.12
1012.585	2345.12
1012.801	2339.12
1013.018	2360.12
1013.235	2337.12
1013.452	2324.12
1013.669	2370.12
1013.885	2336.12
1014.102	2396.12
1014.318	2372.12
1014.535	2322.12
1014.751	2374.12
1014.968	2350.12
1015.184	2356.12
1015.401	2263.12
1015.617	2302.12
1015.833	2216.12
1016.049	2245.12
1016.266	2205.12
1016.482	2215.12
1016.698	2158.12
1016.914	2193.12
1017.13	2117.12
1017.346	2110.12
1017.562	2197.12
1017.778	2154.12
1017.993	2073.12
1018.209	2126.12
1018.425	2094.12
1018.641	2107.12
1018.856	2045.12
1019.072	2094.12
1019.288	2126.12
1019.503	2060.12
1019.719	1990.12
1019.934	1987.12
1020.149	2073.12
1020.365	1988.12
1020.58	1913.12
1020.795	1970.12
1021.011	1870.12
1021.226	1822.12
1021.441	1849.12
1021.656	1750.12
1021.871	1666.12
1022.086	1666.12
1022.301	1667.12
1022.516	1610.12
1022.731	1661.12
1022.946	1556.12
1023.16	1541.12
1023.375	1489.12
1023.59	1498.12
1023.804	1424.12
1024.019	1503.12
1024.234	1381.12
1024.448	1401.12
1024.663	1353.12
1024.877	1306.12
1025.092	1322.12
1025.306	1313.12
1025.52	1230.12
1025.734	1286.12
1025.949	1218.12
1026.163	1153.12
1026.377	1129.12
1026.591	1153.12
1026.805	1074.12
1027.019	1055.12
1027.233	1018.12
1027.447	971.12
1027.661	1063.12
1027.875	997.12
1028.088	983.12
1028.302	935.12
1028.516	911.12
1028.73	897.12
1028.943	861.12
1029.157	815.12
1029.37	770.12
1029.584	0.12
1029.797	0.12
1030.011	-4.88
1030.224	-2.88
