Data from QEP037381__140__15-17-02-883.txt Node

Date: Wed Dec 21 15:17:02 EST 2022
User: dcclab
Spectrometer: QEP03738
Trigger mode: 4
Integration Time (sec): 1.000000E1
Scans to average: 1
Electric dark correction enabled: true
Nonlinearity correction enabled: false
Boxcar width: 0
XAxis mode: Wavelengths
Number of Pixels in Spectrum: 1044
>>>>>Begin Spectral Data<<<<<
784.041	13
784.3	2
784.558	-5
784.817	-5
785.075	83193
785.334	14680
785.592	6992
785.851	4867
786.109	3643
786.368	2879
786.626	2309
786.884	1953
787.143	1611
787.401	1363
787.659	1224
787.917	1067
788.175	972
788.433	862
788.691	781
788.949	720
789.207	688
789.465	604
789.723	582
789.98	527
790.238	589
790.496	550
790.753	508
791.011	562
791.268	498
791.526	489
791.783	492
792.041	473
792.298	404
792.556	471
792.813	452
793.07	431
793.327	425
793.584	489
793.841	419
794.099	454
794.356	487
794.613	413
794.869	433
795.126	400
795.383	387
795.64	403
795.897	366
796.153	418
796.41	395
796.667	392
796.923	401
797.18	393
797.436	420
797.693	386
797.949	433
798.206	459
798.462	377
798.718	422
798.974	403
799.231	439
799.487	428
799.743	428
799.999	467
800.255	444
800.511	455
800.767	478
801.023	448
801.279	484
801.534	496
801.79	519
802.046	532
802.302	623
802.557	680
802.813	817
803.068	930
803.324	1252
803.579	1637
803.835	2215
804.09	3024
804.345	3806
804.601	4773
804.856	5778
805.111	6655
805.366	7313
805.621	7753
805.876	8181
806.131	8374
806.386	8577
806.641	8700
806.896	8883
807.151	9084
807.406	9164
807.661	9258
807.915	9520
808.17	9697
808.425	9754
808.679	9856
808.934	10113
809.188	10112
809.443	10296
809.697	10473
809.951	10413
810.206	10550
810.46	10787
810.714	10816
810.968	10852
811.223	10922
811.477	11071
811.731	11183
811.985	11219
812.239	11216
812.493	11323
812.747	11446
813	11383
813.254	11455
813.508	11519
813.762	11562
814.015	11617
814.269	11788
814.522	11866
814.776	12040
815.03	12193
815.283	12416
815.536	12559
815.79	12774
816.043	13013
816.296	13144
816.55	13311
816.803	13496
817.056	13799
817.309	13822
817.562	13975
817.815	14088
818.068	14256
818.321	14413
818.574	14565
818.827	14783
819.079	15004
819.332	15319
819.585	15531
819.838	15804
820.09	15796
820.343	15891
820.595	15881
820.848	16077
821.1	16100
821.353	16159
821.605	16220
821.857	16195
822.11	16124
822.362	16028
822.614	16083
822.866	16120
823.118	16041
823.37	16191
823.622	16260
823.874	16250
824.126	16368
824.378	16333
824.63	16402
824.882	16488
825.134	16468
825.385	16426
825.637	16306
825.888	16339
826.14	16306
826.392	16287
826.643	16129
826.895	16208
827.146	16117
827.397	16002
827.649	16079
827.9	16052
828.151	16097
828.402	16219
828.653	16206
828.905	16220
829.156	16221
829.407	16235
829.658	16365
829.909	16351
830.159	16374
830.41	16436
830.661	16238
830.912	16183
831.162	16071
831.413	16106
831.664	16183
831.914	16158
832.165	16090
832.415	16081
832.666	16136
832.916	16239
833.167	16087
833.417	16128
833.667	16155
833.917	16162
834.168	16129
834.418	16117
834.668	16061
834.918	15878
835.168	15907
835.418	15758
835.668	15714
835.918	15751
836.167	15808
836.417	15648
836.667	15741
836.917	15707
837.166	15632
837.416	15746
837.666	15720
837.915	15749
838.165	15647
838.414	15540
838.663	15467
838.913	15623
839.162	15508
839.411	15662
839.661	15552
839.91	15529
840.159	15496
840.408	15612
840.657	15646
840.906	15600
841.155	15614
841.404	15685
841.653	15626
841.902	15659
842.15	15792
842.399	15714
842.648	15772
842.897	15678
843.145	15568
843.394	15427
843.642	15393
843.891	15370
844.139	15177
844.388	15110
844.636	15064
844.884	15048
845.133	15105
845.381	15041
845.629	15149
845.877	15099
846.125	15098
846.373	15123
846.621	15003
846.869	15010
847.117	14989
847.365	14814
847.613	14867
847.861	14821
848.108	14841
848.356	14752
848.604	14730
848.851	14802
849.099	14818
849.346	14892
849.594	14918
849.841	15029
850.089	15043
850.336	15194
850.583	15166
850.831	15243
851.078	15193
851.325	15296
851.572	15415
851.819	15144
852.066	14734
852.313	14406
852.56	14310
852.807	14219
853.054	14215
853.301	14253
853.548	14251
853.794	14460
854.041	14435
854.288	14542
854.534	14725
854.781	14694
855.028	14614
855.274	14603
855.52	14491
855.767	14448
856.013	14530
856.26	14884
856.506	14305
856.752	14393
856.998	14291
857.244	14398
857.49	14401
857.736	14514
857.982	14478
858.228	14502
858.474	14304
858.72	14201
858.966	14055
859.212	13798
859.458	13751
859.703	13670
859.949	13409
860.195	13403
860.44	13424
860.686	13424
860.931	13467
861.177	13269
861.422	13213
861.667	13108
861.913	13063
862.158	13127
862.403	13198
862.648	13268
862.893	13321
863.138	13180
863.384	13178
863.629	13158
863.873	13187
864.118	13096
864.363	13203
864.608	13115
864.853	13096
865.098	12978
865.342	12980
865.587	12834
865.832	12865
866.076	12920
866.321	12833
866.565	12811
866.81	12740
867.054	12824
867.298	12769
867.543	12788
867.787	12769
868.031	12791
868.275	12711
868.519	12715
868.764	12761
869.008	12720
869.252	12782
869.496	12687
869.739	12682
869.983	12721
870.227	12730
870.471	12700
870.715	12862
870.958	12862
871.202	12940
871.446	12969
871.689	12941
871.933	12932
872.176	12907
872.42	12835
872.663	12728
872.906	12820
873.15	12845
873.393	12808
873.636	12882
873.879	12671
874.122	12577
874.366	12349
874.609	12294
874.852	12181
875.095	12125
875.337	12078
875.58	12028
875.823	11936
876.066	12000
876.309	11936
876.551	11816
876.794	11813
877.037	11823
877.279	11668
877.522	11637
877.764	11727
878.007	11591
878.249	11693
878.491	11554
878.734	11626
878.976	11532
879.218	11418
879.46	11421
879.702	11336
879.945	11288
880.187	11182
880.429	11098
880.671	11043
880.912	11022
881.154	11016
881.396	10870
881.638	11008
881.88	11013
882.121	10952
882.363	10998
882.605	10958
882.846	10988
883.088	10968
883.329	10947
883.571	10994
883.812	11187
884.053	11473
884.295	11806
884.536	11965
884.777	12053
885.018	11921
885.259	11842
885.5	11686
885.742	12013
885.982	11761
886.223	11582
886.464	11449
886.705	11280
886.946	11173
887.187	10867
887.428	10700
887.668	10527
887.909	10314
888.15	10200
888.39	10200
888.631	10114
888.871	10040
889.111	9923
889.352	9924
889.592	9776
889.833	9655
890.073	9582
890.313	9661
890.553	9461
890.793	9519
891.033	9484
891.273	9368
891.513	9415
891.753	9447
891.993	9330
892.233	9395
892.473	9456
892.713	9470
892.952	9399
893.192	9445
893.432	9480
893.671	9496
893.911	9444
894.15	9431
894.39	9306
894.629	9292
894.869	9289
895.108	9210
895.347	9159
895.587	9187
895.826	9168
896.065	9095
896.304	9143
896.543	9187
896.782	9029
897.021	9068
897.26	9037
897.499	9227
897.738	9128
897.977	9091
898.216	8948
898.454	8881
898.693	8866
898.932	8891
899.17	8809
899.409	8822
899.647	8830
899.886	8817
900.124	8852
900.363	8897
900.601	8867
900.839	8945
901.078	9020
901.316	9006
901.554	9140
901.792	9315
902.03	9197
902.268	9311
902.506	9160
902.744	9079
902.982	9017
903.22	8774
903.458	8673
903.695	8559
903.933	8367
904.171	8181
904.409	8100
904.646	8025
904.884	7803
905.121	7817
905.359	7669
905.596	7597
905.833	7498
906.071	7459
906.308	7446
906.545	7472
906.783	7350
907.02	7399
907.257	7278
907.494	7332
907.731	7325
907.968	7289
908.205	7227
908.442	7276
908.679	7152
908.915	7103
909.152	7023
909.389	6932
909.626	6918
909.862	6907
910.099	6851
910.335	6914
910.572	6771
910.808	6827
911.045	6746
911.281	6767
911.518	6741
911.754	6694
911.99	6635
912.226	6585
912.463	6543
912.699	6502
912.935	6506
913.171	6397
913.407	6392
913.643	6342
913.879	6283
914.114	6214
914.35	6176
914.586	6166
914.822	6097
915.057	6099
915.293	5963
915.529	5926
915.764	6030
916	5942
916.235	5928
916.471	5952
916.706	5844
916.941	5851
917.177	5846
917.412	5903
917.647	5974
917.882	5841
918.117	5884
918.352	5867
918.588	5946
918.823	5781
919.057	5760
919.292	5588
919.527	5687
919.762	5570
919.997	5605
920.232	5478
920.466	5464
920.701	5386
920.935	5376
921.17	5307
921.405	5323
921.639	5360
921.873	5266
922.108	5324
922.342	5301
922.576	5188
922.811	5208
923.045	5187
923.279	5242
923.513	5080
923.747	5156
923.981	5116
924.215	5067
924.449	5064
924.683	5042
924.917	5011
925.151	4974
925.385	4994
925.618	4933
925.852	5007
926.086	4882
926.319	4979
926.553	4970
926.786	4949
927.02	4981
927.253	4987
927.486	4886
927.72	4874
927.953	4922
928.186	4875
928.42	4893
928.653	4783
928.886	4795
929.119	4814
929.352	4772
929.585	4774
929.818	4697
930.051	4692
930.284	4694
930.516	4588
930.749	4550
930.982	4615
931.215	4578
931.447	4488
931.68	4519
931.912	4516
932.145	4526
932.377	4577
932.61	4639
932.842	4484
933.074	4539
933.307	4491
933.539	4576
933.771	4542
934.003	4484
934.236	4598
934.468	4513
934.7	4475
934.932	4533
935.164	4439
935.395	4397
935.627	4465
935.859	4399
936.091	4409
936.323	4443
936.554	4456
936.786	4399
937.017	4321
937.249	4357
937.481	4274
937.712	4377
937.943	4349
938.175	4279
938.406	4326
938.637	4375
938.869	4286
939.1	4328
939.331	4266
939.562	4268
939.793	4261
940.024	4272
940.255	4251
940.486	4226
940.717	4214
940.948	4221
941.179	4163
941.409	4135
941.64	4116
941.871	4160
942.102	4154
942.332	4142
942.563	4146
942.793	4178
943.024	4117
943.254	4162
943.484	4184
943.715	4110
943.945	4111
944.175	4056
944.405	4036
944.636	4080
944.866	4152
945.096	4152
945.326	4037
945.556	4098
945.786	4094
946.016	4034
946.245	4009
946.475	3961
946.705	3953
946.935	3939
947.164	3914
947.394	3887
947.624	3891
947.853	3907
948.083	3847
948.312	3835
948.542	3808
948.771	3783
949	3804
949.23	3789
949.459	3799
949.688	3822
949.917	3757
950.146	3812
950.375	3857
950.604	3710
950.833	3789
951.062	3848
951.291	3761
951.52	3720
951.749	3739
951.978	3742
952.206	3692
952.435	3693
952.664	3710
952.892	3717
953.121	3667
953.349	3756
953.578	3682
953.806	3656
954.035	3577
954.263	3604
954.491	3565
954.719	3648
954.948	3484
955.176	3532
955.404	3457
955.632	3538
955.86	3536
956.088	3499
956.316	3507
956.544	3502
956.772	3452
956.999	3394
957.227	3506
957.455	3400
957.683	3402
957.91	3334
958.138	3343
958.365	3309
958.593	3308
958.82	3259
959.048	3299
959.275	3296
959.502	3285
959.73	3241
959.957	3278
960.184	3308
960.411	3234
960.638	3314
960.865	3263
961.092	3301
961.319	3191
961.546	3249
961.773	3271
962	3205
962.227	3269
962.454	3202
962.68	3197
962.907	3210
963.134	3169
963.36	3202
963.587	3202
963.813	3130
964.04	3152
964.266	3079
964.493	3151
964.719	3135
964.945	3079
965.171	3024
965.398	3021
965.624	3096
965.85	2987
966.076	2998
966.302	3014
966.528	2967
966.754	2997
966.98	2969
967.206	2973
967.431	2901
967.657	2979
967.883	2983
968.109	2929
968.334	2882
968.56	2847
968.785	2842
969.011	2829
969.236	2875
969.462	2868
969.687	2850
969.912	2899
970.138	2893
970.363	2871
970.588	2861
970.813	2820
971.038	2802
971.263	2824
971.488	2801
971.713	2834
971.938	2799
972.163	2707
972.388	2711
972.613	2709
972.838	2718
973.062	2723
973.287	2701
973.512	2634
973.736	2687
973.961	2688
974.185	2625
974.41	2610
974.634	2589
974.858	2587
975.083	2616
975.307	2660
975.531	2550
975.755	2490
975.98	2539
976.204	2445
976.428	2437
976.652	2458
976.876	2444
977.1	2476
977.324	2438
977.547	2477
977.771	2495
977.995	2438
978.219	2383
978.442	2512
978.666	2419
978.89	2417
979.113	2367
979.337	2418
979.56	2370
979.783	2458
980.007	2355
980.23	2360
980.453	2341
980.677	2392
980.9	2355
981.123	2269
981.346	2350
981.569	2330
981.792	2369
982.015	2280
982.238	2275
982.461	2263
982.684	2266
982.907	2211
983.129	2217
983.352	2263
983.575	2229
983.797	2240
984.02	2197
984.242	2206
984.465	2183
984.687	2217
984.91	2229
985.132	2182
985.354	2204
985.577	2200
985.799	2141
986.021	2081
986.243	2105
986.465	2121
986.687	2191
986.909	2168
987.131	2111
987.353	2084
987.575	2107
987.797	2114
988.019	2026
988.241	2084
988.462	2076
988.684	2088
988.906	2079
989.127	2155
989.349	2014
989.57	2091
989.792	2081
990.013	2127
990.234	2104
990.456	2118
990.677	2105
990.898	2030
991.119	2019
991.341	2024
991.562	1978
991.783	2024
992.004	1961
992.225	1949
992.446	1975
992.667	1886
992.887	1977
993.108	1873
993.329	2018
993.55	1958
993.77	1892
993.991	1896
994.212	1898
994.432	1884
994.653	1922
994.873	1904
995.093	1794
995.314	1856
995.534	1902
995.754	1905
995.975	1920
996.195	1805
996.415	1887
996.635	1821
996.855	1887
997.075	1816
997.295	1859
997.515	1827
997.735	1865
997.955	1837
998.174	1839
998.394	1803
998.614	1836
998.834	1787
999.053	1873
999.273	1836
999.492	1895
999.712	1821
999.931	1764
1000.151	1817
1000.37	1803
1000.589	1838
1000.809	1768
1001.028	1896
1001.247	1803
1001.466	1697
1001.685	1837
1001.904	1776
1002.123	1763
1002.342	1729
1002.561	1718
1002.78	1725
1002.999	1793
1003.218	1750
1003.436	1733
1003.655	1737
1003.874	1692
1004.092	1715
1004.311	1740
1004.53	1707
1004.748	1802
1004.966	1715
1005.185	1760
1005.403	1752
1005.622	1711
1005.84	1786
1006.058	1680
1006.276	1695
1006.494	2204
1006.712	1727
1006.931	1790
1007.149	1695
1007.367	1711
1007.584	1732
1007.802	1779
1008.02	1752
1008.238	1843
1008.456	1850
1008.673	1721
1008.891	1855
1009.109	1788
1009.326	1856
1009.544	1985
1009.761	1908
1009.979	2003
1010.196	2094
1010.413	2216
1010.631	2257
1010.848	2327
1011.065	2382
1011.282	2327
1011.5	2284
1011.717	2392
1011.934	2299
1012.151	2333
1012.368	2332
1012.585	2282
1012.801	2359
1013.018	2318
1013.235	2305
1013.452	2322
1013.669	2341
1013.885	2329
1014.102	2338
1014.318	2345
1014.535	2305
1014.751	2299
1014.968	2310
1015.184	2347
1015.401	2259
1015.617	2249
1015.833	2202
1016.049	2201
1016.266	2199
1016.482	2199
1016.698	2110
1016.914	2170
1017.13	2091
1017.346	2098
1017.562	2195
1017.778	2111
1017.993	2066
1018.209	2114
1018.425	2112
1018.641	2088
1018.856	2052
1019.072	2093
1019.288	2124
1019.503	2073
1019.719	1997
1019.934	1994
1020.149	2087
1020.365	1999
1020.58	1958
1020.795	1947
1021.011	1866
1021.226	1814
1021.441	1823
1021.656	1739
1021.871	1678
1022.086	1658
1022.301	1624
1022.516	1594
1022.731	1648
1022.946	1540
1023.16	1519
1023.375	1499
1023.59	1458
1023.804	1418
1024.019	1487
1024.234	1370
1024.448	1403
1024.663	1301
1024.877	1291
1025.092	1321
1025.306	1306
1025.52	1181
1025.734	1277
1025.949	1172
1026.163	1135
1026.377	1098
1026.591	1114
1026.805	1050
1027.019	1035
1027.233	983
1027.447	922
1027.661	1040
1027.875	975
1028.088	998
1028.302	887
1028.516	881
1028.73	885
1028.943	845
1029.157	809
1029.37	730
1029.584	-2
1029.797	-1
1030.011	0
1030.224	-2
