Data from QEP037381__149__15-18-32-882.txt Node

Date: Wed Dec 21 15:18:32 EST 2022
User: dcclab
Spectrometer: QEP03738
Trigger mode: 4
Integration Time (sec): 1.000000E1
Scans to average: 1
Electric dark correction enabled: true
Nonlinearity correction enabled: false
Boxcar width: 0
XAxis mode: Wavelengths
Number of Pixels in Spectrum: 1044
>>>>>Begin Spectral Data<<<<<
784.041	10.62
784.3	-2.38
784.558	-1.38
784.817	-2.38
785.075	91453.62
785.334	15054.62
785.592	6922.62
785.851	4737.62
786.109	3584.62
786.368	2820.62
786.626	2250.62
786.884	1890.62
787.143	1622.62
787.401	1359.62
787.659	1204.62
787.917	1041.62
788.175	972.62
788.433	853.62
788.691	771.62
788.949	724.62
789.207	684.62
789.465	586.62
789.723	575.62
789.98	519.62
790.238	577.62
790.496	528.62
790.753	502.62
791.011	559.62
791.268	485.62
791.526	472.62
791.783	501.62
792.041	481.62
792.298	393.62
792.556	461.62
792.813	444.62
793.07	426.62
793.327	412.62
793.584	511.62
793.841	426.62
794.099	432.62
794.356	497.62
794.613	401.62
794.869	449.62
795.126	406.62
795.383	371.62
795.64	410.62
795.897	354.62
796.153	423.62
796.41	406.62
796.667	385.62
796.923	380.62
797.18	389.62
797.436	425.62
797.693	386.62
797.949	425.62
798.206	444.62
798.462	378.62
798.718	421.62
798.974	407.62
799.231	450.62
799.487	434.62
799.743	436.62
799.999	469.62
800.255	446.62
800.511	435.62
800.767	471.62
801.023	458.62
801.279	477.62
801.534	517.62
801.79	508.62
802.046	545.62
802.302	635.62
802.557	676.62
802.813	797.62
803.068	900.62
803.324	1234.62
803.579	1624.62
803.835	2168.62
804.09	2982.62
804.345	3859.62
804.601	4834.62
804.856	5912.62
805.111	6847.62
805.366	7603.62
805.621	8119.62
805.876	8447.62
806.131	8724.62
806.386	8909.62
806.641	9022.62
806.896	9189.62
807.151	9438.62
807.406	9542.62
807.661	9761.62
807.915	9897.62
808.17	10037.62
808.425	10213.62
808.679	10279.62
808.934	10500.62
809.188	10536.62
809.443	10689.62
809.697	10788.62
809.951	10909.62
810.206	10998.62
810.46	11194.62
810.714	11262.62
810.968	11416.62
811.223	11491.62
811.477	11629.62
811.731	11665.62
811.985	11749.62
812.239	11716.62
812.493	11919.62
812.747	11946.62
813	11969.62
813.254	12010.62
813.508	12115.62
813.762	12167.62
814.015	12214.62
814.269	12435.62
814.522	12519.62
814.776	12614.62
815.03	12867.62
815.283	13038.62
815.536	13216.62
815.79	13546.62
816.043	13710.62
816.296	13793.62
816.55	14057.62
816.803	14247.62
817.056	14470.62
817.309	14561.62
817.562	14801.62
817.815	14967.62
818.068	15013.62
818.321	15277.62
818.574	15412.62
818.827	15644.62
819.079	15810.62
819.332	16226.62
819.585	16282.62
819.838	16640.62
820.09	16658.62
820.343	16727.62
820.595	16816.62
820.848	16861.62
821.1	17092.62
821.353	17069.62
821.605	17087.62
821.857	17021.62
822.11	16936.62
822.362	16950.62
822.614	16791.62
822.866	17117.62
823.118	16955.62
823.37	17083.62
823.622	17213.62
823.874	17275.62
824.126	17289.62
824.378	17335.62
824.63	17466.62
824.882	17418.62
825.134	17450.62
825.385	17364.62
825.637	17336.62
825.888	17324.62
826.14	17315.62
826.392	17211.62
826.643	17073.62
826.895	17215.62
827.146	16988.62
827.397	17033.62
827.649	17039.62
827.9	17008.62
828.151	17043.62
828.402	17160.62
828.653	17195.62
828.905	17247.62
829.156	17300.62
829.407	17287.62
829.658	17377.62
829.909	17472.62
830.159	17455.62
830.41	17366.62
830.661	17335.62
830.912	17185.62
831.162	17253.62
831.413	17177.62
831.664	17260.62
831.914	17220.62
832.165	17118.62
832.415	17172.62
832.666	17226.62
832.916	17175.62
833.167	17150.62
833.417	17266.62
833.667	17185.62
833.917	17090.62
834.168	17161.62
834.418	17140.62
834.668	17003.62
834.918	16880.62
835.168	16843.62
835.418	16833.62
835.668	16857.62
835.918	16732.62
836.167	16737.62
836.417	16631.62
836.667	16683.62
836.917	16719.62
837.166	16545.62
837.416	16797.62
837.666	16836.62
837.915	16721.62
838.165	16683.62
838.414	16678.62
838.663	16535.62
838.913	16673.62
839.162	16641.62
839.411	16731.62
839.661	16541.62
839.91	16489.62
840.159	16564.62
840.408	16657.62
840.657	16631.62
840.906	16680.62
841.155	16709.62
841.404	16719.62
841.653	16711.62
841.902	16762.62
842.15	16843.62
842.399	16834.62
842.648	16800.62
842.897	16695.62
843.145	16460.62
843.394	16518.62
843.642	16442.62
843.891	16368.62
844.139	16307.62
844.388	16174.62
844.636	16181.62
844.884	16155.62
845.133	16071.62
845.381	16222.62
845.629	16262.62
845.877	16207.62
846.125	16153.62
846.373	16200.62
846.621	16007.62
846.869	16081.62
847.117	15950.62
847.365	15901.62
847.613	15791.62
847.861	15834.62
848.108	15846.62
848.356	15751.62
848.604	15771.62
848.851	15840.62
849.099	15948.62
849.346	15898.62
849.594	16068.62
849.841	16080.62
850.089	16176.62
850.336	16170.62
850.583	16270.62
850.831	16242.62
851.078	16285.62
851.325	16304.62
851.572	16450.62
851.819	16281.62
852.066	15751.62
852.313	15409.62
852.56	15291.62
852.807	15245.62
853.054	15240.62
853.301	15254.62
853.548	15303.62
853.794	15526.62
854.041	15467.62
854.288	15527.62
854.534	15741.62
854.781	15782.62
855.028	15609.62
855.274	15574.62
855.52	15571.62
855.767	15454.62
856.013	15447.62
856.26	15893.62
856.506	15388.62
856.752	15435.62
856.998	15389.62
857.244	15384.62
857.49	15550.62
857.736	15603.62
857.982	15648.62
858.228	15470.62
858.474	15448.62
858.72	15349.62
858.966	15099.62
859.212	14922.62
859.458	14742.62
859.703	14658.62
859.949	14466.62
860.195	14412.62
860.44	14391.62
860.686	14347.62
860.931	14433.62
861.177	14274.62
861.422	14187.62
861.667	14045.62
861.913	14056.62
862.158	14070.62
862.403	14145.62
862.648	14239.62
862.893	14350.62
863.138	14272.62
863.384	14206.62
863.629	14191.62
863.873	14188.62
864.118	14225.62
864.363	14094.62
864.608	14139.62
864.853	14086.62
865.098	13964.62
865.342	13919.62
865.587	13773.62
865.832	13869.62
866.076	13871.62
866.321	13786.62
866.565	13797.62
866.81	13741.62
867.054	13730.62
867.298	13679.62
867.543	13643.62
867.787	13764.62
868.031	13719.62
868.275	13567.62
868.519	13626.62
868.764	13645.62
869.008	13518.62
869.252	13743.62
869.496	13624.62
869.739	13708.62
869.983	13704.62
870.227	13715.62
870.471	13681.62
870.715	13843.62
870.958	13873.62
871.202	13887.62
871.446	13972.62
871.689	13889.62
871.933	13858.62
872.176	13865.62
872.42	13867.62
872.663	13894.62
872.906	13867.62
873.15	13809.62
873.393	13741.62
873.636	13843.62
873.879	13683.62
874.122	13584.62
874.366	13373.62
874.609	13203.62
874.852	13046.62
875.095	13162.62
875.337	12904.62
875.58	12866.62
875.823	12858.62
876.066	12939.62
876.309	12837.62
876.551	12701.62
876.794	12611.62
877.037	12650.62
877.279	12603.62
877.522	12548.62
877.764	12605.62
878.007	12507.62
878.249	12567.62
878.491	12401.62
878.734	12429.62
878.976	12428.62
879.218	12390.62
879.46	12317.62
879.702	12243.62
879.945	12113.62
880.187	11921.62
880.429	11964.62
880.671	11842.62
880.912	11948.62
881.154	11858.62
881.396	11766.62
881.638	11827.62
881.88	11815.62
882.121	11784.62
882.363	11838.62
882.605	11866.62
882.846	11827.62
883.088	11890.62
883.329	11803.62
883.571	11839.62
883.812	12110.62
884.053	12338.62
884.295	12655.62
884.536	12914.62
884.777	12830.62
885.018	12723.62
885.259	12774.62
885.5	12609.62
885.742	12826.62
885.982	12599.62
886.223	12434.62
886.464	12264.62
886.705	12095.62
886.946	11985.62
887.187	11751.62
887.428	11565.62
887.668	11380.62
887.909	11249.62
888.15	11131.62
888.39	11070.62
888.631	10977.62
888.871	10727.62
889.111	10763.62
889.352	10658.62
889.592	10573.62
889.833	10423.62
890.073	10445.62
890.313	10333.62
890.553	10250.62
890.793	10302.62
891.033	10263.62
891.273	10151.62
891.513	10183.62
891.753	10153.62
891.993	10074.62
892.233	10123.62
892.473	10178.62
892.713	10183.62
892.952	10177.62
893.192	10193.62
893.432	10128.62
893.671	10182.62
893.911	10052.62
894.15	10157.62
894.39	9990.62
894.629	9971.62
894.869	9950.62
895.108	9906.62
895.347	9818.62
895.587	9832.62
895.826	9811.62
896.065	9757.62
896.304	9833.62
896.543	9805.62
896.782	9707.62
897.021	9751.62
897.26	9789.62
897.499	9813.62
897.738	9801.62
897.977	9743.62
898.216	9630.62
898.454	9574.62
898.693	9518.62
898.932	9527.62
899.17	9444.62
899.409	9470.62
899.647	9392.62
899.886	9390.62
900.124	9446.62
900.363	9492.62
900.601	9568.62
900.839	9564.62
901.078	9719.62
901.316	9737.62
901.554	9774.62
901.792	9904.62
902.03	9908.62
902.268	9961.62
902.506	9928.62
902.744	9760.62
902.982	9723.62
903.22	9597.62
903.458	9336.62
903.695	9235.62
903.933	9023.62
904.171	8884.62
904.409	8740.62
904.646	8703.62
904.884	8454.62
905.121	8448.62
905.359	8287.62
905.596	8256.62
905.833	8136.62
906.071	8090.62
906.308	8104.62
906.545	8092.62
906.783	8027.62
907.02	7970.62
907.257	7982.62
907.494	7936.62
907.731	7950.62
907.968	7906.62
908.205	7841.62
908.442	7836.62
908.679	7816.62
908.915	7671.62
909.152	7686.62
909.389	7527.62
909.626	7524.62
909.862	7480.62
910.099	7445.62
910.335	7482.62
910.572	7330.62
910.808	7361.62
911.045	7370.62
911.281	7280.62
911.518	7326.62
911.754	7216.62
911.99	7196.62
912.226	7123.62
912.463	7071.62
912.699	7045.62
912.935	6970.62
913.171	6955.62
913.407	6860.62
913.643	6912.62
913.879	6835.62
914.114	6756.62
914.35	6660.62
914.586	6579.62
914.822	6615.62
915.057	6657.62
915.293	6492.62
915.529	6510.62
915.764	6539.62
916	6468.62
916.235	6460.62
916.471	6503.62
916.706	6409.62
916.941	6373.62
917.177	6413.62
917.412	6464.62
917.647	6373.62
917.882	6329.62
918.117	6413.62
918.352	6335.62
918.588	6386.62
918.823	6323.62
919.057	6248.62
919.292	6110.62
919.527	6151.62
919.762	6089.62
919.997	6060.62
920.232	5944.62
920.466	6015.62
920.701	5837.62
920.935	5871.62
921.17	5802.62
921.405	5767.62
921.639	5827.62
921.873	5741.62
922.108	5732.62
922.342	5715.62
922.576	5690.62
922.811	5685.62
923.045	5705.62
923.279	5659.62
923.513	5559.62
923.747	5638.62
923.981	5539.62
924.215	5521.62
924.449	5498.62
924.683	5483.62
924.917	5395.62
925.151	5448.62
925.385	5496.62
925.618	5437.62
925.852	5349.62
926.086	5338.62
926.319	5338.62
926.553	5379.62
926.786	5361.62
927.02	5379.62
927.253	5399.62
927.486	5371.62
927.72	5344.62
927.953	5361.62
928.186	5295.62
928.42	5309.62
928.653	5253.62
928.886	5202.62
929.119	5243.62
929.352	5206.62
929.585	5198.62
929.818	5169.62
930.051	5156.62
930.284	5092.62
930.516	5004.62
930.749	4999.62
930.982	4999.62
931.215	5004.62
931.447	4889.62
931.68	4951.62
931.912	4893.62
932.145	4906.62
932.377	4888.62
932.61	5041.62
932.842	4833.62
933.074	4905.62
933.307	4816.62
933.539	4926.62
933.771	4971.62
934.003	4875.62
934.236	4993.62
934.468	4919.62
934.7	4852.62
934.932	4811.62
935.164	4808.62
935.395	4809.62
935.627	4827.62
935.859	4836.62
936.091	4798.62
936.323	4834.62
936.554	4792.62
936.786	4775.62
937.017	4679.62
937.249	4756.62
937.481	4664.62
937.712	4719.62
937.943	4712.62
938.175	4667.62
938.406	4705.62
938.637	4716.62
938.869	4635.62
939.1	4719.62
939.331	4632.62
939.562	4652.62
939.793	4612.62
940.024	4680.62
940.255	4633.62
940.486	4578.62
940.717	4560.62
940.948	4547.62
941.179	4484.62
941.409	4524.62
941.64	4515.62
941.871	4520.62
942.102	4499.62
942.332	4468.62
942.563	4532.62
942.793	4507.62
943.024	4434.62
943.254	4520.62
943.484	4494.62
943.715	4538.62
943.945	4551.62
944.175	4423.62
944.405	4391.62
944.636	4410.62
944.866	4458.62
945.096	4468.62
945.326	4375.62
945.556	4452.62
945.786	4470.62
946.016	4399.62
946.245	4355.62
946.475	4306.62
946.705	4295.62
946.935	4275.62
947.164	4299.62
947.394	4251.62
947.624	4219.62
947.853	4220.62
948.083	4227.62
948.312	4159.62
948.542	4130.62
948.771	4138.62
949	4097.62
949.23	4138.62
949.459	4138.62
949.688	4195.62
949.917	4129.62
950.146	4139.62
950.375	4179.62
950.604	4049.62
950.833	4134.62
951.062	4157.62
951.291	4103.62
951.52	4062.62
951.749	4058.62
951.978	4077.62
952.206	4050.62
952.435	3999.62
952.664	4053.62
952.892	4064.62
953.121	4003.62
953.349	4088.62
953.578	4015.62
953.806	3980.62
954.035	3905.62
954.263	3952.62
954.491	3872.62
954.719	3934.62
954.948	3881.62
955.176	3892.62
955.404	3826.62
955.632	3846.62
955.86	3862.62
956.088	3786.62
956.316	3812.62
956.544	3822.62
956.772	3748.62
956.999	3742.62
957.227	3822.62
957.455	3677.62
957.683	3690.62
957.91	3664.62
958.138	3632.62
958.365	3649.62
958.593	3640.62
958.82	3587.62
959.048	3635.62
959.275	3618.62
959.502	3600.62
959.73	3551.62
959.957	3559.62
960.184	3598.62
960.411	3588.62
960.638	3613.62
960.865	3511.62
961.092	3579.62
961.319	3468.62
961.546	3599.62
961.773	3565.62
962	3527.62
962.227	3584.62
962.454	3545.62
962.68	3453.62
962.907	3485.62
963.134	3474.62
963.36	3457.62
963.587	3450.62
963.813	3410.62
964.04	3419.62
964.266	3339.62
964.493	3426.62
964.719	3336.62
964.945	3402.62
965.171	3296.62
965.398	3364.62
965.624	3335.62
965.85	3242.62
966.076	3257.62
966.302	3295.62
966.528	3252.62
966.754	3293.62
966.98	3257.62
967.206	3252.62
967.431	3168.62
967.657	3254.62
967.883	3223.62
968.109	3207.62
968.334	3114.62
968.56	3117.62
968.785	3144.62
969.011	3079.62
969.236	3139.62
969.462	3077.62
969.687	3136.62
969.912	3115.62
970.138	3136.62
970.363	3071.62
970.588	3145.62
970.813	3050.62
971.038	3063.62
971.263	3045.62
971.488	3063.62
971.713	3109.62
971.938	3062.62
972.163	2957.62
972.388	2977.62
972.613	2938.62
972.838	2958.62
973.062	2980.62
973.287	2969.62
973.512	2857.62
973.736	2939.62
973.961	2890.62
974.185	2895.62
974.41	2888.62
974.634	2794.62
974.858	2812.62
975.083	2844.62
975.307	2870.62
975.531	2747.62
975.755	2737.62
975.98	2729.62
976.204	2702.62
976.428	2719.62
976.652	2669.62
976.876	2683.62
977.1	2710.62
977.324	2665.62
977.547	2681.62
977.771	2721.62
977.995	2653.62
978.219	2614.62
978.442	2739.62
978.666	2647.62
978.89	2623.62
979.113	2646.62
979.337	2603.62
979.56	2590.62
979.783	2671.62
980.007	2580.62
980.23	2540.62
980.453	2545.62
980.677	2560.62
980.9	2576.62
981.123	2423.62
981.346	2565.62
981.569	2529.62
981.792	2548.62
982.015	2528.62
982.238	2470.62
982.461	2480.62
982.684	2431.62
982.907	2438.62
983.129	2414.62
983.352	2473.62
983.575	2469.62
983.797	2439.62
984.02	2394.62
984.242	2395.62
984.465	2376.62
984.687	2411.62
984.91	2411.62
985.132	2383.62
985.354	2389.62
985.577	2386.62
985.799	2382.62
986.021	2273.62
986.243	2325.62
986.465	2328.62
986.687	2334.62
986.909	2374.62
987.131	2310.62
987.353	2292.62
987.575	2308.62
987.797	2263.62
988.019	2199.62
988.241	2307.62
988.462	2230.62
988.684	2283.62
988.906	2298.62
989.127	2331.62
989.349	2171.62
989.57	2224.62
989.792	2249.62
990.013	2277.62
990.234	2305.62
990.456	2292.62
990.677	2263.62
990.898	2212.62
991.119	2195.62
991.341	2243.62
991.562	2189.62
991.783	2232.62
992.004	2112.62
992.225	2094.62
992.446	2138.62
992.667	2058.62
992.887	2138.62
993.108	2032.62
993.329	2168.62
993.55	2083.62
993.77	2055.62
993.991	2046.62
994.212	2062.62
994.432	2065.62
994.653	2062.62
994.873	2057.62
995.093	1968.62
995.314	2005.62
995.534	2049.62
995.754	2096.62
995.975	2075.62
996.195	1976.62
996.415	2038.62
996.635	2001.62
996.855	2013.62
997.075	1984.62
997.295	2006.62
997.515	1979.62
997.735	2022.62
997.955	2005.62
998.174	1980.62
998.394	1970.62
998.614	2000.62
998.834	1939.62
999.053	2006.62
999.273	1984.62
999.492	2016.62
999.712	1950.62
999.931	1918.62
1000.151	1976.62
1000.37	1916.62
1000.589	1976.62
1000.809	1879.62
1001.028	2001.62
1001.247	1979.62
1001.466	1826.62
1001.685	1967.62
1001.904	1881.62
1002.123	1891.62
1002.342	1852.62
1002.561	1879.62
1002.78	1891.62
1002.999	1926.62
1003.218	1870.62
1003.436	1833.62
1003.655	1880.62
1003.874	1827.62
1004.092	1810.62
1004.311	1843.62
1004.53	1840.62
1004.748	1900.62
1004.966	1849.62
1005.185	1890.62
1005.403	1889.62
1005.622	1825.62
1005.84	1921.62
1006.058	1822.62
1006.276	1814.62
1006.494	2334.62
1006.712	1855.62
1006.931	1900.62
1007.149	1822.62
1007.367	1828.62
1007.584	1878.62
1007.802	1911.62
1008.02	1882.62
1008.238	1954.62
1008.456	1966.62
1008.673	1838.62
1008.891	1961.62
1009.109	1931.62
1009.326	2025.62
1009.544	2148.62
1009.761	2054.62
1009.979	2150.62
1010.196	2243.62
1010.413	2401.62
1010.631	2476.62
1010.848	2560.62
1011.065	2589.62
1011.282	2525.62
1011.5	2434.62
1011.717	2594.62
1011.934	2502.62
1012.151	2558.62
1012.368	2519.62
1012.585	2504.62
1012.801	2522.62
1013.018	2489.62
1013.235	2494.62
1013.452	2513.62
1013.669	2544.62
1013.885	2521.62
1014.102	2563.62
1014.318	2541.62
1014.535	2488.62
1014.751	2509.62
1014.968	2540.62
1015.184	2520.62
1015.401	2433.62
1015.617	2452.62
1015.833	2438.62
1016.049	2402.62
1016.266	2374.62
1016.482	2361.62
1016.698	2291.62
1016.914	2344.62
1017.13	2281.62
1017.346	2313.62
1017.562	2341.62
1017.778	2242.62
1017.993	2223.62
1018.209	2314.62
1018.425	2277.62
1018.641	2266.62
1018.856	2230.62
1019.072	2243.62
1019.288	2301.62
1019.503	2236.62
1019.719	2139.62
1019.934	2145.62
1020.149	2235.62
1020.365	2181.62
1020.58	2098.62
1020.795	2104.62
1021.011	2029.62
1021.226	1966.62
1021.441	1971.62
1021.656	1870.62
1021.871	1774.62
1022.086	1776.62
1022.301	1752.62
1022.516	1727.62
1022.731	1778.62
1022.946	1663.62
1023.16	1664.62
1023.375	1622.62
1023.59	1572.62
1023.804	1526.62
1024.019	1604.62
1024.234	1451.62
1024.448	1490.62
1024.663	1358.62
1024.877	1401.62
1025.092	1394.62
1025.306	1385.62
1025.52	1279.62
1025.734	1340.62
1025.949	1254.62
1026.163	1231.62
1026.377	1158.62
1026.591	1203.62
1026.805	1125.62
1027.019	1098.62
1027.233	1074.62
1027.447	1011.62
1027.661	1103.62
1027.875	1057.62
1028.088	1023.62
1028.302	953.62
1028.516	952.62
1028.73	912.62
1028.943	884.62
1029.157	848.62
1029.37	814.62
1029.584	-0.38
1029.797	0.62
1030.011	-1.38
1030.224	-3.38
