Data from QEP037381__135__15-16-12-882.txt Node

Date: Wed Dec 21 15:16:12 EST 2022
User: dcclab
Spectrometer: QEP03738
Trigger mode: 4
Integration Time (sec): 1.000000E1
Scans to average: 1
Electric dark correction enabled: true
Nonlinearity correction enabled: false
Boxcar width: 0
XAxis mode: Wavelengths
Number of Pixels in Spectrum: 1044
>>>>>Begin Spectral Data<<<<<
784.041	12.62
784.3	-1.38
784.558	-2.38
784.817	-2.38
785.075	89253.62
785.334	14633.62
785.592	6721.62
785.851	4607.62
786.109	3496.62
786.368	2693.62
786.626	2168.62
786.884	1817.62
787.143	1532.62
787.401	1265.62
787.659	1157.62
787.917	1020.62
788.175	936.62
788.433	827.62
788.691	750.62
788.949	704.62
789.207	687.62
789.465	584.62
789.723	576.62
789.98	538.62
790.238	566.62
790.496	546.62
790.753	520.62
791.011	567.62
791.268	494.62
791.526	487.62
791.783	499.62
792.041	508.62
792.298	406.62
792.556	459.62
792.813	460.62
793.07	427.62
793.327	422.62
793.584	508.62
793.841	432.62
794.099	457.62
794.356	504.62
794.613	415.62
794.869	452.62
795.126	396.62
795.383	380.62
795.64	403.62
795.897	364.62
796.153	419.62
796.41	417.62
796.667	386.62
796.923	404.62
797.18	404.62
797.436	429.62
797.693	385.62
797.949	452.62
798.206	473.62
798.462	379.62
798.718	437.62
798.974	425.62
799.231	453.62
799.487	453.62
799.743	436.62
799.999	476.62
800.255	475.62
800.511	445.62
800.767	494.62
801.023	483.62
801.279	494.62
801.534	520.62
801.79	565.62
802.046	580.62
802.302	674.62
802.557	718.62
802.813	907.62
803.068	1046.62
803.324	1445.62
803.579	1921.62
803.835	2664.62
804.09	3644.62
804.345	4767.62
804.601	5978.62
804.856	7235.62
805.111	8386.62
805.366	9267.62
805.621	9764.62
805.876	10222.62
806.131	10479.62
806.386	10746.62
806.641	10850.62
806.896	11039.62
807.151	11286.62
807.406	11472.62
807.661	11701.62
807.915	11851.62
808.17	12163.62
808.425	12339.62
808.679	12431.62
808.934	12676.62
809.188	12795.62
809.443	13021.62
809.697	13103.62
809.951	13228.62
810.206	13325.62
810.46	13483.62
810.714	13688.62
810.968	13779.62
811.223	13836.62
811.477	13900.62
811.731	14133.62
811.985	14182.62
812.239	14223.62
812.493	14441.62
812.747	14492.62
813	14469.62
813.254	14612.62
813.508	14701.62
813.762	14720.62
814.015	14869.62
814.269	14960.62
814.522	15188.62
814.776	15331.62
815.03	15615.62
815.283	15803.62
815.536	16279.62
815.79	16418.62
816.043	16611.62
816.296	16854.62
816.55	17041.62
816.803	17294.62
817.056	17639.62
817.309	17742.62
817.562	17993.62
817.815	18239.62
818.068	18257.62
818.321	18593.62
818.574	18883.62
818.827	19152.62
819.079	19420.62
819.332	19856.62
819.585	19964.62
819.838	20329.62
820.09	20415.62
820.343	20686.62
820.595	20714.62
820.848	20954.62
821.1	20881.62
821.353	20947.62
821.605	20969.62
821.857	20974.62
822.11	20940.62
822.362	20870.62
822.614	20899.62
822.866	20982.62
823.118	21003.62
823.37	21046.62
823.622	21085.62
823.874	21346.62
824.126	21415.62
824.378	21341.62
824.63	21480.62
824.882	21461.62
825.134	21485.62
825.385	21476.62
825.637	21436.62
825.888	21511.62
826.14	21420.62
826.392	21392.62
826.643	21198.62
826.895	21205.62
827.146	21131.62
827.397	21175.62
827.649	21191.62
827.9	21273.62
828.151	21148.62
828.402	21228.62
828.653	21458.62
828.905	21452.62
829.156	21458.62
829.407	21468.62
829.658	21600.62
829.909	21585.62
830.159	21625.62
830.41	21573.62
830.661	21424.62
830.912	21130.62
831.162	21313.62
831.413	21339.62
831.664	21337.62
831.914	21222.62
832.165	21232.62
832.415	21233.62
832.666	21211.62
832.916	21382.62
833.167	21282.62
833.417	21353.62
833.667	21254.62
833.917	21163.62
834.168	21218.62
834.418	21243.62
834.668	21070.62
834.918	20973.62
835.168	20983.62
835.418	20853.62
835.668	20798.62
835.918	20842.62
836.167	20789.62
836.417	20727.62
836.667	20785.62
836.917	20702.62
837.166	20723.62
837.416	20785.62
837.666	20734.62
837.915	20798.62
838.165	20695.62
838.414	20693.62
838.663	20585.62
838.913	20790.62
839.162	20644.62
839.411	20624.62
839.661	20656.62
839.91	20540.62
840.159	20657.62
840.408	20578.62
840.657	20630.62
840.906	20545.62
841.155	20616.62
841.404	20609.62
841.653	20776.62
841.902	20661.62
842.15	20753.62
842.399	20811.62
842.648	20788.62
842.897	20782.62
843.145	20557.62
843.394	20573.62
843.642	20462.62
843.891	20499.62
844.139	20228.62
844.388	20161.62
844.636	20107.62
844.884	20115.62
845.133	20037.62
845.381	20067.62
845.629	20142.62
845.877	20142.62
846.125	20099.62
846.373	20126.62
846.621	20024.62
846.869	20020.62
847.117	19814.62
847.365	19721.62
847.613	19679.62
847.861	19742.62
848.108	19814.62
848.356	19661.62
848.604	19636.62
848.851	19702.62
849.099	19744.62
849.346	19748.62
849.594	19873.62
849.841	19944.62
850.089	19997.62
850.336	20246.62
850.583	20251.62
850.831	20182.62
851.078	20109.62
851.325	20195.62
851.572	20236.62
851.819	19973.62
852.066	19452.62
852.313	19217.62
852.56	19010.62
852.807	18968.62
853.054	18927.62
853.301	19037.62
853.548	19001.62
853.794	19234.62
854.041	19274.62
854.288	19294.62
854.534	19513.62
854.781	19414.62
855.028	19393.62
855.274	19367.62
855.52	19259.62
855.767	19103.62
856.013	19177.62
856.26	19516.62
856.506	18973.62
856.752	18956.62
856.998	18988.62
857.244	19098.62
857.49	19120.62
857.736	19220.62
857.982	19275.62
858.228	19205.62
858.474	19074.62
858.72	18982.62
858.966	18769.62
859.212	18603.62
859.458	18469.62
859.703	18229.62
859.949	18053.62
860.195	17986.62
860.44	17946.62
860.686	17908.62
860.931	17867.62
861.177	17703.62
861.422	17711.62
861.667	17636.62
861.913	17630.62
862.158	17679.62
862.403	17805.62
862.648	18001.62
862.893	17869.62
863.138	17845.62
863.384	17800.62
863.629	17907.62
863.873	17932.62
864.118	17717.62
864.363	17748.62
864.608	17730.62
864.853	17640.62
865.098	17509.62
865.342	17433.62
865.587	17431.62
865.832	17401.62
866.076	17422.62
866.321	17249.62
866.565	17364.62
866.81	17207.62
867.054	17249.62
867.298	17219.62
867.543	17258.62
867.787	17187.62
868.031	17164.62
868.275	17036.62
868.519	17126.62
868.764	17120.62
869.008	17113.62
869.252	17186.62
869.496	17014.62
869.739	16888.62
869.983	17142.62
870.227	17016.62
870.471	17075.62
870.715	17252.62
870.958	17174.62
871.202	17223.62
871.446	17308.62
871.689	17216.62
871.933	17313.62
872.176	17241.62
872.42	17156.62
872.663	17071.62
872.906	17169.62
873.15	17054.62
873.393	17026.62
873.636	17006.62
873.879	16852.62
874.122	16732.62
874.366	16420.62
874.609	16415.62
874.852	16317.62
875.095	16235.62
875.337	16176.62
875.58	16071.62
875.823	16018.62
876.066	15952.62
876.309	16049.62
876.551	15801.62
876.794	15776.62
877.037	15781.62
877.279	15811.62
877.522	15715.62
877.764	15775.62
878.007	15705.62
878.249	15795.62
878.491	15641.62
878.734	15651.62
878.976	15641.62
879.218	15635.62
879.46	15557.62
879.702	15370.62
879.945	15302.62
880.187	15158.62
880.429	15122.62
880.671	15031.62
880.912	15040.62
881.154	14897.62
881.396	14824.62
881.638	14939.62
881.88	14970.62
882.121	14882.62
882.363	14905.62
882.605	14913.62
882.846	14894.62
883.088	14995.62
883.329	14822.62
883.571	14777.62
883.812	15067.62
884.053	15183.62
884.295	15509.62
884.536	15699.62
884.777	15642.62
885.018	15556.62
885.259	15545.62
885.5	15435.62
885.742	15709.62
885.982	15381.62
886.223	15154.62
886.464	15084.62
886.705	14941.62
886.946	14887.62
887.187	14655.62
887.428	14433.62
887.668	14306.62
887.909	14072.62
888.15	14046.62
888.39	13859.62
888.631	13889.62
888.871	13726.62
889.111	13666.62
889.352	13485.62
889.592	13419.62
889.833	13315.62
890.073	13224.62
890.313	13252.62
890.553	12993.62
890.793	13074.62
891.033	13019.62
891.273	12899.62
891.513	12882.62
891.753	12947.62
891.993	12873.62
892.233	12913.62
892.473	13042.62
892.713	12960.62
892.952	12965.62
893.192	12988.62
893.432	12911.62
893.671	13012.62
893.911	12848.62
894.15	12861.62
894.39	12733.62
894.629	12697.62
894.869	12601.62
895.108	12561.62
895.347	12542.62
895.587	12433.62
895.826	12418.62
896.065	12420.62
896.304	12386.62
896.543	12482.62
896.782	12310.62
897.021	12395.62
897.26	12397.62
897.499	12479.62
897.738	12313.62
897.977	12279.62
898.216	12230.62
898.454	12071.62
898.693	11984.62
898.932	12019.62
899.17	11891.62
899.409	11889.62
899.647	11917.62
899.886	11926.62
900.124	11835.62
900.363	11978.62
900.601	12007.62
900.839	11956.62
901.078	12101.62
901.316	12170.62
901.554	12168.62
901.792	12339.62
902.03	12312.62
902.268	12354.62
902.506	12295.62
902.744	12167.62
902.982	12136.62
903.22	11865.62
903.458	11766.62
903.695	11648.62
903.933	11375.62
904.171	11294.62
904.409	11157.62
904.646	10996.62
904.884	10748.62
905.121	10663.62
905.359	10584.62
905.596	10442.62
905.833	10402.62
906.071	10384.62
906.308	10316.62
906.545	10356.62
906.783	10197.62
907.02	10226.62
907.257	10261.62
907.494	10185.62
907.731	10103.62
907.968	10172.62
908.205	10049.62
908.442	9940.62
908.679	9947.62
908.915	9860.62
909.152	9832.62
909.389	9691.62
909.626	9692.62
909.862	9647.62
910.099	9609.62
910.335	9570.62
910.572	9450.62
910.808	9424.62
911.045	9413.62
911.281	9384.62
911.518	9364.62
911.754	9336.62
911.99	9320.62
912.226	9208.62
912.463	9114.62
912.699	9023.62
912.935	9052.62
913.171	9002.62
913.407	8842.62
913.643	8876.62
913.879	8780.62
914.114	8698.62
914.35	8534.62
914.586	8569.62
914.822	8394.62
915.057	8453.62
915.293	8341.62
915.529	8316.62
915.764	8413.62
916	8353.62
916.235	8329.62
916.471	8257.62
916.706	8224.62
916.941	8294.62
917.177	8213.62
917.412	8248.62
917.647	8250.62
917.882	8217.62
918.117	8242.62
918.352	8186.62
918.588	8156.62
918.823	8063.62
919.057	8020.62
919.292	7927.62
919.527	7887.62
919.762	7813.62
919.997	7798.62
920.232	7685.62
920.466	7715.62
920.701	7538.62
920.935	7514.62
921.17	7463.62
921.405	7434.62
921.639	7467.62
921.873	7443.62
922.108	7371.62
922.342	7402.62
922.576	7266.62
922.811	7236.62
923.045	7305.62
923.279	7299.62
923.513	7132.62
923.747	7259.62
923.981	7146.62
924.215	7103.62
924.449	7061.62
924.683	6952.62
924.917	6955.62
925.151	6918.62
925.385	7017.62
925.618	6937.62
925.852	6968.62
926.086	6861.62
926.319	6876.62
926.553	6913.62
926.786	6913.62
927.02	6856.62
927.253	6878.62
927.486	6887.62
927.72	6756.62
927.953	6910.62
928.186	6778.62
928.42	6839.62
928.653	6766.62
928.886	6701.62
929.119	6710.62
929.352	6660.62
929.585	6662.62
929.818	6581.62
930.051	6577.62
930.284	6519.62
930.516	6364.62
930.749	6421.62
930.982	6423.62
931.215	6341.62
931.447	6270.62
931.68	6278.62
931.912	6283.62
932.145	6274.62
932.377	6317.62
932.61	6369.62
932.842	6210.62
933.074	6276.62
933.307	6270.62
933.539	6317.62
933.771	6342.62
934.003	6245.62
934.236	6345.62
934.468	6345.62
934.7	6181.62
934.932	6265.62
935.164	6163.62
935.395	6157.62
935.627	6218.62
935.859	6162.62
936.091	6120.62
936.323	6166.62
936.554	6168.62
936.786	6098.62
937.017	6047.62
937.249	6022.62
937.481	5917.62
937.712	6042.62
937.943	6035.62
938.175	5992.62
938.406	5987.62
938.637	6005.62
938.869	5935.62
939.1	6023.62
939.331	5953.62
939.562	5931.62
939.793	5929.62
940.024	5913.62
940.255	5867.62
940.486	5799.62
940.717	5817.62
940.948	5813.62
941.179	5705.62
941.409	5714.62
941.64	5743.62
941.871	5794.62
942.102	5709.62
942.332	5744.62
942.563	5793.62
942.793	5767.62
943.024	5693.62
943.254	5743.62
943.484	5745.62
943.715	5780.62
943.945	5757.62
944.175	5662.62
944.405	5644.62
944.636	5656.62
944.866	5711.62
945.096	5681.62
945.326	5666.62
945.556	5728.62
945.786	5703.62
946.016	5580.62
946.245	5564.62
946.475	5561.62
946.705	5489.62
946.935	5483.62
947.164	5513.62
947.394	5384.62
947.624	5377.62
947.853	5414.62
948.083	5343.62
948.312	5326.62
948.542	5302.62
948.771	5261.62
949	5248.62
949.23	5244.62
949.459	5333.62
949.688	5369.62
949.917	5290.62
950.146	5233.62
950.375	5392.62
950.604	5200.62
950.833	5266.62
951.062	5287.62
951.291	5211.62
951.52	5217.62
951.749	5170.62
951.978	5119.62
952.206	5168.62
952.435	5088.62
952.664	5187.62
952.892	5178.62
953.121	5120.62
953.349	5145.62
953.578	5111.62
953.806	5069.62
954.035	5062.62
954.263	5014.62
954.491	4970.62
954.719	4970.62
954.948	4940.62
955.176	4893.62
955.404	4836.62
955.632	4916.62
955.86	4900.62
956.088	4835.62
956.316	4869.62
956.544	4862.62
956.772	4766.62
956.999	4732.62
957.227	4835.62
957.455	4707.62
957.683	4703.62
957.91	4682.62
958.138	4634.62
958.365	4630.62
958.593	4627.62
958.82	4562.62
959.048	4590.62
959.275	4607.62
959.502	4552.62
959.73	4508.62
959.957	4543.62
960.184	4625.62
960.411	4551.62
960.638	4535.62
960.865	4544.62
961.092	4597.62
961.319	4498.62
961.546	4511.62
961.773	4560.62
962	4470.62
962.227	4510.62
962.454	4478.62
962.68	4459.62
962.907	4405.62
963.134	4444.62
963.36	4428.62
963.587	4434.62
963.813	4327.62
964.04	4320.62
964.266	4274.62
964.493	4370.62
964.719	4264.62
964.945	4216.62
965.171	4152.62
965.398	4200.62
965.624	4259.62
965.85	4138.62
966.076	4134.62
966.302	4177.62
966.528	4106.62
966.754	4128.62
966.98	4129.62
967.206	4072.62
967.431	4001.62
967.657	4105.62
967.883	4088.62
968.109	4039.62
968.334	3988.62
968.56	3955.62
968.785	4032.62
969.011	3930.62
969.236	3972.62
969.462	3886.62
969.687	3917.62
969.912	3965.62
970.138	3935.62
970.363	3846.62
970.588	3906.62
970.813	3890.62
971.038	3860.62
971.263	3845.62
971.488	3868.62
971.713	3859.62
971.938	3849.62
972.163	3729.62
972.388	3782.62
972.613	3725.62
972.838	3754.62
973.062	3702.62
973.287	3727.62
973.512	3625.62
973.736	3693.62
973.961	3647.62
974.185	3618.62
974.41	3620.62
974.634	3568.62
974.858	3555.62
975.083	3552.62
975.307	3601.62
975.531	3488.62
975.755	3445.62
975.98	3493.62
976.204	3407.62
976.428	3395.62
976.652	3376.62
976.876	3386.62
977.1	3383.62
977.324	3328.62
977.547	3391.62
977.771	3405.62
977.995	3355.62
978.219	3299.62
978.442	3392.62
978.666	3332.62
978.89	3290.62
979.113	3300.62
979.337	3259.62
979.56	3243.62
979.783	3326.62
980.007	3234.62
980.23	3243.62
980.453	3208.62
980.677	3258.62
980.9	3213.62
981.123	3120.62
981.346	3186.62
981.569	3196.62
981.792	3168.62
982.015	3141.62
982.238	3120.62
982.461	3087.62
982.684	3037.62
982.907	3002.62
983.129	3004.62
983.352	3068.62
983.575	3052.62
983.797	3060.62
984.02	2963.62
984.242	2973.62
984.465	2969.62
984.687	2985.62
984.91	2984.62
985.132	2959.62
985.354	2991.62
985.577	2919.62
985.799	2918.62
986.021	2838.62
986.243	2867.62
986.465	2867.62
986.687	2911.62
986.909	2904.62
987.131	2887.62
987.353	2848.62
987.575	2884.62
987.797	2831.62
988.019	2734.62
988.241	2820.62
988.462	2795.62
988.684	2818.62
988.906	2818.62
989.127	2850.62
989.349	2731.62
989.57	2763.62
989.792	2758.62
990.013	2797.62
990.234	2775.62
990.456	2802.62
990.677	2782.62
990.898	2741.62
991.119	2694.62
991.341	2718.62
991.562	2638.62
991.783	2692.62
992.004	2664.62
992.225	2607.62
992.446	2629.62
992.667	2534.62
992.887	2612.62
993.108	2497.62
993.329	2616.62
993.55	2567.62
993.77	2520.62
993.991	2517.62
994.212	2544.62
994.432	2527.62
994.653	2513.62
994.873	2475.62
995.093	2376.62
995.314	2406.62
995.534	2474.62
995.754	2530.62
995.975	2490.62
996.195	2371.62
996.415	2427.62
996.635	2425.62
996.855	2430.62
997.075	2395.62
997.295	2393.62
997.515	2383.62
997.735	2454.62
997.955	2410.62
998.174	2407.62
998.394	2383.62
998.614	2409.62
998.834	2348.62
999.053	2419.62
999.273	2366.62
999.492	2423.62
999.712	2336.62
999.931	2305.62
1000.151	2341.62
1000.37	2284.62
1000.589	2363.62
1000.809	2280.62
1001.028	2372.62
1001.247	2312.62
1001.466	2192.62
1001.685	2323.62
1001.904	2250.62
1002.123	2236.62
1002.342	2216.62
1002.561	2164.62
1002.78	2198.62
1002.999	2270.62
1003.218	2216.62
1003.436	2186.62
1003.655	2192.62
1003.874	2147.62
1004.092	2152.62
1004.311	2215.62
1004.53	2162.62
1004.748	2250.62
1004.966	2128.62
1005.185	2240.62
1005.403	2196.62
1005.622	2139.62
1005.84	2242.62
1006.058	2183.62
1006.276	2168.62
1006.494	2618.62
1006.712	2143.62
1006.931	2190.62
1007.149	2080.62
1007.367	2131.62
1007.584	2187.62
1007.802	2194.62
1008.02	2149.62
1008.238	2252.62
1008.456	2293.62
1008.673	2106.62
1008.891	2261.62
1009.109	2227.62
1009.326	2287.62
1009.544	2397.62
1009.761	2310.62
1009.979	2416.62
1010.196	2481.62
1010.413	2603.62
1010.631	2708.62
1010.848	2756.62
1011.065	2803.62
1011.282	2731.62
1011.5	2670.62
1011.717	2773.62
1011.934	2727.62
1012.151	2748.62
1012.368	2723.62
1012.585	2653.62
1012.801	2705.62
1013.018	2705.62
1013.235	2671.62
1013.452	2680.62
1013.669	2678.62
1013.885	2668.62
1014.102	2757.62
1014.318	2755.62
1014.535	2655.62
1014.751	2738.62
1014.968	2703.62
1015.184	2706.62
1015.401	2639.62
1015.617	2624.62
1015.833	2576.62
1016.049	2551.62
1016.266	2539.62
1016.482	2542.62
1016.698	2483.62
1016.914	2540.62
1017.13	2483.62
1017.346	2466.62
1017.562	2509.62
1017.778	2477.62
1017.993	2401.62
1018.209	2476.62
1018.425	2439.62
1018.641	2456.62
1018.856	2400.62
1019.072	2443.62
1019.288	2498.62
1019.503	2439.62
1019.719	2319.62
1019.934	2343.62
1020.149	2418.62
1020.365	2325.62
1020.58	2262.62
1020.795	2258.62
1021.011	2221.62
1021.226	2134.62
1021.441	2132.62
1021.656	2029.62
1021.871	1969.62
1022.086	1961.62
1022.301	1932.62
1022.516	1887.62
1022.731	1937.62
1022.946	1847.62
1023.16	1807.62
1023.375	1782.62
1023.59	1730.62
1023.804	1719.62
1024.019	1760.62
1024.234	1635.62
1024.448	1664.62
1024.663	1566.62
1024.877	1540.62
1025.092	1561.62
1025.306	1521.62
1025.52	1413.62
1025.734	1501.62
1025.949	1420.62
1026.163	1359.62
1026.377	1289.62
1026.591	1346.62
1026.805	1237.62
1027.019	1236.62
1027.233	1193.62
1027.447	1140.62
1027.661	1247.62
1027.875	1172.62
1028.088	1151.62
1028.302	1088.62
1028.516	1081.62
1028.73	1049.62
1028.943	1021.62
1029.157	938.62
1029.37	906.62
1029.584	0.62
1029.797	-3.38
1030.011	-2.38
1030.224	-1.38
