Data from QEP037381__129__15-15-12-882.txt Node

Date: Wed Dec 21 15:15:12 EST 2022
User: dcclab
Spectrometer: QEP03738
Trigger mode: 4
Integration Time (sec): 1.000000E1
Scans to average: 1
Electric dark correction enabled: true
Nonlinearity correction enabled: false
Boxcar width: 0
XAxis mode: Wavelengths
Number of Pixels in Spectrum: 1044
>>>>>Begin Spectral Data<<<<<
784.041	13.75
784.3	-0.25
784.558	-2.25
784.817	-4.25
785.075	88458.75
785.334	14784.75
785.592	6850.75
785.851	4807.75
786.109	3609.75
786.368	2864.75
786.626	2293.75
786.884	1901.75
787.143	1635.75
787.401	1329.75
787.659	1207.75
787.917	1047.75
788.175	960.75
788.433	851.75
788.691	775.75
788.949	718.75
789.207	696.75
789.465	599.75
789.723	574.75
789.98	521.75
790.238	566.75
790.496	547.75
790.753	501.75
791.011	572.75
791.268	511.75
791.526	487.75
791.783	477.75
792.041	479.75
792.298	407.75
792.556	472.75
792.813	463.75
793.07	431.75
793.327	424.75
793.584	496.75
793.841	419.75
794.099	427.75
794.356	496.75
794.613	405.75
794.869	429.75
795.126	396.75
795.383	389.75
795.64	407.75
795.897	349.75
796.153	428.75
796.41	402.75
796.667	379.75
796.923	384.75
797.18	398.75
797.436	421.75
797.693	389.75
797.949	433.75
798.206	463.75
798.462	384.75
798.718	437.75
798.974	414.75
799.231	449.75
799.487	437.75
799.743	453.75
799.999	466.75
800.255	452.75
800.511	440.75
800.767	491.75
801.023	462.75
801.279	489.75
801.534	525.75
801.79	561.75
802.046	553.75
802.302	665.75
802.557	709.75
802.813	869.75
803.068	1021.75
803.324	1368.75
803.579	1807.75
803.835	2442.75
804.09	3289.75
804.345	4232.75
804.601	5305.75
804.856	6410.75
805.111	7431.75
805.366	8224.75
805.621	8758.75
805.876	9211.75
806.131	9445.75
806.386	9629.75
806.641	9819.75
806.896	9969.75
807.151	10271.75
807.406	10342.75
807.661	10612.75
807.915	10779.75
808.17	10920.75
808.425	11064.75
808.679	11153.75
808.934	11372.75
809.188	11466.75
809.443	11601.75
809.697	11768.75
809.951	11812.75
810.206	12001.75
810.46	12086.75
810.714	12182.75
810.968	12384.75
811.223	12333.75
811.477	12589.75
811.731	12569.75
811.985	12702.75
812.239	12752.75
812.493	12799.75
812.747	12925.75
813	12875.75
813.254	12941.75
813.508	13082.75
813.762	13093.75
814.015	13239.75
814.269	13287.75
814.522	13501.75
814.776	13598.75
815.03	13803.75
815.283	14070.75
815.536	14358.75
815.79	14446.75
816.043	14773.75
816.296	14899.75
816.55	15166.75
816.803	15393.75
817.056	15566.75
817.309	15725.75
817.562	15967.75
817.815	16141.75
818.068	16144.75
818.321	16461.75
818.574	16651.75
818.827	16750.75
819.079	17049.75
819.332	17457.75
819.585	17545.75
819.838	17806.75
820.09	17845.75
820.343	18080.75
820.595	18139.75
820.848	18284.75
821.1	18340.75
821.353	18221.75
821.605	18301.75
821.857	18362.75
822.11	18260.75
822.362	18313.75
822.614	18168.75
822.866	18184.75
823.118	18207.75
823.37	18295.75
823.622	18307.75
823.874	18490.75
824.126	18540.75
824.378	18543.75
824.63	18596.75
824.882	18611.75
825.134	18643.75
825.385	18612.75
825.637	18448.75
825.888	18472.75
826.14	18496.75
826.392	18434.75
826.643	18285.75
826.895	18341.75
827.146	18219.75
827.397	18196.75
827.649	18206.75
827.9	18114.75
828.151	18186.75
828.402	18185.75
828.653	18276.75
828.905	18365.75
829.156	18477.75
829.407	18308.75
829.658	18428.75
829.909	18733.75
830.159	18571.75
830.41	18491.75
830.661	18362.75
830.912	18370.75
831.162	18283.75
831.413	18244.75
831.664	18259.75
831.914	18166.75
832.165	18159.75
832.415	18243.75
832.666	18130.75
832.916	18247.75
833.167	18191.75
833.417	18186.75
833.667	18171.75
833.917	18180.75
834.168	18203.75
834.418	18174.75
834.668	17993.75
834.918	17902.75
835.168	17867.75
835.418	17846.75
835.668	17740.75
835.918	17744.75
836.167	17747.75
836.417	17628.75
836.667	17611.75
836.917	17657.75
837.166	17676.75
837.416	17616.75
837.666	17701.75
837.915	17583.75
838.165	17671.75
838.414	17547.75
838.663	17524.75
838.913	17570.75
839.162	17628.75
839.411	17611.75
839.661	17530.75
839.91	17475.75
840.159	17461.75
840.408	17545.75
840.657	17565.75
840.906	17543.75
841.155	17606.75
841.404	17517.75
841.653	17629.75
841.902	17572.75
842.15	17806.75
842.399	17723.75
842.648	17757.75
842.897	17597.75
843.145	17361.75
843.394	17313.75
843.642	17298.75
843.891	17228.75
844.139	17105.75
844.388	17040.75
844.636	16946.75
844.884	16888.75
845.133	16995.75
845.381	16983.75
845.629	16953.75
845.877	17030.75
846.125	16901.75
846.373	17029.75
846.621	16891.75
846.869	16955.75
847.117	16771.75
847.365	16654.75
847.613	16539.75
847.861	16503.75
848.108	16654.75
848.356	16607.75
848.604	16409.75
848.851	16581.75
849.099	16532.75
849.346	16726.75
849.594	16760.75
849.841	16855.75
850.089	16928.75
850.336	17007.75
850.583	17089.75
850.831	17062.75
851.078	16985.75
851.325	16995.75
851.572	17109.75
851.819	16908.75
852.066	16443.75
852.313	16200.75
852.56	15979.75
852.807	15910.75
853.054	15774.75
853.301	15922.75
853.548	15975.75
853.794	16177.75
854.041	16188.75
854.288	16191.75
854.534	16378.75
854.781	16314.75
855.028	16161.75
855.274	16226.75
855.52	16224.75
855.767	16155.75
856.013	16130.75
856.26	16544.75
856.506	15932.75
856.752	15973.75
856.998	16019.75
857.244	16063.75
857.49	16166.75
857.736	16212.75
857.982	16156.75
858.228	16036.75
858.474	15974.75
858.72	15804.75
858.966	15674.75
859.212	15558.75
859.458	15378.75
859.703	15182.75
859.949	15029.75
860.195	15001.75
860.44	14988.75
860.686	14915.75
860.931	14979.75
861.177	14733.75
861.422	14839.75
861.667	14626.75
861.913	14594.75
862.158	14688.75
862.403	14675.75
862.648	14791.75
862.893	14759.75
863.138	14843.75
863.384	14738.75
863.629	14738.75
863.873	14708.75
864.118	14745.75
864.363	14636.75
864.608	14617.75
864.853	14551.75
865.098	14514.75
865.342	14470.75
865.587	14348.75
865.832	14378.75
866.076	14348.75
866.321	14400.75
866.565	14342.75
866.81	14230.75
867.054	14264.75
867.298	14248.75
867.543	14100.75
867.787	14171.75
868.031	14183.75
868.275	14162.75
868.519	14045.75
868.764	14122.75
869.008	14102.75
869.252	14115.75
869.496	14128.75
869.739	14082.75
869.983	14193.75
870.227	14231.75
870.471	14113.75
870.715	14216.75
870.958	14412.75
871.202	14376.75
871.446	14377.75
871.689	14407.75
871.933	14375.75
872.176	14322.75
872.42	14259.75
872.663	14247.75
872.906	14308.75
873.15	14203.75
873.393	14261.75
873.636	14295.75
873.879	14089.75
874.122	13981.75
874.366	13745.75
874.609	13642.75
874.852	13554.75
875.095	13524.75
875.337	13407.75
875.58	13298.75
875.823	13262.75
876.066	13343.75
876.309	13256.75
876.551	13140.75
876.794	13088.75
877.037	13097.75
877.279	12998.75
877.522	12965.75
877.764	13066.75
878.007	12899.75
878.249	12928.75
878.491	12801.75
878.734	12818.75
878.976	12852.75
879.218	12769.75
879.46	12724.75
879.702	12640.75
879.945	12440.75
880.187	12374.75
880.429	12331.75
880.671	12351.75
880.912	12228.75
881.154	12314.75
881.396	12103.75
881.638	12248.75
881.88	12217.75
882.121	12182.75
882.363	12181.75
882.605	12212.75
882.846	12175.75
883.088	12165.75
883.329	12201.75
883.571	12182.75
883.812	12391.75
884.053	12786.75
884.295	13088.75
884.536	13347.75
884.777	13197.75
885.018	13067.75
885.259	13067.75
885.5	12961.75
885.742	13193.75
885.982	12857.75
886.223	12680.75
886.464	12769.75
886.705	12439.75
886.946	12352.75
887.187	12006.75
887.428	11914.75
887.668	11706.75
887.909	11429.75
888.15	11384.75
888.39	11288.75
888.631	11213.75
888.871	11183.75
889.111	11056.75
889.352	11002.75
889.592	10799.75
889.833	10778.75
890.073	10749.75
890.313	10718.75
890.553	10513.75
890.793	10568.75
891.033	10503.75
891.273	10406.75
891.513	10357.75
891.753	10460.75
891.993	10341.75
892.233	10402.75
892.473	10459.75
892.713	10409.75
892.952	10455.75
893.192	10480.75
893.432	10439.75
893.671	10468.75
893.911	10433.75
894.15	10361.75
894.39	10221.75
894.629	10246.75
894.869	10225.75
895.108	10145.75
895.347	10074.75
895.587	10108.75
895.826	10047.75
896.065	10051.75
896.304	10060.75
896.543	10140.75
896.782	9972.75
897.021	10053.75
897.26	10030.75
897.499	10074.75
897.738	10056.75
897.977	9908.75
898.216	9882.75
898.454	9782.75
898.693	9746.75
898.932	9689.75
899.17	9640.75
899.409	9674.75
899.647	9665.75
899.886	9642.75
900.124	9710.75
900.363	9713.75
900.601	9799.75
900.839	9802.75
901.078	9792.75
901.316	10026.75
901.554	9983.75
901.792	10080.75
902.03	10101.75
902.268	10123.75
902.506	10099.75
902.744	9926.75
902.982	9930.75
903.22	9673.75
903.458	9476.75
903.695	9343.75
903.933	9239.75
904.171	9018.75
904.409	8860.75
904.646	8789.75
904.884	8596.75
905.121	8623.75
905.359	8442.75
905.596	8380.75
905.833	8291.75
906.071	8207.75
906.308	8244.75
906.545	8217.75
906.783	8138.75
907.02	8192.75
907.257	8125.75
907.494	8071.75
907.731	8074.75
907.968	8049.75
908.205	7974.75
908.442	7931.75
908.679	7906.75
908.915	7867.75
909.152	7761.75
909.389	7642.75
909.626	7666.75
909.862	7572.75
910.099	7588.75
910.335	7601.75
910.572	7474.75
910.808	7504.75
911.045	7453.75
911.281	7358.75
911.518	7443.75
911.754	7381.75
911.99	7291.75
912.226	7270.75
912.463	7244.75
912.699	7119.75
912.935	7109.75
913.171	6999.75
913.407	6993.75
913.643	6996.75
913.879	6912.75
914.114	6858.75
914.35	6761.75
914.586	6769.75
914.822	6678.75
915.057	6698.75
915.293	6602.75
915.529	6578.75
915.764	6607.75
916	6537.75
916.235	6520.75
916.471	6578.75
916.706	6474.75
916.941	6501.75
917.177	6539.75
917.412	6555.75
917.647	6489.75
917.882	6429.75
918.117	6441.75
918.352	6428.75
918.588	6495.75
918.823	6348.75
919.057	6331.75
919.292	6217.75
919.527	6244.75
919.762	6117.75
919.997	6132.75
920.232	6035.75
920.466	6063.75
920.701	5922.75
920.935	5949.75
921.17	5908.75
921.405	5830.75
921.639	5884.75
921.873	5830.75
922.108	5809.75
922.342	5820.75
922.576	5719.75
922.811	5681.75
923.045	5769.75
923.279	5779.75
923.513	5552.75
923.747	5653.75
923.981	5657.75
924.215	5542.75
924.449	5528.75
924.683	5450.75
924.917	5446.75
925.151	5510.75
925.385	5489.75
925.618	5439.75
925.852	5456.75
926.086	5371.75
926.319	5344.75
926.553	5414.75
926.786	5380.75
927.02	5396.75
927.253	5380.75
927.486	5452.75
927.72	5368.75
927.953	5371.75
928.186	5293.75
928.42	5344.75
928.653	5249.75
928.886	5277.75
929.119	5277.75
929.352	5232.75
929.585	5226.75
929.818	5156.75
930.051	5104.75
930.284	5141.75
930.516	5051.75
930.749	4993.75
930.982	5024.75
931.215	5006.75
931.447	4948.75
931.68	4924.75
931.912	4917.75
932.145	4923.75
932.377	4947.75
932.61	5118.75
932.842	4879.75
933.074	4965.75
933.307	4885.75
933.539	4933.75
933.771	4960.75
934.003	4893.75
934.236	4999.75
934.468	4967.75
934.7	4897.75
934.932	4917.75
935.164	4844.75
935.395	4860.75
935.627	4860.75
935.859	4844.75
936.091	4760.75
936.323	4856.75
936.554	4854.75
936.786	4758.75
937.017	4726.75
937.249	4789.75
937.481	4694.75
937.712	4744.75
937.943	4761.75
938.175	4695.75
938.406	4668.75
938.637	4745.75
938.869	4669.75
939.1	4676.75
939.331	4617.75
939.562	4682.75
939.793	4628.75
940.024	4632.75
940.255	4621.75
940.486	4572.75
940.717	4581.75
940.948	4553.75
941.179	4503.75
941.409	4526.75
941.64	4515.75
941.871	4533.75
942.102	4474.75
942.332	4489.75
942.563	4545.75
942.793	4489.75
943.024	4471.75
943.254	4518.75
943.484	4580.75
943.715	4518.75
943.945	4490.75
944.175	4428.75
944.405	4407.75
944.636	4428.75
944.866	4479.75
945.096	4458.75
945.326	4374.75
945.556	4429.75
945.786	4457.75
946.016	4409.75
946.245	4285.75
946.475	4334.75
946.705	4299.75
946.935	4292.75
947.164	4259.75
947.394	4207.75
947.624	4244.75
947.853	4231.75
948.083	4187.75
948.312	4179.75
948.542	4133.75
948.771	4092.75
949	4064.75
949.23	4105.75
949.459	4111.75
949.688	4178.75
949.917	4080.75
950.146	4093.75
950.375	4195.75
950.604	4040.75
950.833	4153.75
951.062	4120.75
951.291	4048.75
951.52	4030.75
951.749	4021.75
951.978	3966.75
952.206	4033.75
952.435	4032.75
952.664	4021.75
952.892	4019.75
953.121	3996.75
953.349	3962.75
953.578	3971.75
953.806	3977.75
954.035	3886.75
954.263	3935.75
954.491	3854.75
954.719	3861.75
954.948	3808.75
955.176	3832.75
955.404	3779.75
955.632	3809.75
955.86	3796.75
956.088	3755.75
956.316	3781.75
956.544	3815.75
956.772	3748.75
956.999	3716.75
957.227	3796.75
957.455	3653.75
957.683	3645.75
957.91	3639.75
958.138	3596.75
958.365	3578.75
958.593	3596.75
958.82	3559.75
959.048	3606.75
959.275	3585.75
959.502	3518.75
959.73	3533.75
959.957	3549.75
960.184	3586.75
960.411	3539.75
960.638	3584.75
960.865	3492.75
961.092	3542.75
961.319	3434.75
961.546	3539.75
961.773	3533.75
962	3454.75
962.227	3535.75
962.454	3483.75
962.68	3461.75
962.907	3451.75
963.134	3419.75
963.36	3425.75
963.587	3415.75
963.813	3351.75
964.04	3377.75
964.266	3295.75
964.493	3368.75
964.719	3330.75
964.945	3338.75
965.171	3225.75
965.398	3287.75
965.624	3258.75
965.85	3216.75
966.076	3205.75
966.302	3214.75
966.528	3220.75
966.754	3225.75
966.98	3210.75
967.206	3155.75
967.431	3105.75
967.657	3167.75
967.883	3165.75
968.109	3169.75
968.334	3114.75
968.56	3108.75
968.785	3073.75
969.011	3040.75
969.236	3075.75
969.462	3077.75
969.687	3068.75
969.912	3123.75
970.138	3094.75
970.363	3023.75
970.588	3070.75
970.813	3038.75
971.038	2983.75
971.263	3023.75
971.488	2989.75
971.713	3065.75
971.938	3011.75
972.163	2913.75
972.388	2948.75
972.613	2891.75
972.838	2922.75
973.062	2878.75
973.287	2872.75
973.512	2841.75
973.736	2858.75
973.961	2859.75
974.185	2825.75
974.41	2868.75
974.634	2772.75
974.858	2777.75
975.083	2772.75
975.307	2798.75
975.531	2726.75
975.755	2702.75
975.98	2683.75
976.204	2653.75
976.428	2637.75
976.652	2622.75
976.876	2618.75
977.1	2644.75
977.324	2633.75
977.547	2668.75
977.771	2607.75
977.995	2587.75
978.219	2527.75
978.442	2675.75
978.666	2624.75
978.89	2581.75
979.113	2566.75
979.337	2579.75
979.56	2527.75
979.783	2605.75
980.007	2504.75
980.23	2531.75
980.453	2470.75
980.677	2543.75
980.9	2506.75
981.123	2421.75
981.346	2503.75
981.569	2485.75
981.792	2461.75
982.015	2476.75
982.238	2419.75
982.461	2423.75
982.684	2401.75
982.907	2356.75
983.129	2364.75
983.352	2404.75
983.575	2348.75
983.797	2375.75
984.02	2285.75
984.242	2348.75
984.465	2321.75
984.687	2354.75
984.91	2361.75
985.132	2315.75
985.354	2358.75
985.577	2305.75
985.799	2330.75
986.021	2214.75
986.243	2260.75
986.465	2265.75
986.687	2294.75
986.909	2312.75
987.131	2282.75
987.353	2214.75
987.575	2235.75
987.797	2232.75
988.019	2127.75
988.241	2170.75
988.462	2163.75
988.684	2254.75
988.906	2262.75
989.127	2271.75
989.349	2155.75
989.57	2147.75
989.792	2208.75
990.013	2218.75
990.234	2203.75
990.456	2222.75
990.677	2198.75
990.898	2149.75
991.119	2153.75
991.341	2171.75
991.562	2092.75
991.783	2166.75
992.004	2072.75
992.225	2045.75
992.446	2118.75
992.667	2014.75
992.887	2104.75
993.108	1994.75
993.329	2133.75
993.55	2058.75
993.77	1958.75
993.991	1973.75
994.212	2032.75
994.432	2020.75
994.653	2044.75
994.873	1967.75
995.093	1885.75
995.314	1920.75
995.534	1999.75
995.754	1983.75
995.975	2018.75
996.195	1889.75
996.415	1958.75
996.635	1964.75
996.855	1976.75
997.075	1923.75
997.295	1960.75
997.515	1935.75
997.735	1947.75
997.955	1946.75
998.174	1911.75
998.394	1888.75
998.614	1935.75
998.834	1882.75
999.053	1949.75
999.273	1932.75
999.492	1968.75
999.712	1902.75
999.931	1872.75
1000.151	1863.75
1000.37	1860.75
1000.589	1922.75
1000.809	1820.75
1001.028	1926.75
1001.247	1863.75
1001.466	1761.75
1001.685	1889.75
1001.904	1829.75
1002.123	1826.75
1002.342	1815.75
1002.561	1783.75
1002.78	1797.75
1002.999	1864.75
1003.218	1811.75
1003.436	1784.75
1003.655	1808.75
1003.874	1750.75
1004.092	1787.75
1004.311	1800.75
1004.53	1788.75
1004.748	1838.75
1004.966	1761.75
1005.185	1828.75
1005.403	1810.75
1005.622	1781.75
1005.84	1860.75
1006.058	1731.75
1006.276	1796.75
1006.494	2262.75
1006.712	1777.75
1006.931	1825.75
1007.149	1735.75
1007.367	1743.75
1007.584	1813.75
1007.802	1806.75
1008.02	1793.75
1008.238	1865.75
1008.456	1881.75
1008.673	1724.75
1008.891	1876.75
1009.109	1826.75
1009.326	1902.75
1009.544	1998.75
1009.761	1923.75
1009.979	2025.75
1010.196	2028.75
1010.413	2173.75
1010.631	2245.75
1010.848	2314.75
1011.065	2329.75
1011.282	2287.75
1011.5	2209.75
1011.717	2326.75
1011.934	2243.75
1012.151	2272.75
1012.368	2301.75
1012.585	2213.75
1012.801	2283.75
1013.018	2237.75
1013.235	2232.75
1013.452	2226.75
1013.669	2239.75
1013.885	2265.75
1014.102	2301.75
1014.318	2250.75
1014.535	2229.75
1014.751	2237.75
1014.968	2234.75
1015.184	2274.75
1015.401	2172.75
1015.617	2164.75
1015.833	2115.75
1016.049	2153.75
1016.266	2097.75
1016.482	2127.75
1016.698	2044.75
1016.914	2065.75
1017.13	2040.75
1017.346	2042.75
1017.562	2102.75
1017.778	2036.75
1017.993	1969.75
1018.209	2031.75
1018.425	2054.75
1018.641	1983.75
1018.856	1954.75
1019.072	2006.75
1019.288	2043.75
1019.503	1977.75
1019.719	1927.75
1019.934	1917.75
1020.149	1998.75
1020.365	1913.75
1020.58	1835.75
1020.795	1902.75
1021.011	1816.75
1021.226	1753.75
1021.441	1767.75
1021.656	1661.75
1021.871	1613.75
1022.086	1597.75
1022.301	1580.75
1022.516	1565.75
1022.731	1607.75
1022.946	1485.75
1023.16	1470.75
1023.375	1417.75
1023.59	1417.75
1023.804	1390.75
1024.019	1476.75
1024.234	1316.75
1024.448	1355.75
1024.663	1257.75
1024.877	1272.75
1025.092	1290.75
1025.306	1295.75
1025.52	1181.75
1025.734	1258.75
1025.949	1155.75
1026.163	1132.75
1026.377	1073.75
1026.591	1110.75
1026.805	1050.75
1027.019	1017.75
1027.233	1003.75
1027.447	925.75
1027.661	1019.75
1027.875	989.75
1028.088	959.75
1028.302	894.75
1028.516	881.75
1028.73	864.75
1028.943	846.75
1029.157	789.75
1029.37	753.75
1029.584	-4.25
1029.797	-0.25
1030.011	-3.25
1030.224	0.75
