Data from QEP037381__416__16-59-57-240.txt Node

Date: Fri Dec 16 16:59:57 EST 2022
User: dcclab
Spectrometer: QEP03738
Trigger mode: 4
Integration Time (sec): 1.000000E1
Scans to average: 1
Electric dark correction enabled: true
Nonlinearity correction enabled: false
Boxcar width: 0
XAxis mode: Wavelengths
Number of Pixels in Spectrum: 1044
>>>>>Begin Spectral Data<<<<<
784.041	13.25
784.3	1.25
784.558	0.25
784.817	-1.75
785.075	115614.25
785.334	20045.25
785.592	9419.25
785.851	6500.25
786.109	4942.25
786.368	3834.25
786.626	3096.25
786.884	2566.25
787.143	2112.25
787.401	1741.25
787.659	1591.25
787.917	1372.25
788.175	1243.25
788.433	1075.25
788.691	967.25
788.949	884.25
789.207	852.25
789.465	729.25
789.723	716.25
789.98	653.25
790.238	686.25
790.496	651.25
790.753	630.25
791.011	670.25
791.268	592.25
791.526	579.25
791.783	583.25
792.041	571.25
792.298	478.25
792.556	559.25
792.813	535.25
793.07	513.25
793.327	493.25
793.584	580.25
793.841	484.25
794.099	523.25
794.356	567.25
794.613	477.25
794.869	505.25
795.126	488.25
795.383	442.25
795.64	464.25
795.897	431.25
796.153	485.25
796.41	478.25
796.667	478.25
796.923	468.25
797.18	478.25
797.436	495.25
797.693	469.25
797.949	533.25
798.206	565.25
798.462	471.25
798.718	543.25
798.974	512.25
799.231	557.25
799.487	572.25
799.743	566.25
799.999	591.25
800.255	596.25
800.511	574.25
800.767	639.25
801.023	644.25
801.279	687.25
801.534	744.25
801.79	828.25
802.046	894.25
802.302	1091.25
802.557	1274.25
802.813	1628.25
803.068	2108.25
803.324	2945.25
803.579	4094.25
803.835	5768.25
804.09	8042.25
804.345	10634.25
804.601	13490.25
804.856	16505.25
805.111	19014.25
805.366	20985.25
805.621	22489.25
805.876	23452.25
806.131	24053.25
806.386	24439.25
806.641	24925.25
806.896	25235.25
807.151	25746.25
807.406	26150.25
807.661	26551.25
807.915	27001.25
808.17	27468.25
808.425	27728.25
808.679	27949.25
808.934	28338.25
809.188	28495.25
809.443	28868.25
809.697	29116.25
809.951	29328.25
810.206	29576.25
810.46	29807.25
810.714	29930.25
810.968	30373.25
811.223	30496.25
811.477	30811.25
811.731	30948.25
811.985	31183.25
812.239	31353.25
812.493	31392.25
812.747	31556.25
813	31627.25
813.254	31814.25
813.508	31880.25
813.762	32165.25
814.015	32230.25
814.269	32384.25
814.522	32654.25
814.776	33222.25
815.03	33583.25
815.283	33978.25
815.536	34461.25
815.79	34973.25
816.043	35419.25
816.296	35780.25
816.55	36308.25
816.803	36700.25
817.056	37141.25
817.309	37450.25
817.562	37708.25
817.815	38205.25
818.068	38339.25
818.321	38847.25
818.574	39177.25
818.827	39773.25
819.079	39935.25
819.332	40785.25
819.585	41253.25
819.838	41723.25
820.09	42036.25
820.343	42372.25
820.595	42521.25
820.848	42714.25
821.1	42922.25
821.353	42993.25
821.605	42992.25
821.857	42945.25
822.11	42667.25
822.362	42620.25
822.614	42702.25
822.866	42692.25
823.118	42580.25
823.37	42704.25
823.622	42916.25
823.874	42771.25
824.126	43183.25
824.378	43075.25
824.63	43261.25
824.882	43283.25
825.134	43425.25
825.385	43296.25
825.637	43149.25
825.888	43037.25
826.14	43123.25
826.392	42750.25
826.643	42611.25
826.895	42510.25
827.146	42411.25
827.397	42350.25
827.649	42064.25
827.9	42055.25
828.151	42188.25
828.402	42268.25
828.653	42354.25
828.905	42527.25
829.156	42491.25
829.407	42482.25
829.658	42433.25
829.909	42413.25
830.159	42219.25
830.41	42101.25
830.661	41635.25
830.912	41511.25
831.162	41395.25
831.413	41305.25
831.664	41362.25
831.914	41136.25
832.165	41286.25
832.415	41238.25
832.666	41244.25
832.916	41253.25
833.167	41147.25
833.417	41078.25
833.667	41013.25
833.917	40917.25
834.168	40703.25
834.418	40569.25
834.668	40522.25
834.918	40150.25
835.168	40032.25
835.418	39898.25
835.668	39890.25
835.918	39735.25
836.167	39681.25
836.417	39509.25
836.667	39460.25
836.917	39419.25
837.166	39397.25
837.416	39357.25
837.666	39226.25
837.915	39196.25
838.165	39122.25
838.414	39036.25
838.663	38804.25
838.913	38686.25
839.162	38549.25
839.411	38568.25
839.661	38340.25
839.91	38272.25
840.159	38072.25
840.408	38131.25
840.657	37942.25
840.906	37957.25
841.155	38049.25
841.404	38034.25
841.653	38099.25
841.902	38016.25
842.15	38106.25
842.399	38050.25
842.648	37830.25
842.897	37750.25
843.145	37600.25
843.394	37265.25
843.642	37128.25
843.891	37015.25
844.139	36717.25
844.388	36563.25
844.636	36351.25
844.884	36510.25
845.133	36339.25
845.381	36165.25
845.629	36248.25
845.877	36150.25
846.125	36100.25
846.373	35980.25
846.621	35995.25
846.869	35844.25
847.117	35481.25
847.365	35331.25
847.613	35299.25
847.861	34981.25
848.108	34948.25
848.356	34850.25
848.604	34763.25
848.851	34824.25
849.099	34809.25
849.346	34869.25
849.594	34995.25
849.841	35053.25
850.089	35116.25
850.336	35252.25
850.583	35191.25
850.831	34839.25
851.078	34631.25
851.325	34495.25
851.572	34390.25
851.819	34130.25
852.066	33747.25
852.313	33479.25
852.56	32985.25
852.807	32901.25
853.054	32824.25
853.301	32746.25
853.548	32696.25
853.794	32803.25
854.041	32820.25
854.288	33143.25
854.534	33338.25
854.781	33166.25
855.028	33068.25
855.274	33035.25
855.52	32815.25
855.767	32586.25
856.013	32399.25
856.26	32534.25
856.506	32057.25
856.752	32103.25
856.998	32100.25
857.244	32174.25
857.49	32370.25
857.736	32258.25
857.982	32273.25
858.228	32257.25
858.474	31872.25
858.72	31933.25
858.966	31409.25
859.212	31355.25
859.458	30872.25
859.703	30717.25
859.949	30422.25
860.195	30246.25
860.44	30078.25
860.686	29862.25
860.931	29864.25
861.177	29512.25
861.422	29493.25
861.667	29530.25
861.913	29577.25
862.158	29665.25
862.403	29650.25
862.648	29638.25
862.893	29731.25
863.138	29600.25
863.384	29633.25
863.629	29442.25
863.873	29512.25
864.118	29296.25
864.363	29272.25
864.608	29234.25
864.853	29029.25
865.098	28782.25
865.342	28814.25
865.587	28604.25
865.832	28481.25
866.076	28411.25
866.321	28264.25
866.565	28277.25
866.81	28122.25
867.054	27935.25
867.298	27866.25
867.543	27823.25
867.787	27687.25
868.031	27684.25
868.275	27499.25
868.519	27518.25
868.764	27385.25
869.008	27284.25
869.252	27273.25
869.496	27125.25
869.739	26961.25
869.983	26993.25
870.227	26867.25
870.471	26715.25
870.715	26683.25
870.958	26880.25
871.202	26893.25
871.446	26883.25
871.689	26907.25
871.933	26917.25
872.176	26962.25
872.42	26836.25
872.663	26721.25
872.906	26698.25
873.15	26588.25
873.393	26332.25
873.636	26179.25
873.879	25979.25
874.122	25685.25
874.366	25377.25
874.609	25223.25
874.852	25132.25
875.095	25049.25
875.337	24852.25
875.58	24751.25
875.823	24801.25
876.066	24654.25
876.309	24596.25
876.551	24366.25
876.794	24328.25
877.037	24322.25
877.279	24292.25
877.522	24241.25
877.764	24256.25
878.007	24127.25
878.249	24129.25
878.491	24300.25
878.734	24314.25
878.976	24110.25
879.218	23839.25
879.46	23825.25
879.702	23612.25
879.945	23547.25
880.187	23249.25
880.429	23148.25
880.671	22966.25
880.912	23016.25
881.154	22861.25
881.396	22733.25
881.638	22698.25
881.88	22687.25
882.121	22564.25
882.363	22641.25
882.605	22554.25
882.846	22460.25
883.088	22393.25
883.329	22241.25
883.571	22218.25
883.812	22193.25
884.053	22215.25
884.295	22268.25
884.536	22347.25
884.777	22243.25
885.018	22175.25
885.259	22128.25
885.5	22048.25
885.742	22243.25
885.982	22003.25
886.223	21822.25
886.464	21768.25
886.705	21656.25
886.946	21558.25
887.187	21423.25
887.428	21340.25
887.668	21115.25
887.909	20825.25
888.15	20737.25
888.39	20780.25
888.631	20594.25
888.871	20376.25
889.111	20218.25
889.352	20163.25
889.592	19840.25
889.833	19841.25
890.073	19600.25
890.313	19584.25
890.553	19414.25
890.793	19342.25
891.033	19253.25
891.273	19109.25
891.513	19135.25
891.753	19035.25
891.993	19044.25
892.233	19064.25
892.473	19127.25
892.713	19071.25
892.952	18990.25
893.192	19022.25
893.432	18990.25
893.671	18929.25
893.911	18808.25
894.15	18769.25
894.39	18616.25
894.629	18420.25
894.869	18349.25
895.108	18246.25
895.347	18185.25
895.587	18060.25
895.826	18066.25
896.065	17910.25
896.304	17896.25
896.543	17911.25
896.782	17682.25
897.021	17644.25
897.26	17674.25
897.499	17676.25
897.738	17455.25
897.977	17392.25
898.216	17264.25
898.454	17168.25
898.693	17019.25
898.932	17003.25
899.17	16773.25
899.409	16684.25
899.647	16701.25
899.886	16638.25
900.124	16530.25
900.363	16564.25
900.601	16697.25
900.839	16575.25
901.078	16531.25
901.316	16573.25
901.554	16629.25
901.792	16682.25
902.03	16517.25
902.268	16418.25
902.506	16521.25
902.744	16348.25
902.982	16259.25
903.22	16084.25
903.458	15951.25
903.695	15844.25
903.933	15654.25
904.171	15418.25
904.409	15322.25
904.646	15147.25
904.884	14986.25
905.121	14902.25
905.359	14694.25
905.596	14638.25
905.833	14556.25
906.071	14313.25
906.308	14473.25
906.545	14279.25
906.783	14287.25
907.02	14327.25
907.257	14184.25
907.494	14124.25
907.731	14164.25
907.968	14129.25
908.205	14038.25
908.442	13864.25
908.679	13751.25
908.915	13681.25
909.152	13577.25
909.389	13350.25
909.626	13337.25
909.862	13273.25
910.099	13191.25
910.335	13217.25
910.572	13094.25
910.808	13101.25
911.045	13065.25
911.281	13004.25
911.518	12948.25
911.754	12842.25
911.99	12868.25
912.226	12693.25
912.463	12600.25
912.699	12424.25
912.935	12429.25
913.171	12291.25
913.407	12170.25
913.643	12144.25
913.879	12104.25
914.114	11934.25
914.35	11796.25
914.586	11721.25
914.822	11594.25
915.057	11559.25
915.293	11334.25
915.529	11359.25
915.764	11424.25
916	11342.25
916.235	11275.25
916.471	11244.25
916.706	11158.25
916.941	11197.25
917.177	11100.25
917.412	11150.25
917.647	11204.25
917.882	11044.25
918.117	11034.25
918.352	10995.25
918.588	11008.25
918.823	10868.25
919.057	10845.25
919.292	10624.25
919.527	10604.25
919.762	10372.25
919.997	10425.25
920.232	10190.25
920.466	10163.25
920.701	9987.25
920.935	9965.25
921.17	9970.25
921.405	9912.25
921.639	9877.25
921.873	9788.25
922.108	9749.25
922.342	9776.25
922.576	9686.25
922.811	9621.25
923.045	9630.25
923.279	9608.25
923.513	9464.25
923.747	9432.25
923.981	9356.25
924.215	9282.25
924.449	9247.25
924.683	9190.25
924.917	9151.25
925.151	9063.25
925.385	9084.25
925.618	9022.25
925.852	9023.25
926.086	8974.25
926.319	8986.25
926.553	8952.25
926.786	9003.25
927.02	8965.25
927.253	8897.25
927.486	8929.25
927.72	8806.25
927.953	8844.25
928.186	8810.25
928.42	8781.25
928.653	8679.25
928.886	8591.25
929.119	8660.25
929.352	8603.25
929.585	8564.25
929.818	8466.25
930.051	8384.25
930.284	8297.25
930.516	8158.25
930.749	8149.25
930.982	8151.25
931.215	8099.25
931.447	8054.25
931.68	8009.25
931.912	8018.25
932.145	7950.25
932.377	7998.25
932.61	8073.25
932.842	7869.25
933.074	7992.25
933.307	7965.25
933.539	7981.25
933.771	7907.25
934.003	7874.25
934.236	7981.25
934.468	7986.25
934.7	7861.25
934.932	7866.25
935.164	7823.25
935.395	7775.25
935.627	7783.25
935.859	7734.25
936.091	7637.25
936.323	7667.25
936.554	7623.25
936.786	7536.25
937.017	7447.25
937.249	7540.25
937.481	7501.25
937.712	7451.25
937.943	7489.25
938.175	7465.25
938.406	7391.25
938.637	7485.25
938.869	7335.25
939.1	7413.25
939.331	7290.25
939.562	7338.25
939.793	7334.25
940.024	7253.25
940.255	7296.25
940.486	7219.25
940.717	7115.25
940.948	7058.25
941.179	6988.25
941.409	7030.25
941.64	7009.25
941.871	7081.25
942.102	6982.25
942.332	6965.25
942.563	7057.25
942.793	7037.25
943.024	6939.25
943.254	7017.25
943.484	6985.25
943.715	6970.25
943.945	6955.25
944.175	6880.25
944.405	6897.25
944.636	6883.25
944.866	6965.25
945.096	6927.25
945.326	6830.25
945.556	6888.25
945.786	6827.25
946.016	6773.25
946.245	6583.25
946.475	6637.25
946.705	6595.25
946.935	6549.25
947.164	6498.25
947.394	6469.25
947.624	6502.25
947.853	6496.25
948.083	6403.25
948.312	6355.25
948.542	6290.25
948.771	6247.25
949	6240.25
949.23	6202.25
949.459	6303.25
949.688	6356.25
949.917	6239.25
950.146	6304.25
950.375	6255.25
950.604	6209.25
950.833	6262.25
951.062	6222.25
951.291	6157.25
951.52	6129.25
951.749	6138.25
951.978	6067.25
952.206	5979.25
952.435	6018.25
952.664	5993.25
952.892	6028.25
953.121	5990.25
953.349	5993.25
953.578	5925.25
953.806	5935.25
954.035	5825.25
954.263	5823.25
954.491	5750.25
954.719	5764.25
954.948	5732.25
955.176	5713.25
955.404	5623.25
955.632	5657.25
955.86	5677.25
956.088	5570.25
956.316	5612.25
956.544	5614.25
956.772	5518.25
956.999	5489.25
957.227	5517.25
957.455	5393.25
957.683	5435.25
957.91	5376.25
958.138	5349.25
958.365	5381.25
958.593	5239.25
958.82	5190.25
959.048	5236.25
959.275	5259.25
959.502	5217.25
959.73	5191.25
959.957	5214.25
960.184	5220.25
960.411	5107.25
960.638	5171.25
960.865	5114.25
961.092	5182.25
961.319	5063.25
961.546	5140.25
961.773	5105.25
962	5086.25
962.227	5136.25
962.454	5070.25
962.68	5038.25
962.907	5067.25
963.134	4926.25
963.36	4968.25
963.587	4963.25
963.813	4854.25
964.04	4856.25
964.266	4766.25
964.493	4824.25
964.719	4788.25
964.945	4775.25
965.171	4677.25
965.398	4734.25
965.624	4753.25
965.85	4627.25
966.076	4640.25
966.302	4653.25
966.528	4546.25
966.754	4563.25
966.98	4575.25
967.206	4552.25
967.431	4478.25
967.657	4554.25
967.883	4513.25
968.109	4522.25
968.334	4422.25
968.56	4423.25
968.785	4402.25
969.011	4388.25
969.236	4422.25
969.462	4318.25
969.687	4414.25
969.912	4370.25
970.138	4389.25
970.363	4311.25
970.588	4322.25
970.813	4285.25
971.038	4198.25
971.263	4221.25
971.488	4230.25
971.713	4272.25
971.938	4193.25
972.163	4111.25
972.388	4135.25
972.613	4110.25
972.838	4076.25
973.062	4087.25
973.287	4082.25
973.512	3982.25
973.736	4037.25
973.961	4033.25
974.185	3953.25
974.41	4013.25
974.634	3871.25
974.858	3876.25
975.083	3873.25
975.307	3905.25
975.531	3812.25
975.755	3746.25
975.98	3770.25
976.204	3651.25
976.428	3680.25
976.652	3661.25
976.876	3615.25
977.1	3682.25
977.324	3626.25
977.547	3649.25
977.771	3656.25
977.995	3619.25
978.219	3555.25
978.442	3642.25
978.666	3618.25
978.89	3574.25
979.113	3580.25
979.337	3527.25
979.56	3506.25
979.783	3564.25
980.007	3470.25
980.23	3442.25
980.453	3418.25
980.677	3476.25
980.9	3477.25
981.123	3318.25
981.346	3430.25
981.569	3390.25
981.792	3415.25
982.015	3346.25
982.238	3300.25
982.461	3313.25
982.684	3299.25
982.907	3237.25
983.129	3181.25
983.352	3284.25
983.575	3202.25
983.797	3189.25
984.02	3192.25
984.242	3158.25
984.465	3133.25
984.687	3192.25
984.91	3193.25
985.132	3141.25
985.354	3154.25
985.577	3102.25
985.799	3064.25
986.021	3000.25
986.243	2998.25
986.465	3025.25
986.687	3053.25
986.909	3076.25
987.131	3005.25
987.353	2995.25
987.575	2965.25
987.797	2964.25
988.019	2877.25
988.241	2929.25
988.462	2863.25
988.684	2945.25
988.906	2949.25
989.127	2933.25
989.349	2857.25
989.57	2887.25
989.792	2918.25
990.013	2873.25
990.234	2885.25
990.456	2901.25
990.677	2888.25
990.898	2818.25
991.119	2794.25
991.341	2846.25
991.562	2722.25
991.783	2760.25
992.004	2713.25
992.225	2664.25
992.446	2730.25
992.667	2638.25
992.887	2682.25
993.108	2587.25
993.329	2684.25
993.55	2660.25
993.77	2592.25
993.991	2555.25
994.212	2613.25
994.432	2553.25
994.653	2561.25
994.873	2572.25
995.093	2452.25
995.314	2470.25
995.534	2520.25
995.754	2530.25
995.975	2529.25
996.195	2424.25
996.415	2488.25
996.635	2438.25
996.855	2448.25
997.075	2421.25
997.295	2418.25
997.515	2405.25
997.735	2443.25
997.955	2387.25
998.174	2385.25
998.394	2354.25
998.614	2410.25
998.834	2320.25
999.053	2406.25
999.273	2366.25
999.492	2402.25
999.712	2320.25
999.931	2283.25
1000.151	2382.25
1000.37	2322.25
1000.589	2357.25
1000.809	2306.25
1001.028	2379.25
1001.247	2308.25
1001.466	2205.25
1001.685	2317.25
1001.904	2298.25
1002.123	2251.25
1002.342	2227.25
1002.561	2172.25
1002.78	2219.25
1002.999	2281.25
1003.218	2218.25
1003.436	2131.25
1003.655	2235.25
1003.874	2134.25
1004.092	2147.25
1004.311	2188.25
1004.53	2107.25
1004.748	2204.25
1004.966	2122.25
1005.185	2168.25
1005.403	2137.25
1005.622	2126.25
1005.84	2232.25
1006.058	2078.25
1006.276	2071.25
1006.494	2606.25
1006.712	2107.25
1006.931	2134.25
1007.149	2065.25
1007.367	2070.25
1007.584	2095.25
1007.802	2116.25
1008.02	2043.25
1008.238	2148.25
1008.456	2126.25
1008.673	1990.25
1008.891	2093.25
1009.109	2043.25
1009.326	2099.25
1009.544	2142.25
1009.761	2040.25
1009.979	2125.25
1010.196	2134.25
1010.413	2243.25
1010.631	2239.25
1010.848	2284.25
1011.065	2271.25
1011.282	2204.25
1011.5	2142.25
1011.717	2243.25
1011.934	2184.25
1012.151	2199.25
1012.368	2166.25
1012.585	2093.25
1012.801	2143.25
1013.018	2130.25
1013.235	2082.25
1013.452	2108.25
1013.669	2112.25
1013.885	2092.25
1014.102	2124.25
1014.318	2067.25
1014.535	2052.25
1014.751	2059.25
1014.968	2051.25
1015.184	2070.25
1015.401	1986.25
1015.617	1986.25
1015.833	1952.25
1016.049	1965.25
1016.266	1935.25
1016.482	1950.25
1016.698	1837.25
1016.914	1928.25
1017.13	1814.25
1017.346	1821.25
1017.562	1909.25
1017.778	1811.25
1017.993	1784.25
1018.209	1826.25
1018.425	1816.25
1018.641	1749.25
1018.856	1742.25
1019.072	1781.25
1019.288	1815.25
1019.503	1772.25
1019.719	1695.25
1019.934	1690.25
1020.149	1770.25
1020.365	1696.25
1020.58	1646.25
1020.795	1709.25
1021.011	1608.25
1021.226	1633.25
1021.441	1626.25
1021.656	1552.25
1021.871	1512.25
1022.086	1465.25
1022.301	1514.25
1022.516	1464.25
1022.731	1484.25
1022.946	1429.25
1023.16	1418.25
1023.375	1415.25
1023.59	1379.25
1023.804	1326.25
1024.019	1393.25
1024.234	1294.25
1024.448	1299.25
1024.663	1245.25
1024.877	1256.25
1025.092	1281.25
1025.306	1257.25
1025.52	1169.25
1025.734	1276.25
1025.949	1169.25
1026.163	1147.25
1026.377	1093.25
1026.591	1138.25
1026.805	1041.25
1027.019	1034.25
1027.233	1002.25
1027.447	943.25
1027.661	1041.25
1027.875	978.25
1028.088	974.25
1028.302	888.25
1028.516	873.25
1028.73	895.25
1028.943	864.25
1029.157	790.25
1029.37	765.25
1029.584	-2.75
1029.797	-2.75
1030.011	-4.75
1030.224	-2.75
