Data from QEP037381__419__17-00-27-241.txt Node

Date: Fri Dec 16 17:00:27 EST 2022
User: dcclab
Spectrometer: QEP03738
Trigger mode: 4
Integration Time (sec): 1.000000E1
Scans to average: 1
Electric dark correction enabled: true
Nonlinearity correction enabled: false
Boxcar width: 0
XAxis mode: Wavelengths
Number of Pixels in Spectrum: 1044
>>>>>Begin Spectral Data<<<<<
784.041	11.88
784.3	-1.12
784.558	-2.12
784.817	-4.12
785.075	114166.88
785.334	19823.88
785.592	9226.88
785.851	6348.88
786.109	4837.88
786.368	3787.88
786.626	3007.88
786.884	2530.88
787.143	2047.88
787.401	1712.88
787.659	1566.88
787.917	1321.88
788.175	1219.88
788.433	1078.88
788.691	972.88
788.949	868.88
789.207	837.88
789.465	735.88
789.723	697.88
789.98	659.88
790.238	678.88
790.496	640.88
790.753	607.88
791.011	657.88
791.268	580.88
791.526	571.88
791.783	596.88
792.041	557.88
792.298	489.88
792.556	536.88
792.813	525.88
793.07	505.88
793.327	486.88
793.584	558.88
793.841	511.88
794.099	515.88
794.356	564.88
794.613	461.88
794.869	495.88
795.126	465.88
795.383	441.88
795.64	480.88
795.897	432.88
796.153	491.88
796.41	468.88
796.667	464.88
796.923	471.88
797.18	475.88
797.436	480.88
797.693	450.88
797.949	515.88
798.206	548.88
798.462	446.88
798.718	515.88
798.974	494.88
799.231	557.88
799.487	541.88
799.743	551.88
799.999	577.88
800.255	595.88
800.511	566.88
800.767	619.88
801.023	632.88
801.279	677.88
801.534	724.88
801.79	801.88
802.046	845.88
802.302	1043.88
802.557	1210.88
802.813	1546.88
803.068	1983.88
803.324	2778.88
803.579	3881.88
803.835	5457.88
804.09	7690.88
804.345	10043.88
804.601	12969.88
804.856	15690.88
805.111	18228.88
805.366	20104.88
805.621	21474.88
805.876	22352.88
806.131	23022.88
806.386	23367.88
806.641	23884.88
806.896	24248.88
807.151	24490.88
807.406	25022.88
807.661	25444.88
807.915	25835.88
808.17	26184.88
808.425	26499.88
808.679	26761.88
808.934	26968.88
809.188	27333.88
809.443	27498.88
809.697	27876.88
809.951	27912.88
810.206	28243.88
810.46	28435.88
810.714	28727.88
810.968	29037.88
811.223	29067.88
811.477	29350.88
811.731	29617.88
811.985	29772.88
812.239	29801.88
812.493	29996.88
812.747	30249.88
813	30247.88
813.254	30334.88
813.508	30482.88
813.762	30586.88
814.015	30763.88
814.269	30988.88
814.522	31333.88
814.776	31746.88
815.03	32010.88
815.283	32409.88
815.536	32832.88
815.79	33568.88
816.043	33795.88
816.296	34362.88
816.55	34643.88
816.803	35100.88
817.056	35547.88
817.309	35710.88
817.562	36149.88
817.815	36466.88
818.068	36687.88
818.321	37063.88
818.574	37617.88
818.827	38010.88
819.079	38418.88
819.332	39017.88
819.585	39338.88
819.838	40025.88
820.09	40299.88
820.343	40427.88
820.595	40768.88
820.848	41046.88
821.1	41034.88
821.353	41155.88
821.605	41131.88
821.857	41086.88
822.11	40973.88
822.362	40899.88
822.614	40739.88
822.866	40833.88
823.118	40668.88
823.37	40796.88
823.622	40873.88
823.874	41041.88
824.126	41192.88
824.378	41234.88
824.63	41384.88
824.882	41384.88
825.134	41340.88
825.385	41502.88
825.637	41213.88
825.888	41254.88
826.14	41118.88
826.392	40873.88
826.643	40789.88
826.895	40615.88
827.146	40438.88
827.397	40368.88
827.649	40397.88
827.9	40174.88
828.151	40359.88
828.402	40278.88
828.653	40512.88
828.905	40573.88
829.156	40589.88
829.407	40535.88
829.658	40528.88
829.909	40346.88
830.159	40484.88
830.41	40158.88
830.661	39842.88
830.912	39753.88
831.162	39631.88
831.413	39454.88
831.664	39285.88
831.914	39262.88
832.165	39535.88
832.415	39449.88
832.666	39430.88
832.916	39407.88
833.167	39273.88
833.417	39113.88
833.667	39032.88
833.917	39009.88
834.168	38899.88
834.418	38675.88
834.668	38572.88
834.918	38351.88
835.168	38381.88
835.418	38090.88
835.668	38156.88
835.918	38042.88
836.167	37899.88
836.417	37613.88
836.667	37611.88
836.917	37694.88
837.166	37462.88
837.416	37546.88
837.666	37439.88
837.915	37418.88
838.165	37196.88
838.414	37059.88
838.663	37061.88
838.913	37056.88
839.162	36820.88
839.411	36846.88
839.661	36565.88
839.91	36500.88
840.159	36385.88
840.408	36394.88
840.657	36363.88
840.906	36334.88
841.155	36313.88
841.404	36297.88
841.653	36218.88
841.902	36174.88
842.15	36370.88
842.399	36319.88
842.648	36196.88
842.897	36124.88
843.145	35828.88
843.394	35772.88
843.642	35469.88
843.891	35308.88
844.139	35031.88
844.388	34938.88
844.636	34908.88
844.884	34807.88
845.133	34642.88
845.381	34537.88
845.629	34517.88
845.877	34440.88
846.125	34413.88
846.373	34475.88
846.621	34169.88
846.869	34232.88
847.117	33932.88
847.365	33752.88
847.613	33486.88
847.861	33455.88
848.108	33430.88
848.356	33289.88
848.604	33101.88
848.851	33111.88
849.099	33175.88
849.346	33197.88
849.594	33364.88
849.841	33504.88
850.089	33569.88
850.336	33425.88
850.583	33520.88
850.831	33237.88
851.078	33176.88
851.325	32941.88
851.572	32831.88
851.819	32551.88
852.066	32141.88
852.313	31719.88
852.56	31511.88
852.807	31361.88
853.054	31280.88
853.301	31084.88
853.548	31134.88
853.794	31303.88
854.041	31344.88
854.288	31456.88
854.534	31729.88
854.781	31763.88
855.028	31456.88
855.274	31459.88
855.52	31098.88
855.767	31062.88
856.013	30953.88
856.26	31206.88
856.506	30540.88
856.752	30679.88
856.998	30626.88
857.244	30649.88
857.49	30731.88
857.736	30889.88
857.982	30845.88
858.228	30789.88
858.474	30395.88
858.72	30331.88
858.966	30072.88
859.212	29770.88
859.458	29563.88
859.703	29321.88
859.949	28904.88
860.195	28835.88
860.44	28483.88
860.686	28384.88
860.931	28323.88
861.177	28194.88
861.422	28184.88
861.667	28114.88
861.913	28073.88
862.158	28228.88
862.403	28279.88
862.648	28226.88
862.893	28334.88
863.138	28309.88
863.384	28145.88
863.629	28145.88
863.873	28052.88
864.118	28068.88
864.363	27866.88
864.608	27718.88
864.853	27732.88
865.098	27461.88
865.342	27361.88
865.587	27100.88
865.832	27241.88
866.076	27189.88
866.321	26874.88
866.565	26892.88
866.81	26805.88
867.054	26629.88
867.298	26616.88
867.543	26390.88
867.787	26555.88
868.031	26369.88
868.275	26250.88
868.519	26263.88
868.764	26279.88
869.008	25980.88
869.252	26002.88
869.496	25900.88
869.739	25744.88
869.983	25777.88
870.227	25648.88
870.471	25608.88
870.715	25639.88
870.958	25734.88
871.202	25657.88
871.446	25615.88
871.689	25557.88
871.933	25612.88
872.176	25794.88
872.42	25584.88
872.663	25509.88
872.906	25524.88
873.15	25313.88
873.393	25126.88
873.636	25028.88
873.879	24726.88
874.122	24510.88
874.366	24265.88
874.609	24152.88
874.852	23965.88
875.095	23903.88
875.337	23738.88
875.58	23545.88
875.823	23651.88
876.066	23610.88
876.309	23481.88
876.551	23173.88
876.794	23148.88
877.037	23076.88
877.279	23047.88
877.522	23116.88
877.764	23166.88
878.007	23034.88
878.249	23082.88
878.491	22967.88
878.734	23046.88
878.976	22915.88
879.218	22775.88
879.46	22598.88
879.702	22526.88
879.945	22421.88
880.187	22114.88
880.429	22007.88
880.671	21844.88
880.912	21830.88
881.154	21693.88
881.396	21568.88
881.638	21586.88
881.88	21652.88
882.121	21529.88
882.363	21501.88
882.605	21465.88
882.846	21230.88
883.088	21324.88
883.329	21165.88
883.571	21195.88
883.812	21072.88
884.053	21177.88
884.295	21341.88
884.536	21376.88
884.777	21343.88
885.018	21175.88
885.259	21212.88
885.5	21045.88
885.742	21197.88
885.982	21029.88
886.223	20841.88
886.464	20799.88
886.705	20632.88
886.946	20683.88
887.187	20411.88
887.428	20246.88
887.668	20107.88
887.909	19957.88
888.15	19718.88
888.39	19634.88
888.631	19488.88
888.871	19393.88
889.111	19275.88
889.352	19114.88
889.592	19037.88
889.833	18863.88
890.073	18685.88
890.313	18671.88
890.553	18412.88
890.793	18440.88
891.033	18313.88
891.273	18150.88
891.513	18100.88
891.753	18043.88
891.993	18096.88
892.233	18038.88
892.473	18151.88
892.713	18144.88
892.952	18093.88
893.192	18076.88
893.432	18048.88
893.671	18071.88
893.911	17858.88
894.15	17761.88
894.39	17631.88
894.629	17585.88
894.869	17451.88
895.108	17305.88
895.347	17130.88
895.587	17147.88
895.826	17127.88
896.065	17082.88
896.304	16975.88
896.543	16926.88
896.782	16831.88
897.021	16880.88
897.26	16734.88
897.499	16733.88
897.738	16711.88
897.977	16454.88
898.216	16305.88
898.454	16239.88
898.693	16218.88
898.932	16129.88
899.17	16041.88
899.409	15943.88
899.647	15877.88
899.886	15849.88
900.124	15838.88
900.363	15890.88
900.601	15813.88
900.839	15781.88
901.078	15830.88
901.316	15748.88
901.554	15695.88
901.792	15767.88
902.03	15821.88
902.268	15705.88
902.506	15725.88
902.744	15588.88
902.982	15611.88
903.22	15371.88
903.458	15283.88
903.695	15059.88
903.933	14990.88
904.171	14814.88
904.409	14420.88
904.646	14390.88
904.884	14141.88
905.121	14120.88
905.359	13952.88
905.596	13799.88
905.833	13771.88
906.071	13686.88
906.308	13607.88
906.545	13600.88
906.783	13539.88
907.02	13538.88
907.257	13351.88
907.494	13480.88
907.731	13399.88
907.968	13374.88
908.205	13200.88
908.442	13149.88
908.679	13018.88
908.915	12962.88
909.152	13013.88
909.389	12784.88
909.626	12717.88
909.862	12627.88
910.099	12592.88
910.335	12621.88
910.572	12476.88
910.808	12368.88
911.045	12361.88
911.281	12297.88
911.518	12332.88
911.754	12172.88
911.99	12084.88
912.226	12003.88
912.463	11974.88
912.699	11873.88
912.935	11793.88
913.171	11693.88
913.407	11539.88
913.643	11535.88
913.879	11422.88
914.114	11303.88
914.35	11273.88
914.586	11117.88
914.822	10933.88
915.057	10891.88
915.293	10746.88
915.529	10690.88
915.764	10831.88
916	10670.88
916.235	10691.88
916.471	10692.88
916.706	10565.88
916.941	10630.88
917.177	10583.88
917.412	10581.88
917.647	10560.88
917.882	10536.88
918.117	10506.88
918.352	10504.88
918.588	10527.88
918.823	10262.88
919.057	10190.88
919.292	10044.88
919.527	10012.88
919.762	9833.88
919.997	9904.88
920.232	9699.88
920.466	9693.88
920.701	9489.88
920.935	9410.88
921.17	9414.88
921.405	9329.88
921.639	9336.88
921.873	9270.88
922.108	9307.88
922.342	9266.88
922.576	9177.88
922.811	9049.88
923.045	9152.88
923.279	9126.88
923.513	8914.88
923.747	9094.88
923.981	8918.88
924.215	8811.88
924.449	8800.88
924.683	8699.88
924.917	8672.88
925.151	8599.88
925.385	8635.88
925.618	8587.88
925.852	8572.88
926.086	8444.88
926.319	8416.88
926.553	8466.88
926.786	8509.88
927.02	8447.88
927.253	8480.88
927.486	8437.88
927.72	8380.88
927.953	8422.88
928.186	8267.88
928.42	8320.88
928.653	8236.88
928.886	8206.88
929.119	8227.88
929.352	8165.88
929.585	8081.88
929.818	7950.88
930.051	7980.88
930.284	7943.88
930.516	7741.88
930.749	7735.88
930.982	7678.88
931.215	7720.88
931.447	7616.88
931.68	7587.88
931.912	7598.88
932.145	7564.88
932.377	7627.88
932.61	7691.88
932.842	7470.88
933.074	7586.88
933.307	7460.88
933.539	7556.88
933.771	7575.88
934.003	7523.88
934.236	7564.88
934.468	7548.88
934.7	7440.88
934.932	7405.88
935.164	7399.88
935.395	7395.88
935.627	7350.88
935.859	7320.88
936.091	7211.88
936.323	7306.88
936.554	7290.88
936.786	7206.88
937.017	7107.88
937.249	7140.88
937.481	7076.88
937.712	7170.88
937.943	7019.88
938.175	7049.88
938.406	7018.88
938.637	7110.88
938.869	6987.88
939.1	7027.88
939.331	6926.88
939.562	6909.88
939.793	6879.88
940.024	6916.88
940.255	6854.88
940.486	6838.88
940.717	6753.88
940.948	6754.88
941.179	6696.88
941.409	6727.88
941.64	6626.88
941.871	6672.88
942.102	6658.88
942.332	6679.88
942.563	6623.88
942.793	6657.88
943.024	6627.88
943.254	6658.88
943.484	6647.88
943.715	6718.88
943.945	6642.88
944.175	6568.88
944.405	6460.88
944.636	6462.88
944.866	6574.88
945.096	6522.88
945.326	6474.88
945.556	6460.88
945.786	6481.88
946.016	6359.88
946.245	6273.88
946.475	6319.88
946.705	6255.88
946.935	6250.88
947.164	6189.88
947.394	6122.88
947.624	6136.88
947.853	6140.88
948.083	6076.88
948.312	6007.88
948.542	6024.88
948.771	5935.88
949	5961.88
949.23	5922.88
949.459	5986.88
949.688	6037.88
949.917	5918.88
950.146	5942.88
950.375	5948.88
950.604	5841.88
950.833	5943.88
951.062	5882.88
951.291	5841.88
951.52	5868.88
951.749	5790.88
951.978	5741.88
952.206	5768.88
952.435	5719.88
952.664	5714.88
952.892	5692.88
953.121	5675.88
953.349	5729.88
953.578	5646.88
953.806	5577.88
954.035	5543.88
954.263	5564.88
954.491	5512.88
954.719	5529.88
954.948	5471.88
955.176	5405.88
955.404	5365.88
955.632	5361.88
955.86	5352.88
956.088	5360.88
956.316	5270.88
956.544	5312.88
956.772	5215.88
956.999	5203.88
957.227	5235.88
957.455	5153.88
957.683	5111.88
957.91	5080.88
958.138	5055.88
958.365	5046.88
958.593	5010.88
958.82	4946.88
959.048	5018.88
959.275	4982.88
959.502	4935.88
959.73	4920.88
959.957	4920.88
960.184	4950.88
960.411	4926.88
960.638	4943.88
960.865	4881.88
961.092	4880.88
961.319	4747.88
961.546	4890.88
961.773	4866.88
962	4821.88
962.227	4871.88
962.454	4798.88
962.68	4746.88
962.907	4778.88
963.134	4722.88
963.36	4708.88
963.587	4720.88
963.813	4614.88
964.04	4606.88
964.266	4502.88
964.493	4607.88
964.719	4559.88
964.945	4531.88
965.171	4411.88
965.398	4462.88
965.624	4458.88
965.85	4379.88
966.076	4376.88
966.302	4399.88
966.528	4349.88
966.754	4373.88
966.98	4385.88
967.206	4357.88
967.431	4260.88
967.657	4319.88
967.883	4270.88
968.109	4286.88
968.334	4185.88
968.56	4177.88
968.785	4224.88
969.011	4183.88
969.236	4250.88
969.462	4142.88
969.687	4131.88
969.912	4154.88
970.138	4164.88
970.363	4083.88
970.588	4089.88
970.813	4045.88
971.038	4064.88
971.263	4029.88
971.488	4040.88
971.713	4061.88
971.938	4032.88
972.163	3963.88
972.388	3945.88
972.613	3887.88
972.838	3936.88
973.062	3850.88
973.287	3854.88
973.512	3799.88
973.736	3797.88
973.961	3762.88
974.185	3778.88
974.41	3801.88
974.634	3659.88
974.858	3674.88
975.083	3658.88
975.307	3744.88
975.531	3655.88
975.755	3569.88
975.98	3581.88
976.204	3517.88
976.428	3517.88
976.652	3508.88
976.876	3469.88
977.1	3472.88
977.324	3433.88
977.547	3511.88
977.771	3503.88
977.995	3457.88
978.219	3365.88
978.442	3467.88
978.666	3411.88
978.89	3410.88
979.113	3381.88
979.337	3385.88
979.56	3357.88
979.783	3432.88
980.007	3316.88
980.23	3303.88
980.453	3324.88
980.677	3275.88
980.9	3299.88
981.123	3198.88
981.346	3262.88
981.569	3225.88
981.792	3240.88
982.015	3175.88
982.238	3153.88
982.461	3159.88
982.684	3095.88
982.907	3085.88
983.129	3050.88
983.352	3096.88
983.575	3069.88
983.797	3076.88
984.02	2967.88
984.242	3005.88
984.465	2971.88
984.687	3014.88
984.91	3052.88
985.132	3007.88
985.354	3027.88
985.577	2974.88
985.799	2933.88
986.021	2859.88
986.243	2855.88
986.465	2866.88
986.687	2891.88
986.909	2907.88
987.131	2846.88
987.353	2827.88
987.575	2880.88
987.797	2819.88
988.019	2746.88
988.241	2812.88
988.462	2779.88
988.684	2811.88
988.906	2815.88
989.127	2848.88
989.349	2708.88
989.57	2739.88
989.792	2769.88
990.013	2770.88
990.234	2774.88
990.456	2770.88
990.677	2778.88
990.898	2680.88
991.119	2724.88
991.341	2691.88
991.562	2615.88
991.783	2666.88
992.004	2589.88
992.225	2574.88
992.446	2607.88
992.667	2521.88
992.887	2614.88
993.108	2475.88
993.329	2609.88
993.55	2529.88
993.77	2478.88
993.991	2492.88
994.212	2501.88
994.432	2431.88
994.653	2444.88
994.873	2455.88
995.093	2359.88
995.314	2345.88
995.534	2456.88
995.754	2420.88
995.975	2447.88
996.195	2314.88
996.415	2418.88
996.635	2344.88
996.855	2355.88
997.075	2341.88
997.295	2351.88
997.515	2308.88
997.735	2362.88
997.955	2341.88
998.174	2282.88
998.394	2285.88
998.614	2314.88
998.834	2241.88
999.053	2301.88
999.273	2307.88
999.492	2341.88
999.712	2231.88
999.931	2240.88
1000.151	2278.88
1000.37	2260.88
1000.589	2284.88
1000.809	2207.88
1001.028	2306.88
1001.247	2210.88
1001.466	2137.88
1001.685	2272.88
1001.904	2171.88
1002.123	2165.88
1002.342	2140.88
1002.561	2127.88
1002.78	2140.88
1002.999	2173.88
1003.218	2110.88
1003.436	2080.88
1003.655	2131.88
1003.874	2048.88
1004.092	2042.88
1004.311	2108.88
1004.53	2079.88
1004.748	2100.88
1004.966	2046.88
1005.185	2104.88
1005.403	2099.88
1005.622	2073.88
1005.84	2142.88
1006.058	2018.88
1006.276	2026.88
1006.494	2507.88
1006.712	2059.88
1006.931	2110.88
1007.149	1988.88
1007.367	2006.88
1007.584	2036.88
1007.802	2053.88
1008.02	2007.88
1008.238	2089.88
1008.456	2060.88
1008.673	1911.88
1008.891	2052.88
1009.109	2024.88
1009.326	2030.88
1009.544	2111.88
1009.761	2020.88
1009.979	2088.88
1010.196	2072.88
1010.413	2199.88
1010.631	2212.88
1010.848	2234.88
1011.065	2243.88
1011.282	2202.88
1011.5	2114.88
1011.717	2209.88
1011.934	2160.88
1012.151	2192.88
1012.368	2129.88
1012.585	2082.88
1012.801	2118.88
1013.018	2099.88
1013.235	2067.88
1013.452	2101.88
1013.669	2069.88
1013.885	2089.88
1014.102	2128.88
1014.318	2081.88
1014.535	2062.88
1014.751	2083.88
1014.968	2041.88
1015.184	2072.88
1015.401	1980.88
1015.617	1981.88
1015.833	1970.88
1016.049	1921.88
1016.266	1935.88
1016.482	1893.88
1016.698	1824.88
1016.914	1883.88
1017.13	1809.88
1017.346	1820.88
1017.562	1880.88
1017.778	1837.88
1017.993	1790.88
1018.209	1837.88
1018.425	1812.88
1018.641	1782.88
1018.856	1723.88
1019.072	1765.88
1019.288	1814.88
1019.503	1744.88
1019.719	1660.88
1019.934	1686.88
1020.149	1740.88
1020.365	1706.88
1020.58	1642.88
1020.795	1663.88
1021.011	1631.88
1021.226	1600.88
1021.441	1634.88
1021.656	1526.88
1021.871	1476.88
1022.086	1477.88
1022.301	1469.88
1022.516	1447.88
1022.731	1493.88
1022.946	1403.88
1023.16	1382.88
1023.375	1370.88
1023.59	1369.88
1023.804	1306.88
1024.019	1395.88
1024.234	1281.88
1024.448	1296.88
1024.663	1206.88
1024.877	1247.88
1025.092	1246.88
1025.306	1259.88
1025.52	1164.88
1025.734	1230.88
1025.949	1139.88
1026.163	1119.88
1026.377	1054.88
1026.591	1105.88
1026.805	1027.88
1027.019	1017.88
1027.233	992.88
1027.447	927.88
1027.661	1015.88
1027.875	969.88
1028.088	950.88
1028.302	879.88
1028.516	859.88
1028.73	850.88
1028.943	860.88
1029.157	790.88
1029.37	743.88
1029.584	-3.12
1029.797	-0.12
1030.011	-1.12
1030.224	-0.12
