Data from QEP037381__414__16-59-37-241.txt Node

Date: Fri Dec 16 16:59:37 EST 2022
User: dcclab
Spectrometer: QEP03738
Trigger mode: 4
Integration Time (sec): 1.000000E1
Scans to average: 1
Electric dark correction enabled: true
Nonlinearity correction enabled: false
Boxcar width: 0
XAxis mode: Wavelengths
Number of Pixels in Spectrum: 1044
>>>>>Begin Spectral Data<<<<<
784.041	10.88
784.3	-0.12
784.558	-3.12
784.817	-1.12
785.075	112893.88
785.334	19494.88
785.592	9171.88
785.851	6296.88
786.109	4778.88
786.368	3673.88
786.626	2983.88
786.884	2487.88
787.143	2098.88
787.401	1705.88
787.659	1519.88
787.917	1320.88
788.175	1211.88
788.433	1048.88
788.691	950.88
788.949	874.88
789.207	867.88
789.465	719.88
789.723	713.88
789.98	641.88
790.238	695.88
790.496	650.88
790.753	613.88
791.011	653.88
791.268	599.88
791.526	577.88
791.783	596.88
792.041	565.88
792.298	490.88
792.556	547.88
792.813	539.88
793.07	521.88
793.327	488.88
793.584	573.88
793.841	512.88
794.099	521.88
794.356	573.88
794.613	489.88
794.869	513.88
795.126	494.88
795.383	464.88
795.64	488.88
795.897	445.88
796.153	485.88
796.41	493.88
796.667	469.88
796.923	497.88
797.18	508.88
797.436	510.88
797.693	479.88
797.949	538.88
798.206	567.88
798.462	493.88
798.718	546.88
798.974	521.88
799.231	582.88
799.487	572.88
799.743	604.88
799.999	634.88
800.255	633.88
800.511	632.88
800.767	667.88
801.023	698.88
801.279	740.88
801.534	796.88
801.79	899.88
802.046	975.88
802.302	1185.88
802.557	1410.88
802.813	1807.88
803.068	2344.88
803.324	3327.88
803.579	4663.88
803.835	6583.88
804.09	9129.88
804.345	12222.88
804.601	15484.88
804.856	18875.88
805.111	21755.88
805.366	24211.88
805.621	25771.88
805.876	26794.88
806.131	27725.88
806.386	28116.88
806.641	28612.88
806.896	29125.88
807.151	29637.88
807.406	29987.88
807.661	30606.88
807.915	31126.88
808.17	31533.88
808.425	32029.88
808.679	32074.88
808.934	32524.88
809.188	32870.88
809.443	33156.88
809.697	33492.88
809.951	33658.88
810.206	33890.88
810.46	34347.88
810.714	34559.88
810.968	34769.88
811.223	35015.88
811.477	35380.88
811.731	35715.88
811.985	35902.88
812.239	36199.88
812.493	36392.88
812.747	36310.88
813	36526.88
813.254	36476.88
813.508	36757.88
813.762	36899.88
814.015	37131.88
814.269	37355.88
814.522	37657.88
814.776	38134.88
815.03	38484.88
815.283	39043.88
815.536	39651.88
815.79	40181.88
816.043	40792.88
816.296	41260.88
816.55	41844.88
816.803	42120.88
817.056	42599.88
817.309	42970.88
817.562	43421.88
817.815	43741.88
818.068	44310.88
818.321	44454.88
818.574	45083.88
818.827	45630.88
819.079	46059.88
819.332	46927.88
819.585	47390.88
819.838	47972.88
820.09	48382.88
820.343	48703.88
820.595	49007.88
820.848	49242.88
821.1	49417.88
821.353	49292.88
821.605	49373.88
821.857	49405.88
822.11	49259.88
822.362	49150.88
822.614	49006.88
822.866	49053.88
823.118	48971.88
823.37	49010.88
823.622	49077.88
823.874	49293.88
824.126	49601.88
824.378	49518.88
824.63	49730.88
824.882	49978.88
825.134	49865.88
825.385	49798.88
825.637	49648.88
825.888	49437.88
826.14	49416.88
826.392	49221.88
826.643	49049.88
826.895	48998.88
827.146	48715.88
827.397	48583.88
827.649	48524.88
827.9	48498.88
828.151	48555.88
828.402	48667.88
828.653	48943.88
828.905	48807.88
829.156	49062.88
829.407	49025.88
829.658	48879.88
829.909	48913.88
830.159	48711.88
830.41	48419.88
830.661	48308.88
830.912	47923.88
831.162	47723.88
831.413	47487.88
831.664	47562.88
831.914	47376.88
832.165	47393.88
832.415	47563.88
832.666	47527.88
832.916	47419.88
833.167	47402.88
833.417	47245.88
833.667	47286.88
833.917	47045.88
834.168	46862.88
834.418	46722.88
834.668	46582.88
834.918	46320.88
835.168	46189.88
835.418	45986.88
835.668	45965.88
835.918	45832.88
836.167	45640.88
836.417	45653.88
836.667	45393.88
836.917	45507.88
837.166	45338.88
837.416	45441.88
837.666	45203.88
837.915	45126.88
838.165	45094.88
838.414	44900.88
838.663	44684.88
838.913	44406.88
839.162	44480.88
839.411	44293.88
839.661	44263.88
839.91	44101.88
840.159	43972.88
840.408	44040.88
840.657	43747.88
840.906	43944.88
841.155	43745.88
841.404	43777.88
841.653	43770.88
841.902	43800.88
842.15	43964.88
842.399	43927.88
842.648	43559.88
842.897	43453.88
843.145	43395.88
843.394	43166.88
843.642	42913.88
843.891	42643.88
844.139	42437.88
844.388	42307.88
844.636	42030.88
844.884	41957.88
845.133	41874.88
845.381	41762.88
845.629	41807.88
845.877	41749.88
846.125	41591.88
846.373	41554.88
846.621	41292.88
846.869	41232.88
847.117	41048.88
847.365	40842.88
847.613	40448.88
847.861	40375.88
848.108	40389.88
848.356	40140.88
848.604	39928.88
848.851	40191.88
849.099	40410.88
849.346	40166.88
849.594	40435.88
849.841	40513.88
850.089	40663.88
850.336	40628.88
850.583	40328.88
850.831	40138.88
851.078	39943.88
851.325	39831.88
851.572	39593.88
851.819	39303.88
852.066	38722.88
852.313	38334.88
852.56	38195.88
852.807	38040.88
853.054	37830.88
853.301	37773.88
853.548	37838.88
853.794	37898.88
854.041	37860.88
854.288	38194.88
854.534	38350.88
854.781	38255.88
855.028	38050.88
855.274	38069.88
855.52	37840.88
855.767	37618.88
856.013	37411.88
856.26	37594.88
856.506	37017.88
856.752	37010.88
856.998	36928.88
857.244	37049.88
857.49	37277.88
857.736	37294.88
857.982	37218.88
858.228	37188.88
858.474	36916.88
858.72	36662.88
858.966	36510.88
859.212	36009.88
859.458	35808.88
859.703	35325.88
859.949	34842.88
860.195	34778.88
860.44	34413.88
860.686	34428.88
860.931	34292.88
861.177	34158.88
861.422	34183.88
861.667	34116.88
861.913	34097.88
862.158	34155.88
862.403	34314.88
862.648	34363.88
862.893	34208.88
863.138	34193.88
863.384	34120.88
863.629	34095.88
863.873	34105.88
864.118	33994.88
864.363	33729.88
864.608	33567.88
864.853	33551.88
865.098	33246.88
865.342	33119.88
865.587	33049.88
865.832	32879.88
866.076	32811.88
866.321	32719.88
866.565	32560.88
866.81	32306.88
867.054	32343.88
867.298	32264.88
867.543	32026.88
867.787	31963.88
868.031	31903.88
868.275	31921.88
868.519	31741.88
868.764	31768.88
869.008	31494.88
869.252	31414.88
869.496	31221.88
869.739	31184.88
869.983	31065.88
870.227	30912.88
870.471	31013.88
870.715	31011.88
870.958	31006.88
871.202	30947.88
871.446	31087.88
871.689	30995.88
871.933	31075.88
872.176	31107.88
872.42	30938.88
872.663	30876.88
872.906	30855.88
873.15	30508.88
873.393	30373.88
873.636	30059.88
873.879	29860.88
874.122	29643.88
874.366	29337.88
874.609	29149.88
874.852	28949.88
875.095	28958.88
875.337	28820.88
875.58	28529.88
875.823	28662.88
876.066	28372.88
876.309	28417.88
876.551	28161.88
876.794	28006.88
877.037	28083.88
877.279	27907.88
877.522	28073.88
877.764	27996.88
878.007	28027.88
878.249	27927.88
878.491	27872.88
878.734	27885.88
878.976	27941.88
879.218	27595.88
879.46	27523.88
879.702	27360.88
879.945	27169.88
880.187	26775.88
880.429	26639.88
880.671	26565.88
880.912	26508.88
881.154	26450.88
881.396	26237.88
881.638	26402.88
881.88	26163.88
882.121	26168.88
882.363	26042.88
882.605	26023.88
882.846	25833.88
883.088	25858.88
883.329	25736.88
883.571	25621.88
883.812	25506.88
884.053	25563.88
884.295	25731.88
884.536	25832.88
884.777	25656.88
885.018	25462.88
885.259	25484.88
885.5	25440.88
885.742	25598.88
885.982	25365.88
886.223	25191.88
886.464	25208.88
886.705	24964.88
886.946	24961.88
887.187	24731.88
887.428	24533.88
887.668	24405.88
887.909	24174.88
888.15	23926.88
888.39	23944.88
888.631	23768.88
888.871	23451.88
889.111	23377.88
889.352	23279.88
889.592	23025.88
889.833	22800.88
890.073	22750.88
890.313	22659.88
890.553	22545.88
890.793	22253.88
891.033	22164.88
891.273	22141.88
891.513	22030.88
891.753	22030.88
891.993	21906.88
892.233	21894.88
892.473	22094.88
892.713	22044.88
892.952	21941.88
893.192	22082.88
893.432	21866.88
893.671	21872.88
893.911	21798.88
894.15	21580.88
894.39	21456.88
894.629	21351.88
894.869	21226.88
895.108	21042.88
895.347	20925.88
895.587	21024.88
895.826	20806.88
896.065	20759.88
896.304	20675.88
896.543	20631.88
896.782	20551.88
897.021	20473.88
897.26	20333.88
897.499	20244.88
897.738	20304.88
897.977	20025.88
898.216	19919.88
898.454	19720.88
898.693	19565.88
898.932	19521.88
899.17	19454.88
899.409	19366.88
899.647	19310.88
899.886	19254.88
900.124	19233.88
900.363	19146.88
900.601	19164.88
900.839	19128.88
901.078	19112.88
901.316	19161.88
901.554	19083.88
901.792	19063.88
902.03	19069.88
902.268	19011.88
902.506	18905.88
902.744	18876.88
902.982	18685.88
903.22	18572.88
903.458	18485.88
903.695	18316.88
903.933	18185.88
904.171	17845.88
904.409	17637.88
904.646	17510.88
904.884	17284.88
905.121	17168.88
905.359	16932.88
905.596	16866.88
905.833	16693.88
906.071	16660.88
906.308	16730.88
906.545	16556.88
906.783	16505.88
907.02	16454.88
907.257	16432.88
907.494	16343.88
907.731	16390.88
907.968	16181.88
908.205	16027.88
908.442	15956.88
908.679	15920.88
908.915	15859.88
909.152	15680.88
909.389	15573.88
909.626	15527.88
909.862	15386.88
910.099	15372.88
910.335	15253.88
910.572	15098.88
910.808	15121.88
911.045	14932.88
911.281	14934.88
911.518	14987.88
911.754	14837.88
911.99	14851.88
912.226	14663.88
912.463	14485.88
912.699	14433.88
912.935	14444.88
913.171	14158.88
913.407	14067.88
913.643	14006.88
913.879	13942.88
914.114	13766.88
914.35	13594.88
914.586	13458.88
914.822	13353.88
915.057	13280.88
915.293	13119.88
915.529	13053.88
915.764	13160.88
916	13071.88
916.235	13063.88
916.471	13031.88
916.706	12893.88
916.941	12880.88
917.177	12801.88
917.412	12864.88
917.647	12839.88
917.882	12811.88
918.117	12853.88
918.352	12762.88
918.588	12780.88
918.823	12529.88
919.057	12449.88
919.292	12228.88
919.527	12195.88
919.762	12002.88
919.997	11946.88
920.232	11815.88
920.466	11806.88
920.701	11589.88
920.935	11559.88
921.17	11455.88
921.405	11295.88
921.639	11367.88
921.873	11360.88
922.108	11241.88
922.342	11300.88
922.576	11154.88
922.811	11138.88
923.045	11115.88
923.279	11071.88
923.513	10902.88
923.747	10964.88
923.981	10916.88
924.215	10789.88
924.449	10689.88
924.683	10597.88
924.917	10542.88
925.151	10525.88
925.385	10533.88
925.618	10389.88
925.852	10439.88
926.086	10274.88
926.319	10331.88
926.553	10270.88
926.786	10358.88
927.02	10325.88
927.253	10397.88
927.486	10281.88
927.72	10122.88
927.953	10234.88
928.186	10106.88
928.42	10108.88
928.653	10006.88
928.886	9929.88
929.119	10022.88
929.352	9984.88
929.585	9843.88
929.818	9690.88
930.051	9633.88
930.284	9606.88
930.516	9478.88
930.749	9356.88
930.982	9466.88
931.215	9348.88
931.447	9213.88
931.68	9305.88
931.912	9189.88
932.145	9222.88
932.377	9205.88
932.61	9346.88
932.842	9137.88
933.074	9209.88
933.307	9146.88
933.539	9171.88
933.771	9145.88
934.003	9129.88
934.236	9167.88
934.468	9174.88
934.7	8979.88
934.932	9096.88
935.164	8971.88
935.395	8969.88
935.627	8846.88
935.859	8899.88
936.091	8771.88
936.323	8875.88
936.554	8901.88
936.786	8765.88
937.017	8684.88
937.249	8687.88
937.481	8605.88
937.712	8641.88
937.943	8595.88
938.175	8605.88
938.406	8506.88
938.637	8594.88
938.869	8426.88
939.1	8537.88
939.331	8456.88
939.562	8458.88
939.793	8456.88
940.024	8439.88
940.255	8304.88
940.486	8238.88
940.717	8240.88
940.948	8216.88
941.179	8160.88
941.409	8141.88
941.64	8106.88
941.871	8138.88
942.102	8069.88
942.332	8066.88
942.563	8133.88
942.793	8123.88
943.024	8033.88
943.254	8102.88
943.484	8067.88
943.715	8131.88
943.945	8019.88
944.175	7945.88
944.405	7875.88
944.636	7939.88
944.866	7904.88
945.096	7970.88
945.326	7857.88
945.556	7881.88
945.786	7832.88
946.016	7791.88
946.245	7609.88
946.475	7644.88
946.705	7576.88
946.935	7603.88
947.164	7520.88
947.394	7469.88
947.624	7385.88
947.853	7413.88
948.083	7392.88
948.312	7345.88
948.542	7241.88
948.771	7194.88
949	7222.88
949.23	7234.88
949.459	7238.88
949.688	7268.88
949.917	7135.88
950.146	7201.88
950.375	7238.88
950.604	7162.88
950.833	7178.88
951.062	7178.88
951.291	7115.88
951.52	7017.88
951.749	7075.88
951.978	7007.88
952.206	6960.88
952.435	6902.88
952.664	6943.88
952.892	6907.88
953.121	6915.88
953.349	6874.88
953.578	6834.88
953.806	6764.88
954.035	6690.88
954.263	6749.88
954.491	6618.88
954.719	6695.88
954.948	6585.88
955.176	6578.88
955.404	6537.88
955.632	6524.88
955.86	6523.88
956.088	6449.88
956.316	6447.88
956.544	6458.88
956.772	6366.88
956.999	6256.88
957.227	6340.88
957.455	6229.88
957.683	6224.88
957.91	6178.88
958.138	6152.88
958.365	6059.88
958.593	6110.88
958.82	6004.88
959.048	6050.88
959.275	5987.88
959.502	5939.88
959.73	6017.88
959.957	5932.88
960.184	5993.88
960.411	5904.88
960.638	5991.88
960.865	5913.88
961.092	5885.88
961.319	5805.88
961.546	5896.88
961.773	5925.88
962	5835.88
962.227	5872.88
962.454	5835.88
962.68	5724.88
962.907	5788.88
963.134	5666.88
963.36	5711.88
963.587	5678.88
963.813	5572.88
964.04	5580.88
964.266	5503.88
964.493	5577.88
964.719	5518.88
964.945	5469.88
965.171	5347.88
965.398	5420.88
965.624	5373.88
965.85	5301.88
966.076	5249.88
966.302	5327.88
966.528	5254.88
966.754	5252.88
966.98	5196.88
967.206	5246.88
967.431	5116.88
967.657	5147.88
967.883	5153.88
968.109	5152.88
968.334	5083.88
968.56	5072.88
968.785	4987.88
969.011	4966.88
969.236	5081.88
969.462	4945.88
969.687	4981.88
969.912	5036.88
970.138	4995.88
970.363	4938.88
970.588	4880.88
970.813	4886.88
971.038	4861.88
971.263	4888.88
971.488	4817.88
971.713	4895.88
971.938	4846.88
972.163	4701.88
972.388	4717.88
972.613	4743.88
972.838	4670.88
973.062	4661.88
973.287	4630.88
973.512	4579.88
973.736	4633.88
973.961	4534.88
974.185	4539.88
974.41	4544.88
974.634	4463.88
974.858	4447.88
975.083	4418.88
975.307	4429.88
975.531	4360.88
975.755	4320.88
975.98	4267.88
976.204	4198.88
976.428	4200.88
976.652	4232.88
976.876	4156.88
977.1	4138.88
977.324	4137.88
977.547	4185.88
977.771	4194.88
977.995	4114.88
978.219	4069.88
978.442	4160.88
978.666	4130.88
978.89	4110.88
979.113	4049.88
979.337	4020.88
979.56	3980.88
979.783	4075.88
980.007	3942.88
980.23	3993.88
980.453	3917.88
980.677	3964.88
980.9	3934.88
981.123	3858.88
981.346	3877.88
981.569	3864.88
981.792	3883.88
982.015	3813.88
982.238	3744.88
982.461	3807.88
982.684	3692.88
982.907	3688.88
983.129	3632.88
983.352	3706.88
983.575	3647.88
983.797	3657.88
984.02	3565.88
984.242	3624.88
984.465	3578.88
984.687	3577.88
984.91	3591.88
985.132	3543.88
985.354	3574.88
985.577	3508.88
985.799	3523.88
986.021	3374.88
986.243	3422.88
986.465	3447.88
986.687	3508.88
986.909	3493.88
987.131	3408.88
987.353	3336.88
987.575	3408.88
987.797	3338.88
988.019	3300.88
988.241	3370.88
988.462	3270.88
988.684	3335.88
988.906	3332.88
989.127	3378.88
989.349	3268.88
989.57	3257.88
989.792	3236.88
990.013	3275.88
990.234	3265.88
990.456	3247.88
990.677	3237.88
990.898	3178.88
991.119	3154.88
991.341	3197.88
991.562	3107.88
991.783	3131.88
992.004	3089.88
992.225	3021.88
992.446	3093.88
992.667	2970.88
992.887	3040.88
993.108	2954.88
993.329	3031.88
993.55	2975.88
993.77	2921.88
993.991	2908.88
994.212	2897.88
994.432	2879.88
994.653	2869.88
994.873	2887.88
995.093	2743.88
995.314	2812.88
995.534	2857.88
995.754	2842.88
995.975	2875.88
996.195	2729.88
996.415	2769.88
996.635	2744.88
996.855	2742.88
997.075	2713.88
997.295	2719.88
997.515	2696.88
997.735	2753.88
997.955	2722.88
998.174	2667.88
998.394	2635.88
998.614	2686.88
998.834	2662.88
999.053	2703.88
999.273	2660.88
999.492	2711.88
999.712	2606.88
999.931	2596.88
1000.151	2624.88
1000.37	2611.88
1000.589	2667.88
1000.809	2536.88
1001.028	2658.88
1001.247	2588.88
1001.466	2460.88
1001.685	2613.88
1001.904	2563.88
1002.123	2495.88
1002.342	2522.88
1002.561	2405.88
1002.78	2425.88
1002.999	2505.88
1003.218	2451.88
1003.436	2422.88
1003.655	2442.88
1003.874	2375.88
1004.092	2418.88
1004.311	2481.88
1004.53	2378.88
1004.748	2442.88
1004.966	2366.88
1005.185	2393.88
1005.403	2375.88
1005.622	2366.88
1005.84	2421.88
1006.058	2294.88
1006.276	2339.88
1006.494	2839.88
1006.712	2325.88
1006.931	2350.88
1007.149	2253.88
1007.367	2284.88
1007.584	2320.88
1007.802	2338.88
1008.02	2258.88
1008.238	2349.88
1008.456	2365.88
1008.673	2175.88
1008.891	2321.88
1009.109	2230.88
1009.326	2274.88
1009.544	2340.88
1009.761	2246.88
1009.979	2358.88
1010.196	2332.88
1010.413	2410.88
1010.631	2418.88
1010.848	2442.88
1011.065	2474.88
1011.282	2384.88
1011.5	2380.88
1011.717	2435.88
1011.934	2360.88
1012.151	2411.88
1012.368	2361.88
1012.585	2311.88
1012.801	2342.88
1013.018	2314.88
1013.235	2245.88
1013.452	2292.88
1013.669	2324.88
1013.885	2283.88
1014.102	2285.88
1014.318	2255.88
1014.535	2241.88
1014.751	2254.88
1014.968	2219.88
1015.184	2285.88
1015.401	2151.88
1015.617	2175.88
1015.833	2132.88
1016.049	2111.88
1016.266	2112.88
1016.482	2066.88
1016.698	2030.88
1016.914	2063.88
1017.13	2013.88
1017.346	2012.88
1017.562	2082.88
1017.778	1960.88
1017.993	1922.88
1018.209	2010.88
1018.425	1976.88
1018.641	1921.88
1018.856	1890.88
1019.072	1916.88
1019.288	1980.88
1019.503	1916.88
1019.719	1831.88
1019.934	1839.88
1020.149	1926.88
1020.365	1855.88
1020.58	1787.88
1020.795	1851.88
1021.011	1788.88
1021.226	1743.88
1021.441	1795.88
1021.656	1684.88
1021.871	1625.88
1022.086	1588.88
1022.301	1620.88
1022.516	1599.88
1022.731	1640.88
1022.946	1548.88
1023.16	1563.88
1023.375	1496.88
1023.59	1462.88
1023.804	1423.88
1024.019	1546.88
1024.234	1437.88
1024.448	1457.88
1024.663	1358.88
1024.877	1385.88
1025.092	1355.88
1025.306	1395.88
1025.52	1278.88
1025.734	1388.88
1025.949	1257.88
1026.163	1238.88
1026.377	1168.88
1026.591	1216.88
1026.805	1132.88
1027.019	1123.88
1027.233	1087.88
1027.447	1022.88
1027.661	1105.88
1027.875	1072.88
1028.088	1073.88
1028.302	988.88
1028.516	970.88
1028.73	948.88
1028.943	947.88
1029.157	872.88
1029.37	828.88
1029.584	-2.12
1029.797	-2.12
1030.011	-3.12
1030.224	0.88
