Data from QEP037381__511__17-29-47-565.txt Node

Date: Fri Dec 16 17:29:47 EST 2022
User: dcclab
Spectrometer: QEP03738
Trigger mode: 4
Integration Time (sec): 1.000000E1
Scans to average: 1
Electric dark correction enabled: true
Nonlinearity correction enabled: false
Boxcar width: 0
XAxis mode: Wavelengths
Number of Pixels in Spectrum: 1044
>>>>>Begin Spectral Data<<<<<
784.041	13.5
784.3	1.5
784.558	-5.5
784.817	-4.5
785.075	120609.5
785.334	21029.5
785.592	9937.5
785.851	6843.5
786.109	5144.5
786.368	3908.5
786.626	3175.5
786.884	2630.5
787.143	2175.5
787.401	1832.5
787.659	1614.5
787.917	1354.5
788.175	1244.5
788.433	1086.5
788.691	996.5
788.949	917.5
789.207	845.5
789.465	754.5
789.723	697.5
789.98	667.5
790.238	694.5
790.496	648.5
790.753	638.5
791.011	662.5
791.268	589.5
791.526	572.5
791.783	585.5
792.041	590.5
792.298	477.5
792.556	548.5
792.813	526.5
793.07	486.5
793.327	482.5
793.584	562.5
793.841	478.5
794.099	502.5
794.356	558.5
794.613	461.5
794.869	511.5
795.126	454.5
795.383	450.5
795.64	473.5
795.897	418.5
796.153	479.5
796.41	467.5
796.667	455.5
796.923	441.5
797.18	454.5
797.436	488.5
797.693	442.5
797.949	507.5
798.206	535.5
798.462	449.5
798.718	514.5
798.974	487.5
799.231	535.5
799.487	522.5
799.743	521.5
799.999	555.5
800.255	560.5
800.511	547.5
800.767	605.5
801.023	585.5
801.279	625.5
801.534	671.5
801.79	725.5
802.046	790.5
802.302	916.5
802.557	1077.5
802.813	1373.5
803.068	1735.5
803.324	2378.5
803.579	3260.5
803.835	4607.5
804.09	6391.5
804.345	8354.5
804.601	10618.5
804.856	12946.5
805.111	14987.5
805.366	16437.5
805.621	17569.5
805.876	18284.5
806.131	18813.5
806.386	19056.5
806.641	19350.5
806.896	19762.5
807.151	20121.5
807.406	20312.5
807.661	20650.5
807.915	21012.5
808.17	21311.5
808.425	21497.5
808.679	21584.5
808.934	21874.5
809.188	22081.5
809.443	22234.5
809.697	22410.5
809.951	22525.5
810.206	22736.5
810.46	22901.5
810.714	23139.5
810.968	23351.5
811.223	23533.5
811.477	23650.5
811.731	23874.5
811.985	23876.5
812.239	24142.5
812.493	24307.5
812.747	24315.5
813	24376.5
813.254	24381.5
813.508	24720.5
813.762	24707.5
814.015	24629.5
814.269	24880.5
814.522	25033.5
814.776	25286.5
815.03	25572.5
815.283	25924.5
815.536	26421.5
815.79	26637.5
816.043	27078.5
816.296	27330.5
816.55	27643.5
816.803	27967.5
817.056	28294.5
817.309	28520.5
817.562	28759.5
817.815	28990.5
818.068	29044.5
818.321	29442.5
818.574	29590.5
818.827	30128.5
819.079	30305.5
819.332	30864.5
819.585	31172.5
819.838	31642.5
820.09	31870.5
820.343	32054.5
820.595	32209.5
820.848	32376.5
821.1	32536.5
821.353	32466.5
821.605	32482.5
821.857	32452.5
822.11	32285.5
822.362	32215.5
822.614	32169.5
822.866	32257.5
823.118	32154.5
823.37	32352.5
823.622	32328.5
823.874	32471.5
824.126	32573.5
824.378	32623.5
824.63	32615.5
824.882	32696.5
825.134	32686.5
825.385	32590.5
825.637	32570.5
825.888	32459.5
826.14	32422.5
826.392	32281.5
826.643	32051.5
826.895	31916.5
827.146	31864.5
827.397	31690.5
827.649	31776.5
827.9	31805.5
828.151	31852.5
828.402	31878.5
828.653	31942.5
828.905	31998.5
829.156	32063.5
829.407	31977.5
829.658	31933.5
829.909	32012.5
830.159	31930.5
830.41	31833.5
830.661	31611.5
830.912	31371.5
831.162	31257.5
831.413	31219.5
831.664	31110.5
831.914	31009.5
832.165	30992.5
832.415	31109.5
832.666	31245.5
832.916	31031.5
833.167	30959.5
833.417	30976.5
833.667	30935.5
833.917	30775.5
834.168	30739.5
834.418	30700.5
834.668	30520.5
834.918	30322.5
835.168	30286.5
835.418	30184.5
835.668	30148.5
835.918	30105.5
836.167	29972.5
836.417	29925.5
836.667	29811.5
836.917	29850.5
837.166	29671.5
837.416	29730.5
837.666	29560.5
837.915	29534.5
838.165	29449.5
838.414	29371.5
838.663	29364.5
838.913	29219.5
839.162	29091.5
839.411	29113.5
839.661	28871.5
839.91	28934.5
840.159	28802.5
840.408	28706.5
840.657	28737.5
840.906	28745.5
841.155	28747.5
841.404	28715.5
841.653	28729.5
841.902	28652.5
842.15	28703.5
842.399	28789.5
842.648	28592.5
842.897	28550.5
843.145	28300.5
843.394	28313.5
843.642	28009.5
843.891	27942.5
844.139	27703.5
844.388	27642.5
844.636	27481.5
844.884	27457.5
845.133	27432.5
845.381	27396.5
845.629	27433.5
845.877	27321.5
846.125	27208.5
846.373	27129.5
846.621	27118.5
846.869	27080.5
847.117	26940.5
847.365	26692.5
847.613	26628.5
847.861	26486.5
848.108	26442.5
848.356	26427.5
848.604	26357.5
848.851	26290.5
849.099	26321.5
849.346	26457.5
849.594	26417.5
849.841	26505.5
850.089	26602.5
850.336	26520.5
850.583	26589.5
850.831	26396.5
851.078	26196.5
851.325	26047.5
851.572	26009.5
851.819	25672.5
852.066	25448.5
852.313	25160.5
852.56	24988.5
852.807	24915.5
853.054	24751.5
853.301	24739.5
853.548	24687.5
853.794	24856.5
854.041	24729.5
854.288	24949.5
854.534	25134.5
854.781	25111.5
855.028	24964.5
855.274	24979.5
855.52	24906.5
855.767	24630.5
856.013	24660.5
856.26	24914.5
856.506	24280.5
856.752	24358.5
856.998	24317.5
857.244	24261.5
857.49	24472.5
857.736	24536.5
857.982	24497.5
858.228	24450.5
858.474	24205.5
858.72	24139.5
858.966	23946.5
859.212	23714.5
859.458	23372.5
859.703	23275.5
859.949	22993.5
860.195	22913.5
860.44	22715.5
860.686	22627.5
860.931	22463.5
861.177	22451.5
861.422	22458.5
861.667	22250.5
861.913	22416.5
862.158	22299.5
862.403	22407.5
862.648	22424.5
862.893	22500.5
863.138	22459.5
863.384	22361.5
863.629	22423.5
863.873	22272.5
864.118	22269.5
864.363	22122.5
864.608	21998.5
864.853	21902.5
865.098	21736.5
865.342	21742.5
865.587	21697.5
865.832	21619.5
866.076	21640.5
866.321	21464.5
866.565	21296.5
866.81	21174.5
867.054	21220.5
867.298	21110.5
867.543	21140.5
867.787	21060.5
868.031	21026.5
868.275	20958.5
868.519	20892.5
868.764	20811.5
869.008	20733.5
869.252	20683.5
869.496	20561.5
869.739	20490.5
869.983	20525.5
870.227	20332.5
870.471	20396.5
870.715	20397.5
870.958	20424.5
871.202	20377.5
871.446	20554.5
871.689	20309.5
871.933	20470.5
872.176	20463.5
872.42	20386.5
872.663	20240.5
872.906	20262.5
873.15	20088.5
873.393	20077.5
873.636	19946.5
873.879	19766.5
874.122	19569.5
874.366	19250.5
874.609	19264.5
874.852	19073.5
875.095	19060.5
875.337	18948.5
875.58	18812.5
875.823	18804.5
876.066	18743.5
876.309	18804.5
876.551	18457.5
876.794	18460.5
877.037	18461.5
877.279	18344.5
877.522	18440.5
877.764	18494.5
878.007	18409.5
878.249	18323.5
878.491	18353.5
878.734	18300.5
878.976	18287.5
879.218	18120.5
879.46	18158.5
879.702	17956.5
879.945	17799.5
880.187	17649.5
880.429	17626.5
880.671	17493.5
880.912	17443.5
881.154	17362.5
881.396	17145.5
881.638	17307.5
881.88	17296.5
882.121	17111.5
882.363	17231.5
882.605	17200.5
882.846	17125.5
883.088	16930.5
883.329	16965.5
883.571	16762.5
883.812	16878.5
884.053	17063.5
884.295	17153.5
884.536	17230.5
884.777	17193.5
885.018	16969.5
885.259	17026.5
885.5	16798.5
885.742	17132.5
885.982	16786.5
886.223	16700.5
886.464	16708.5
886.705	16574.5
886.946	16565.5
887.187	16295.5
887.428	16266.5
887.668	16063.5
887.909	15917.5
888.15	15793.5
888.39	15693.5
888.631	15641.5
888.871	15497.5
889.111	15377.5
889.352	15271.5
889.592	15156.5
889.833	15071.5
890.073	14941.5
890.313	14960.5
890.553	14767.5
890.793	14736.5
891.033	14646.5
891.273	14583.5
891.513	14549.5
891.753	14558.5
891.993	14394.5
892.233	14537.5
892.473	14526.5
892.713	14493.5
892.952	14467.5
893.192	14386.5
893.432	14426.5
893.671	14415.5
893.911	14264.5
894.15	14319.5
894.39	14076.5
894.629	14024.5
894.869	13975.5
895.108	13867.5
895.347	13718.5
895.587	13805.5
895.826	13605.5
896.065	13673.5
896.304	13645.5
896.543	13653.5
896.782	13524.5
897.021	13499.5
897.26	13407.5
897.499	13482.5
897.738	13357.5
897.977	13324.5
898.216	13179.5
898.454	13078.5
898.693	12936.5
898.932	12914.5
899.17	12781.5
899.409	12747.5
899.647	12690.5
899.886	12644.5
900.124	12770.5
900.363	12632.5
900.601	12720.5
900.839	12740.5
901.078	12586.5
901.316	12610.5
901.554	12700.5
901.792	12691.5
902.03	12668.5
902.268	12620.5
902.506	12651.5
902.744	12450.5
902.982	12561.5
903.22	12352.5
903.458	12304.5
903.695	12122.5
903.933	11916.5
904.171	11854.5
904.409	11644.5
904.646	11578.5
904.884	11460.5
905.121	11338.5
905.359	11134.5
905.596	11151.5
905.833	11132.5
906.071	10918.5
906.308	10947.5
906.545	10992.5
906.783	10859.5
907.02	10949.5
907.257	10808.5
907.494	10833.5
907.731	10884.5
907.968	10762.5
908.205	10678.5
908.442	10556.5
908.679	10604.5
908.915	10464.5
909.152	10410.5
909.389	10189.5
909.626	10258.5
909.862	10076.5
910.099	10088.5
910.335	10114.5
910.572	10008.5
910.808	10022.5
911.045	9946.5
911.281	9950.5
911.518	9970.5
911.754	9791.5
911.99	9808.5
912.226	9689.5
912.463	9638.5
912.699	9605.5
912.935	9528.5
913.171	9458.5
913.407	9344.5
913.643	9344.5
913.879	9229.5
914.114	9119.5
914.35	8943.5
914.586	8941.5
914.822	8795.5
915.057	8858.5
915.293	8693.5
915.529	8679.5
915.764	8709.5
916	8651.5
916.235	8631.5
916.471	8599.5
916.706	8557.5
916.941	8544.5
917.177	8536.5
917.412	8577.5
917.647	8555.5
917.882	8488.5
918.117	8476.5
918.352	8444.5
918.588	8490.5
918.823	8342.5
919.057	8253.5
919.292	8093.5
919.527	8089.5
919.762	8016.5
919.997	7980.5
920.232	7879.5
920.466	7864.5
920.701	7660.5
920.935	7725.5
921.17	7637.5
921.405	7560.5
921.639	7558.5
921.873	7535.5
922.108	7491.5
922.342	7538.5
922.576	7424.5
922.811	7371.5
923.045	7382.5
923.279	7360.5
923.513	7214.5
923.747	7285.5
923.981	7236.5
924.215	7124.5
924.449	7070.5
924.683	7099.5
924.917	6960.5
925.151	7006.5
925.385	7006.5
925.618	6993.5
925.852	6954.5
926.086	6817.5
926.319	6946.5
926.553	6836.5
926.786	6899.5
927.02	6907.5
927.253	6826.5
927.486	6879.5
927.72	6816.5
927.953	6842.5
928.186	6754.5
928.42	6820.5
928.653	6682.5
928.886	6647.5
929.119	6695.5
929.352	6609.5
929.585	6567.5
929.818	6543.5
930.051	6527.5
930.284	6436.5
930.516	6314.5
930.749	6315.5
930.982	6328.5
931.215	6283.5
931.447	6154.5
931.68	6169.5
931.912	6206.5
932.145	6150.5
932.377	6165.5
932.61	6313.5
932.842	6123.5
933.074	6181.5
933.307	6098.5
933.539	6131.5
933.771	6168.5
934.003	6138.5
934.236	6169.5
934.468	6151.5
934.7	6054.5
934.932	6058.5
935.164	5981.5
935.395	5984.5
935.627	5972.5
935.859	5950.5
936.091	5869.5
936.323	6005.5
936.554	5925.5
936.786	5872.5
937.017	5816.5
937.249	5895.5
937.481	5777.5
937.712	5826.5
937.943	5787.5
938.175	5747.5
938.406	5708.5
938.637	5810.5
938.869	5660.5
939.1	5758.5
939.331	5667.5
939.562	5709.5
939.793	5624.5
940.024	5700.5
940.255	5626.5
940.486	5571.5
940.717	5556.5
940.948	5535.5
941.179	5529.5
941.409	5473.5
941.64	5468.5
941.871	5421.5
942.102	5393.5
942.332	5438.5
942.563	5438.5
942.793	5440.5
943.024	5399.5
943.254	5408.5
943.484	5437.5
943.715	5485.5
943.945	5410.5
944.175	5312.5
944.405	5308.5
944.636	5315.5
944.866	5392.5
945.096	5367.5
945.326	5288.5
945.556	5337.5
945.786	5302.5
946.016	5200.5
946.245	5148.5
946.475	5141.5
946.705	5122.5
946.935	5091.5
947.164	5074.5
947.394	5017.5
947.624	5010.5
947.853	5074.5
948.083	5017.5
948.312	4942.5
948.542	4917.5
948.771	4846.5
949	4879.5
949.23	4875.5
949.459	4881.5
949.688	4942.5
949.917	4863.5
950.146	4901.5
950.375	4857.5
950.604	4847.5
950.833	4868.5
951.062	4880.5
951.291	4817.5
951.52	4700.5
951.749	4743.5
951.978	4723.5
952.206	4746.5
952.435	4668.5
952.664	4729.5
952.892	4744.5
953.121	4664.5
953.349	4721.5
953.578	4664.5
953.806	4601.5
954.035	4518.5
954.263	4615.5
954.491	4500.5
954.719	4521.5
954.948	4463.5
955.176	4453.5
955.404	4386.5
955.632	4425.5
955.86	4410.5
956.088	4424.5
956.316	4411.5
956.544	4430.5
956.772	4363.5
956.999	4254.5
957.227	4364.5
957.455	4239.5
957.683	4266.5
957.91	4228.5
958.138	4161.5
958.365	4168.5
958.593	4167.5
958.82	4061.5
959.048	4133.5
959.275	4098.5
959.502	4115.5
959.73	4030.5
959.957	4078.5
960.184	4085.5
960.411	4042.5
960.638	4124.5
960.865	4045.5
961.092	4059.5
961.319	3925.5
961.546	4015.5
961.773	4067.5
962	3996.5
962.227	4028.5
962.454	4016.5
962.68	3934.5
962.907	4002.5
963.134	3923.5
963.36	3922.5
963.587	3904.5
963.813	3821.5
964.04	3843.5
964.266	3791.5
964.493	3853.5
964.719	3780.5
964.945	3833.5
965.171	3680.5
965.398	3727.5
965.624	3728.5
965.85	3675.5
966.076	3614.5
966.302	3672.5
966.528	3652.5
966.754	3635.5
966.98	3605.5
967.206	3577.5
967.431	3483.5
967.657	3596.5
967.883	3585.5
968.109	3556.5
968.334	3502.5
968.56	3491.5
968.785	3514.5
969.011	3416.5
969.236	3482.5
969.462	3410.5
969.687	3468.5
969.912	3475.5
970.138	3507.5
970.363	3383.5
970.588	3418.5
970.813	3421.5
971.038	3365.5
971.263	3399.5
971.488	3385.5
971.713	3395.5
971.938	3364.5
972.163	3269.5
972.388	3292.5
972.613	3287.5
972.838	3258.5
973.062	3228.5
973.287	3197.5
973.512	3182.5
973.736	3200.5
973.961	3147.5
974.185	3101.5
974.41	3195.5
974.634	3074.5
974.858	3075.5
975.083	3099.5
975.307	3084.5
975.531	3038.5
975.755	2981.5
975.98	3006.5
976.204	2915.5
976.428	2912.5
976.652	2915.5
976.876	2887.5
977.1	2934.5
977.324	2890.5
977.547	2936.5
977.771	2884.5
977.995	2866.5
978.219	2817.5
978.442	2933.5
978.666	2863.5
978.89	2854.5
979.113	2850.5
979.337	2853.5
979.56	2841.5
979.783	2850.5
980.007	2761.5
980.23	2780.5
980.453	2743.5
980.677	2755.5
980.9	2769.5
981.123	2671.5
981.346	2747.5
981.569	2728.5
981.792	2703.5
982.015	2680.5
982.238	2656.5
982.461	2657.5
982.684	2613.5
982.907	2568.5
983.129	2567.5
983.352	2605.5
983.575	2594.5
983.797	2582.5
984.02	2520.5
984.242	2535.5
984.465	2524.5
984.687	2546.5
984.91	2542.5
985.132	2508.5
985.354	2539.5
985.577	2501.5
985.799	2521.5
986.021	2432.5
986.243	2404.5
986.465	2435.5
986.687	2471.5
986.909	2511.5
987.131	2415.5
987.353	2369.5
987.575	2395.5
987.797	2359.5
988.019	2325.5
988.241	2416.5
988.462	2322.5
988.684	2368.5
988.906	2412.5
989.127	2423.5
989.349	2283.5
989.57	2327.5
989.792	2341.5
990.013	2368.5
990.234	2347.5
990.456	2386.5
990.677	2351.5
990.898	2271.5
991.119	2297.5
991.341	2322.5
991.562	2258.5
991.783	2278.5
992.004	2194.5
992.225	2165.5
992.446	2239.5
992.667	2160.5
992.887	2207.5
993.108	2089.5
993.329	2198.5
993.55	2185.5
993.77	2078.5
993.991	2103.5
994.212	2132.5
994.432	2078.5
994.653	2104.5
994.873	2067.5
995.093	1968.5
995.314	2020.5
995.534	2096.5
995.754	2105.5
995.975	2143.5
996.195	1993.5
996.415	2069.5
996.635	2001.5
996.855	2043.5
997.075	2017.5
997.295	1996.5
997.515	1951.5
997.735	2025.5
997.955	1993.5
998.174	2007.5
998.394	1919.5
998.614	1976.5
998.834	1922.5
999.053	2007.5
999.273	1974.5
999.492	2021.5
999.712	1982.5
999.931	1907.5
1000.151	1932.5
1000.37	1913.5
1000.589	1973.5
1000.809	1911.5
1001.028	2019.5
1001.247	1936.5
1001.466	1835.5
1001.685	1956.5
1001.904	1919.5
1002.123	1897.5
1002.342	1886.5
1002.561	1822.5
1002.78	1855.5
1002.999	1883.5
1003.218	1850.5
1003.436	1835.5
1003.655	1864.5
1003.874	1799.5
1004.092	1803.5
1004.311	1874.5
1004.53	1811.5
1004.748	1893.5
1004.966	1799.5
1005.185	1858.5
1005.403	1825.5
1005.622	1817.5
1005.84	1854.5
1006.058	1781.5
1006.276	1797.5
1006.494	2221.5
1006.712	1777.5
1006.931	1833.5
1007.149	1723.5
1007.367	1749.5
1007.584	1772.5
1007.802	1843.5
1008.02	1747.5
1008.238	1839.5
1008.456	1830.5
1008.673	1690.5
1008.891	1806.5
1009.109	1732.5
1009.326	1770.5
1009.544	1869.5
1009.761	1740.5
1009.979	1851.5
1010.196	1857.5
1010.413	1926.5
1010.631	1948.5
1010.848	1986.5
1011.065	1959.5
1011.282	1919.5
1011.5	1891.5
1011.717	1978.5
1011.934	1886.5
1012.151	1924.5
1012.368	1926.5
1012.585	1844.5
1012.801	1895.5
1013.018	1887.5
1013.235	1801.5
1013.452	1839.5
1013.669	1849.5
1013.885	1829.5
1014.102	1879.5
1014.318	1827.5
1014.535	1780.5
1014.751	1812.5
1014.968	1816.5
1015.184	1846.5
1015.401	1755.5
1015.617	1761.5
1015.833	1729.5
1016.049	1691.5
1016.266	1721.5
1016.482	1702.5
1016.698	1617.5
1016.914	1655.5
1017.13	1616.5
1017.346	1610.5
1017.562	1652.5
1017.778	1627.5
1017.993	1586.5
1018.209	1622.5
1018.425	1613.5
1018.641	1546.5
1018.856	1523.5
1019.072	1575.5
1019.288	1589.5
1019.503	1565.5
1019.719	1462.5
1019.934	1490.5
1020.149	1556.5
1020.365	1492.5
1020.58	1438.5
1020.795	1502.5
1021.011	1425.5
1021.226	1433.5
1021.441	1441.5
1021.656	1354.5
1021.871	1300.5
1022.086	1284.5
1022.301	1272.5
1022.516	1260.5
1022.731	1323.5
1022.946	1245.5
1023.16	1234.5
1023.375	1195.5
1023.59	1191.5
1023.804	1164.5
1024.019	1252.5
1024.234	1123.5
1024.448	1162.5
1024.663	1088.5
1024.877	1102.5
1025.092	1117.5
1025.306	1099.5
1025.52	1019.5
1025.734	1104.5
1025.949	1012.5
1026.163	999.5
1026.377	923.5
1026.591	988.5
1026.805	918.5
1027.019	902.5
1027.233	853.5
1027.447	815.5
1027.661	923.5
1027.875	837.5
1028.088	844.5
1028.302	786.5
1028.516	768.5
1028.73	756.5
1028.943	758.5
1029.157	703.5
1029.37	648.5
1029.584	2.5
1029.797	-0.5
1030.011	-4.5
1030.224	-2.5
