Data from QEP037381__507__17-29-07-565.txt Node

Date: Fri Dec 16 17:29:07 EST 2022
User: dcclab
Spectrometer: QEP03738
Trigger mode: 4
Integration Time (sec): 1.000000E1
Scans to average: 1
Electric dark correction enabled: true
Nonlinearity correction enabled: false
Boxcar width: 0
XAxis mode: Wavelengths
Number of Pixels in Spectrum: 1044
>>>>>Begin Spectral Data<<<<<
784.041	12.62
784.3	0.62
784.558	-3.38
784.817	-3.38
785.075	127690.62
785.334	22019.62
785.592	10231.62
785.851	7082.62
786.109	5272.62
786.368	4078.62
786.626	3312.62
786.884	2737.62
787.143	2262.62
787.401	1871.62
787.659	1698.62
787.917	1403.62
788.175	1316.62
788.433	1163.62
788.691	1027.62
788.949	917.62
789.207	877.62
789.465	782.62
789.723	739.62
789.98	684.62
790.238	695.62
790.496	662.62
790.753	642.62
791.011	665.62
791.268	602.62
791.526	578.62
791.783	593.62
792.041	573.62
792.298	494.62
792.556	551.62
792.813	530.62
793.07	519.62
793.327	482.62
793.584	568.62
793.841	494.62
794.099	512.62
794.356	549.62
794.613	450.62
794.869	488.62
795.126	465.62
795.383	452.62
795.64	464.62
795.897	394.62
796.153	473.62
796.41	455.62
796.667	452.62
796.923	460.62
797.18	451.62
797.436	479.62
797.693	442.62
797.949	492.62
798.206	539.62
798.462	454.62
798.718	510.62
798.974	490.62
799.231	535.62
799.487	525.62
799.743	526.62
799.999	560.62
800.255	556.62
800.511	551.62
800.767	602.62
801.023	590.62
801.279	635.62
801.534	681.62
801.79	749.62
802.046	791.62
802.302	960.62
802.557	1093.62
802.813	1384.62
803.068	1728.62
803.324	2470.62
803.579	3357.62
803.835	4727.62
804.09	6539.62
804.345	8665.62
804.601	11008.62
804.856	13364.62
805.111	15473.62
805.366	17235.62
805.621	18266.62
805.876	19084.62
806.131	19482.62
806.386	20004.62
806.641	20148.62
806.896	20531.62
807.151	20974.62
807.406	21167.62
807.661	21536.62
807.915	21797.62
808.17	22242.62
808.425	22353.62
808.679	22471.62
808.934	22797.62
809.188	22937.62
809.443	23277.62
809.697	23413.62
809.951	23650.62
810.206	23750.62
810.46	23940.62
810.714	24090.62
810.968	24328.62
811.223	24475.62
811.477	24599.62
811.731	24857.62
811.985	24936.62
812.239	25051.62
812.493	25201.62
812.747	25237.62
813	25390.62
813.254	25401.62
813.508	25467.62
813.762	25554.62
814.015	25664.62
814.269	25861.62
814.522	26047.62
814.776	26412.62
815.03	26808.62
815.283	26943.62
815.536	27429.62
815.79	27812.62
816.043	28110.62
816.296	28403.62
816.55	28756.62
816.803	29072.62
817.056	29312.62
817.309	29637.62
817.562	29827.62
817.815	30058.62
818.068	30272.62
818.321	30701.62
818.574	30915.62
818.827	31275.62
819.079	31759.62
819.332	32230.62
819.585	32503.62
819.838	32951.62
820.09	33065.62
820.343	33384.62
820.595	33591.62
820.848	33721.62
821.1	33777.62
821.353	33867.62
821.605	33753.62
821.857	33714.62
822.11	33630.62
822.362	33605.62
822.614	33533.62
822.866	33628.62
823.118	33449.62
823.37	33729.62
823.622	33687.62
823.874	33762.62
824.126	33930.62
824.378	33827.62
824.63	33999.62
824.882	34064.62
825.134	34077.62
825.385	34091.62
825.637	33914.62
825.888	33969.62
826.14	33680.62
826.392	33680.62
826.643	33475.62
826.895	33422.62
827.146	33129.62
827.397	33217.62
827.649	33088.62
827.9	33204.62
828.151	33213.62
828.402	33189.62
828.653	33233.62
828.905	33367.62
829.156	33450.62
829.407	33264.62
829.658	33260.62
829.909	33188.62
830.159	33187.62
830.41	33210.62
830.661	32903.62
830.912	32695.62
831.162	32560.62
831.413	32481.62
831.664	32554.62
831.914	32365.62
832.165	32456.62
832.415	32413.62
832.666	32447.62
832.916	32501.62
833.167	32233.62
833.417	32173.62
833.667	32256.62
833.917	31983.62
834.168	31935.62
834.418	31881.62
834.668	31852.62
834.918	31626.62
835.168	31525.62
835.418	31426.62
835.668	31361.62
835.918	31201.62
836.167	31196.62
836.417	31122.62
836.667	30993.62
836.917	31065.62
837.166	30819.62
837.416	31040.62
837.666	30718.62
837.915	30615.62
838.165	30663.62
838.414	30504.62
838.663	30411.62
838.913	30396.62
839.162	30216.62
839.411	30183.62
839.661	30118.62
839.91	29951.62
840.159	29966.62
840.408	29938.62
840.657	29951.62
840.906	29925.62
841.155	29873.62
841.404	29884.62
841.653	29935.62
841.902	29904.62
842.15	29974.62
842.399	29844.62
842.648	29833.62
842.897	29682.62
843.145	29520.62
843.394	29479.62
843.642	29276.62
843.891	29002.62
844.139	29032.62
844.388	28759.62
844.636	28597.62
844.884	28638.62
845.133	28505.62
845.381	28413.62
845.629	28544.62
845.877	28362.62
846.125	28409.62
846.373	28298.62
846.621	28114.62
846.869	28205.62
847.117	27940.62
847.365	27783.62
847.613	27592.62
847.861	27597.62
848.108	27457.62
848.356	27400.62
848.604	27455.62
848.851	27442.62
849.099	27322.62
849.346	27546.62
849.594	27489.62
849.841	27635.62
850.089	27722.62
850.336	27669.62
850.583	27557.62
850.831	27405.62
851.078	27333.62
851.325	27141.62
851.572	26996.62
851.819	26804.62
852.066	26370.62
852.313	26220.62
852.56	25944.62
852.807	25903.62
853.054	25682.62
853.301	25747.62
853.548	25635.62
853.794	25794.62
854.041	25919.62
854.288	25922.62
854.534	26280.62
854.781	26175.62
855.028	26036.62
855.274	25925.62
855.52	25797.62
855.767	25604.62
856.013	25558.62
856.26	25767.62
856.506	25199.62
856.752	25255.62
856.998	25354.62
857.244	25232.62
857.49	25438.62
857.736	25413.62
857.982	25454.62
858.228	25398.62
858.474	25250.62
858.72	25124.62
858.966	24840.62
859.212	24603.62
859.458	24387.62
859.703	24250.62
859.949	23891.62
860.195	23675.62
860.44	23588.62
860.686	23501.62
860.931	23455.62
861.177	23343.62
861.422	23272.62
861.667	23213.62
861.913	23268.62
862.158	23252.62
862.403	23387.62
862.648	23405.62
862.893	23330.62
863.138	23373.62
863.384	23193.62
863.629	23277.62
863.873	23236.62
864.118	23103.62
864.363	22925.62
864.608	23014.62
864.853	22794.62
865.098	22775.62
865.342	22580.62
865.587	22480.62
865.832	22450.62
866.076	22430.62
866.321	22241.62
866.565	22267.62
866.81	22038.62
867.054	22072.62
867.298	22015.62
867.543	21946.62
867.787	21884.62
868.031	21914.62
868.275	21835.62
868.519	21670.62
868.764	21625.62
869.008	21484.62
869.252	21456.62
869.496	21406.62
869.739	21300.62
869.983	21233.62
870.227	21064.62
870.471	21134.62
870.715	21152.62
870.958	21245.62
871.202	21212.62
871.446	21281.62
871.689	21162.62
871.933	21248.62
872.176	21221.62
872.42	21149.62
872.663	21086.62
872.906	21033.62
873.15	20916.62
873.393	20620.62
873.636	20720.62
873.879	20374.62
874.122	20282.62
874.366	20038.62
874.609	19971.62
874.852	19834.62
875.095	19701.62
875.337	19676.62
875.58	19533.62
875.823	19531.62
876.066	19413.62
876.309	19395.62
876.551	19344.62
876.794	19138.62
877.037	19192.62
877.279	19058.62
877.522	19177.62
877.764	19177.62
878.007	19069.62
878.249	19153.62
878.491	19022.62
878.734	19110.62
878.976	18907.62
879.218	18931.62
879.46	18834.62
879.702	18614.62
879.945	18448.62
880.187	18312.62
880.429	18262.62
880.671	18163.62
880.912	18190.62
881.154	17971.62
881.396	17946.62
881.638	18007.62
881.88	17990.62
882.121	17890.62
882.363	17786.62
882.605	17795.62
882.846	17705.62
883.088	17596.62
883.329	17485.62
883.571	17468.62
883.812	17573.62
884.053	17517.62
884.295	17707.62
884.536	17871.62
884.777	17641.62
885.018	17614.62
885.259	17608.62
885.5	17447.62
885.742	17648.62
885.982	17472.62
886.223	17301.62
886.464	17170.62
886.705	17160.62
886.946	17107.62
887.187	16851.62
887.428	16897.62
887.668	16647.62
887.909	16429.62
888.15	16410.62
888.39	16390.62
888.631	16237.62
888.871	16105.62
889.111	16123.62
889.352	15988.62
889.592	15757.62
889.833	15680.62
890.073	15576.62
890.313	15461.62
890.553	15277.62
890.793	15210.62
891.033	15270.62
891.273	15074.62
891.513	15079.62
891.753	15064.62
891.993	15085.62
892.233	15006.62
892.473	15046.62
892.713	15055.62
892.952	14994.62
893.192	15068.62
893.432	15060.62
893.671	15037.62
893.911	14865.62
894.15	14815.62
894.39	14611.62
894.629	14569.62
894.869	14504.62
895.108	14372.62
895.347	14301.62
895.587	14266.62
895.826	14217.62
896.065	14213.62
896.304	14261.62
896.543	14146.62
896.782	14071.62
897.021	14015.62
897.26	13980.62
897.499	13917.62
897.738	13899.62
897.977	13720.62
898.216	13659.62
898.454	13524.62
898.693	13382.62
898.932	13305.62
899.17	13218.62
899.409	13178.62
899.647	13191.62
899.886	13128.62
900.124	13160.62
900.363	13081.62
900.601	13124.62
900.839	13183.62
901.078	13104.62
901.316	13054.62
901.554	13146.62
901.792	13167.62
902.03	12994.62
902.268	13044.62
902.506	12983.62
902.744	12912.62
902.982	12919.62
903.22	12801.62
903.458	12666.62
903.695	12638.62
903.933	12395.62
904.171	12264.62
904.409	12096.62
904.646	12049.62
904.884	11868.62
905.121	11837.62
905.359	11652.62
905.596	11576.62
905.833	11457.62
906.071	11416.62
906.308	11398.62
906.545	11397.62
906.783	11347.62
907.02	11278.62
907.257	11278.62
907.494	11200.62
907.731	11196.62
907.968	11206.62
908.205	11064.62
908.442	11027.62
908.679	10927.62
908.915	10817.62
909.152	10808.62
909.389	10651.62
909.626	10652.62
909.862	10544.62
910.099	10487.62
910.335	10549.62
910.572	10372.62
910.808	10368.62
911.045	10349.62
911.281	10328.62
911.518	10307.62
911.754	10184.62
911.99	10141.62
912.226	10092.62
912.463	9964.62
912.699	9961.62
912.935	9858.62
913.171	9752.62
913.407	9707.62
913.643	9573.62
913.879	9540.62
914.114	9471.62
914.35	9401.62
914.586	9284.62
914.822	9197.62
915.057	9232.62
915.293	9048.62
915.529	8958.62
915.764	9075.62
916	8954.62
916.235	8966.62
916.471	8999.62
916.706	8829.62
916.941	8904.62
917.177	8894.62
917.412	8853.62
917.647	8845.62
917.882	8745.62
918.117	8884.62
918.352	8804.62
918.588	8793.62
918.823	8629.62
919.057	8566.62
919.292	8422.62
919.527	8440.62
919.762	8303.62
919.997	8308.62
920.232	8117.62
920.466	8133.62
920.701	8037.62
920.935	7977.62
921.17	7875.62
921.405	7823.62
921.639	7856.62
921.873	7760.62
922.108	7772.62
922.342	7763.62
922.576	7685.62
922.811	7678.62
923.045	7696.62
923.279	7679.62
923.513	7508.62
923.747	7597.62
923.981	7539.62
924.215	7394.62
924.449	7405.62
924.683	7283.62
924.917	7301.62
925.151	7315.62
925.385	7269.62
925.618	7189.62
925.852	7192.62
926.086	7095.62
926.319	7107.62
926.553	7166.62
926.786	7151.62
927.02	7142.62
927.253	7207.62
927.486	7082.62
927.72	7042.62
927.953	7093.62
928.186	7035.62
928.42	7017.62
928.653	6915.62
928.886	6919.62
929.119	6896.62
929.352	6830.62
929.585	6826.62
929.818	6811.62
930.051	6748.62
930.284	6713.62
930.516	6567.62
930.749	6524.62
930.982	6555.62
931.215	6472.62
931.447	6409.62
931.68	6401.62
931.912	6383.62
932.145	6342.62
932.377	6395.62
932.61	6478.62
932.842	6279.62
933.074	6401.62
933.307	6306.62
933.539	6377.62
933.771	6389.62
934.003	6342.62
934.236	6373.62
934.468	6405.62
934.7	6279.62
934.932	6274.62
935.164	6244.62
935.395	6171.62
935.627	6195.62
935.859	6178.62
936.091	6117.62
936.323	6172.62
936.554	6137.62
936.786	6048.62
937.017	5997.62
937.249	6045.62
937.481	5970.62
937.712	6035.62
937.943	6000.62
938.175	5898.62
938.406	5942.62
938.637	5960.62
938.869	5848.62
939.1	5931.62
939.331	5865.62
939.562	5872.62
939.793	5848.62
940.024	5809.62
940.255	5839.62
940.486	5769.62
940.717	5723.62
940.948	5728.62
941.179	5632.62
941.409	5687.62
941.64	5643.62
941.871	5627.62
942.102	5631.62
942.332	5617.62
942.563	5665.62
942.793	5613.62
943.024	5576.62
943.254	5592.62
943.484	5614.62
943.715	5639.62
943.945	5578.62
944.175	5568.62
944.405	5523.62
944.636	5548.62
944.866	5535.62
945.096	5486.62
945.326	5500.62
945.556	5519.62
945.786	5454.62
946.016	5415.62
946.245	5328.62
946.475	5256.62
946.705	5303.62
946.935	5271.62
947.164	5265.62
947.394	5223.62
947.624	5199.62
947.853	5181.62
948.083	5193.62
948.312	5106.62
948.542	5091.62
948.771	5046.62
949	5042.62
949.23	5060.62
949.459	5030.62
949.688	5086.62
949.917	5026.62
950.146	5023.62
950.375	5081.62
950.604	4990.62
950.833	5073.62
951.062	5044.62
951.291	4972.62
951.52	4939.62
951.749	4969.62
951.978	4920.62
952.206	4907.62
952.435	4865.62
952.664	4916.62
952.892	4864.62
953.121	4898.62
953.349	4853.62
953.578	4840.62
953.806	4801.62
954.035	4741.62
954.263	4780.62
954.491	4671.62
954.719	4731.62
954.948	4654.62
955.176	4676.62
955.404	4527.62
955.632	4603.62
955.86	4592.62
956.088	4572.62
956.316	4574.62
956.544	4522.62
956.772	4445.62
956.999	4425.62
957.227	4504.62
957.455	4400.62
957.683	4388.62
957.91	4346.62
958.138	4331.62
958.365	4359.62
958.593	4298.62
958.82	4248.62
959.048	4312.62
959.275	4224.62
959.502	4137.62
959.73	4212.62
959.957	4224.62
960.184	4151.62
960.411	4166.62
960.638	4222.62
960.865	4140.62
961.092	4180.62
961.319	4087.62
961.546	4213.62
961.773	4160.62
962	4141.62
962.227	4150.62
962.454	4108.62
962.68	4106.62
962.907	4120.62
963.134	4007.62
963.36	4044.62
963.587	4047.62
963.813	3921.62
964.04	3984.62
964.266	3935.62
964.493	3988.62
964.719	3918.62
964.945	3900.62
965.171	3807.62
965.398	3833.62
965.624	3859.62
965.85	3749.62
966.076	3761.62
966.302	3788.62
966.528	3752.62
966.754	3769.62
966.98	3736.62
967.206	3703.62
967.431	3646.62
967.657	3720.62
967.883	3729.62
968.109	3669.62
968.334	3630.62
968.56	3612.62
968.785	3617.62
969.011	3564.62
969.236	3623.62
969.462	3541.62
969.687	3563.62
969.912	3590.62
970.138	3577.62
970.363	3553.62
970.588	3565.62
970.813	3479.62
971.038	3463.62
971.263	3476.62
971.488	3446.62
971.713	3529.62
971.938	3472.62
972.163	3388.62
972.388	3415.62
972.613	3362.62
972.838	3350.62
973.062	3364.62
973.287	3338.62
973.512	3279.62
973.736	3299.62
973.961	3245.62
974.185	3222.62
974.41	3277.62
974.634	3157.62
974.858	3223.62
975.083	3212.62
975.307	3232.62
975.531	3120.62
975.755	3064.62
975.98	3096.62
976.204	3036.62
976.428	3003.62
976.652	3018.62
976.876	2970.62
977.1	3033.62
977.324	2993.62
977.547	3010.62
977.771	3036.62
977.995	2971.62
978.219	2948.62
978.442	3027.62
978.666	2948.62
978.89	2965.62
979.113	2927.62
979.337	2879.62
979.56	2893.62
979.783	2990.62
980.007	2868.62
980.23	2858.62
980.453	2838.62
980.677	2859.62
980.9	2818.62
981.123	2735.62
981.346	2840.62
981.569	2793.62
981.792	2838.62
982.015	2776.62
982.238	2761.62
982.461	2760.62
982.684	2705.62
982.907	2707.62
983.129	2637.62
983.352	2719.62
983.575	2650.62
983.797	2639.62
984.02	2609.62
984.242	2615.62
984.465	2620.62
984.687	2629.62
984.91	2645.62
985.132	2613.62
985.354	2605.62
985.577	2581.62
985.799	2557.62
986.021	2464.62
986.243	2487.62
986.465	2465.62
986.687	2545.62
986.909	2549.62
987.131	2509.62
987.353	2472.62
987.575	2489.62
987.797	2455.62
988.019	2401.62
988.241	2418.62
988.462	2398.62
988.684	2452.62
988.906	2500.62
989.127	2522.62
989.349	2356.62
989.57	2392.62
989.792	2414.62
990.013	2426.62
990.234	2414.62
990.456	2423.62
990.677	2413.62
990.898	2351.62
991.119	2343.62
991.341	2363.62
991.562	2308.62
991.783	2347.62
992.004	2257.62
992.225	2241.62
992.446	2305.62
992.667	2204.62
992.887	2275.62
993.108	2169.62
993.329	2298.62
993.55	2187.62
993.77	2148.62
993.991	2180.62
994.212	2182.62
994.432	2153.62
994.653	2157.62
994.873	2158.62
995.093	2042.62
995.314	2071.62
995.534	2135.62
995.754	2140.62
995.975	2159.62
996.195	2074.62
996.415	2083.62
996.635	2061.62
996.855	2080.62
997.075	2048.62
997.295	2034.62
997.515	2025.62
997.735	2076.62
997.955	2029.62
998.174	2034.62
998.394	1979.62
998.614	2036.62
998.834	1964.62
999.053	2072.62
999.273	2000.62
999.492	2057.62
999.712	2012.62
999.931	1943.62
1000.151	1993.62
1000.37	1964.62
1000.589	2012.62
1000.809	1952.62
1001.028	2035.62
1001.247	1962.62
1001.466	1851.62
1001.685	2015.62
1001.904	1946.62
1002.123	1934.62
1002.342	1941.62
1002.561	1880.62
1002.78	1880.62
1002.999	1956.62
1003.218	1880.62
1003.436	1881.62
1003.655	1911.62
1003.874	1833.62
1004.092	1836.62
1004.311	1899.62
1004.53	1833.62
1004.748	1914.62
1004.966	1822.62
1005.185	1894.62
1005.403	1912.62
1005.622	1825.62
1005.84	1866.62
1006.058	1812.62
1006.276	1825.62
1006.494	2319.62
1006.712	1786.62
1006.931	1866.62
1007.149	1806.62
1007.367	1778.62
1007.584	1824.62
1007.802	1862.62
1008.02	1786.62
1008.238	1862.62
1008.456	1869.62
1008.673	1728.62
1008.891	1796.62
1009.109	1768.62
1009.326	1822.62
1009.544	1868.62
1009.761	1779.62
1009.979	1834.62
1010.196	1854.62
1010.413	1943.62
1010.631	1974.62
1010.848	1986.62
1011.065	1986.62
1011.282	1894.62
1011.5	1867.62
1011.717	1959.62
1011.934	1926.62
1012.151	1946.62
1012.368	1892.62
1012.585	1834.62
1012.801	1917.62
1013.018	1855.62
1013.235	1829.62
1013.452	1836.62
1013.669	1846.62
1013.885	1835.62
1014.102	1848.62
1014.318	1810.62
1014.535	1754.62
1014.751	1813.62
1014.968	1798.62
1015.184	1792.62
1015.401	1739.62
1015.617	1755.62
1015.833	1698.62
1016.049	1726.62
1016.266	1687.62
1016.482	1696.62
1016.698	1618.62
1016.914	1670.62
1017.13	1646.62
1017.346	1588.62
1017.562	1702.62
1017.778	1588.62
1017.993	1575.62
1018.209	1621.62
1018.425	1594.62
1018.641	1552.62
1018.856	1545.62
1019.072	1581.62
1019.288	1604.62
1019.503	1538.62
1019.719	1485.62
1019.934	1472.62
1020.149	1565.62
1020.365	1480.62
1020.58	1442.62
1020.795	1501.62
1021.011	1434.62
1021.226	1417.62
1021.441	1419.62
1021.656	1371.62
1021.871	1288.62
1022.086	1292.62
1022.301	1277.62
1022.516	1280.62
1022.731	1300.62
1022.946	1227.62
1023.16	1231.62
1023.375	1206.62
1023.59	1198.62
1023.804	1153.62
1024.019	1231.62
1024.234	1129.62
1024.448	1155.62
1024.663	1093.62
1024.877	1084.62
1025.092	1126.62
1025.306	1106.62
1025.52	1026.62
1025.734	1134.62
1025.949	1033.62
1026.163	992.62
1026.377	954.62
1026.591	983.62
1026.805	903.62
1027.019	903.62
1027.233	874.62
1027.447	829.62
1027.661	919.62
1027.875	843.62
1028.088	873.62
1028.302	780.62
1028.516	754.62
1028.73	774.62
1028.943	744.62
1029.157	700.62
1029.37	648.62
1029.584	-1.38
1029.797	-2.38
1030.011	-0.38
1030.224	-2.38
