Data from QEP037381__509__17-29-27-564.txt Node

Date: Fri Dec 16 17:29:27 EST 2022
User: dcclab
Spectrometer: QEP03738
Trigger mode: 4
Integration Time (sec): 1.000000E1
Scans to average: 1
Electric dark correction enabled: true
Nonlinearity correction enabled: false
Boxcar width: 0
XAxis mode: Wavelengths
Number of Pixels in Spectrum: 1044
>>>>>Begin Spectral Data<<<<<
784.041	14.12
784.3	4.12
784.558	-0.88
784.817	-4.88
785.075	123404.12
785.334	21278.12
785.592	9881.12
785.851	6742.12
786.109	5065.12
786.368	3882.12
786.626	3146.12
786.884	2582.12
787.143	2140.12
787.401	1784.12
787.659	1600.12
787.917	1336.12
788.175	1234.12
788.433	1082.12
788.691	974.12
788.949	920.12
789.207	850.12
789.465	743.12
789.723	711.12
789.98	656.12
790.238	680.12
790.496	655.12
790.753	614.12
791.011	667.12
791.268	580.12
791.526	575.12
791.783	587.12
792.041	568.12
792.298	478.12
792.556	542.12
792.813	528.12
793.07	505.12
793.327	479.12
793.584	559.12
793.841	479.12
794.099	495.12
794.356	562.12
794.613	448.12
794.869	498.12
795.126	466.12
795.383	430.12
795.64	462.12
795.897	414.12
796.153	490.12
796.41	446.12
796.667	454.12
796.923	457.12
797.18	461.12
797.436	485.12
797.693	442.12
797.949	506.12
798.206	524.12
798.462	435.12
798.718	515.12
798.974	464.12
799.231	527.12
799.487	531.12
799.743	522.12
799.999	581.12
800.255	553.12
800.511	535.12
800.767	593.12
801.023	596.12
801.279	634.12
801.534	658.12
801.79	732.12
802.046	775.12
802.302	959.12
802.557	1096.12
802.813	1386.12
803.068	1771.12
803.324	2433.12
803.579	3327.12
803.835	4694.12
804.09	6452.12
804.345	8526.12
804.601	10722.12
804.856	13122.12
805.111	15021.12
805.366	16483.12
805.621	17533.12
805.876	18274.12
806.131	18787.12
806.386	19077.12
806.641	19246.12
806.896	19616.12
807.151	19938.12
807.406	20233.12
807.661	20704.12
807.915	20964.12
808.17	21228.12
808.425	21477.12
808.679	21567.12
808.934	21831.12
809.188	21939.12
809.443	22226.12
809.697	22491.12
809.951	22590.12
810.206	22826.12
810.46	22872.12
810.714	23128.12
810.968	23256.12
811.223	23392.12
811.477	23564.12
811.731	23740.12
811.985	23912.12
812.239	23928.12
812.493	24125.12
812.747	24218.12
813	24241.12
813.254	24277.12
813.508	24361.12
813.762	24488.12
814.015	24636.12
814.269	24734.12
814.522	24832.12
814.776	25284.12
815.03	25538.12
815.283	25748.12
815.536	26134.12
815.79	26569.12
816.043	26851.12
816.296	27292.12
816.55	27429.12
816.803	27655.12
817.056	28123.12
817.309	28402.12
817.562	28451.12
817.815	28688.12
818.068	28977.12
818.321	29163.12
818.574	29496.12
818.827	29843.12
819.079	30185.12
819.332	30690.12
819.585	30919.12
819.838	31225.12
820.09	31598.12
820.343	31865.12
820.595	31833.12
820.848	32107.12
821.1	32184.12
821.353	32295.12
821.605	32188.12
821.857	32268.12
822.11	32039.12
822.362	32063.12
822.614	32062.12
822.866	31911.12
823.118	31952.12
823.37	32071.12
823.622	32123.12
823.874	32292.12
824.126	32266.12
824.378	32323.12
824.63	32473.12
824.882	32507.12
825.134	32335.12
825.385	32432.12
825.637	32414.12
825.888	32268.12
826.14	32126.12
826.392	32073.12
826.643	31910.12
826.895	31783.12
827.146	31712.12
827.397	31595.12
827.649	31700.12
827.9	31586.12
828.151	31660.12
828.402	31601.12
828.653	31738.12
828.905	31725.12
829.156	31823.12
829.407	31729.12
829.658	31741.12
829.909	31764.12
830.159	31776.12
830.41	31580.12
830.661	31342.12
830.912	31309.12
831.162	30941.12
831.413	30951.12
831.664	30964.12
831.914	30863.12
832.165	30870.12
832.415	30935.12
832.666	30877.12
832.916	30843.12
833.167	30736.12
833.417	30833.12
833.667	30682.12
833.917	30589.12
834.168	30553.12
834.418	30387.12
834.668	30221.12
834.918	30228.12
835.168	30073.12
835.418	29990.12
835.668	29933.12
835.918	29865.12
836.167	29758.12
836.417	29689.12
836.667	29620.12
836.917	29535.12
837.166	29530.12
837.416	29585.12
837.666	29412.12
837.915	29394.12
838.165	29307.12
838.414	29228.12
838.663	29042.12
838.913	29131.12
839.162	28894.12
839.411	28980.12
839.661	28719.12
839.91	28628.12
840.159	28596.12
840.408	28587.12
840.657	28598.12
840.906	28556.12
841.155	28583.12
841.404	28598.12
841.653	28473.12
841.902	28596.12
842.15	28515.12
842.399	28542.12
842.648	28436.12
842.897	28318.12
843.145	28169.12
843.394	28050.12
843.642	27947.12
843.891	27738.12
844.139	27609.12
844.388	27513.12
844.636	27296.12
844.884	27395.12
845.133	27220.12
845.381	27247.12
845.629	27204.12
845.877	27180.12
846.125	26976.12
846.373	27000.12
846.621	26822.12
846.869	26886.12
847.117	26659.12
847.365	26536.12
847.613	26419.12
847.861	26286.12
848.108	26328.12
848.356	26256.12
848.604	26036.12
848.851	26243.12
849.099	26196.12
849.346	26260.12
849.594	26296.12
849.841	26507.12
850.089	26459.12
850.336	26514.12
850.583	26383.12
850.831	26120.12
851.078	26126.12
851.325	25904.12
851.572	25779.12
851.819	25638.12
852.066	25247.12
852.313	24917.12
852.56	24916.12
852.807	24798.12
853.054	24612.12
853.301	24588.12
853.548	24420.12
853.794	24665.12
854.041	24777.12
854.288	24887.12
854.534	25076.12
854.781	24899.12
855.028	24875.12
855.274	24801.12
855.52	24548.12
855.767	24462.12
856.013	24502.12
856.26	24698.12
856.506	24193.12
856.752	24162.12
856.998	24185.12
857.244	24196.12
857.49	24264.12
857.736	24327.12
857.982	24299.12
858.228	24207.12
858.474	24179.12
858.72	24012.12
858.966	23840.12
859.212	23518.12
859.458	23293.12
859.703	23132.12
859.949	22951.12
860.195	22764.12
860.44	22559.12
860.686	22436.12
860.931	22391.12
861.177	22327.12
861.422	22327.12
861.667	22281.12
861.913	22190.12
862.158	22263.12
862.403	22355.12
862.648	22391.12
862.893	22363.12
863.138	22300.12
863.384	22137.12
863.629	22204.12
863.873	22174.12
864.118	22188.12
864.363	21907.12
864.608	21948.12
864.853	21771.12
865.098	21737.12
865.342	21581.12
865.587	21416.12
865.832	21486.12
866.076	21352.12
866.321	21288.12
866.565	21272.12
866.81	21056.12
867.054	21124.12
867.298	21092.12
867.543	21010.12
867.787	20824.12
868.031	20841.12
868.275	20780.12
868.519	20775.12
868.764	20657.12
869.008	20528.12
869.252	20547.12
869.496	20431.12
869.739	20355.12
869.983	20364.12
870.227	20210.12
870.471	20177.12
870.715	20286.12
870.958	20311.12
871.202	20307.12
871.446	20393.12
871.689	20335.12
871.933	20260.12
872.176	20329.12
872.42	20280.12
872.663	20185.12
872.906	20109.12
873.15	20001.12
873.393	19932.12
873.636	19773.12
873.879	19690.12
874.122	19602.12
874.366	19204.12
874.609	19098.12
874.852	19057.12
875.095	18951.12
875.337	18800.12
875.58	18742.12
875.823	18653.12
876.066	18614.12
876.309	18666.12
876.551	18428.12
876.794	18404.12
877.037	18416.12
877.279	18223.12
877.522	18289.12
877.764	18385.12
878.007	18247.12
878.249	18298.12
878.491	18233.12
878.734	18302.12
878.976	18205.12
879.218	18114.12
879.46	18006.12
879.702	17871.12
879.945	17724.12
880.187	17639.12
880.429	17662.12
880.671	17379.12
880.912	17281.12
881.154	17324.12
881.396	17128.12
881.638	17245.12
881.88	17181.12
882.121	17103.12
882.363	17082.12
882.605	17100.12
882.846	16977.12
883.088	16881.12
883.329	16780.12
883.571	16777.12
883.812	16823.12
884.053	16854.12
884.295	16937.12
884.536	17164.12
884.777	16980.12
885.018	16949.12
885.259	16808.12
885.5	16751.12
885.742	16981.12
885.982	16734.12
886.223	16577.12
886.464	16592.12
886.705	16465.12
886.946	16356.12
887.187	16284.12
887.428	16152.12
887.668	15917.12
887.909	15833.12
888.15	15686.12
888.39	15713.12
888.631	15465.12
888.871	15438.12
889.111	15229.12
889.352	15221.12
889.592	15100.12
889.833	14997.12
890.073	14920.12
890.313	14839.12
890.553	14672.12
890.793	14673.12
891.033	14636.12
891.273	14552.12
891.513	14395.12
891.753	14465.12
891.993	14298.12
892.233	14443.12
892.473	14475.12
892.713	14451.12
892.952	14356.12
893.192	14449.12
893.432	14360.12
893.671	14388.12
893.911	14302.12
894.15	14237.12
894.39	14153.12
894.629	13997.12
894.869	13931.12
895.108	13790.12
895.347	13716.12
895.587	13728.12
895.826	13642.12
896.065	13627.12
896.304	13619.12
896.543	13631.12
896.782	13427.12
897.021	13417.12
897.26	13333.12
897.499	13445.12
897.738	13274.12
897.977	13285.12
898.216	13063.12
898.454	12939.12
898.693	12845.12
898.932	12832.12
899.17	12820.12
899.409	12675.12
899.647	12699.12
899.886	12647.12
900.124	12690.12
900.363	12605.12
900.601	12552.12
900.839	12632.12
901.078	12637.12
901.316	12594.12
901.554	12570.12
901.792	12668.12
902.03	12517.12
902.268	12493.12
902.506	12591.12
902.744	12420.12
902.982	12417.12
903.22	12223.12
903.458	12147.12
903.695	12038.12
903.933	11957.12
904.171	11766.12
904.409	11630.12
904.646	11563.12
904.884	11370.12
905.121	11287.12
905.359	11265.12
905.596	11087.12
905.833	10945.12
906.071	10935.12
906.308	10935.12
906.545	10898.12
906.783	10890.12
907.02	10788.12
907.257	10769.12
907.494	10819.12
907.731	10811.12
907.968	10696.12
908.205	10578.12
908.442	10608.12
908.679	10488.12
908.915	10393.12
909.152	10319.12
909.389	10186.12
909.626	10191.12
909.862	10091.12
910.099	10050.12
910.335	10060.12
910.572	9956.12
910.808	10006.12
911.045	9981.12
911.281	9892.12
911.518	9928.12
911.754	9817.12
911.99	9771.12
912.226	9683.12
912.463	9622.12
912.699	9560.12
912.935	9510.12
913.171	9338.12
913.407	9308.12
913.643	9289.12
913.879	9180.12
914.114	9121.12
914.35	9041.12
914.586	8956.12
914.822	8832.12
915.057	8901.12
915.293	8658.12
915.529	8562.12
915.764	8786.12
916	8665.12
916.235	8611.12
916.471	8658.12
916.706	8540.12
916.941	8501.12
917.177	8494.12
917.412	8531.12
917.647	8485.12
917.882	8449.12
918.117	8525.12
918.352	8427.12
918.588	8440.12
918.823	8309.12
919.057	8188.12
919.292	8051.12
919.527	8136.12
919.762	7929.12
919.997	7891.12
920.232	7813.12
920.466	7852.12
920.701	7629.12
920.935	7660.12
921.17	7567.12
921.405	7496.12
921.639	7568.12
921.873	7501.12
922.108	7507.12
922.342	7411.12
922.576	7376.12
922.811	7360.12
923.045	7411.12
923.279	7383.12
923.513	7248.12
923.747	7274.12
923.981	7249.12
924.215	7112.12
924.449	7074.12
924.683	7027.12
924.917	7029.12
925.151	6939.12
925.385	7009.12
925.618	6923.12
925.852	6910.12
926.086	6837.12
926.319	6891.12
926.553	6877.12
926.786	6900.12
927.02	6802.12
927.253	6865.12
927.486	6902.12
927.72	6739.12
927.953	6859.12
928.186	6744.12
928.42	6766.12
928.653	6659.12
928.886	6622.12
929.119	6628.12
929.352	6608.12
929.585	6626.12
929.818	6477.12
930.051	6470.12
930.284	6396.12
930.516	6279.12
930.749	6310.12
930.982	6262.12
931.215	6301.12
931.447	6233.12
931.68	6174.12
931.912	6140.12
932.145	6143.12
932.377	6150.12
932.61	6260.12
932.842	5998.12
933.074	6104.12
933.307	6015.12
933.539	6166.12
933.771	6134.12
934.003	6022.12
934.236	6140.12
934.468	6163.12
934.7	5983.12
934.932	6105.12
935.164	6054.12
935.395	5954.12
935.627	5939.12
935.859	5942.12
936.091	5898.12
936.323	5918.12
936.554	5947.12
936.786	5825.12
937.017	5777.12
937.249	5843.12
937.481	5743.12
937.712	5852.12
937.943	5712.12
938.175	5722.12
938.406	5723.12
938.637	5764.12
938.869	5667.12
939.1	5726.12
939.331	5688.12
939.562	5681.12
939.793	5656.12
940.024	5641.12
940.255	5658.12
940.486	5537.12
940.717	5538.12
940.948	5488.12
941.179	5454.12
941.409	5455.12
941.64	5388.12
941.871	5475.12
942.102	5424.12
942.332	5431.12
942.563	5422.12
942.793	5390.12
943.024	5403.12
943.254	5344.12
943.484	5430.12
943.715	5482.12
943.945	5353.12
944.175	5312.12
944.405	5270.12
944.636	5325.12
944.866	5303.12
945.096	5345.12
945.326	5239.12
945.556	5269.12
945.786	5277.12
946.016	5244.12
946.245	5156.12
946.475	5134.12
946.705	5124.12
946.935	5042.12
947.164	5076.12
947.394	5056.12
947.624	5019.12
947.853	4971.12
948.083	4970.12
948.312	4946.12
948.542	4866.12
948.771	4854.12
949	4848.12
949.23	4818.12
949.459	4838.12
949.688	4943.12
949.917	4875.12
950.146	4864.12
950.375	4952.12
950.604	4830.12
950.833	4895.12
951.062	4861.12
951.291	4813.12
951.52	4728.12
951.749	4760.12
951.978	4749.12
952.206	4738.12
952.435	4704.12
952.664	4667.12
952.892	4647.12
953.121	4675.12
953.349	4711.12
953.578	4652.12
953.806	4625.12
954.035	4557.12
954.263	4575.12
954.491	4498.12
954.719	4512.12
954.948	4487.12
955.176	4423.12
955.404	4398.12
955.632	4462.12
955.86	4406.12
956.088	4384.12
956.316	4411.12
956.544	4390.12
956.772	4296.12
956.999	4300.12
957.227	4367.12
957.455	4250.12
957.683	4296.12
957.91	4152.12
958.138	4193.12
958.365	4134.12
958.593	4143.12
958.82	4048.12
959.048	4146.12
959.275	4051.12
959.502	4085.12
959.73	4034.12
959.957	4055.12
960.184	4082.12
960.411	4002.12
960.638	4062.12
960.865	4016.12
961.092	3991.12
961.319	3956.12
961.546	4045.12
961.773	4027.12
962	3990.12
962.227	4035.12
962.454	3960.12
962.68	3991.12
962.907	3945.12
963.134	3902.12
963.36	3964.12
963.587	3890.12
963.813	3794.12
964.04	3824.12
964.266	3733.12
964.493	3865.12
964.719	3748.12
964.945	3750.12
965.171	3699.12
965.398	3711.12
965.624	3689.12
965.85	3658.12
966.076	3631.12
966.302	3690.12
966.528	3604.12
966.754	3659.12
966.98	3612.12
967.206	3614.12
967.431	3532.12
967.657	3608.12
967.883	3572.12
968.109	3569.12
968.334	3501.12
968.56	3460.12
968.785	3490.12
969.011	3443.12
969.236	3530.12
969.462	3415.12
969.687	3446.12
969.912	3494.12
970.138	3490.12
970.363	3392.12
970.588	3421.12
970.813	3383.12
971.038	3353.12
971.263	3402.12
971.488	3348.12
971.713	3430.12
971.938	3334.12
972.163	3260.12
972.388	3278.12
972.613	3271.12
972.838	3248.12
973.062	3244.12
973.287	3185.12
973.512	3147.12
973.736	3183.12
973.961	3182.12
974.185	3153.12
974.41	3168.12
974.634	3066.12
974.858	3087.12
975.083	3063.12
975.307	3068.12
975.531	3045.12
975.755	2970.12
975.98	2998.12
976.204	2920.12
976.428	2884.12
976.652	2933.12
976.876	2912.12
977.1	2941.12
977.324	2890.12
977.547	2955.12
977.771	2944.12
977.995	2912.12
978.219	2825.12
978.442	2953.12
978.666	2888.12
978.89	2869.12
979.113	2862.12
979.337	2789.12
979.56	2793.12
979.783	2901.12
980.007	2758.12
980.23	2766.12
980.453	2766.12
980.677	2778.12
980.9	2765.12
981.123	2651.12
981.346	2736.12
981.569	2747.12
981.792	2731.12
982.015	2714.12
982.238	2635.12
982.461	2634.12
982.684	2634.12
982.907	2592.12
983.129	2547.12
983.352	2619.12
983.575	2567.12
983.797	2579.12
984.02	2514.12
984.242	2519.12
984.465	2549.12
984.687	2558.12
984.91	2552.12
985.132	2521.12
985.354	2483.12
985.577	2501.12
985.799	2483.12
986.021	2386.12
986.243	2407.12
986.465	2459.12
986.687	2450.12
986.909	2471.12
987.131	2459.12
987.353	2369.12
987.575	2406.12
987.797	2386.12
988.019	2342.12
988.241	2371.12
988.462	2339.12
988.684	2390.12
988.906	2408.12
989.127	2394.12
989.349	2289.12
989.57	2331.12
989.792	2379.12
990.013	2388.12
990.234	2358.12
990.456	2368.12
990.677	2344.12
990.898	2279.12
991.119	2273.12
991.341	2299.12
991.562	2203.12
991.783	2246.12
992.004	2203.12
992.225	2194.12
992.446	2229.12
992.667	2131.12
992.887	2206.12
993.108	2096.12
993.329	2231.12
993.55	2159.12
993.77	2072.12
993.991	2091.12
994.212	2128.12
994.432	2105.12
994.653	2109.12
994.873	2076.12
995.093	1978.12
995.314	2000.12
995.534	2077.12
995.754	2108.12
995.975	2132.12
996.195	2036.12
996.415	2025.12
996.635	2063.12
996.855	2028.12
997.075	1973.12
997.295	1995.12
997.515	1991.12
997.735	2028.12
997.955	1990.12
998.174	1966.12
998.394	1950.12
998.614	1985.12
998.834	1908.12
999.053	1980.12
999.273	1963.12
999.492	2010.12
999.712	1929.12
999.931	1897.12
1000.151	1947.12
1000.37	1945.12
1000.589	1964.12
1000.809	1858.12
1001.028	1980.12
1001.247	1945.12
1001.466	1836.12
1001.685	1951.12
1001.904	1904.12
1002.123	1861.12
1002.342	1872.12
1002.561	1817.12
1002.78	1865.12
1002.999	1905.12
1003.218	1832.12
1003.436	1824.12
1003.655	1843.12
1003.874	1833.12
1004.092	1801.12
1004.311	1847.12
1004.53	1823.12
1004.748	1886.12
1004.966	1771.12
1005.185	1837.12
1005.403	1808.12
1005.622	1814.12
1005.84	1852.12
1006.058	1753.12
1006.276	1783.12
1006.494	2255.12
1006.712	1786.12
1006.931	1822.12
1007.149	1728.12
1007.367	1748.12
1007.584	1773.12
1007.802	1812.12
1008.02	1777.12
1008.238	1836.12
1008.456	1817.12
1008.673	1697.12
1008.891	1805.12
1009.109	1727.12
1009.326	1790.12
1009.544	1868.12
1009.761	1734.12
1009.979	1808.12
1010.196	1810.12
1010.413	1935.12
1010.631	1931.12
1010.848	1984.12
1011.065	1969.12
1011.282	1885.12
1011.5	1843.12
1011.717	1958.12
1011.934	1908.12
1012.151	1911.12
1012.368	1907.12
1012.585	1837.12
1012.801	1896.12
1013.018	1853.12
1013.235	1828.12
1013.452	1823.12
1013.669	1834.12
1013.885	1832.12
1014.102	1847.12
1014.318	1794.12
1014.535	1788.12
1014.751	1801.12
1014.968	1788.12
1015.184	1807.12
1015.401	1723.12
1015.617	1791.12
1015.833	1697.12
1016.049	1719.12
1016.266	1690.12
1016.482	1651.12
1016.698	1640.12
1016.914	1655.12
1017.13	1575.12
1017.346	1567.12
1017.562	1644.12
1017.778	1599.12
1017.993	1554.12
1018.209	1624.12
1018.425	1595.12
1018.641	1552.12
1018.856	1515.12
1019.072	1561.12
1019.288	1573.12
1019.503	1550.12
1019.719	1457.12
1019.934	1477.12
1020.149	1553.12
1020.365	1472.12
1020.58	1431.12
1020.795	1483.12
1021.011	1445.12
1021.226	1390.12
1021.441	1421.12
1021.656	1335.12
1021.871	1290.12
1022.086	1301.12
1022.301	1283.12
1022.516	1261.12
1022.731	1286.12
1022.946	1239.12
1023.16	1236.12
1023.375	1211.12
1023.59	1171.12
1023.804	1126.12
1024.019	1239.12
1024.234	1105.12
1024.448	1148.12
1024.663	1089.12
1024.877	1072.12
1025.092	1086.12
1025.306	1099.12
1025.52	1010.12
1025.734	1103.12
1025.949	1020.12
1026.163	970.12
1026.377	907.12
1026.591	974.12
1026.805	913.12
1027.019	911.12
1027.233	877.12
1027.447	799.12
1027.661	889.12
1027.875	839.12
1028.088	836.12
1028.302	767.12
1028.516	741.12
1028.73	757.12
1028.943	750.12
1029.157	703.12
1029.37	664.12
1029.584	-2.88
1029.797	-1.88
1030.011	-5.88
1030.224	-1.88
