Data from QEP037381__502__17-28-17-563.txt Node

Date: Fri Dec 16 17:28:17 EST 2022
User: dcclab
Spectrometer: QEP03738
Trigger mode: 4
Integration Time (sec): 1.000000E1
Scans to average: 1
Electric dark correction enabled: true
Nonlinearity correction enabled: false
Boxcar width: 0
XAxis mode: Wavelengths
Number of Pixels in Spectrum: 1044
>>>>>Begin Spectral Data<<<<<
784.041	11.38
784.3	-0.62
784.558	-1.62
784.817	-3.62
785.075	127426.38
785.334	21970.38
785.592	10313.38
785.851	7060.38
786.109	5277.38
786.368	4157.38
786.626	3307.38
786.884	2755.38
787.143	2267.38
787.401	1912.38
787.659	1684.38
787.917	1432.38
788.175	1276.38
788.433	1115.38
788.691	1013.38
788.949	943.38
789.207	887.38
789.465	760.38
789.723	733.38
789.98	676.38
790.238	708.38
790.496	656.38
790.753	639.38
791.011	664.38
791.268	611.38
791.526	576.38
791.783	610.38
792.041	585.38
792.298	489.38
792.556	551.38
792.813	519.38
793.07	493.38
793.327	503.38
793.584	561.38
793.841	495.38
794.099	512.38
794.356	570.38
794.613	463.38
794.869	504.38
795.126	459.38
795.383	457.38
795.64	475.38
795.897	422.38
796.153	488.38
796.41	480.38
796.667	439.38
796.923	469.38
797.18	464.38
797.436	492.38
797.693	452.38
797.949	503.38
798.206	531.38
798.462	444.38
798.718	519.38
798.974	488.38
799.231	543.38
799.487	532.38
799.743	531.38
799.999	567.38
800.255	568.38
800.511	553.38
800.767	596.38
801.023	584.38
801.279	671.38
801.534	682.38
801.79	753.38
802.046	808.38
802.302	975.38
802.557	1130.38
802.813	1454.38
803.068	1841.38
803.324	2585.38
803.579	3540.38
803.835	4970.38
804.09	6943.38
804.345	9142.38
804.601	11653.38
804.856	14132.38
805.111	16339.38
805.366	17999.38
805.621	19041.38
805.876	19822.38
806.131	20449.38
806.386	20827.38
806.641	21202.38
806.896	21429.38
807.151	21859.38
807.406	22081.38
807.661	22455.38
807.915	22694.38
808.17	23084.38
808.425	23403.38
808.679	23465.38
808.934	23655.38
809.188	23980.38
809.443	24238.38
809.697	24469.38
809.951	24624.38
810.206	24767.38
810.46	24934.38
810.714	25116.38
810.968	25417.38
811.223	25566.38
811.477	25712.38
811.731	25879.38
811.985	26004.38
812.239	26108.38
812.493	26253.38
812.747	26440.38
813	26465.38
813.254	26556.38
813.508	26619.38
813.762	26799.38
814.015	26822.38
814.269	27108.38
814.522	27155.38
814.776	27544.38
815.03	27880.38
815.283	28237.38
815.536	28625.38
815.79	28931.38
816.043	29408.38
816.296	29765.38
816.55	29996.38
816.803	30313.38
817.056	30717.38
817.309	30788.38
817.562	31057.38
817.815	31409.38
818.068	31617.38
818.321	31945.38
818.574	32326.38
818.827	32691.38
819.079	32909.38
819.332	33505.38
819.585	33836.38
819.838	34376.38
820.09	34538.38
820.343	34744.38
820.595	34880.38
820.848	35110.38
821.1	35252.38
821.353	35246.38
821.605	35258.38
821.857	35243.38
822.11	35137.38
822.362	34958.38
822.614	34882.38
822.866	34960.38
823.118	34985.38
823.37	35027.38
823.622	35035.38
823.874	35124.38
824.126	35282.38
824.378	35321.38
824.63	35365.38
824.882	35433.38
825.134	35476.38
825.385	35393.38
825.637	35274.38
825.888	35304.38
826.14	35079.38
826.392	35014.38
826.643	34708.38
826.895	34697.38
827.146	34497.38
827.397	34427.38
827.649	34535.38
827.9	34443.38
828.151	34369.38
828.402	34610.38
828.653	34702.38
828.905	34690.38
829.156	34770.38
829.407	34642.38
829.658	34712.38
829.909	34566.38
830.159	34484.38
830.41	34408.38
830.661	34121.38
830.912	33894.38
831.162	33822.38
831.413	33682.38
831.664	33833.38
831.914	33780.38
832.165	33609.38
832.415	33485.38
832.666	33663.38
832.916	33702.38
833.167	33583.38
833.417	33723.38
833.667	33393.38
833.917	33279.38
834.168	33372.38
834.418	33159.38
834.668	32886.38
834.918	32850.38
835.168	32706.38
835.418	32724.38
835.668	32638.38
835.918	32521.38
836.167	32363.38
836.417	32141.38
836.667	32324.38
836.917	32179.38
837.166	32188.38
837.416	32187.38
837.666	32050.38
837.915	32064.38
838.165	31935.38
838.414	31776.38
838.663	31710.38
838.913	31622.38
839.162	31378.38
839.411	31518.38
839.661	31193.38
839.91	31242.38
840.159	31179.38
840.408	30914.38
840.657	31063.38
840.906	31159.38
841.155	31155.38
841.404	31039.38
841.653	31101.38
841.902	31099.38
842.15	31011.38
842.399	31031.38
842.648	30905.38
842.897	30834.38
843.145	30712.38
843.394	30515.38
843.642	30333.38
843.891	30234.38
844.139	30071.38
844.388	29866.38
844.636	29669.38
844.884	29641.38
845.133	29736.38
845.381	29531.38
845.629	29530.38
845.877	29431.38
846.125	29487.38
846.373	29249.38
846.621	29248.38
846.869	29155.38
847.117	28939.38
847.365	28794.38
847.613	28736.38
847.861	28676.38
848.108	28529.38
848.356	28555.38
848.604	28423.38
848.851	28406.38
849.099	28421.38
849.346	28438.38
849.594	28574.38
849.841	28588.38
850.089	28600.38
850.336	28705.38
850.583	28696.38
850.831	28409.38
851.078	28172.38
851.325	28135.38
851.572	27997.38
851.819	27780.38
852.066	27432.38
852.313	27121.38
852.56	27015.38
852.807	26839.38
853.054	26756.38
853.301	26700.38
853.548	26675.38
853.794	26806.38
854.041	26722.38
854.288	26897.38
854.534	27094.38
854.781	27057.38
855.028	26998.38
855.274	26819.38
855.52	26734.38
855.767	26465.38
856.013	26538.38
856.26	26732.38
856.506	26184.38
856.752	26190.38
856.998	26221.38
857.244	26215.38
857.49	26446.38
857.736	26251.38
857.982	26397.38
858.228	26217.38
858.474	26060.38
858.72	26059.38
858.966	25750.38
859.212	25539.38
859.458	25315.38
859.703	25060.38
859.949	24891.38
860.195	24625.38
860.44	24407.38
860.686	24295.38
860.931	24237.38
861.177	24161.38
861.422	24103.38
861.667	24100.38
861.913	23985.38
862.158	24100.38
862.403	24144.38
862.648	24261.38
862.893	24205.38
863.138	24199.38
863.384	24179.38
863.629	24094.38
863.873	24017.38
864.118	23954.38
864.363	23694.38
864.608	23716.38
864.853	23654.38
865.098	23464.38
865.342	23444.38
865.587	23289.38
865.832	23225.38
866.076	23224.38
866.321	23025.38
866.565	22989.38
866.81	22800.38
867.054	22923.38
867.298	22775.38
867.543	22535.38
867.787	22635.38
868.031	22558.38
868.275	22509.38
868.519	22497.38
868.764	22358.38
869.008	22273.38
869.252	22221.38
869.496	22077.38
869.739	22173.38
869.983	22017.38
870.227	21899.38
870.471	21836.38
870.715	21890.38
870.958	21922.38
871.202	21978.38
871.446	22030.38
871.689	21898.38
871.933	21909.38
872.176	22060.38
872.42	21851.38
872.663	21818.38
872.906	21726.38
873.15	21527.38
873.393	21468.38
873.636	21414.38
873.879	21251.38
874.122	20989.38
874.366	20740.38
874.609	20620.38
874.852	20480.38
875.095	20478.38
875.337	20282.38
875.58	20246.38
875.823	20196.38
876.066	20091.38
876.309	20119.38
876.551	19930.38
876.794	19846.38
877.037	19804.38
877.279	19827.38
877.522	19882.38
877.764	19762.38
878.007	19814.38
878.249	19797.38
878.491	19717.38
878.734	19738.38
878.976	19575.38
879.218	19556.38
879.46	19460.38
879.702	19222.38
879.945	19243.38
880.187	19017.38
880.429	18925.38
880.671	18841.38
880.912	18791.38
881.154	18597.38
881.396	18479.38
881.638	18548.38
881.88	18503.38
882.121	18459.38
882.363	18378.38
882.605	18365.38
882.846	18289.38
883.088	18175.38
883.329	18152.38
883.571	18069.38
883.812	18125.38
884.053	18238.38
884.295	18393.38
884.536	18448.38
884.777	18384.38
885.018	18203.38
885.259	18195.38
885.5	18156.38
885.742	18291.38
885.982	18047.38
886.223	17800.38
886.464	17831.38
886.705	17772.38
886.946	17730.38
887.187	17443.38
887.428	17434.38
887.668	17133.38
887.909	16979.38
888.15	16831.38
888.39	16801.38
888.631	16667.38
888.871	16629.38
889.111	16550.38
889.352	16298.38
889.592	16294.38
889.833	16137.38
890.073	16098.38
890.313	16070.38
890.553	15835.38
890.793	15659.38
891.033	15579.38
891.273	15635.38
891.513	15568.38
891.753	15462.38
891.993	15543.38
892.233	15498.38
892.473	15584.38
892.713	15569.38
892.952	15425.38
893.192	15466.38
893.432	15533.38
893.671	15516.38
893.911	15340.38
894.15	15255.38
894.39	15023.38
894.629	15069.38
894.869	14920.38
895.108	14811.38
895.347	14821.38
895.587	14728.38
895.826	14641.38
896.065	14611.38
896.304	14633.38
896.543	14539.38
896.782	14453.38
897.021	14464.38
897.26	14476.38
897.499	14415.38
897.738	14447.38
897.977	14157.38
898.216	14009.38
898.454	13916.38
898.693	13803.38
898.932	13844.38
899.17	13802.38
899.409	13661.38
899.647	13724.38
899.886	13507.38
900.124	13580.38
900.363	13480.38
900.601	13574.38
900.839	13447.38
901.078	13515.38
901.316	13554.38
901.554	13455.38
901.792	13552.38
902.03	13492.38
902.268	13347.38
902.506	13478.38
902.744	13331.38
902.982	13315.38
903.22	13220.38
903.458	13002.38
903.695	12877.38
903.933	12821.38
904.171	12558.38
904.409	12482.38
904.646	12395.38
904.884	12151.38
905.121	12061.38
905.359	11965.38
905.596	11897.38
905.833	11741.38
906.071	11826.38
906.308	11776.38
906.545	11631.38
906.783	11549.38
907.02	11646.38
907.257	11559.38
907.494	11569.38
907.731	11567.38
907.968	11458.38
908.205	11329.38
908.442	11294.38
908.679	11227.38
908.915	11164.38
909.152	11087.38
909.389	10966.38
909.626	10905.38
909.862	10796.38
910.099	10781.38
910.335	10799.38
910.572	10615.38
910.808	10692.38
911.045	10642.38
911.281	10514.38
911.518	10565.38
911.754	10424.38
911.99	10468.38
912.226	10378.38
912.463	10275.38
912.699	10182.38
912.935	10137.38
913.171	10023.38
913.407	9931.38
913.643	9890.38
913.879	9794.38
914.114	9665.38
914.35	9636.38
914.586	9455.38
914.822	9428.38
915.057	9436.38
915.293	9266.38
915.529	9195.38
915.764	9264.38
916	9219.38
916.235	9142.38
916.471	9213.38
916.706	9042.38
916.941	9078.38
917.177	9105.38
917.412	9088.38
917.647	9105.38
917.882	8988.38
918.117	8992.38
918.352	8973.38
918.588	8936.38
918.823	8911.38
919.057	8798.38
919.292	8631.38
919.527	8706.38
919.762	8478.38
919.997	8520.38
920.232	8359.38
920.466	8365.38
920.701	8121.38
920.935	8188.38
921.17	8127.38
921.405	7998.38
921.639	8042.38
921.873	8004.38
922.108	7935.38
922.342	7969.38
922.576	7819.38
922.811	7924.38
923.045	7877.38
923.279	7792.38
923.513	7720.38
923.747	7785.38
923.981	7719.38
924.215	7634.38
924.449	7561.38
924.683	7475.38
924.917	7443.38
925.151	7396.38
925.385	7479.38
925.618	7355.38
925.852	7312.38
926.086	7254.38
926.319	7327.38
926.553	7303.38
926.786	7320.38
927.02	7245.38
927.253	7299.38
927.486	7247.38
927.72	7196.38
927.953	7260.38
928.186	7116.38
928.42	7236.38
928.653	7082.38
928.886	7055.38
929.119	7051.38
929.352	6990.38
929.585	6978.38
929.818	6889.38
930.051	6915.38
930.284	6800.38
930.516	6640.38
930.749	6649.38
930.982	6678.38
931.215	6662.38
931.447	6596.38
931.68	6553.38
931.912	6503.38
932.145	6508.38
932.377	6548.38
932.61	6688.38
932.842	6476.38
933.074	6549.38
933.307	6456.38
933.539	6545.38
933.771	6559.38
934.003	6501.38
934.236	6554.38
934.468	6505.38
934.7	6428.38
934.932	6478.38
935.164	6432.38
935.395	6352.38
935.627	6431.38
935.859	6350.38
936.091	6219.38
936.323	6338.38
936.554	6320.38
936.786	6236.38
937.017	6125.38
937.249	6176.38
937.481	6065.38
937.712	6155.38
937.943	6066.38
938.175	6118.38
938.406	6104.38
938.637	6118.38
938.869	6024.38
939.1	6028.38
939.331	6025.38
939.562	6029.38
939.793	6012.38
940.024	5987.38
940.255	5953.38
940.486	5909.38
940.717	5878.38
940.948	5841.38
941.179	5811.38
941.409	5802.38
941.64	5809.38
941.871	5768.38
942.102	5741.38
942.332	5798.38
942.563	5800.38
942.793	5722.38
943.024	5702.38
943.254	5753.38
943.484	5749.38
943.715	5759.38
943.945	5709.38
944.175	5676.38
944.405	5616.38
944.636	5669.38
944.866	5684.38
945.096	5662.38
945.326	5570.38
945.556	5620.38
945.786	5656.38
946.016	5500.38
946.245	5430.38
946.475	5401.38
946.705	5399.38
946.935	5376.38
947.164	5380.38
947.394	5294.38
947.624	5329.38
947.853	5338.38
948.083	5297.38
948.312	5215.38
948.542	5178.38
948.771	5122.38
949	5146.38
949.23	5153.38
949.459	5186.38
949.688	5192.38
949.917	5114.38
950.146	5153.38
950.375	5174.38
950.604	5095.38
950.833	5159.38
951.062	5181.38
951.291	5110.38
951.52	5029.38
951.749	5038.38
951.978	5011.38
952.206	4994.38
952.435	5007.38
952.664	5019.38
952.892	5045.38
953.121	4915.38
953.349	4955.38
953.578	4877.38
953.806	4860.38
954.035	4774.38
954.263	4892.38
954.491	4766.38
954.719	4793.38
954.948	4799.38
955.176	4688.38
955.404	4642.38
955.632	4677.38
955.86	4658.38
956.088	4648.38
956.316	4656.38
956.544	4597.38
956.772	4575.38
956.999	4501.38
957.227	4593.38
957.455	4471.38
957.683	4482.38
957.91	4415.38
958.138	4421.38
958.365	4389.38
958.593	4423.38
958.82	4304.38
959.048	4377.38
959.275	4301.38
959.502	4294.38
959.73	4291.38
959.957	4275.38
960.184	4313.38
960.411	4287.38
960.638	4308.38
960.865	4285.38
961.092	4266.38
961.319	4183.38
961.546	4289.38
961.773	4271.38
962	4219.38
962.227	4257.38
962.454	4212.38
962.68	4184.38
962.907	4179.38
963.134	4101.38
963.36	4137.38
963.587	4090.38
963.813	4031.38
964.04	4017.38
964.266	3976.38
964.493	4081.38
964.719	3988.38
964.945	3955.38
965.171	3878.38
965.398	3928.38
965.624	3904.38
965.85	3828.38
966.076	3839.38
966.302	3849.38
966.528	3823.38
966.754	3830.38
966.98	3805.38
967.206	3762.38
967.431	3686.38
967.657	3814.38
967.883	3764.38
968.109	3759.38
968.334	3677.38
968.56	3656.38
968.785	3727.38
969.011	3612.38
969.236	3707.38
969.462	3628.38
969.687	3606.38
969.912	3692.38
970.138	3662.38
970.363	3561.38
970.588	3618.38
970.813	3569.38
971.038	3518.38
971.263	3560.38
971.488	3533.38
971.713	3560.38
971.938	3532.38
972.163	3412.38
972.388	3453.38
972.613	3428.38
972.838	3445.38
973.062	3424.38
973.287	3381.38
973.512	3279.38
973.736	3325.38
973.961	3386.38
974.185	3292.38
974.41	3321.38
974.634	3246.38
974.858	3199.38
975.083	3248.38
975.307	3232.38
975.531	3201.38
975.755	3112.38
975.98	3145.38
976.204	3083.38
976.428	3085.38
976.652	3077.38
976.876	3045.38
977.1	3090.38
977.324	3059.38
977.547	3061.38
977.771	3067.38
977.995	3009.38
978.219	2988.38
978.442	3096.38
978.666	3021.38
978.89	2953.38
979.113	3001.38
979.337	2992.38
979.56	2946.38
979.783	3012.38
980.007	2894.38
980.23	2909.38
980.453	2884.38
980.677	2930.38
980.9	2888.38
981.123	2785.38
981.346	2889.38
981.569	2871.38
981.792	2883.38
982.015	2805.38
982.238	2784.38
982.461	2741.38
982.684	2767.38
982.907	2684.38
983.129	2676.38
983.352	2711.38
983.575	2683.38
983.797	2715.38
984.02	2649.38
984.242	2630.38
984.465	2657.38
984.687	2649.38
984.91	2685.38
985.132	2636.38
985.354	2633.38
985.577	2617.38
985.799	2650.38
986.021	2514.38
986.243	2545.38
986.465	2534.38
986.687	2558.38
986.909	2644.38
987.131	2521.38
987.353	2484.38
987.575	2547.38
987.797	2480.38
988.019	2427.38
988.241	2535.38
988.462	2439.38
988.684	2500.38
988.906	2563.38
989.127	2520.38
989.349	2416.38
989.57	2418.38
989.792	2485.38
990.013	2475.38
990.234	2471.38
990.456	2468.38
990.677	2441.38
990.898	2396.38
991.119	2381.38
991.341	2449.38
991.562	2351.38
991.783	2374.38
992.004	2298.38
992.225	2260.38
992.446	2318.38
992.667	2223.38
992.887	2325.38
993.108	2221.38
993.329	2294.38
993.55	2247.38
993.77	2201.38
993.991	2233.38
994.212	2229.38
994.432	2212.38
994.653	2230.38
994.873	2210.38
995.093	2059.38
995.314	2127.38
995.534	2189.38
995.754	2213.38
995.975	2195.38
996.195	2091.38
996.415	2116.38
996.635	2066.38
996.855	2123.38
997.075	2081.38
997.295	2087.38
997.515	2067.38
997.735	2121.38
997.955	2064.38
998.174	2068.38
998.394	1992.38
998.614	2085.38
998.834	2047.38
999.053	2081.38
999.273	2073.38
999.492	2114.38
999.712	2056.38
999.931	1979.38
1000.151	2038.38
1000.37	2013.38
1000.589	2034.38
1000.809	1982.38
1001.028	2095.38
1001.247	1994.38
1001.466	1902.38
1001.685	2062.38
1001.904	1959.38
1002.123	1942.38
1002.342	1970.38
1002.561	1898.38
1002.78	1902.38
1002.999	1987.38
1003.218	1909.38
1003.436	1891.38
1003.655	1922.38
1003.874	1861.38
1004.092	1885.38
1004.311	1920.38
1004.53	1879.38
1004.748	1930.38
1004.966	1837.38
1005.185	1900.38
1005.403	1898.38
1005.622	1869.38
1005.84	1963.38
1006.058	1842.38
1006.276	1876.38
1006.494	2357.38
1006.712	1854.38
1006.931	1890.38
1007.149	1786.38
1007.367	1819.38
1007.584	1838.38
1007.802	1863.38
1008.02	1850.38
1008.238	1886.38
1008.456	1916.38
1008.673	1782.38
1008.891	1855.38
1009.109	1806.38
1009.326	1873.38
1009.544	1935.38
1009.761	1814.38
1009.979	1914.38
1010.196	1928.38
1010.413	2022.38
1010.631	2026.38
1010.848	2076.38
1011.065	2081.38
1011.282	2043.38
1011.5	1977.38
1011.717	2050.38
1011.934	2003.38
1012.151	2032.38
1012.368	1987.38
1012.585	1925.38
1012.801	2026.38
1013.018	1926.38
1013.235	1947.38
1013.452	1942.38
1013.669	1919.38
1013.885	1927.38
1014.102	1943.38
1014.318	1921.38
1014.535	1891.38
1014.751	1911.38
1014.968	1891.38
1015.184	1949.38
1015.401	1832.38
1015.617	1875.38
1015.833	1798.38
1016.049	1796.38
1016.266	1765.38
1016.482	1745.38
1016.698	1715.38
1016.914	1739.38
1017.13	1701.38
1017.346	1690.38
1017.562	1738.38
1017.778	1686.38
1017.993	1628.38
1018.209	1702.38
1018.425	1690.38
1018.641	1638.38
1018.856	1618.38
1019.072	1652.38
1019.288	1681.38
1019.503	1630.38
1019.719	1528.38
1019.934	1539.38
1020.149	1649.38
1020.365	1556.38
1020.58	1530.38
1020.795	1560.38
1021.011	1475.38
1021.226	1469.38
1021.441	1520.38
1021.656	1421.38
1021.871	1364.38
1022.086	1330.38
1022.301	1366.38
1022.516	1336.38
1022.731	1368.38
1022.946	1292.38
1023.16	1280.38
1023.375	1259.38
1023.59	1233.38
1023.804	1205.38
1024.019	1281.38
1024.234	1193.38
1024.448	1166.38
1024.663	1111.38
1024.877	1139.38
1025.092	1154.38
1025.306	1157.38
1025.52	1034.38
1025.734	1154.38
1025.949	1054.38
1026.163	1027.38
1026.377	954.38
1026.591	1025.38
1026.805	933.38
1027.019	921.38
1027.233	902.38
1027.447	857.38
1027.661	951.38
1027.875	864.38
1028.088	884.38
1028.302	801.38
1028.516	785.38
1028.73	806.38
1028.943	773.38
1029.157	710.38
1029.37	695.38
1029.584	-1.62
1029.797	-0.62
1030.011	0.38
1030.224	-3.62
