Data from QEP037381__503__17-28-27-565.txt Node

Date: Fri Dec 16 17:28:27 EST 2022
User: dcclab
Spectrometer: QEP03738
Trigger mode: 4
Integration Time (sec): 1.000000E1
Scans to average: 1
Electric dark correction enabled: true
Nonlinearity correction enabled: false
Boxcar width: 0
XAxis mode: Wavelengths
Number of Pixels in Spectrum: 1044
>>>>>Begin Spectral Data<<<<<
784.041	9.5
784.3	-2.5
784.558	-0.5
784.817	-3.5
785.075	123005.5
785.334	21171.5
785.592	9903.5
785.851	6811.5
786.109	5074.5
786.368	3909.5
786.626	3185.5
786.884	2628.5
787.143	2201.5
787.401	1835.5
787.659	1659.5
787.917	1368.5
788.175	1264.5
788.433	1112.5
788.691	982.5
788.949	934.5
789.207	877.5
789.465	759.5
789.723	720.5
789.98	668.5
790.238	705.5
790.496	658.5
790.753	636.5
791.011	672.5
791.268	600.5
791.526	577.5
791.783	580.5
792.041	580.5
792.298	483.5
792.556	568.5
792.813	529.5
793.07	492.5
793.327	494.5
793.584	579.5
793.841	489.5
794.099	517.5
794.356	564.5
794.613	468.5
794.869	500.5
795.126	475.5
795.383	450.5
795.64	474.5
795.897	431.5
796.153	472.5
796.41	467.5
796.667	452.5
796.923	474.5
797.18	448.5
797.436	489.5
797.693	454.5
797.949	513.5
798.206	547.5
798.462	451.5
798.718	515.5
798.974	496.5
799.231	545.5
799.487	530.5
799.743	550.5
799.999	556.5
800.255	572.5
800.511	563.5
800.767	594.5
801.023	602.5
801.279	648.5
801.534	694.5
801.79	761.5
802.046	822.5
802.302	972.5
802.557	1133.5
802.813	1432.5
803.068	1819.5
803.324	2555.5
803.579	3565.5
803.835	4905.5
804.09	6883.5
804.345	9182.5
804.601	11682.5
804.856	14169.5
805.111	16472.5
805.366	18116.5
805.621	19351.5
805.876	20238.5
806.131	20679.5
806.386	21147.5
806.641	21369.5
806.896	21668.5
807.151	22027.5
807.406	22490.5
807.661	22754.5
807.915	23184.5
808.17	23382.5
808.425	23517.5
808.679	23916.5
808.934	24165.5
809.188	24225.5
809.443	24433.5
809.697	24743.5
809.951	24850.5
810.206	25033.5
810.46	25359.5
810.714	25546.5
810.968	25734.5
811.223	25742.5
811.477	26114.5
811.731	26257.5
811.985	26398.5
812.239	26460.5
812.493	26615.5
812.747	26751.5
813	26779.5
813.254	26910.5
813.508	27012.5
813.762	27044.5
814.015	27101.5
814.269	27366.5
814.522	27608.5
814.776	27948.5
815.03	28163.5
815.283	28580.5
815.536	28979.5
815.79	29440.5
816.043	29788.5
816.296	30087.5
816.55	30477.5
816.803	30820.5
817.056	31077.5
817.309	31294.5
817.562	31613.5
817.815	31800.5
818.068	32111.5
818.321	32359.5
818.574	32595.5
818.827	33141.5
819.079	33342.5
819.332	33949.5
819.585	34296.5
819.838	34852.5
820.09	35098.5
820.343	35362.5
820.595	35399.5
820.848	35628.5
821.1	35834.5
821.353	35846.5
821.605	35621.5
821.857	35758.5
822.11	35525.5
822.362	35457.5
822.614	35450.5
822.866	35483.5
823.118	35497.5
823.37	35662.5
823.622	35580.5
823.874	35495.5
824.126	35702.5
824.378	35801.5
824.63	35883.5
824.882	36017.5
825.134	35966.5
825.385	35982.5
825.637	35913.5
825.888	35722.5
826.14	35666.5
826.392	35490.5
826.643	35355.5
826.895	35262.5
827.146	35047.5
827.397	34933.5
827.649	35120.5
827.9	34925.5
828.151	35031.5
828.402	35008.5
828.653	35154.5
828.905	35302.5
829.156	35271.5
829.407	35131.5
829.658	35081.5
829.909	35189.5
830.159	35043.5
830.41	34860.5
830.661	34753.5
830.912	34538.5
831.162	34389.5
831.413	34382.5
831.664	34248.5
831.914	34325.5
832.165	34070.5
832.415	34161.5
832.666	34028.5
832.916	34172.5
833.167	34102.5
833.417	34063.5
833.667	33793.5
833.917	33869.5
834.168	33774.5
834.418	33698.5
834.668	33521.5
834.918	33299.5
835.168	33161.5
835.418	33077.5
835.668	33099.5
835.918	33077.5
836.167	32856.5
836.417	32726.5
836.667	32682.5
836.917	32787.5
837.166	32584.5
837.416	32692.5
837.666	32577.5
837.915	32512.5
838.165	32350.5
838.414	32077.5
838.663	32140.5
838.913	32102.5
839.162	31920.5
839.411	31925.5
839.661	31718.5
839.91	31659.5
840.159	31599.5
840.408	31539.5
840.657	31648.5
840.906	31577.5
841.155	31529.5
841.404	31528.5
841.653	31567.5
841.902	31404.5
842.15	31550.5
842.399	31471.5
842.648	31456.5
842.897	31321.5
843.145	31078.5
843.394	30911.5
843.642	30733.5
843.891	30696.5
844.139	30668.5
844.388	30263.5
844.636	30197.5
844.884	30079.5
845.133	30082.5
845.381	30134.5
845.629	30073.5
845.877	29924.5
846.125	29918.5
846.373	29734.5
846.621	29653.5
846.869	29564.5
847.117	29471.5
847.365	29220.5
847.613	29211.5
847.861	28993.5
848.108	29037.5
848.356	28994.5
848.604	28845.5
848.851	28856.5
849.099	28849.5
849.346	28949.5
849.594	28950.5
849.841	29147.5
850.089	29207.5
850.336	29249.5
850.583	29111.5
850.831	28861.5
851.078	28654.5
851.325	28509.5
851.572	28502.5
851.819	28261.5
852.066	27878.5
852.313	27586.5
852.56	27364.5
852.807	27228.5
853.054	27055.5
853.301	27080.5
853.548	27145.5
853.794	27161.5
854.041	27257.5
854.288	27375.5
854.534	27525.5
854.781	27459.5
855.028	27317.5
855.274	27286.5
855.52	27149.5
855.767	26994.5
856.013	27035.5
856.26	27198.5
856.506	26587.5
856.752	26701.5
856.998	26545.5
857.244	26697.5
857.49	26730.5
857.736	26660.5
857.982	26728.5
858.228	26719.5
858.474	26463.5
858.72	26452.5
858.966	26170.5
859.212	25950.5
859.458	25635.5
859.703	25485.5
859.949	25190.5
860.195	24996.5
860.44	24768.5
860.686	24647.5
860.931	24719.5
861.177	24521.5
861.422	24534.5
861.667	24387.5
861.913	24494.5
862.158	24513.5
862.403	24671.5
862.648	24618.5
862.893	24599.5
863.138	24586.5
863.384	24550.5
863.629	24486.5
863.873	24470.5
864.118	24373.5
864.363	24279.5
864.608	24022.5
864.853	24042.5
865.098	23875.5
865.342	23799.5
865.587	23646.5
865.832	23620.5
866.076	23546.5
866.321	23329.5
866.565	23363.5
866.81	23212.5
867.054	23178.5
867.298	23163.5
867.543	23054.5
867.787	22928.5
868.031	22950.5
868.275	22892.5
868.519	22816.5
868.764	22741.5
869.008	22661.5
869.252	22722.5
869.496	22371.5
869.739	22516.5
869.983	22276.5
870.227	22263.5
870.471	22136.5
870.715	22301.5
870.958	22186.5
871.202	22317.5
871.446	22309.5
871.689	22303.5
871.933	22330.5
872.176	22314.5
872.42	22188.5
872.663	22130.5
872.906	22137.5
873.15	21995.5
873.393	21725.5
873.636	21726.5
873.879	21557.5
874.122	21479.5
874.366	21142.5
874.609	20954.5
874.852	20811.5
875.095	20737.5
875.337	20738.5
875.58	20448.5
875.823	20477.5
876.066	20465.5
876.309	20343.5
876.551	20317.5
876.794	20137.5
877.037	20056.5
877.279	20085.5
877.522	20112.5
877.764	20218.5
878.007	20107.5
878.249	20073.5
878.491	19988.5
878.734	20070.5
878.976	20027.5
879.218	19810.5
879.46	19716.5
879.702	19640.5
879.945	19490.5
880.187	19315.5
880.429	19285.5
880.671	18998.5
880.912	18941.5
881.154	18963.5
881.396	18876.5
881.638	18757.5
881.88	18833.5
882.121	18777.5
882.363	18731.5
882.605	18685.5
882.846	18559.5
883.088	18534.5
883.329	18487.5
883.571	18365.5
883.812	18397.5
884.053	18526.5
884.295	18697.5
884.536	18755.5
884.777	18644.5
885.018	18508.5
885.259	18492.5
885.5	18340.5
885.742	18620.5
885.982	18277.5
886.223	18190.5
886.464	18075.5
886.705	18020.5
886.946	17989.5
887.187	17751.5
887.428	17717.5
887.668	17550.5
887.909	17375.5
888.15	17244.5
888.39	17195.5
888.631	17063.5
888.871	16902.5
889.111	16761.5
889.352	16670.5
889.592	16559.5
889.833	16430.5
890.073	16366.5
890.313	16320.5
890.553	16077.5
890.793	16035.5
891.033	15931.5
891.273	15827.5
891.513	15833.5
891.753	15834.5
891.993	15704.5
892.233	15714.5
892.473	15884.5
892.713	15876.5
892.952	15796.5
893.192	15817.5
893.432	15790.5
893.671	15722.5
893.911	15687.5
894.15	15442.5
894.39	15327.5
894.629	15320.5
894.869	15207.5
895.108	15086.5
895.347	15037.5
895.587	14964.5
895.826	14900.5
896.065	14813.5
896.304	14835.5
896.543	14886.5
896.782	14690.5
897.021	14700.5
897.26	14672.5
897.499	14620.5
897.738	14563.5
897.977	14472.5
898.216	14339.5
898.454	14179.5
898.693	14067.5
898.932	13996.5
899.17	13964.5
899.409	13898.5
899.647	13777.5
899.886	13829.5
900.124	13880.5
900.363	13826.5
900.601	13760.5
900.839	13805.5
901.078	13680.5
901.316	13781.5
901.554	13822.5
901.792	13783.5
902.03	13749.5
902.268	13705.5
902.506	13723.5
902.744	13549.5
902.982	13502.5
903.22	13306.5
903.458	13292.5
903.695	13168.5
903.933	13034.5
904.171	12859.5
904.409	12655.5
904.646	12585.5
904.884	12420.5
905.121	12326.5
905.359	12250.5
905.596	12081.5
905.833	11922.5
906.071	11960.5
906.308	11987.5
906.545	11868.5
906.783	11753.5
907.02	11839.5
907.257	11724.5
907.494	11737.5
907.731	11795.5
907.968	11669.5
908.205	11544.5
908.442	11538.5
908.679	11444.5
908.915	11464.5
909.152	11338.5
909.389	11122.5
909.626	11141.5
909.862	10976.5
910.099	10922.5
910.335	11096.5
910.572	10807.5
910.808	10834.5
911.045	10785.5
911.281	10732.5
911.518	10756.5
911.754	10732.5
911.99	10624.5
912.226	10573.5
912.463	10467.5
912.699	10413.5
912.935	10268.5
913.171	10286.5
913.407	10120.5
913.643	10039.5
913.879	10019.5
914.114	9913.5
914.35	9811.5
914.586	9708.5
914.822	9563.5
915.057	9632.5
915.293	9429.5
915.529	9308.5
915.764	9443.5
916	9348.5
916.235	9374.5
916.471	9331.5
916.706	9219.5
916.941	9266.5
917.177	9216.5
917.412	9250.5
917.647	9300.5
917.882	9166.5
918.117	9229.5
918.352	9162.5
918.588	9204.5
918.823	9079.5
919.057	8942.5
919.292	8801.5
919.527	8843.5
919.762	8692.5
919.997	8568.5
920.232	8546.5
920.466	8469.5
920.701	8321.5
920.935	8386.5
921.17	8259.5
921.405	8238.5
921.639	8226.5
921.873	8133.5
922.108	8149.5
922.342	8132.5
922.576	8095.5
922.811	8013.5
923.045	8052.5
923.279	8017.5
923.513	7857.5
923.747	7913.5
923.981	7909.5
924.215	7754.5
924.449	7719.5
924.683	7614.5
924.917	7624.5
925.151	7540.5
925.385	7550.5
925.618	7500.5
925.852	7445.5
926.086	7385.5
926.319	7430.5
926.553	7425.5
926.786	7405.5
927.02	7449.5
927.253	7473.5
927.486	7442.5
927.72	7387.5
927.953	7406.5
928.186	7335.5
928.42	7393.5
928.653	7225.5
928.886	7208.5
929.119	7203.5
929.352	7197.5
929.585	7155.5
929.818	7069.5
930.051	7029.5
930.284	6964.5
930.516	6836.5
930.749	6764.5
930.982	6882.5
931.215	6786.5
931.447	6668.5
931.68	6652.5
931.912	6683.5
932.145	6642.5
932.377	6712.5
932.61	6760.5
932.842	6561.5
933.074	6665.5
933.307	6595.5
933.539	6612.5
933.771	6641.5
934.003	6620.5
934.236	6648.5
934.468	6714.5
934.7	6549.5
934.932	6609.5
935.164	6522.5
935.395	6490.5
935.627	6559.5
935.859	6497.5
936.091	6324.5
936.323	6422.5
936.554	6427.5
936.786	6356.5
937.017	6226.5
937.249	6268.5
937.481	6221.5
937.712	6242.5
937.943	6178.5
938.175	6203.5
938.406	6170.5
938.637	6259.5
938.869	6164.5
939.1	6213.5
939.331	6065.5
939.562	6114.5
939.793	6090.5
940.024	6076.5
940.255	6120.5
940.486	6013.5
940.717	6012.5
940.948	5993.5
941.179	5918.5
941.409	5948.5
941.64	5917.5
941.871	5947.5
942.102	5856.5
942.332	5871.5
942.563	5922.5
942.793	5826.5
943.024	5830.5
943.254	5823.5
943.484	5909.5
943.715	5873.5
943.945	5809.5
944.175	5744.5
944.405	5742.5
944.636	5775.5
944.866	5830.5
945.096	5742.5
945.326	5667.5
945.556	5731.5
945.786	5720.5
946.016	5648.5
946.245	5571.5
946.475	5578.5
946.705	5555.5
946.935	5494.5
947.164	5534.5
947.394	5436.5
947.624	5382.5
947.853	5437.5
948.083	5425.5
948.312	5322.5
948.542	5264.5
948.771	5237.5
949	5204.5
949.23	5240.5
949.459	5244.5
949.688	5332.5
949.917	5191.5
950.146	5258.5
950.375	5264.5
950.604	5208.5
950.833	5227.5
951.062	5235.5
951.291	5151.5
951.52	5194.5
951.749	5137.5
951.978	5089.5
952.206	5118.5
952.435	5043.5
952.664	5093.5
952.892	5074.5
953.121	5061.5
953.349	5044.5
953.578	4979.5
953.806	4992.5
954.035	4937.5
954.263	4949.5
954.491	4868.5
954.719	4873.5
954.948	4800.5
955.176	4841.5
955.404	4751.5
955.632	4802.5
955.86	4786.5
956.088	4761.5
956.316	4726.5
956.544	4731.5
956.772	4678.5
956.999	4619.5
957.227	4689.5
957.455	4571.5
957.683	4543.5
957.91	4479.5
958.138	4476.5
958.365	4533.5
958.593	4444.5
958.82	4402.5
959.048	4446.5
959.275	4399.5
959.502	4411.5
959.73	4335.5
959.957	4420.5
960.184	4414.5
960.411	4303.5
960.638	4379.5
960.865	4325.5
961.092	4392.5
961.319	4282.5
961.546	4360.5
961.773	4320.5
962	4277.5
962.227	4352.5
962.454	4303.5
962.68	4279.5
962.907	4238.5
963.134	4207.5
963.36	4232.5
963.587	4222.5
963.813	4112.5
964.04	4125.5
964.266	4083.5
964.493	4106.5
964.719	4077.5
964.945	4096.5
965.171	3967.5
965.398	4019.5
965.624	4005.5
965.85	3935.5
966.076	3933.5
966.302	3925.5
966.528	3910.5
966.754	3907.5
966.98	3895.5
967.206	3846.5
967.431	3765.5
967.657	3891.5
967.883	3854.5
968.109	3821.5
968.334	3780.5
968.56	3757.5
968.785	3749.5
969.011	3757.5
969.236	3782.5
969.462	3706.5
969.687	3687.5
969.912	3745.5
970.138	3743.5
970.363	3615.5
970.588	3678.5
970.813	3643.5
971.038	3614.5
971.263	3639.5
971.488	3628.5
971.713	3684.5
971.938	3617.5
972.163	3505.5
972.388	3539.5
972.613	3490.5
972.838	3519.5
973.062	3491.5
973.287	3493.5
973.512	3408.5
973.736	3433.5
973.961	3353.5
974.185	3347.5
974.41	3441.5
974.634	3286.5
974.858	3324.5
975.083	3304.5
975.307	3380.5
975.531	3272.5
975.755	3214.5
975.98	3238.5
976.204	3169.5
976.428	3101.5
976.652	3166.5
976.876	3117.5
977.1	3178.5
977.324	3098.5
977.547	3173.5
977.771	3103.5
977.995	3096.5
978.219	3046.5
978.442	3148.5
978.666	3097.5
978.89	3051.5
979.113	3038.5
979.337	3041.5
979.56	3016.5
979.783	3091.5
980.007	2970.5
980.23	2988.5
980.453	2922.5
980.677	2982.5
980.9	2955.5
981.123	2849.5
981.346	2946.5
981.569	2892.5
981.792	2925.5
982.015	2850.5
982.238	2849.5
982.461	2849.5
982.684	2791.5
982.907	2796.5
983.129	2796.5
983.352	2792.5
983.575	2746.5
983.797	2786.5
984.02	2719.5
984.242	2690.5
984.465	2711.5
984.687	2734.5
984.91	2713.5
985.132	2698.5
985.354	2702.5
985.577	2671.5
985.799	2649.5
986.021	2580.5
986.243	2588.5
986.465	2591.5
986.687	2631.5
986.909	2660.5
987.131	2593.5
987.353	2568.5
987.575	2589.5
987.797	2568.5
988.019	2486.5
988.241	2526.5
988.462	2496.5
988.684	2540.5
988.906	2570.5
989.127	2569.5
989.349	2435.5
989.57	2498.5
989.792	2546.5
990.013	2514.5
990.234	2493.5
990.456	2515.5
990.677	2493.5
990.898	2434.5
991.119	2435.5
991.341	2451.5
991.562	2399.5
991.783	2429.5
992.004	2375.5
992.225	2300.5
992.446	2379.5
992.667	2283.5
992.887	2339.5
993.108	2234.5
993.329	2369.5
993.55	2337.5
993.77	2235.5
993.991	2243.5
994.212	2239.5
994.432	2245.5
994.653	2213.5
994.873	2213.5
995.093	2122.5
995.314	2162.5
995.534	2217.5
995.754	2247.5
995.975	2234.5
996.195	2126.5
996.415	2199.5
996.635	2141.5
996.855	2111.5
997.075	2111.5
997.295	2110.5
997.515	2084.5
997.735	2153.5
997.955	2096.5
998.174	2108.5
998.394	2078.5
998.614	2100.5
998.834	2075.5
999.053	2141.5
999.273	2098.5
999.492	2151.5
999.712	2070.5
999.931	2046.5
1000.151	2082.5
1000.37	2040.5
1000.589	2134.5
1000.809	1999.5
1001.028	2099.5
1001.247	2056.5
1001.466	1940.5
1001.685	2062.5
1001.904	2010.5
1002.123	1968.5
1002.342	1971.5
1002.561	1940.5
1002.78	1952.5
1002.999	2026.5
1003.218	1930.5
1003.436	1934.5
1003.655	1954.5
1003.874	1892.5
1004.092	1925.5
1004.311	1932.5
1004.53	1890.5
1004.748	1979.5
1004.966	1902.5
1005.185	1930.5
1005.403	1910.5
1005.622	1919.5
1005.84	1976.5
1006.058	1860.5
1006.276	1872.5
1006.494	2361.5
1006.712	1873.5
1006.931	1922.5
1007.149	1829.5
1007.367	1858.5
1007.584	1892.5
1007.802	1894.5
1008.02	1820.5
1008.238	1916.5
1008.456	1892.5
1008.673	1796.5
1008.891	1876.5
1009.109	1841.5
1009.326	1903.5
1009.544	1968.5
1009.761	1869.5
1009.979	1929.5
1010.196	1941.5
1010.413	2003.5
1010.631	2048.5
1010.848	2065.5
1011.065	2056.5
1011.282	2005.5
1011.5	1947.5
1011.717	2035.5
1011.934	2008.5
1012.151	2051.5
1012.368	2018.5
1012.585	1952.5
1012.801	1997.5
1013.018	1963.5
1013.235	1909.5
1013.452	1925.5
1013.669	1947.5
1013.885	1913.5
1014.102	1944.5
1014.318	1919.5
1014.535	1868.5
1014.751	1945.5
1014.968	1896.5
1015.184	1948.5
1015.401	1832.5
1015.617	1830.5
1015.833	1779.5
1016.049	1787.5
1016.266	1786.5
1016.482	1782.5
1016.698	1713.5
1016.914	1757.5
1017.13	1690.5
1017.346	1703.5
1017.562	1747.5
1017.778	1661.5
1017.993	1624.5
1018.209	1703.5
1018.425	1669.5
1018.641	1618.5
1018.856	1616.5
1019.072	1640.5
1019.288	1693.5
1019.503	1620.5
1019.719	1546.5
1019.934	1568.5
1020.149	1634.5
1020.365	1577.5
1020.58	1496.5
1020.795	1571.5
1021.011	1507.5
1021.226	1498.5
1021.441	1503.5
1021.656	1406.5
1021.871	1370.5
1022.086	1346.5
1022.301	1339.5
1022.516	1340.5
1022.731	1375.5
1022.946	1316.5
1023.16	1290.5
1023.375	1264.5
1023.59	1241.5
1023.804	1203.5
1024.019	1316.5
1024.234	1195.5
1024.448	1204.5
1024.663	1133.5
1024.877	1129.5
1025.092	1164.5
1025.306	1158.5
1025.52	1076.5
1025.734	1129.5
1025.949	1074.5
1026.163	1044.5
1026.377	978.5
1026.591	1034.5
1026.805	946.5
1027.019	941.5
1027.233	884.5
1027.447	862.5
1027.661	947.5
1027.875	904.5
1028.088	894.5
1028.302	820.5
1028.516	798.5
1028.73	796.5
1028.943	788.5
1029.157	717.5
1029.37	697.5
1029.584	-0.5
1029.797	-2.5
1030.011	1.5
1030.224	-1.5
