Data from QEP037381__520__17-31-17-566.txt Node

Date: Fri Dec 16 17:31:17 EST 2022
User: dcclab
Spectrometer: QEP03738
Trigger mode: 4
Integration Time (sec): 1.000000E1
Scans to average: 1
Electric dark correction enabled: true
Nonlinearity correction enabled: false
Boxcar width: 0
XAxis mode: Wavelengths
Number of Pixels in Spectrum: 1044
>>>>>Begin Spectral Data<<<<<
784.041	10.75
784.3	-3.25
784.558	-0.25
784.817	-7.25
785.075	122920.75
785.334	21570.75
785.592	10107.75
785.851	6931.75
786.109	5225.75
786.368	4041.75
786.626	3266.75
786.884	2668.75
787.143	2232.75
787.401	1853.75
787.659	1670.75
787.917	1400.75
788.175	1290.75
788.433	1120.75
788.691	991.75
788.949	904.75
789.207	848.75
789.465	765.75
789.723	713.75
789.98	672.75
790.238	698.75
790.496	646.75
790.753	623.75
791.011	659.75
791.268	580.75
791.526	587.75
791.783	575.75
792.041	557.75
792.298	486.75
792.556	543.75
792.813	528.75
793.07	500.75
793.327	480.75
793.584	560.75
793.841	490.75
794.099	496.75
794.356	545.75
794.613	464.75
794.869	496.75
795.126	469.75
795.383	434.75
795.64	473.75
795.897	412.75
796.153	480.75
796.41	442.75
796.667	441.75
796.923	469.75
797.18	463.75
797.436	482.75
797.693	440.75
797.949	488.75
798.206	526.75
798.462	443.75
798.718	507.75
798.974	477.75
799.231	511.75
799.487	510.75
799.743	524.75
799.999	527.75
800.255	557.75
800.511	518.75
800.767	579.75
801.023	585.75
801.279	627.75
801.534	656.75
801.79	704.75
802.046	781.75
802.302	902.75
802.557	1057.75
802.813	1334.75
803.068	1653.75
803.324	2322.75
803.579	3137.75
803.835	4379.75
804.09	6082.75
804.345	8058.75
804.601	10238.75
804.856	12343.75
805.111	14326.75
805.366	15697.75
805.621	16723.75
805.876	17460.75
806.131	17778.75
806.386	18210.75
806.641	18340.75
806.896	18786.75
807.151	19174.75
807.406	19263.75
807.661	19653.75
807.915	19973.75
808.17	20279.75
808.425	20342.75
808.679	20526.75
808.934	20796.75
809.188	20924.75
809.443	21128.75
809.697	21353.75
809.951	21523.75
810.206	21714.75
810.46	21861.75
810.714	21852.75
810.968	22254.75
811.223	22381.75
811.477	22573.75
811.731	22694.75
811.985	22778.75
812.239	22911.75
812.493	23014.75
812.747	23053.75
813	23163.75
813.254	23368.75
813.508	23353.75
813.762	23361.75
814.015	23485.75
814.269	23693.75
814.522	23867.75
814.776	24059.75
815.03	24455.75
815.283	24747.75
815.536	24988.75
815.79	25395.75
816.043	25691.75
816.296	25916.75
816.55	26224.75
816.803	26469.75
817.056	26865.75
817.309	27020.75
817.562	27205.75
817.815	27411.75
818.068	27723.75
818.321	28006.75
818.574	28274.75
818.827	28567.75
819.079	29004.75
819.332	29339.75
819.585	29583.75
819.838	30062.75
820.09	30130.75
820.343	30466.75
820.595	30562.75
820.848	30721.75
821.1	30825.75
821.353	30842.75
821.605	30860.75
821.857	30828.75
822.11	30633.75
822.362	30682.75
822.614	30605.75
822.866	30544.75
823.118	30604.75
823.37	30741.75
823.622	30813.75
823.874	30901.75
824.126	31024.75
824.378	30972.75
824.63	31158.75
824.882	30978.75
825.134	31190.75
825.385	31240.75
825.637	30966.75
825.888	30922.75
826.14	30844.75
826.392	30778.75
826.643	30493.75
826.895	30487.75
827.146	30473.75
827.397	30280.75
827.649	30315.75
827.9	30235.75
828.151	30342.75
828.402	30349.75
828.653	30408.75
828.905	30496.75
829.156	30687.75
829.407	30432.75
829.658	30435.75
829.909	30447.75
830.159	30406.75
830.41	30087.75
830.661	29999.75
830.912	29755.75
831.162	29693.75
831.413	29676.75
831.664	29645.75
831.914	29589.75
832.165	29586.75
832.415	29572.75
832.666	29608.75
832.916	29660.75
833.167	29550.75
833.417	29608.75
833.667	29542.75
833.917	29230.75
834.168	29242.75
834.418	29260.75
834.668	29013.75
834.918	28757.75
835.168	28795.75
835.418	28685.75
835.668	28669.75
835.918	28619.75
836.167	28630.75
836.417	28430.75
836.667	28310.75
836.917	28232.75
837.166	28325.75
837.416	28269.75
837.666	28214.75
837.915	28123.75
838.165	28115.75
838.414	27943.75
838.663	27893.75
838.913	27846.75
839.162	27566.75
839.411	27700.75
839.661	27525.75
839.91	27523.75
840.159	27443.75
840.408	27424.75
840.657	27295.75
840.906	27437.75
841.155	27363.75
841.404	27333.75
841.653	27288.75
841.902	27349.75
842.15	27421.75
842.399	27388.75
842.648	27264.75
842.897	27173.75
843.145	27024.75
843.394	26917.75
843.642	26730.75
843.891	26624.75
844.139	26478.75
844.388	26280.75
844.636	26165.75
844.884	26309.75
845.133	26201.75
845.381	26082.75
845.629	26124.75
845.877	25999.75
846.125	25950.75
846.373	25933.75
846.621	25814.75
846.869	25745.75
847.117	25563.75
847.365	25517.75
847.613	25280.75
847.861	25311.75
848.108	25275.75
848.356	25121.75
848.604	25053.75
848.851	25099.75
849.099	25110.75
849.346	25126.75
849.594	25242.75
849.841	25322.75
850.089	25294.75
850.336	25339.75
850.583	25329.75
850.831	25086.75
851.078	24931.75
851.325	24801.75
851.572	24812.75
851.819	24594.75
852.066	24209.75
852.313	23979.75
852.56	23933.75
852.807	23668.75
853.054	23638.75
853.301	23528.75
853.548	23430.75
853.794	23681.75
854.041	23776.75
854.288	23829.75
854.534	24106.75
854.781	23987.75
855.028	23865.75
855.274	23821.75
855.52	23615.75
855.767	23520.75
856.013	23459.75
856.26	23675.75
856.506	23214.75
856.752	23214.75
856.998	23176.75
857.244	23199.75
857.49	23304.75
857.736	23498.75
857.982	23253.75
858.228	23230.75
858.474	23055.75
858.72	22922.75
858.966	22828.75
859.212	22610.75
859.458	22397.75
859.703	22205.75
859.949	21974.75
860.195	21784.75
860.44	21677.75
860.686	21591.75
860.931	21520.75
861.177	21415.75
861.422	21415.75
861.667	21291.75
861.913	21267.75
862.158	21346.75
862.403	21489.75
862.648	21503.75
862.893	21526.75
863.138	21457.75
863.384	21466.75
863.629	21341.75
863.873	21292.75
864.118	21243.75
864.363	21062.75
864.608	21062.75
864.853	20969.75
865.098	20780.75
865.342	20797.75
865.587	20595.75
865.832	20697.75
866.076	20555.75
866.321	20402.75
866.565	20388.75
866.81	20196.75
867.054	20214.75
867.298	20189.75
867.543	20142.75
867.787	20222.75
868.031	19982.75
868.275	19968.75
868.519	19999.75
868.764	19840.75
869.008	19755.75
869.252	19823.75
869.496	19663.75
869.739	19588.75
869.983	19546.75
870.227	19509.75
870.471	19412.75
870.715	19451.75
870.958	19444.75
871.202	19564.75
871.446	19642.75
871.689	19497.75
871.933	19482.75
872.176	19500.75
872.42	19412.75
872.663	19401.75
872.906	19253.75
873.15	19143.75
873.393	19094.75
873.636	19066.75
873.879	18879.75
874.122	18751.75
874.366	18457.75
874.609	18264.75
874.852	18220.75
875.095	18191.75
875.337	18113.75
875.58	17871.75
875.823	17997.75
876.066	17943.75
876.309	17964.75
876.551	17704.75
876.794	17534.75
877.037	17571.75
877.279	17528.75
877.522	17616.75
877.764	17552.75
878.007	17487.75
878.249	17561.75
878.491	17542.75
878.734	17472.75
878.976	17472.75
879.218	17402.75
879.46	17288.75
879.702	17178.75
879.945	17099.75
880.187	16903.75
880.429	16728.75
880.671	16801.75
880.912	16576.75
881.154	16564.75
881.396	16451.75
881.638	16448.75
881.88	16491.75
882.121	16468.75
882.363	16454.75
882.605	16362.75
882.846	16269.75
883.088	16173.75
883.329	16171.75
883.571	16099.75
883.812	16096.75
884.053	16229.75
884.295	16399.75
884.536	16458.75
884.777	16262.75
885.018	16191.75
885.259	16196.75
885.5	16112.75
885.742	16290.75
885.982	16047.75
886.223	15932.75
886.464	15887.75
886.705	15725.75
886.946	15806.75
887.187	15601.75
887.428	15558.75
887.668	15370.75
887.909	15230.75
888.15	15118.75
888.39	15041.75
888.631	14933.75
888.871	14890.75
889.111	14664.75
889.352	14635.75
889.592	14583.75
889.833	14459.75
890.073	14346.75
890.313	14334.75
890.553	14072.75
890.793	14132.75
891.033	14028.75
891.273	13853.75
891.513	13992.75
891.753	13932.75
891.993	13902.75
892.233	13901.75
892.473	13903.75
892.713	13853.75
892.952	13851.75
893.192	13913.75
893.432	13772.75
893.671	13813.75
893.911	13668.75
894.15	13668.75
894.39	13539.75
894.629	13390.75
894.869	13334.75
895.108	13272.75
895.347	13206.75
895.587	13168.75
895.826	13140.75
896.065	13031.75
896.304	13045.75
896.543	13105.75
896.782	12997.75
897.021	12915.75
897.26	12885.75
897.499	12921.75
897.738	12734.75
897.977	12669.75
898.216	12607.75
898.454	12484.75
898.693	12435.75
898.932	12328.75
899.17	12275.75
899.409	12281.75
899.647	12191.75
899.886	12138.75
900.124	12156.75
900.363	12087.75
900.601	12081.75
900.839	12075.75
901.078	12051.75
901.316	12094.75
901.554	12160.75
901.792	12052.75
902.03	12046.75
902.268	11984.75
902.506	11984.75
902.744	11987.75
902.982	11959.75
903.22	11761.75
903.458	11679.75
903.695	11629.75
903.933	11487.75
904.171	11230.75
904.409	11108.75
904.646	11086.75
904.884	10916.75
905.121	10820.75
905.359	10733.75
905.596	10645.75
905.833	10560.75
906.071	10535.75
906.308	10537.75
906.545	10523.75
906.783	10436.75
907.02	10419.75
907.257	10320.75
907.494	10345.75
907.731	10337.75
907.968	10305.75
908.205	10261.75
908.442	10230.75
908.679	10072.75
908.915	10023.75
909.152	9994.75
909.389	9788.75
909.626	9840.75
909.862	9765.75
910.099	9713.75
910.335	9695.75
910.572	9521.75
910.808	9589.75
911.045	9610.75
911.281	9493.75
911.518	9507.75
911.754	9349.75
911.99	9384.75
912.226	9259.75
912.463	9179.75
912.699	9124.75
912.935	9102.75
913.171	8992.75
913.407	8902.75
913.643	8885.75
913.879	8832.75
914.114	8710.75
914.35	8643.75
914.586	8594.75
914.822	8504.75
915.057	8416.75
915.293	8352.75
915.529	8273.75
915.764	8351.75
916	8296.75
916.235	8271.75
916.471	8299.75
916.706	8176.75
916.941	8161.75
917.177	8202.75
917.412	8188.75
917.647	8137.75
917.882	8118.75
918.117	8135.75
918.352	8031.75
918.588	8076.75
918.823	7968.75
919.057	7880.75
919.292	7763.75
919.527	7736.75
919.762	7703.75
919.997	7750.75
920.232	7540.75
920.466	7515.75
920.701	7317.75
920.935	7361.75
921.17	7351.75
921.405	7248.75
921.639	7248.75
921.873	7174.75
922.108	7198.75
922.342	7200.75
922.576	7051.75
922.811	7102.75
923.045	7130.75
923.279	7060.75
923.513	6968.75
923.747	7046.75
923.981	6915.75
924.215	6877.75
924.449	6875.75
924.683	6740.75
924.917	6740.75
925.151	6699.75
925.385	6701.75
925.618	6723.75
925.852	6651.75
926.086	6558.75
926.319	6626.75
926.553	6628.75
926.786	6567.75
927.02	6550.75
927.253	6631.75
927.486	6597.75
927.72	6464.75
927.953	6574.75
928.186	6506.75
928.42	6481.75
928.653	6426.75
928.886	6356.75
929.119	6363.75
929.352	6369.75
929.585	6292.75
929.818	6192.75
930.051	6177.75
930.284	6205.75
930.516	6062.75
930.749	6036.75
930.982	6047.75
931.215	6005.75
931.447	5977.75
931.68	5891.75
931.912	5927.75
932.145	5915.75
932.377	5868.75
932.61	6022.75
932.842	5788.75
933.074	5927.75
933.307	5904.75
933.539	5940.75
933.771	5870.75
934.003	5875.75
934.236	5974.75
934.468	5942.75
934.7	5782.75
934.932	5830.75
935.164	5765.75
935.395	5765.75
935.627	5756.75
935.859	5735.75
936.091	5651.75
936.323	5722.75
936.554	5659.75
936.786	5660.75
937.017	5549.75
937.249	5609.75
937.481	5468.75
937.712	5578.75
937.943	5539.75
938.175	5471.75
938.406	5510.75
938.637	5558.75
938.869	5420.75
939.1	5547.75
939.331	5426.75
939.562	5462.75
939.793	5408.75
940.024	5464.75
940.255	5443.75
940.486	5368.75
940.717	5322.75
940.948	5261.75
941.179	5170.75
941.409	5224.75
941.64	5219.75
941.871	5284.75
942.102	5191.75
942.332	5207.75
942.563	5261.75
942.793	5244.75
943.024	5178.75
943.254	5194.75
943.484	5235.75
943.715	5190.75
943.945	5198.75
944.175	5144.75
944.405	5145.75
944.636	5077.75
944.866	5149.75
945.096	5135.75
945.326	5027.75
945.556	5104.75
945.786	5059.75
946.016	5034.75
946.245	4917.75
946.475	4950.75
946.705	4912.75
946.935	4930.75
947.164	4921.75
947.394	4820.75
947.624	4806.75
947.853	4862.75
948.083	4768.75
948.312	4756.75
948.542	4712.75
948.771	4694.75
949	4697.75
949.23	4703.75
949.459	4676.75
949.688	4815.75
949.917	4656.75
950.146	4682.75
950.375	4701.75
950.604	4598.75
950.833	4700.75
951.062	4700.75
951.291	4613.75
951.52	4581.75
951.749	4594.75
951.978	4541.75
952.206	4517.75
952.435	4502.75
952.664	4534.75
952.892	4526.75
953.121	4553.75
953.349	4475.75
953.578	4505.75
953.806	4388.75
954.035	4398.75
954.263	4369.75
954.491	4290.75
954.719	4402.75
954.948	4315.75
955.176	4282.75
955.404	4207.75
955.632	4259.75
955.86	4248.75
956.088	4219.75
956.316	4259.75
956.544	4262.75
956.772	4129.75
956.999	4135.75
957.227	4193.75
957.455	4086.75
957.683	4123.75
957.91	4020.75
958.138	4006.75
958.365	3987.75
958.593	3976.75
958.82	3936.75
959.048	3947.75
959.275	3965.75
959.502	3943.75
959.73	3905.75
959.957	3962.75
960.184	3964.75
960.411	3848.75
960.638	3939.75
960.865	3925.75
961.092	3902.75
961.319	3817.75
961.546	3953.75
961.773	3900.75
962	3809.75
962.227	3869.75
962.454	3831.75
962.68	3796.75
962.907	3859.75
963.134	3751.75
963.36	3740.75
963.587	3806.75
963.813	3698.75
964.04	3694.75
964.266	3646.75
964.493	3697.75
964.719	3684.75
964.945	3663.75
965.171	3517.75
965.398	3620.75
965.624	3571.75
965.85	3487.75
966.076	3533.75
966.302	3537.75
966.528	3454.75
966.754	3518.75
966.98	3549.75
967.206	3452.75
967.431	3396.75
967.657	3510.75
967.883	3444.75
968.109	3461.75
968.334	3393.75
968.56	3346.75
968.785	3365.75
969.011	3318.75
969.236	3376.75
969.462	3299.75
969.687	3344.75
969.912	3368.75
970.138	3380.75
970.363	3302.75
970.588	3276.75
970.813	3268.75
971.038	3244.75
971.263	3277.75
971.488	3252.75
971.713	3263.75
971.938	3249.75
972.163	3171.75
972.388	3148.75
972.613	3159.75
972.838	3165.75
973.062	3124.75
973.287	3113.75
973.512	3105.75
973.736	3104.75
973.961	3078.75
974.185	3037.75
974.41	3062.75
974.634	2944.75
974.858	2958.75
975.083	2977.75
975.307	2988.75
975.531	2926.75
975.755	2879.75
975.98	2863.75
976.204	2843.75
976.428	2809.75
976.652	2836.75
976.876	2819.75
977.1	2809.75
977.324	2758.75
977.547	2817.75
977.771	2818.75
977.995	2786.75
978.219	2703.75
978.442	2831.75
978.666	2794.75
978.89	2740.75
979.113	2733.75
979.337	2754.75
979.56	2702.75
979.783	2785.75
980.007	2657.75
980.23	2679.75
980.453	2636.75
980.677	2702.75
980.9	2666.75
981.123	2571.75
981.346	2667.75
981.569	2638.75
981.792	2655.75
982.015	2589.75
982.238	2552.75
982.461	2557.75
982.684	2530.75
982.907	2452.75
983.129	2494.75
983.352	2546.75
983.575	2515.75
983.797	2498.75
984.02	2464.75
984.242	2455.75
984.465	2456.75
984.687	2504.75
984.91	2483.75
985.132	2446.75
985.354	2454.75
985.577	2390.75
985.799	2420.75
986.021	2314.75
986.243	2344.75
986.465	2382.75
986.687	2400.75
986.909	2389.75
987.131	2346.75
987.353	2306.75
987.575	2358.75
987.797	2300.75
988.019	2232.75
988.241	2328.75
988.462	2278.75
988.684	2308.75
988.906	2320.75
989.127	2354.75
989.349	2255.75
989.57	2250.75
989.792	2279.75
990.013	2308.75
990.234	2294.75
990.456	2294.75
990.677	2269.75
990.898	2210.75
991.119	2201.75
991.341	2237.75
991.562	2165.75
991.783	2207.75
992.004	2129.75
992.225	2091.75
992.446	2140.75
992.667	2056.75
992.887	2142.75
993.108	2046.75
993.329	2156.75
993.55	2087.75
993.77	2035.75
993.991	2016.75
994.212	2102.75
994.432	2032.75
994.653	2065.75
994.873	2032.75
995.093	1912.75
995.314	1984.75
995.534	2054.75
995.754	2044.75
995.975	2066.75
996.195	1935.75
996.415	1985.75
996.635	1970.75
996.855	1981.75
997.075	1925.75
997.295	1938.75
997.515	1911.75
997.735	1980.75
997.955	1929.75
998.174	1934.75
998.394	1895.75
998.614	1928.75
998.834	1887.75
999.053	1963.75
999.273	1917.75
999.492	1969.75
999.712	1887.75
999.931	1857.75
1000.151	1925.75
1000.37	1885.75
1000.589	1949.75
1000.809	1832.75
1001.028	1939.75
1001.247	1843.75
1001.466	1780.75
1001.685	1910.75
1001.904	1846.75
1002.123	1803.75
1002.342	1847.75
1002.561	1770.75
1002.78	1819.75
1002.999	1897.75
1003.218	1808.75
1003.436	1780.75
1003.655	1821.75
1003.874	1747.75
1004.092	1769.75
1004.311	1831.75
1004.53	1755.75
1004.748	1804.75
1004.966	1736.75
1005.185	1802.75
1005.403	1791.75
1005.622	1752.75
1005.84	1815.75
1006.058	1728.75
1006.276	1742.75
1006.494	2117.75
1006.712	1751.75
1006.931	1809.75
1007.149	1724.75
1007.367	1688.75
1007.584	1727.75
1007.802	1755.75
1008.02	1714.75
1008.238	1806.75
1008.456	1773.75
1008.673	1639.75
1008.891	1771.75
1009.109	1700.75
1009.326	1720.75
1009.544	1815.75
1009.761	1738.75
1009.979	1819.75
1010.196	1774.75
1010.413	1883.75
1010.631	1913.75
1010.848	1910.75
1011.065	1926.75
1011.282	1849.75
1011.5	1801.75
1011.717	1939.75
1011.934	1845.75
1012.151	1873.75
1012.368	1861.75
1012.585	1800.75
1012.801	1862.75
1013.018	1823.75
1013.235	1756.75
1013.452	1797.75
1013.669	1821.75
1013.885	1754.75
1014.102	1803.75
1014.318	1769.75
1014.535	1726.75
1014.751	1752.75
1014.968	1745.75
1015.184	1754.75
1015.401	1720.75
1015.617	1725.75
1015.833	1683.75
1016.049	1647.75
1016.266	1646.75
1016.482	1611.75
1016.698	1563.75
1016.914	1632.75
1017.13	1564.75
1017.346	1547.75
1017.562	1596.75
1017.778	1552.75
1017.993	1516.75
1018.209	1565.75
1018.425	1557.75
1018.641	1531.75
1018.856	1476.75
1019.072	1521.75
1019.288	1533.75
1019.503	1520.75
1019.719	1431.75
1019.934	1428.75
1020.149	1510.75
1020.365	1464.75
1020.58	1390.75
1020.795	1492.75
1021.011	1409.75
1021.226	1365.75
1021.441	1387.75
1021.656	1333.75
1021.871	1275.75
1022.086	1267.75
1022.301	1235.75
1022.516	1226.75
1022.731	1283.75
1022.946	1240.75
1023.16	1189.75
1023.375	1157.75
1023.59	1163.75
1023.804	1119.75
1024.019	1211.75
1024.234	1079.75
1024.448	1106.75
1024.663	1044.75
1024.877	1061.75
1025.092	1079.75
1025.306	1094.75
1025.52	966.75
1025.734	1089.75
1025.949	993.75
1026.163	981.75
1026.377	929.75
1026.591	958.75
1026.805	867.75
1027.019	865.75
1027.233	860.75
1027.447	773.75
1027.661	878.75
1027.875	819.75
1028.088	824.75
1028.302	760.75
1028.516	754.75
1028.73	749.75
1028.943	744.75
1029.157	695.75
1029.37	648.75
1029.584	1.75
1029.797	0.75
1030.011	-2.25
1030.224	-0.25
