Data from QEP037381__207__11-29-03-222.txt Node

Date: Fri Apr 28 11:29:03 EDT 2023
User: dcclab
Spectrometer: QEP03738
Trigger mode: 4
Integration Time (sec): 1.000000E1
Scans to average: 1
Electric dark correction enabled: true
Nonlinearity correction enabled: false
Boxcar width: 0
XAxis mode: Wavelengths
Number of Pixels in Spectrum: 1044
>>>>>Begin Spectral Data<<<<<
784.041	11.5
784.3	-0.5
784.558	1.5
784.817	-7.5
785.075	63065.5
785.334	12746.5
785.592	6709.5
785.851	4740.5
786.109	3524.5
786.368	2799.5
786.626	2268.5
786.884	1891.5
787.143	1584.5
787.401	1322.5
787.659	1187.5
787.917	1032.5
788.175	970.5
788.433	847.5
788.691	758.5
788.949	720.5
789.207	675.5
789.465	596.5
789.723	564.5
789.98	518.5
790.238	567.5
790.496	534.5
790.753	514.5
791.011	559.5
791.268	498.5
791.526	487.5
791.783	502.5
792.041	482.5
792.298	398.5
792.556	470.5
792.813	454.5
793.07	425.5
793.327	415.5
793.584	508.5
793.841	402.5
794.099	437.5
794.356	490.5
794.613	393.5
794.869	422.5
795.126	416.5
795.383	391.5
795.64	398.5
795.897	367.5
796.153	418.5
796.41	407.5
796.667	395.5
796.923	394.5
797.18	396.5
797.436	418.5
797.693	382.5
797.949	447.5
798.206	469.5
798.462	382.5
798.718	437.5
798.974	414.5
799.231	454.5
799.487	436.5
799.743	437.5
799.999	481.5
800.255	468.5
800.511	448.5
800.767	501.5
801.023	481.5
801.279	514.5
801.534	547.5
801.79	576.5
802.046	602.5
802.302	730.5
802.557	850.5
802.813	1057.5
803.068	1318.5
803.324	1826.5
803.579	2503.5
803.835	3452.5
804.09	4636.5
804.345	5908.5
804.601	7178.5
804.856	8256.5
805.111	9152.5
805.366	9756.5
805.621	10207.5
805.876	10539.5
806.131	10671.5
806.386	10876.5
806.641	11035.5
806.896	11231.5
807.151	11434.5
807.406	11501.5
807.661	11774.5
807.915	11980.5
808.17	12133.5
808.425	12258.5
808.679	12351.5
808.934	12552.5
809.188	12612.5
809.443	12688.5
809.697	12932.5
809.951	12998.5
810.206	13146.5
810.46	13237.5
810.714	13400.5
810.968	13404.5
811.223	13580.5
811.477	13614.5
811.731	13805.5
811.985	13709.5
812.239	13740.5
812.493	13842.5
812.747	13891.5
813	13931.5
813.254	13989.5
813.508	14102.5
813.762	14106.5
814.015	14168.5
814.269	14302.5
814.522	14371.5
814.776	14534.5
815.03	14706.5
815.283	14842.5
815.536	15074.5
815.79	15279.5
816.043	15460.5
816.296	15624.5
816.55	15869.5
816.803	16009.5
817.056	16270.5
817.309	16367.5
817.562	16593.5
817.815	16768.5
818.068	16840.5
818.321	17020.5
818.574	17391.5
818.827	17559.5
819.079	17753.5
819.332	18049.5
819.585	18369.5
819.838	18531.5
820.09	18549.5
820.343	18716.5
820.595	18736.5
820.848	18869.5
821.1	19005.5
821.353	18949.5
821.605	18899.5
821.857	18867.5
822.11	18754.5
822.362	18662.5
822.614	18654.5
822.866	18750.5
823.118	18607.5
823.37	18923.5
823.622	18854.5
823.874	19054.5
824.126	18910.5
824.378	18944.5
824.63	19033.5
824.882	18989.5
825.134	19021.5
825.385	18971.5
825.637	18882.5
825.888	18768.5
826.14	18838.5
826.392	18662.5
826.643	18556.5
826.895	18455.5
827.146	18348.5
827.397	18404.5
827.649	18446.5
827.9	18300.5
828.151	18293.5
828.402	18299.5
828.653	18382.5
828.905	18480.5
829.156	18609.5
829.407	18543.5
829.658	18636.5
829.909	18677.5
830.159	18709.5
830.41	18598.5
830.661	18386.5
830.912	18165.5
831.162	18200.5
831.413	18202.5
831.664	18184.5
831.914	18173.5
832.165	18091.5
832.415	18241.5
832.666	18097.5
832.916	18084.5
833.167	18116.5
833.417	17997.5
833.667	17922.5
833.917	17981.5
834.168	17908.5
834.418	17834.5
834.668	17652.5
834.918	17639.5
835.168	17618.5
835.418	17412.5
835.668	17472.5
835.918	17408.5
836.167	17286.5
836.417	17283.5
836.667	17226.5
836.917	17308.5
837.166	17257.5
837.416	17299.5
837.666	17227.5
837.915	17203.5
838.165	17241.5
838.414	17011.5
838.663	17002.5
838.913	17112.5
839.162	17017.5
839.411	17031.5
839.661	16967.5
839.91	16957.5
840.159	16962.5
840.408	16964.5
840.657	16979.5
840.906	16975.5
841.155	16960.5
841.404	16878.5
841.653	16922.5
841.902	16935.5
842.15	16926.5
842.399	17061.5
842.648	16972.5
842.897	16916.5
843.145	16838.5
843.394	16689.5
843.642	16471.5
843.891	16421.5
844.139	16347.5
844.388	16207.5
844.636	16151.5
844.884	16130.5
845.133	16052.5
845.381	16071.5
845.629	16134.5
845.877	16019.5
846.125	16141.5
846.373	16074.5
846.621	16038.5
846.869	15939.5
847.117	15774.5
847.365	15853.5
847.613	15753.5
847.861	15643.5
848.108	15771.5
848.356	15701.5
848.604	15545.5
848.851	15599.5
849.099	15674.5
849.346	15696.5
849.594	15739.5
849.841	15825.5
850.089	15778.5
850.336	15810.5
850.583	15894.5
850.831	15770.5
851.078	15646.5
851.325	15599.5
851.572	15665.5
851.819	15478.5
852.066	15204.5
852.313	14916.5
852.56	14792.5
852.807	14740.5
853.054	14666.5
853.301	14666.5
853.548	14780.5
853.794	14791.5
854.041	14889.5
854.288	14866.5
854.534	15100.5
854.781	15105.5
855.028	14969.5
855.274	15126.5
855.52	15049.5
855.767	15102.5
856.013	15106.5
856.26	15363.5
856.506	14732.5
856.752	14821.5
856.998	14677.5
857.244	14715.5
857.49	14843.5
857.736	14943.5
857.982	14888.5
858.228	14791.5
858.474	14485.5
858.72	14397.5
858.966	14351.5
859.212	14134.5
859.458	14017.5
859.703	13927.5
859.949	13700.5
860.195	13721.5
860.44	13714.5
860.686	13723.5
860.931	13753.5
861.177	13470.5
861.422	13350.5
861.667	13298.5
861.913	13288.5
862.158	13234.5
862.403	13270.5
862.648	13330.5
862.893	13357.5
863.138	13249.5
863.384	13229.5
863.629	13256.5
863.873	13212.5
864.118	13183.5
864.363	13113.5
864.608	13007.5
864.853	12933.5
865.098	12891.5
865.342	12791.5
865.587	12758.5
865.832	12715.5
866.076	12730.5
866.321	12644.5
866.565	12668.5
866.81	12472.5
867.054	12571.5
867.298	12550.5
867.543	12468.5
867.787	12585.5
868.031	12496.5
868.275	12524.5
868.519	12467.5
868.764	12476.5
869.008	12504.5
869.252	12466.5
869.496	12448.5
869.739	12436.5
869.983	12446.5
870.227	12555.5
870.471	12424.5
870.715	12503.5
870.958	12502.5
871.202	12581.5
871.446	12598.5
871.689	12607.5
871.933	12664.5
872.176	12554.5
872.42	12545.5
872.663	12490.5
872.906	12570.5
873.15	12626.5
873.393	12624.5
873.636	12681.5
873.879	12520.5
874.122	12305.5
874.366	12006.5
874.609	11906.5
874.852	11728.5
875.095	11675.5
875.337	11593.5
875.58	11514.5
875.823	11479.5
876.066	11557.5
876.309	11499.5
876.551	11369.5
876.794	11293.5
877.037	11362.5
877.279	11254.5
877.522	11279.5
877.764	11254.5
878.007	11155.5
878.249	11207.5
878.491	11104.5
878.734	11095.5
878.976	11076.5
879.218	10960.5
879.46	10919.5
879.702	10801.5
879.945	10733.5
880.187	10587.5
880.429	10460.5
880.671	10503.5
880.912	10426.5
881.154	10407.5
881.396	10320.5
881.638	10394.5
881.88	10361.5
882.121	10360.5
882.363	10293.5
882.605	10410.5
882.846	10368.5
883.088	10393.5
883.329	10434.5
883.571	10598.5
883.812	10848.5
884.053	11190.5
884.295	11477.5
884.536	11718.5
884.777	11544.5
885.018	11482.5
885.259	11340.5
885.5	11175.5
885.742	11265.5
885.982	11112.5
886.223	10910.5
886.464	10794.5
886.705	10671.5
886.946	10407.5
887.187	10137.5
887.428	10100.5
887.668	9821.5
887.909	9657.5
888.15	9509.5
888.39	9481.5
888.631	9415.5
888.871	9278.5
889.111	9183.5
889.352	9110.5
889.592	9038.5
889.833	8988.5
890.073	8838.5
890.313	8887.5
890.553	8680.5
890.793	8721.5
891.033	8634.5
891.273	8645.5
891.513	8557.5
891.753	8679.5
891.993	8548.5
892.233	8618.5
892.473	8693.5
892.713	8640.5
892.952	8609.5
893.192	8589.5
893.432	8547.5
893.671	8585.5
893.911	8520.5
894.15	8476.5
894.39	8319.5
894.629	8361.5
894.869	8289.5
895.108	8227.5
895.347	8160.5
895.587	8185.5
895.826	8148.5
896.065	8076.5
896.304	8132.5
896.543	8142.5
896.782	8030.5
897.021	8054.5
897.26	8018.5
897.499	8116.5
897.738	8121.5
897.977	7944.5
898.216	7952.5
898.454	7872.5
898.693	7739.5
898.932	7781.5
899.17	7749.5
899.409	7738.5
899.647	7749.5
899.886	7692.5
900.124	7793.5
900.363	7715.5
900.601	7755.5
900.839	7825.5
901.078	7805.5
901.316	7935.5
901.554	7956.5
901.792	8029.5
902.03	8049.5
902.268	8057.5
902.506	7971.5
902.744	7903.5
902.982	7885.5
903.22	7719.5
903.458	7569.5
903.695	7462.5
903.933	7372.5
904.171	7184.5
904.409	7058.5
904.646	7004.5
904.884	6846.5
905.121	6871.5
905.359	6691.5
905.596	6663.5
905.833	6624.5
906.071	6597.5
906.308	6600.5
906.545	6574.5
906.783	6503.5
907.02	6503.5
907.257	6481.5
907.494	6557.5
907.731	6409.5
907.968	6454.5
908.205	6425.5
908.442	6291.5
908.679	6265.5
908.915	6290.5
909.152	6279.5
909.389	6115.5
909.626	6158.5
909.862	6042.5
910.099	6004.5
910.335	6037.5
910.572	5964.5
910.808	5990.5
911.045	5924.5
911.281	5884.5
911.518	5911.5
911.754	5792.5
911.99	5889.5
912.226	5748.5
912.463	5753.5
912.699	5654.5
912.935	5654.5
913.171	5559.5
913.407	5536.5
913.643	5577.5
913.879	5507.5
914.114	5453.5
914.35	5341.5
914.586	5320.5
914.822	5255.5
915.057	5361.5
915.293	5209.5
915.529	5154.5
915.764	5244.5
916	5162.5
916.235	5144.5
916.471	5211.5
916.706	5096.5
916.941	5152.5
917.177	5111.5
917.412	5147.5
917.647	5064.5
917.882	5005.5
918.117	5090.5
918.352	5068.5
918.588	5114.5
918.823	5008.5
919.057	4949.5
919.292	4878.5
919.527	4912.5
919.762	4755.5
919.997	4869.5
920.232	4712.5
920.466	4742.5
920.701	4562.5
920.935	4642.5
921.17	4599.5
921.405	4479.5
921.639	4589.5
921.873	4519.5
922.108	4519.5
922.342	4518.5
922.576	4466.5
922.811	4468.5
923.045	4496.5
923.279	4475.5
923.513	4307.5
923.747	4415.5
923.981	4398.5
924.215	4333.5
924.449	4339.5
924.683	4251.5
924.917	4257.5
925.151	4221.5
925.385	4250.5
925.618	4220.5
925.852	4258.5
926.086	4148.5
926.319	4174.5
926.553	4236.5
926.786	4193.5
927.02	4186.5
927.253	4169.5
927.486	4223.5
927.72	4122.5
927.953	4158.5
928.186	4114.5
928.42	4141.5
928.653	4066.5
928.886	4055.5
929.119	4103.5
929.352	4072.5
929.585	4011.5
929.818	3995.5
930.051	3943.5
930.284	3928.5
930.516	3835.5
930.749	3817.5
930.982	3890.5
931.215	3850.5
931.447	3764.5
931.68	3816.5
931.912	3742.5
932.145	3795.5
932.377	3782.5
932.61	3951.5
932.842	3708.5
933.074	3793.5
933.307	3757.5
933.539	3862.5
933.771	3812.5
934.003	3753.5
934.236	3803.5
934.468	3848.5
934.7	3694.5
934.932	3771.5
935.164	3708.5
935.395	3641.5
935.627	3701.5
935.859	3648.5
936.091	3641.5
936.323	3659.5
936.554	3665.5
936.786	3575.5
937.017	3586.5
937.249	3620.5
937.481	3513.5
937.712	3606.5
937.943	3556.5
938.175	3560.5
938.406	3586.5
938.637	3583.5
938.869	3537.5
939.1	3547.5
939.331	3506.5
939.562	3538.5
939.793	3527.5
940.024	3550.5
940.255	3569.5
940.486	3481.5
940.717	3464.5
940.948	3482.5
941.179	3391.5
941.409	3391.5
941.64	3402.5
941.871	3446.5
942.102	3390.5
942.332	3423.5
942.563	3410.5
942.793	3416.5
943.024	3364.5
943.254	3375.5
943.484	3441.5
943.715	3432.5
943.945	3446.5
944.175	3351.5
944.405	3326.5
944.636	3330.5
944.866	3370.5
945.096	3370.5
945.326	3278.5
945.556	3336.5
945.786	3354.5
946.016	3294.5
946.245	3254.5
946.475	3269.5
946.705	3240.5
946.935	3218.5
947.164	3220.5
947.394	3146.5
947.624	3184.5
947.853	3190.5
948.083	3176.5
948.312	3139.5
948.542	3099.5
948.771	3057.5
949	3128.5
949.23	3091.5
949.459	3106.5
949.688	3180.5
949.917	3110.5
950.146	3120.5
950.375	3145.5
950.604	3070.5
950.833	3133.5
951.062	3137.5
951.291	3073.5
951.52	3052.5
951.749	3033.5
951.978	2974.5
952.206	3013.5
952.435	2999.5
952.664	3064.5
952.892	3037.5
953.121	2993.5
953.349	2969.5
953.578	3039.5
953.806	2998.5
954.035	2918.5
954.263	2951.5
954.491	2884.5
954.719	2899.5
954.948	2885.5
955.176	2889.5
955.404	2790.5
955.632	2893.5
955.86	2851.5
956.088	2857.5
956.316	2848.5
956.544	2849.5
956.772	2818.5
956.999	2747.5
957.227	2817.5
957.455	2742.5
957.683	2775.5
957.91	2714.5
958.138	2691.5
958.365	2704.5
958.593	2701.5
958.82	2639.5
959.048	2710.5
959.275	2668.5
959.502	2668.5
959.73	2673.5
959.957	2698.5
960.184	2690.5
960.411	2610.5
960.638	2707.5
960.865	2675.5
961.092	2684.5
961.319	2582.5
961.546	2683.5
961.773	2664.5
962	2650.5
962.227	2671.5
962.454	2613.5
962.68	2600.5
962.907	2603.5
963.134	2563.5
963.36	2606.5
963.587	2580.5
963.813	2561.5
964.04	2590.5
964.266	2478.5
964.493	2566.5
964.719	2523.5
964.945	2522.5
965.171	2407.5
965.398	2511.5
965.624	2472.5
965.85	2411.5
966.076	2401.5
966.302	2466.5
966.528	2413.5
966.754	2419.5
966.98	2426.5
967.206	2410.5
967.431	2336.5
967.657	2419.5
967.883	2393.5
968.109	2436.5
968.334	2357.5
968.56	2342.5
968.785	2342.5
969.011	2287.5
969.236	2399.5
969.462	2297.5
969.687	2282.5
969.912	2358.5
970.138	2344.5
970.363	2278.5
970.588	2292.5
970.813	2304.5
971.038	2236.5
971.263	2279.5
971.488	2251.5
971.713	2294.5
971.938	2304.5
972.163	2191.5
972.388	2210.5
972.613	2206.5
972.838	2231.5
973.062	2193.5
973.287	2178.5
973.512	2099.5
973.736	2147.5
973.961	2176.5
974.185	2133.5
974.41	2161.5
974.634	2075.5
974.858	2098.5
975.083	2116.5
975.307	2124.5
975.531	2061.5
975.755	1994.5
975.98	2041.5
976.204	1969.5
976.428	1974.5
976.652	1981.5
976.876	1954.5
977.1	2014.5
977.324	1958.5
977.547	1987.5
977.771	2010.5
977.995	1958.5
978.219	1930.5
978.442	2027.5
978.666	1986.5
978.89	1967.5
979.113	1968.5
979.337	1932.5
979.56	1906.5
979.783	2004.5
980.007	1878.5
980.23	1932.5
980.453	1877.5
980.677	1934.5
980.9	1901.5
981.123	1830.5
981.346	1915.5
981.569	1867.5
981.792	1934.5
982.015	1859.5
982.238	1815.5
982.461	1845.5
982.684	1820.5
982.907	1799.5
983.129	1809.5
983.352	1827.5
983.575	1814.5
983.797	1831.5
984.02	1772.5
984.242	1766.5
984.465	1770.5
984.687	1799.5
984.91	1830.5
985.132	1823.5
985.354	1824.5
985.577	1750.5
985.799	1785.5
986.021	1679.5
986.243	1696.5
986.465	1723.5
986.687	1781.5
986.909	1813.5
987.131	1734.5
987.353	1714.5
987.575	1758.5
987.797	1721.5
988.019	1629.5
988.241	1730.5
988.462	1690.5
988.684	1746.5
988.906	1763.5
989.127	1769.5
989.349	1688.5
989.57	1703.5
989.792	1714.5
990.013	1744.5
990.234	1727.5
990.456	1762.5
990.677	1736.5
990.898	1674.5
991.119	1676.5
991.341	1726.5
991.562	1652.5
991.783	1684.5
992.004	1610.5
992.225	1585.5
992.446	1647.5
992.667	1548.5
992.887	1650.5
993.108	1566.5
993.329	1696.5
993.55	1615.5
993.77	1569.5
993.991	1560.5
994.212	1592.5
994.432	1581.5
994.653	1602.5
994.873	1574.5
995.093	1445.5
995.314	1534.5
995.534	1586.5
995.754	1599.5
995.975	1606.5
996.195	1513.5
996.415	1576.5
996.635	1546.5
996.855	1570.5
997.075	1569.5
997.295	1531.5
997.515	1543.5
997.735	1596.5
997.955	1542.5
998.174	1545.5
998.394	1527.5
998.614	1578.5
998.834	1521.5
999.053	1601.5
999.273	1566.5
999.492	1620.5
999.712	1548.5
999.931	1479.5
1000.151	1505.5
1000.37	1511.5
1000.589	1568.5
1000.809	1485.5
1001.028	1577.5
1001.247	1525.5
1001.466	1424.5
1001.685	1567.5
1001.904	1491.5
1002.123	1494.5
1002.342	1481.5
1002.561	1437.5
1002.78	1463.5
1002.999	1539.5
1003.218	1483.5
1003.436	1457.5
1003.655	1499.5
1003.874	1455.5
1004.092	1460.5
1004.311	1468.5
1004.53	1466.5
1004.748	1526.5
1004.966	1434.5
1005.185	1482.5
1005.403	1506.5
1005.622	1460.5
1005.84	1539.5
1006.058	1447.5
1006.276	1458.5
1006.494	1844.5
1006.712	1488.5
1006.931	1551.5
1007.149	1451.5
1007.367	1458.5
1007.584	1520.5
1007.802	1574.5
1008.02	1498.5
1008.238	1603.5
1008.456	1655.5
1008.673	1522.5
1008.891	1602.5
1009.109	1567.5
1009.326	1649.5
1009.544	1791.5
1009.761	1688.5
1009.979	1821.5
1010.196	1884.5
1010.413	1977.5
1010.631	2079.5
1010.848	2105.5
1011.065	2148.5
1011.282	2099.5
1011.5	2025.5
1011.717	2121.5
1011.934	2031.5
1012.151	2051.5
1012.368	2020.5
1012.585	2002.5
1012.801	2059.5
1013.018	2033.5
1013.235	2007.5
1013.452	2040.5
1013.669	2034.5
1013.885	2045.5
1014.102	2103.5
1014.318	2074.5
1014.535	2032.5
1014.751	2052.5
1014.968	2059.5
1015.184	2035.5
1015.401	1946.5
1015.617	1990.5
1015.833	1899.5
1016.049	1923.5
1016.266	1877.5
1016.482	1887.5
1016.698	1806.5
1016.914	1846.5
1017.13	1774.5
1017.346	1783.5
1017.562	1831.5
1017.778	1745.5
1017.993	1722.5
1018.209	1802.5
1018.425	1748.5
1018.641	1727.5
1018.856	1724.5
1019.072	1741.5
1019.288	1763.5
1019.503	1724.5
1019.719	1636.5
1019.934	1641.5
1020.149	1717.5
1020.365	1649.5
1020.58	1571.5
1020.795	1618.5
1021.011	1523.5
1021.226	1492.5
1021.441	1503.5
1021.656	1408.5
1021.871	1362.5
1022.086	1316.5
1022.301	1323.5
1022.516	1301.5
1022.731	1339.5
1022.946	1261.5
1023.16	1218.5
1023.375	1207.5
1023.59	1171.5
1023.804	1156.5
1024.019	1234.5
1024.234	1106.5
1024.448	1120.5
1024.663	1036.5
1024.877	1061.5
1025.092	1066.5
1025.306	1056.5
1025.52	957.5
1025.734	1075.5
1025.949	979.5
1026.163	949.5
1026.377	890.5
1026.591	937.5
1026.805	845.5
1027.019	858.5
1027.233	815.5
1027.447	774.5
1027.661	870.5
1027.875	795.5
1028.088	814.5
1028.302	738.5
1028.516	722.5
1028.73	717.5
1028.943	705.5
1029.157	658.5
1029.37	613.5
1029.584	-0.5
1029.797	-2.5
1030.011	1.5
1030.224	-3.5
