Data from QEP037381__200__11-27-53-222.txt Node

Date: Fri Apr 28 11:27:53 EDT 2023
User: dcclab
Spectrometer: QEP03738
Trigger mode: 4
Integration Time (sec): 1.000000E1
Scans to average: 1
Electric dark correction enabled: true
Nonlinearity correction enabled: false
Boxcar width: 0
XAxis mode: Wavelengths
Number of Pixels in Spectrum: 1044
>>>>>Begin Spectral Data<<<<<
784.041	13.12
784.3	0.12
784.558	-2.88
784.817	-1.88
785.075	65843.12
785.334	13287.12
785.592	6891.12
785.851	4876.12
786.109	3671.12
786.368	2849.12
786.626	2328.12
786.884	1946.12
787.143	1666.12
787.401	1355.12
787.659	1246.12
787.917	1050.12
788.175	990.12
788.433	857.12
788.691	765.12
788.949	716.12
789.207	691.12
789.465	612.12
789.723	589.12
789.98	536.12
790.238	570.12
790.496	549.12
790.753	511.12
791.011	551.12
791.268	505.12
791.526	484.12
791.783	505.12
792.041	490.12
792.298	415.12
792.556	469.12
792.813	454.12
793.07	442.12
793.327	416.12
793.584	495.12
793.841	417.12
794.099	428.12
794.356	513.12
794.613	393.12
794.869	432.12
795.126	406.12
795.383	385.12
795.64	415.12
795.897	351.12
796.153	418.12
796.41	416.12
796.667	382.12
796.923	402.12
797.18	409.12
797.436	437.12
797.693	383.12
797.949	452.12
798.206	465.12
798.462	373.12
798.718	434.12
798.974	421.12
799.231	461.12
799.487	438.12
799.743	451.12
799.999	473.12
800.255	476.12
800.511	454.12
800.767	493.12
801.023	476.12
801.279	511.12
801.534	547.12
801.79	581.12
802.046	598.12
802.302	748.12
802.557	863.12
802.813	1071.12
803.068	1338.12
803.324	1828.12
803.579	2548.12
803.835	3490.12
804.09	4689.12
804.345	5973.12
804.601	7315.12
804.856	8401.12
805.111	9402.12
805.366	10036.12
805.621	10447.12
805.876	10720.12
806.131	10930.12
806.386	11106.12
806.641	11266.12
806.896	11433.12
807.151	11643.12
807.406	11762.12
807.661	11926.12
807.915	12154.12
808.17	12344.12
808.425	12411.12
808.679	12590.12
808.934	12693.12
809.188	12906.12
809.443	12985.12
809.697	13120.12
809.951	13165.12
810.206	13305.12
810.46	13411.12
810.714	13576.12
810.968	13655.12
811.223	13776.12
811.477	13751.12
811.731	13943.12
811.985	13960.12
812.239	14019.12
812.493	14001.12
812.747	14112.12
813	14076.12
813.254	14253.12
813.508	14300.12
813.762	14258.12
814.015	14368.12
814.269	14472.12
814.522	14576.12
814.776	14755.12
815.03	14860.12
815.283	15123.12
815.536	15252.12
815.79	15578.12
816.043	15711.12
816.296	15885.12
816.55	16024.12
816.803	16282.12
817.056	16516.12
817.309	16602.12
817.562	16665.12
817.815	16924.12
818.068	17069.12
818.321	17232.12
818.574	17423.12
818.827	17812.12
819.079	17946.12
819.332	18403.12
819.585	18593.12
819.838	18755.12
820.09	18821.12
820.343	18957.12
820.595	18878.12
820.848	19146.12
821.1	19273.12
821.353	19163.12
821.605	19132.12
821.857	19171.12
822.11	18949.12
822.362	18888.12
822.614	18919.12
822.866	18880.12
823.118	18880.12
823.37	19041.12
823.622	19085.12
823.874	19183.12
824.126	19224.12
824.378	19177.12
824.63	19297.12
824.882	19276.12
825.134	19223.12
825.385	19168.12
825.637	19105.12
825.888	19130.12
826.14	19070.12
826.392	18977.12
826.643	18741.12
826.895	18792.12
827.146	18558.12
827.397	18575.12
827.649	18661.12
827.9	18576.12
828.151	18558.12
828.402	18598.12
828.653	18652.12
828.905	18705.12
829.156	18752.12
829.407	18703.12
829.658	18819.12
829.909	18897.12
830.159	18851.12
830.41	18725.12
830.661	18593.12
830.912	18318.12
831.162	18398.12
831.413	18238.12
831.664	18317.12
831.914	18337.12
832.165	18227.12
832.415	18343.12
832.666	18234.12
832.916	18234.12
833.167	18151.12
833.417	18121.12
833.667	18098.12
833.917	17902.12
834.168	18048.12
834.418	17988.12
834.668	17853.12
834.918	17770.12
835.168	17696.12
835.418	17603.12
835.668	17594.12
835.918	17582.12
836.167	17447.12
836.417	17428.12
836.667	17444.12
836.917	17451.12
837.166	17286.12
837.416	17441.12
837.666	17454.12
837.915	17230.12
838.165	17341.12
838.414	17124.12
838.663	17175.12
838.913	17071.12
839.162	17042.12
839.411	17134.12
839.661	16932.12
839.91	17014.12
840.159	17060.12
840.408	17048.12
840.657	16936.12
840.906	17035.12
841.155	16940.12
841.404	16855.12
841.653	16981.12
841.902	16987.12
842.15	17036.12
842.399	17054.12
842.648	16995.12
842.897	16994.12
843.145	16840.12
843.394	16690.12
843.642	16592.12
843.891	16490.12
844.139	16461.12
844.388	16356.12
844.636	16099.12
844.884	16167.12
845.133	16171.12
845.381	16136.12
845.629	16149.12
845.877	16091.12
846.125	16099.12
846.373	16031.12
846.621	16005.12
846.869	15968.12
847.117	15880.12
847.365	15732.12
847.613	15780.12
847.861	15754.12
848.108	15747.12
848.356	15669.12
848.604	15658.12
848.851	15643.12
849.099	15647.12
849.346	15735.12
849.594	15811.12
849.841	15777.12
850.089	15813.12
850.336	15785.12
850.583	15851.12
850.831	15715.12
851.078	15681.12
851.325	15632.12
851.572	15593.12
851.819	15471.12
852.066	15155.12
852.313	14858.12
852.56	14801.12
852.807	14662.12
853.054	14696.12
853.301	14640.12
853.548	14713.12
853.794	14852.12
854.041	14898.12
854.288	14871.12
854.534	15150.12
854.781	15049.12
855.028	15037.12
855.274	15053.12
855.52	14922.12
855.767	14880.12
856.013	14961.12
856.26	15129.12
856.506	14748.12
856.752	14604.12
856.998	14660.12
857.244	14668.12
857.49	14791.12
857.736	14844.12
857.982	14727.12
858.228	14685.12
858.474	14550.12
858.72	14356.12
858.966	14290.12
859.212	14155.12
859.458	14034.12
859.703	13776.12
859.949	13709.12
860.195	13696.12
860.44	13583.12
860.686	13539.12
860.931	13655.12
861.177	13412.12
861.422	13352.12
861.667	13218.12
861.913	13267.12
862.158	13242.12
862.403	13296.12
862.648	13377.12
862.893	13411.12
863.138	13247.12
863.384	13255.12
863.629	13222.12
863.873	13228.12
864.118	13114.12
864.363	12982.12
864.608	13017.12
864.853	12970.12
865.098	12851.12
865.342	12739.12
865.587	12563.12
865.832	12728.12
866.076	12622.12
866.321	12604.12
866.565	12595.12
866.81	12583.12
867.054	12565.12
867.298	12467.12
867.543	12482.12
867.787	12538.12
868.031	12488.12
868.275	12512.12
868.519	12510.12
868.764	12431.12
869.008	12371.12
869.252	12445.12
869.496	12366.12
869.739	12425.12
869.983	12397.12
870.227	12443.12
870.471	12352.12
870.715	12478.12
870.958	12514.12
871.202	12480.12
871.446	12539.12
871.689	12462.12
871.933	12439.12
872.176	12453.12
872.42	12393.12
872.663	12347.12
872.906	12420.12
873.15	12529.12
873.393	12442.12
873.636	12497.12
873.879	12291.12
874.122	12086.12
874.366	11941.12
874.609	11765.12
874.852	11688.12
875.095	11633.12
875.337	11566.12
875.58	11493.12
875.823	11461.12
876.066	11410.12
876.309	11520.12
876.551	11307.12
876.794	11249.12
877.037	11186.12
877.279	11079.12
877.522	11091.12
877.764	11164.12
878.007	11153.12
878.249	11122.12
878.491	11063.12
878.734	11017.12
878.976	10999.12
879.218	10955.12
879.46	10942.12
879.702	10777.12
879.945	10613.12
880.187	10556.12
880.429	10487.12
880.671	10497.12
880.912	10373.12
881.154	10383.12
881.396	10235.12
881.638	10296.12
881.88	10318.12
882.121	10277.12
882.363	10229.12
882.605	10281.12
882.846	10303.12
883.088	10288.12
883.329	10280.12
883.571	10468.12
883.812	10575.12
884.053	10907.12
884.295	11221.12
884.536	11323.12
884.777	11213.12
885.018	11069.12
885.259	11027.12
885.5	10875.12
885.742	10952.12
885.982	10841.12
886.223	10736.12
886.464	10618.12
886.705	10358.12
886.946	10199.12
887.187	10076.12
887.428	9966.12
887.668	9686.12
887.909	9587.12
888.15	9501.12
888.39	9350.12
888.631	9352.12
888.871	9286.12
889.111	9240.12
889.352	9052.12
889.592	8980.12
889.833	8892.12
890.073	8844.12
890.313	8882.12
890.553	8672.12
890.793	8688.12
891.033	8631.12
891.273	8646.12
891.513	8566.12
891.753	8577.12
891.993	8537.12
892.233	8579.12
892.473	8656.12
892.713	8597.12
892.952	8618.12
893.192	8611.12
893.432	8579.12
893.671	8555.12
893.911	8451.12
894.15	8464.12
894.39	8302.12
894.629	8287.12
894.869	8278.12
895.108	8174.12
895.347	8178.12
895.587	8156.12
895.826	8101.12
896.065	8131.12
896.304	8078.12
896.543	8132.12
896.782	8004.12
897.021	8113.12
897.26	7964.12
897.499	8053.12
897.738	8101.12
897.977	7996.12
898.216	7915.12
898.454	7878.12
898.693	7796.12
898.932	7858.12
899.17	7750.12
899.409	7726.12
899.647	7690.12
899.886	7639.12
900.124	7738.12
900.363	7719.12
900.601	7708.12
900.839	7720.12
901.078	7817.12
901.316	7826.12
901.554	7928.12
901.792	7961.12
902.03	7885.12
902.268	7874.12
902.506	7857.12
902.744	7805.12
902.982	7752.12
903.22	7568.12
903.458	7458.12
903.695	7397.12
903.933	7247.12
904.171	7120.12
904.409	6996.12
904.646	6992.12
904.884	6848.12
905.121	6790.12
905.359	6721.12
905.596	6653.12
905.833	6572.12
906.071	6572.12
906.308	6555.12
906.545	6569.12
906.783	6441.12
907.02	6493.12
907.257	6464.12
907.494	6454.12
907.731	6424.12
907.968	6453.12
908.205	6303.12
908.442	6286.12
908.679	6325.12
908.915	6226.12
909.152	6203.12
909.389	6063.12
909.626	6101.12
909.862	6016.12
910.099	6000.12
910.335	6006.12
910.572	5906.12
910.808	5945.12
911.045	5891.12
911.281	5842.12
911.518	5926.12
911.754	5805.12
911.99	5802.12
912.226	5760.12
912.463	5659.12
912.699	5654.12
912.935	5579.12
913.171	5544.12
913.407	5538.12
913.643	5512.12
913.879	5495.12
914.114	5427.12
914.35	5368.12
914.586	5301.12
914.822	5265.12
915.057	5314.12
915.293	5178.12
915.529	5135.12
915.764	5199.12
916	5186.12
916.235	5134.12
916.471	5161.12
916.706	5057.12
916.941	5053.12
917.177	5111.12
917.412	5134.12
917.647	5081.12
917.882	5048.12
918.117	5049.12
918.352	5057.12
918.588	5067.12
918.823	4997.12
919.057	4970.12
919.292	4819.12
919.527	4879.12
919.762	4754.12
919.997	4810.12
920.232	4715.12
920.466	4702.12
920.701	4561.12
920.935	4596.12
921.17	4540.12
921.405	4506.12
921.639	4602.12
921.873	4512.12
922.108	4512.12
922.342	4459.12
922.576	4431.12
922.811	4417.12
923.045	4452.12
923.279	4510.12
923.513	4361.12
923.747	4444.12
923.981	4365.12
924.215	4326.12
924.449	4301.12
924.683	4232.12
924.917	4237.12
925.151	4192.12
925.385	4284.12
925.618	4204.12
925.852	4207.12
926.086	4129.12
926.319	4197.12
926.553	4146.12
926.786	4181.12
927.02	4177.12
927.253	4166.12
927.486	4173.12
927.72	4069.12
927.953	4124.12
928.186	4076.12
928.42	4118.12
928.653	4079.12
928.886	4034.12
929.119	4039.12
929.352	4010.12
929.585	3979.12
929.818	3963.12
930.051	3988.12
930.284	3901.12
930.516	3836.12
930.749	3822.12
930.982	3857.12
931.215	3810.12
931.447	3755.12
931.68	3768.12
931.912	3734.12
932.145	3734.12
932.377	3719.12
932.61	3908.12
932.842	3700.12
933.074	3754.12
933.307	3706.12
933.539	3807.12
933.771	3808.12
934.003	3704.12
934.236	3833.12
934.468	3767.12
934.7	3715.12
934.932	3738.12
935.164	3679.12
935.395	3661.12
935.627	3689.12
935.859	3675.12
936.091	3626.12
936.323	3630.12
936.554	3659.12
936.786	3563.12
937.017	3550.12
937.249	3619.12
937.481	3529.12
937.712	3578.12
937.943	3585.12
938.175	3519.12
938.406	3496.12
938.637	3609.12
938.869	3485.12
939.1	3533.12
939.331	3491.12
939.562	3537.12
939.793	3484.12
940.024	3536.12
940.255	3510.12
940.486	3452.12
940.717	3440.12
940.948	3414.12
941.179	3395.12
941.409	3392.12
941.64	3370.12
941.871	3380.12
942.102	3362.12
942.332	3373.12
942.563	3429.12
942.793	3429.12
943.024	3375.12
943.254	3374.12
943.484	3412.12
943.715	3379.12
943.945	3378.12
944.175	3322.12
944.405	3279.12
944.636	3280.12
944.866	3328.12
945.096	3320.12
945.326	3270.12
945.556	3368.12
945.786	3362.12
946.016	3274.12
946.245	3187.12
946.475	3210.12
946.705	3194.12
946.935	3180.12
947.164	3197.12
947.394	3163.12
947.624	3146.12
947.853	3177.12
948.083	3150.12
948.312	3114.12
948.542	3068.12
948.771	3035.12
949	3071.12
949.23	3051.12
949.459	3106.12
949.688	3131.12
949.917	3062.12
950.146	3104.12
950.375	3137.12
950.604	3027.12
950.833	3084.12
951.062	3110.12
951.291	3049.12
951.52	3020.12
951.749	3032.12
951.978	2992.12
952.206	2980.12
952.435	2952.12
952.664	3018.12
952.892	2990.12
953.121	2973.12
953.349	2991.12
953.578	2992.12
953.806	2940.12
954.035	2890.12
954.263	2889.12
954.491	2862.12
954.719	2909.12
954.948	2848.12
955.176	2865.12
955.404	2763.12
955.632	2811.12
955.86	2845.12
956.088	2816.12
956.316	2854.12
956.544	2831.12
956.772	2764.12
956.999	2765.12
957.227	2816.12
957.455	2698.12
957.683	2707.12
957.91	2689.12
958.138	2685.12
958.365	2684.12
958.593	2631.12
958.82	2624.12
959.048	2670.12
959.275	2674.12
959.502	2629.12
959.73	2619.12
959.957	2650.12
960.184	2664.12
960.411	2600.12
960.638	2685.12
960.865	2627.12
961.092	2685.12
961.319	2542.12
961.546	2647.12
961.773	2653.12
962	2574.12
962.227	2656.12
962.454	2587.12
962.68	2567.12
962.907	2579.12
963.134	2556.12
963.36	2569.12
963.587	2549.12
963.813	2488.12
964.04	2483.12
964.266	2467.12
964.493	2532.12
964.719	2518.12
964.945	2516.12
965.171	2385.12
965.398	2439.12
965.624	2503.12
965.85	2416.12
966.076	2377.12
966.302	2443.12
966.528	2385.12
966.754	2399.12
966.98	2391.12
967.206	2379.12
967.431	2363.12
967.657	2420.12
967.883	2361.12
968.109	2335.12
968.334	2322.12
968.56	2303.12
968.785	2349.12
969.011	2293.12
969.236	2360.12
969.462	2269.12
969.687	2282.12
969.912	2358.12
970.138	2339.12
970.363	2261.12
970.588	2281.12
970.813	2277.12
971.038	2226.12
971.263	2258.12
971.488	2267.12
971.713	2254.12
971.938	2294.12
972.163	2180.12
972.388	2202.12
972.613	2161.12
972.838	2194.12
973.062	2167.12
973.287	2195.12
973.512	2108.12
973.736	2174.12
973.961	2116.12
974.185	2097.12
974.41	2158.12
974.634	2058.12
974.858	2053.12
975.083	2098.12
975.307	2131.12
975.531	2070.12
975.755	1987.12
975.98	2021.12
976.204	1949.12
976.428	1982.12
976.652	1985.12
976.876	1924.12
977.1	1968.12
977.324	1943.12
977.547	1973.12
977.771	2000.12
977.995	1975.12
978.219	1903.12
978.442	2026.12
978.666	1953.12
978.89	1976.12
979.113	1958.12
979.337	1940.12
979.56	1893.12
979.783	2003.12
980.007	1891.12
980.23	1908.12
980.453	1845.12
980.677	1906.12
980.9	1888.12
981.123	1783.12
981.346	1888.12
981.569	1882.12
981.792	1913.12
982.015	1861.12
982.238	1797.12
982.461	1848.12
982.684	1807.12
982.907	1790.12
983.129	1775.12
983.352	1819.12
983.575	1804.12
983.797	1830.12
984.02	1738.12
984.242	1791.12
984.465	1748.12
984.687	1788.12
984.91	1801.12
985.132	1770.12
985.354	1792.12
985.577	1768.12
985.799	1755.12
986.021	1664.12
986.243	1709.12
986.465	1691.12
986.687	1764.12
986.909	1795.12
987.131	1724.12
987.353	1685.12
987.575	1708.12
987.797	1691.12
988.019	1612.12
988.241	1683.12
988.462	1667.12
988.684	1723.12
988.906	1744.12
989.127	1721.12
989.349	1642.12
989.57	1651.12
989.792	1683.12
990.013	1704.12
990.234	1729.12
990.456	1728.12
990.677	1716.12
990.898	1661.12
991.119	1680.12
991.341	1679.12
991.562	1605.12
991.783	1676.12
992.004	1569.12
992.225	1561.12
992.446	1650.12
992.667	1542.12
992.887	1616.12
993.108	1516.12
993.329	1663.12
993.55	1628.12
993.77	1520.12
993.991	1514.12
994.212	1585.12
994.432	1572.12
994.653	1568.12
994.873	1557.12
995.093	1427.12
995.314	1527.12
995.534	1595.12
995.754	1591.12
995.975	1584.12
996.195	1508.12
996.415	1556.12
996.635	1546.12
996.855	1535.12
997.075	1537.12
997.295	1523.12
997.515	1482.12
997.735	1566.12
997.955	1524.12
998.174	1510.12
998.394	1510.12
998.614	1535.12
998.834	1499.12
999.053	1549.12
999.273	1526.12
999.492	1547.12
999.712	1498.12
999.931	1486.12
1000.151	1524.12
1000.37	1487.12
1000.589	1534.12
1000.809	1456.12
1001.028	1581.12
1001.247	1508.12
1001.466	1418.12
1001.685	1557.12
1001.904	1489.12
1002.123	1463.12
1002.342	1491.12
1002.561	1429.12
1002.78	1462.12
1002.999	1495.12
1003.218	1458.12
1003.436	1440.12
1003.655	1486.12
1003.874	1441.12
1004.092	1443.12
1004.311	1493.12
1004.53	1455.12
1004.748	1524.12
1004.966	1425.12
1005.185	1508.12
1005.403	1491.12
1005.622	1443.12
1005.84	1534.12
1006.058	1429.12
1006.276	1458.12
1006.494	1823.12
1006.712	1425.12
1006.931	1524.12
1007.149	1428.12
1007.367	1431.12
1007.584	1480.12
1007.802	1524.12
1008.02	1478.12
1008.238	1584.12
1008.456	1578.12
1008.673	1461.12
1008.891	1555.12
1009.109	1540.12
1009.326	1608.12
1009.544	1717.12
1009.761	1609.12
1009.979	1761.12
1010.196	1805.12
1010.413	1909.12
1010.631	1966.12
1010.848	1989.12
1011.065	1957.12
1011.282	1954.12
1011.5	1911.12
1011.717	1977.12
1011.934	1930.12
1012.151	1956.12
1012.368	1950.12
1012.585	1895.12
1012.801	1936.12
1013.018	1911.12
1013.235	1842.12
1013.452	1877.12
1013.669	1921.12
1013.885	1947.12
1014.102	1966.12
1014.318	1943.12
1014.535	1880.12
1014.751	1926.12
1014.968	1896.12
1015.184	1908.12
1015.401	1821.12
1015.617	1855.12
1015.833	1788.12
1016.049	1782.12
1016.266	1771.12
1016.482	1752.12
1016.698	1668.12
1016.914	1719.12
1017.13	1677.12
1017.346	1705.12
1017.562	1732.12
1017.778	1645.12
1017.993	1627.12
1018.209	1668.12
1018.425	1669.12
1018.641	1639.12
1018.856	1579.12
1019.072	1633.12
1019.288	1670.12
1019.503	1662.12
1019.719	1532.12
1019.934	1540.12
1020.149	1611.12
1020.365	1559.12
1020.58	1474.12
1020.795	1556.12
1021.011	1449.12
1021.226	1444.12
1021.441	1457.12
1021.656	1322.12
1021.871	1295.12
1022.086	1307.12
1022.301	1265.12
1022.516	1246.12
1022.731	1297.12
1022.946	1221.12
1023.16	1172.12
1023.375	1164.12
1023.59	1145.12
1023.804	1098.12
1024.019	1186.12
1024.234	1057.12
1024.448	1062.12
1024.663	1010.12
1024.877	1038.12
1025.092	1060.12
1025.306	1055.12
1025.52	945.12
1025.734	1026.12
1025.949	947.12
1026.163	933.12
1026.377	873.12
1026.591	902.12
1026.805	834.12
1027.019	846.12
1027.233	801.12
1027.447	751.12
1027.661	823.12
1027.875	782.12
1028.088	796.12
1028.302	726.12
1028.516	721.12
1028.73	722.12
1028.943	686.12
1029.157	643.12
1029.37	609.12
1029.584	-4.88
1029.797	1.12
1030.011	-1.88
1030.224	-2.88
