Data from QEP037381__214__11-30-13-223.txt Node

Date: Fri Apr 28 11:30:13 EDT 2023
User: dcclab
Spectrometer: QEP03738
Trigger mode: 4
Integration Time (sec): 1.000000E1
Scans to average: 1
Electric dark correction enabled: true
Nonlinearity correction enabled: false
Boxcar width: 0
XAxis mode: Wavelengths
Number of Pixels in Spectrum: 1044
>>>>>Begin Spectral Data<<<<<
784.041	11.75
784.3	1.75
784.558	-1.25
784.817	-3.25
785.075	62770.75
785.334	12709.75
785.592	6587.75
785.851	4686.75
786.109	3582.75
786.368	2781.75
786.626	2244.75
786.884	1884.75
787.143	1613.75
787.401	1311.75
787.659	1201.75
787.917	1032.75
788.175	947.75
788.433	855.75
788.691	750.75
788.949	714.75
789.207	697.75
789.465	606.75
789.723	572.75
789.98	521.75
790.238	569.75
790.496	523.75
790.753	503.75
791.011	564.75
791.268	483.75
791.526	475.75
791.783	498.75
792.041	468.75
792.298	414.75
792.556	461.75
792.813	452.75
793.07	435.75
793.327	427.75
793.584	493.75
793.841	417.75
794.099	428.75
794.356	500.75
794.613	408.75
794.869	441.75
795.126	399.75
795.383	399.75
795.64	420.75
795.897	367.75
796.153	416.75
796.41	405.75
796.667	384.75
796.923	395.75
797.18	393.75
797.436	427.75
797.693	385.75
797.949	436.75
798.206	451.75
798.462	362.75
798.718	435.75
798.974	409.75
799.231	457.75
799.487	435.75
799.743	445.75
799.999	471.75
800.255	462.75
800.511	452.75
800.767	491.75
801.023	486.75
801.279	522.75
801.534	548.75
801.79	602.75
802.046	596.75
802.302	747.75
802.557	851.75
802.813	1063.75
803.068	1319.75
803.324	1824.75
803.579	2538.75
803.835	3477.75
804.09	4696.75
804.345	5894.75
804.601	7199.75
804.856	8285.75
805.111	9271.75
805.366	9849.75
805.621	10342.75
805.876	10727.75
806.131	10839.75
806.386	11039.75
806.641	11233.75
806.896	11504.75
807.151	11491.75
807.406	11795.75
807.661	11869.75
807.915	12112.75
808.17	12365.75
808.425	12408.75
808.679	12552.75
808.934	12758.75
809.188	12824.75
809.443	13013.75
809.697	13149.75
809.951	13242.75
810.206	13339.75
810.46	13517.75
810.714	13557.75
810.968	13743.75
811.223	13699.75
811.477	13884.75
811.731	14011.75
811.985	13958.75
812.239	14025.75
812.493	14138.75
812.747	14111.75
813	14157.75
813.254	14268.75
813.508	14347.75
813.762	14367.75
814.015	14425.75
814.269	14584.75
814.522	14635.75
814.776	14809.75
815.03	14946.75
815.283	15121.75
815.536	15337.75
815.79	15490.75
816.043	15815.75
816.296	15976.75
816.55	16185.75
816.803	16358.75
817.056	16611.75
817.309	16810.75
817.562	16877.75
817.815	17071.75
818.068	17177.75
818.321	17396.75
818.574	17662.75
818.827	17854.75
819.079	18130.75
819.332	18503.75
819.585	18667.75
819.838	18823.75
820.09	18991.75
820.343	19068.75
820.595	19124.75
820.848	19288.75
821.1	19278.75
821.353	19275.75
821.605	19288.75
821.857	19301.75
822.11	19097.75
822.362	19057.75
822.614	19029.75
822.866	19045.75
823.118	19070.75
823.37	19275.75
823.622	19219.75
823.874	19371.75
824.126	19329.75
824.378	19294.75
824.63	19382.75
824.882	19491.75
825.134	19414.75
825.385	19320.75
825.637	19255.75
825.888	19183.75
826.14	19136.75
826.392	19080.75
826.643	18886.75
826.895	18951.75
827.146	18835.75
827.397	18795.75
827.649	18793.75
827.9	18754.75
828.151	18707.75
828.402	18713.75
828.653	18883.75
828.905	18910.75
829.156	19002.75
829.407	18902.75
829.658	18941.75
829.909	19076.75
830.159	19181.75
830.41	18934.75
830.661	18743.75
830.912	18687.75
831.162	18572.75
831.413	18545.75
831.664	18574.75
831.914	18550.75
832.165	18409.75
832.415	18636.75
832.666	18417.75
832.916	18461.75
833.167	18494.75
833.417	18493.75
833.667	18332.75
833.917	18198.75
834.168	18303.75
834.418	18092.75
834.668	18159.75
834.918	18050.75
835.168	17907.75
835.418	17697.75
835.668	17793.75
835.918	17725.75
836.167	17651.75
836.417	17640.75
836.667	17660.75
836.917	17638.75
837.166	17523.75
837.416	17555.75
837.666	17585.75
837.915	17514.75
838.165	17517.75
838.414	17391.75
838.663	17299.75
838.913	17432.75
839.162	17307.75
839.411	17455.75
839.661	17227.75
839.91	17246.75
840.159	17175.75
840.408	17349.75
840.657	17278.75
840.906	17296.75
841.155	17358.75
841.404	17185.75
841.653	17179.75
841.902	17195.75
842.15	17348.75
842.399	17367.75
842.648	17228.75
842.897	17262.75
843.145	16947.75
843.394	16854.75
843.642	16836.75
843.891	16787.75
844.139	16602.75
844.388	16461.75
844.636	16381.75
844.884	16430.75
845.133	16346.75
845.381	16365.75
845.629	16467.75
845.877	16344.75
846.125	16361.75
846.373	16290.75
846.621	16185.75
846.869	16214.75
847.117	16042.75
847.365	16069.75
847.613	15885.75
847.861	15947.75
848.108	15983.75
848.356	15844.75
848.604	15886.75
848.851	15960.75
849.099	15919.75
849.346	15894.75
849.594	16128.75
849.841	16158.75
850.089	16092.75
850.336	16173.75
850.583	16146.75
850.831	15951.75
851.078	15933.75
851.325	15958.75
851.572	15941.75
851.819	15689.75
852.066	15288.75
852.313	15150.75
852.56	15079.75
852.807	15021.75
853.054	14966.75
853.301	14966.75
853.548	14981.75
853.794	15116.75
854.041	15065.75
854.288	15157.75
854.534	15377.75
854.781	15310.75
855.028	15205.75
855.274	15245.75
855.52	15160.75
855.767	15186.75
856.013	15270.75
856.26	15511.75
856.506	15022.75
856.752	14901.75
856.998	14822.75
857.244	14922.75
857.49	14996.75
857.736	15159.75
857.982	15042.75
858.228	15031.75
858.474	14759.75
858.72	14721.75
858.966	14543.75
859.212	14382.75
859.458	14319.75
859.703	14097.75
859.949	14001.75
860.195	13922.75
860.44	13831.75
860.686	13767.75
860.931	13851.75
861.177	13673.75
861.422	13622.75
861.667	13471.75
861.913	13447.75
862.158	13569.75
862.403	13572.75
862.648	13541.75
862.893	13525.75
863.138	13498.75
863.384	13434.75
863.629	13438.75
863.873	13448.75
864.118	13386.75
864.363	13202.75
864.608	13224.75
864.853	13154.75
865.098	13007.75
865.342	12974.75
865.587	12886.75
865.832	13008.75
866.076	12951.75
866.321	12845.75
866.565	12890.75
866.81	12780.75
867.054	12805.75
867.298	12771.75
867.543	12619.75
867.787	12778.75
868.031	12667.75
868.275	12683.75
868.519	12585.75
868.764	12652.75
869.008	12643.75
869.252	12707.75
869.496	12602.75
869.739	12586.75
869.983	12667.75
870.227	12628.75
870.471	12619.75
870.715	12724.75
870.958	12777.75
871.202	12774.75
871.446	12802.75
871.689	12716.75
871.933	12680.75
872.176	12716.75
872.42	12632.75
872.663	12664.75
872.906	12685.75
873.15	12707.75
873.393	12757.75
873.636	12693.75
873.879	12512.75
874.122	12376.75
874.366	12139.75
874.609	11996.75
874.852	11836.75
875.095	11838.75
875.337	11810.75
875.58	11612.75
875.823	11711.75
876.066	11613.75
876.309	11661.75
876.551	11405.75
876.794	11453.75
877.037	11476.75
877.279	11410.75
877.522	11394.75
877.764	11339.75
878.007	11346.75
878.249	11327.75
878.491	11215.75
878.734	11285.75
878.976	11191.75
879.218	11113.75
879.46	11130.75
879.702	10931.75
879.945	10845.75
880.187	10786.75
880.429	10706.75
880.671	10579.75
880.912	10573.75
881.154	10579.75
881.396	10483.75
881.638	10499.75
881.88	10524.75
882.121	10478.75
882.363	10503.75
882.605	10512.75
882.846	10538.75
883.088	10474.75
883.329	10540.75
883.571	10584.75
883.812	10854.75
884.053	11157.75
884.295	11469.75
884.536	11670.75
884.777	11513.75
885.018	11362.75
885.259	11303.75
885.5	11098.75
885.742	11253.75
885.982	11080.75
886.223	10930.75
886.464	10883.75
886.705	10667.75
886.946	10482.75
887.187	10296.75
887.428	10210.75
887.668	9915.75
887.909	9796.75
888.15	9587.75
888.39	9534.75
888.631	9508.75
888.871	9445.75
889.111	9359.75
889.352	9208.75
889.592	9170.75
889.833	9054.75
890.073	9073.75
890.313	8994.75
890.553	8869.75
890.793	8868.75
891.033	8844.75
891.273	8748.75
891.513	8733.75
891.753	8686.75
891.993	8715.75
892.233	8649.75
892.473	8797.75
892.713	8723.75
892.952	8733.75
893.192	8696.75
893.432	8660.75
893.671	8773.75
893.911	8626.75
894.15	8583.75
894.39	8418.75
894.629	8461.75
894.869	8416.75
895.108	8360.75
895.347	8298.75
895.587	8329.75
895.826	8203.75
896.065	8222.75
896.304	8234.75
896.543	8242.75
896.782	8173.75
897.021	8192.75
897.26	8147.75
897.499	8215.75
897.738	8169.75
897.977	8096.75
898.216	8024.75
898.454	7996.75
898.693	7931.75
898.932	7941.75
899.17	7805.75
899.409	7856.75
899.647	7817.75
899.886	7769.75
900.124	7869.75
900.363	7788.75
900.601	7882.75
900.839	7938.75
901.078	7954.75
901.316	7999.75
901.554	8052.75
901.792	8141.75
902.03	8107.75
902.268	8056.75
902.506	8042.75
902.744	7992.75
902.982	7933.75
903.22	7824.75
903.458	7668.75
903.695	7543.75
903.933	7401.75
904.171	7237.75
904.409	7160.75
904.646	7143.75
904.884	6959.75
905.121	6885.75
905.359	6825.75
905.596	6810.75
905.833	6656.75
906.071	6633.75
906.308	6709.75
906.545	6669.75
906.783	6560.75
907.02	6640.75
907.257	6532.75
907.494	6580.75
907.731	6555.75
907.968	6575.75
908.205	6453.75
908.442	6367.75
908.679	6360.75
908.915	6299.75
909.152	6337.75
909.389	6109.75
909.626	6219.75
909.862	6094.75
910.099	6092.75
910.335	6076.75
910.572	6056.75
910.808	6028.75
911.045	5963.75
911.281	5956.75
911.518	6004.75
911.754	5910.75
911.99	5897.75
912.226	5779.75
912.463	5771.75
912.699	5692.75
912.935	5733.75
913.171	5624.75
913.407	5623.75
913.643	5631.75
913.879	5491.75
914.114	5497.75
914.35	5367.75
914.586	5397.75
914.822	5353.75
915.057	5356.75
915.293	5247.75
915.529	5221.75
915.764	5309.75
916	5300.75
916.235	5258.75
916.471	5266.75
916.706	5123.75
916.941	5160.75
917.177	5142.75
917.412	5176.75
917.647	5195.75
917.882	5101.75
918.117	5216.75
918.352	5148.75
918.588	5192.75
918.823	5110.75
919.057	5027.75
919.292	4850.75
919.527	4965.75
919.762	4850.75
919.997	4875.75
920.232	4769.75
920.466	4795.75
920.701	4658.75
920.935	4681.75
921.17	4677.75
921.405	4581.75
921.639	4635.75
921.873	4597.75
922.108	4571.75
922.342	4546.75
922.576	4472.75
922.811	4481.75
923.045	4550.75
923.279	4522.75
923.513	4402.75
923.747	4490.75
923.981	4456.75
924.215	4372.75
924.449	4379.75
924.683	4289.75
924.917	4310.75
925.151	4251.75
925.385	4341.75
925.618	4227.75
925.852	4269.75
926.086	4154.75
926.319	4255.75
926.553	4257.75
926.786	4247.75
927.02	4237.75
927.253	4285.75
927.486	4240.75
927.72	4176.75
927.953	4222.75
928.186	4166.75
928.42	4198.75
928.653	4115.75
928.886	4107.75
929.119	4152.75
929.352	4047.75
929.585	4079.75
929.818	3974.75
930.051	3995.75
930.284	3983.75
930.516	3849.75
930.749	3883.75
930.982	3958.75
931.215	3855.75
931.447	3789.75
931.68	3831.75
931.912	3816.75
932.145	3854.75
932.377	3822.75
932.61	3952.75
932.842	3759.75
933.074	3841.75
933.307	3774.75
933.539	3880.75
933.771	3845.75
934.003	3811.75
934.236	3868.75
934.468	3885.75
934.7	3810.75
934.932	3780.75
935.164	3758.75
935.395	3730.75
935.627	3760.75
935.859	3744.75
936.091	3689.75
936.323	3707.75
936.554	3718.75
936.786	3669.75
937.017	3580.75
937.249	3704.75
937.481	3594.75
937.712	3661.75
937.943	3606.75
938.175	3596.75
938.406	3595.75
938.637	3682.75
938.869	3557.75
939.1	3620.75
939.331	3553.75
939.562	3610.75
939.793	3585.75
940.024	3577.75
940.255	3589.75
940.486	3503.75
940.717	3492.75
940.948	3449.75
941.179	3427.75
941.409	3391.75
941.64	3436.75
941.871	3449.75
942.102	3421.75
942.332	3479.75
942.563	3460.75
942.793	3460.75
943.024	3380.75
943.254	3455.75
943.484	3481.75
943.715	3497.75
943.945	3443.75
944.175	3399.75
944.405	3359.75
944.636	3376.75
944.866	3408.75
945.096	3405.75
945.326	3342.75
945.556	3388.75
945.786	3402.75
946.016	3277.75
946.245	3261.75
946.475	3271.75
946.705	3309.75
946.935	3229.75
947.164	3229.75
947.394	3163.75
947.624	3242.75
947.853	3225.75
948.083	3202.75
948.312	3139.75
948.542	3145.75
948.771	3120.75
949	3092.75
949.23	3157.75
949.459	3137.75
949.688	3196.75
949.917	3127.75
950.146	3102.75
950.375	3149.75
950.604	3095.75
950.833	3147.75
951.062	3109.75
951.291	3157.75
951.52	3093.75
951.749	3067.75
951.978	3024.75
952.206	3084.75
952.435	3019.75
952.664	3041.75
952.892	3058.75
953.121	3032.75
953.349	3045.75
953.578	3049.75
953.806	2955.75
954.035	2922.75
954.263	2990.75
954.491	2918.75
954.719	2934.75
954.948	2860.75
955.176	2904.75
955.404	2851.75
955.632	2879.75
955.86	2904.75
956.088	2858.75
956.316	2873.75
956.544	2915.75
956.772	2833.75
956.999	2795.75
957.227	2853.75
957.455	2737.75
957.683	2773.75
957.91	2746.75
958.138	2726.75
958.365	2689.75
958.593	2727.75
958.82	2677.75
959.048	2745.75
959.275	2695.75
959.502	2694.75
959.73	2676.75
959.957	2677.75
960.184	2703.75
960.411	2653.75
960.638	2733.75
960.865	2671.75
961.092	2722.75
961.319	2589.75
961.546	2698.75
961.773	2704.75
962	2630.75
962.227	2699.75
962.454	2631.75
962.68	2590.75
962.907	2650.75
963.134	2565.75
963.36	2584.75
963.587	2589.75
963.813	2553.75
964.04	2559.75
964.266	2466.75
964.493	2602.75
964.719	2535.75
964.945	2544.75
965.171	2457.75
965.398	2503.75
965.624	2523.75
965.85	2413.75
966.076	2456.75
966.302	2471.75
966.528	2453.75
966.754	2455.75
966.98	2453.75
967.206	2417.75
967.431	2344.75
967.657	2454.75
967.883	2412.75
968.109	2393.75
968.334	2328.75
968.56	2349.75
968.785	2379.75
969.011	2312.75
969.236	2382.75
969.462	2334.75
969.687	2364.75
969.912	2349.75
970.138	2371.75
970.363	2304.75
970.588	2307.75
970.813	2293.75
971.038	2266.75
971.263	2299.75
971.488	2305.75
971.713	2333.75
971.938	2281.75
972.163	2230.75
972.388	2229.75
972.613	2193.75
972.838	2255.75
973.062	2201.75
973.287	2185.75
973.512	2148.75
973.736	2181.75
973.961	2134.75
974.185	2152.75
974.41	2176.75
974.634	2094.75
974.858	2052.75
975.083	2160.75
975.307	2132.75
975.531	2030.75
975.755	2029.75
975.98	2052.75
976.204	1996.75
976.428	1973.75
976.652	2003.75
976.876	1976.75
977.1	2028.75
977.324	1966.75
977.547	2032.75
977.771	2037.75
977.995	1961.75
978.219	1938.75
978.442	2034.75
978.666	1983.75
978.89	1945.75
979.113	1979.75
979.337	1977.75
979.56	1931.75
979.783	2005.75
980.007	1921.75
980.23	1936.75
980.453	1899.75
980.677	1929.75
980.9	1911.75
981.123	1844.75
981.346	1925.75
981.569	1858.75
981.792	1941.75
982.015	1880.75
982.238	1858.75
982.461	1862.75
982.684	1818.75
982.907	1828.75
983.129	1794.75
983.352	1840.75
983.575	1814.75
983.797	1819.75
984.02	1759.75
984.242	1780.75
984.465	1797.75
984.687	1820.75
984.91	1870.75
985.132	1831.75
985.354	1808.75
985.577	1774.75
985.799	1781.75
986.021	1715.75
986.243	1721.75
986.465	1743.75
986.687	1789.75
986.909	1825.75
987.131	1789.75
987.353	1726.75
987.575	1749.75
987.797	1720.75
988.019	1682.75
988.241	1710.75
988.462	1667.75
988.684	1715.75
988.906	1741.75
989.127	1782.75
989.349	1665.75
989.57	1717.75
989.792	1738.75
990.013	1719.75
990.234	1748.75
990.456	1779.75
990.677	1730.75
990.898	1658.75
991.119	1690.75
991.341	1713.75
991.562	1642.75
991.783	1669.75
992.004	1604.75
992.225	1595.75
992.446	1673.75
992.667	1572.75
992.887	1658.75
993.108	1548.75
993.329	1660.75
993.55	1609.75
993.77	1582.75
993.991	1562.75
994.212	1577.75
994.432	1582.75
994.653	1615.75
994.873	1577.75
995.093	1455.75
995.314	1519.75
995.534	1590.75
995.754	1595.75
995.975	1669.75
996.195	1505.75
996.415	1613.75
996.635	1559.75
996.855	1539.75
997.075	1560.75
997.295	1558.75
997.515	1524.75
997.735	1588.75
997.955	1547.75
998.174	1542.75
998.394	1507.75
998.614	1563.75
998.834	1509.75
999.053	1554.75
999.273	1560.75
999.492	1599.75
999.712	1530.75
999.931	1511.75
1000.151	1511.75
1000.37	1485.75
1000.589	1548.75
1000.809	1482.75
1001.028	1594.75
1001.247	1517.75
1001.466	1406.75
1001.685	1584.75
1001.904	1498.75
1002.123	1501.75
1002.342	1481.75
1002.561	1444.75
1002.78	1473.75
1002.999	1540.75
1003.218	1450.75
1003.436	1469.75
1003.655	1506.75
1003.874	1418.75
1004.092	1464.75
1004.311	1494.75
1004.53	1445.75
1004.748	1530.75
1004.966	1476.75
1005.185	1497.75
1005.403	1489.75
1005.622	1457.75
1005.84	1543.75
1006.058	1459.75
1006.276	1469.75
1006.494	1859.75
1006.712	1487.75
1006.931	1542.75
1007.149	1445.75
1007.367	1446.75
1007.584	1495.75
1007.802	1527.75
1008.02	1470.75
1008.238	1612.75
1008.456	1589.75
1008.673	1482.75
1008.891	1610.75
1009.109	1557.75
1009.326	1610.75
1009.544	1733.75
1009.761	1669.75
1009.979	1769.75
1010.196	1800.75
1010.413	1913.75
1010.631	2023.75
1010.848	2054.75
1011.065	2025.75
1011.282	2004.75
1011.5	1938.75
1011.717	2069.75
1011.934	1984.75
1012.151	2001.75
1012.368	1983.75
1012.585	1941.75
1012.801	1932.75
1013.018	1967.75
1013.235	1922.75
1013.452	1946.75
1013.669	1955.75
1013.885	1965.75
1014.102	2018.75
1014.318	1998.75
1014.535	1932.75
1014.751	1958.75
1014.968	1926.75
1015.184	1982.75
1015.401	1884.75
1015.617	1889.75
1015.833	1827.75
1016.049	1849.75
1016.266	1780.75
1016.482	1814.75
1016.698	1734.75
1016.914	1784.75
1017.13	1731.75
1017.346	1695.75
1017.562	1794.75
1017.778	1699.75
1017.993	1661.75
1018.209	1732.75
1018.425	1695.75
1018.641	1667.75
1018.856	1655.75
1019.072	1673.75
1019.288	1733.75
1019.503	1673.75
1019.719	1587.75
1019.934	1612.75
1020.149	1645.75
1020.365	1582.75
1020.58	1501.75
1020.795	1581.75
1021.011	1479.75
1021.226	1456.75
1021.441	1461.75
1021.656	1345.75
1021.871	1316.75
1022.086	1313.75
1022.301	1324.75
1022.516	1295.75
1022.731	1311.75
1022.946	1222.75
1023.16	1212.75
1023.375	1211.75
1023.59	1153.75
1023.804	1128.75
1024.019	1205.75
1024.234	1071.75
1024.448	1128.75
1024.663	1028.75
1024.877	1044.75
1025.092	1054.75
1025.306	1077.75
1025.52	968.75
1025.734	1046.75
1025.949	956.75
1026.163	933.75
1026.377	871.75
1026.591	934.75
1026.805	843.75
1027.019	850.75
1027.233	815.75
1027.447	765.75
1027.661	865.75
1027.875	808.75
1028.088	801.75
1028.302	715.75
1028.516	702.75
1028.73	710.75
1028.943	694.75
1029.157	662.75
1029.37	614.75
1029.584	-4.25
1029.797	-4.25
1030.011	-2.25
1030.224	1.75
