Data from QEP037381__185__11-25-23-221.txt Node

Date: Fri Apr 28 11:25:23 EDT 2023
User: dcclab
Spectrometer: QEP03738
Trigger mode: 4
Integration Time (sec): 1.000000E1
Scans to average: 1
Electric dark correction enabled: true
Nonlinearity correction enabled: false
Boxcar width: 0
XAxis mode: Wavelengths
Number of Pixels in Spectrum: 1044
>>>>>Begin Spectral Data<<<<<
784.041	15.62
784.3	-0.38
784.558	-2.38
784.817	-7.38
785.075	67897.62
785.334	13693.62
785.592	7251.62
785.851	5091.62
786.109	3935.62
786.368	3000.62
786.626	2474.62
786.884	2071.62
787.143	1722.62
787.401	1457.62
787.659	1283.62
787.917	1098.62
788.175	1050.62
788.433	891.62
788.691	830.62
788.949	741.62
789.207	720.62
789.465	622.62
789.723	593.62
789.98	554.62
790.238	596.62
790.496	548.62
790.753	516.62
791.011	562.62
791.268	514.62
791.526	495.62
791.783	512.62
792.041	498.62
792.298	413.62
792.556	469.62
792.813	455.62
793.07	440.62
793.327	419.62
793.584	504.62
793.841	431.62
794.099	440.62
794.356	489.62
794.613	396.62
794.869	461.62
795.126	405.62
795.383	394.62
795.64	406.62
795.897	354.62
796.153	433.62
796.41	421.62
796.667	396.62
796.923	405.62
797.18	401.62
797.436	422.62
797.693	400.62
797.949	434.62
798.206	465.62
798.462	374.62
798.718	446.62
798.974	423.62
799.231	458.62
799.487	441.62
799.743	451.62
799.999	480.62
800.255	473.62
800.511	461.62
800.767	521.62
801.023	462.62
801.279	527.62
801.534	535.62
801.79	613.62
802.046	627.62
802.302	771.62
802.557	877.62
802.813	1125.62
803.068	1393.62
803.324	1975.62
803.579	2681.62
803.835	3768.62
804.09	5074.62
804.345	6395.62
804.601	7833.62
804.856	9072.62
805.111	10106.62
805.366	10672.62
805.621	11088.62
805.876	11439.62
806.131	11657.62
806.386	11801.62
806.641	11957.62
806.896	12137.62
807.151	12354.62
807.406	12452.62
807.661	12724.62
807.915	12903.62
808.17	13027.62
808.425	13187.62
808.679	13300.62
808.934	13528.62
809.188	13572.62
809.443	13795.62
809.697	13910.62
809.951	13928.62
810.206	14052.62
810.46	14282.62
810.714	14282.62
810.968	14454.62
811.223	14486.62
811.477	14600.62
811.731	14760.62
811.985	14715.62
812.239	14752.62
812.493	14816.62
812.747	14958.62
813	14902.62
813.254	15022.62
813.508	15111.62
813.762	15083.62
814.015	15245.62
814.269	15278.62
814.522	15350.62
814.776	15483.62
815.03	15749.62
815.283	15903.62
815.536	16065.62
815.79	16338.62
816.043	16638.62
816.296	16659.62
816.55	16816.62
816.803	17022.62
817.056	17321.62
817.309	17379.62
817.562	17539.62
817.815	17825.62
818.068	17942.62
818.321	18123.62
818.574	18262.62
818.827	18569.62
819.079	18761.62
819.332	19235.62
819.585	19350.62
819.838	19674.62
820.09	19685.62
820.343	19729.62
820.595	19843.62
820.848	20015.62
821.1	20132.62
821.353	20146.62
821.605	19981.62
821.857	20049.62
822.11	19919.62
822.362	19942.62
822.614	19819.62
822.866	19876.62
823.118	19784.62
823.37	19912.62
823.622	20083.62
823.874	20030.62
824.126	20169.62
824.378	20072.62
824.63	20188.62
824.882	20180.62
825.134	20074.62
825.385	20093.62
825.637	20054.62
825.888	20004.62
826.14	19903.62
826.392	19780.62
826.643	19660.62
826.895	19635.62
827.146	19536.62
827.397	19503.62
827.649	19511.62
827.9	19514.62
828.151	19428.62
828.402	19475.62
828.653	19640.62
828.905	19510.62
829.156	19657.62
829.407	19556.62
829.658	19511.62
829.909	19683.62
830.159	19624.62
830.41	19589.62
830.661	19342.62
830.912	19180.62
831.162	19163.62
831.413	19135.62
831.664	19143.62
831.914	19025.62
832.165	19098.62
832.415	18987.62
832.666	19046.62
832.916	19112.62
833.167	18934.62
833.417	19029.62
833.667	18838.62
833.917	18772.62
834.168	18777.62
834.418	18768.62
834.668	18616.62
834.918	18550.62
835.168	18453.62
835.418	18363.62
835.668	18385.62
835.918	18418.62
836.167	18183.62
836.417	18192.62
836.667	18102.62
836.917	18183.62
837.166	18036.62
837.416	18140.62
837.666	18074.62
837.915	18004.62
838.165	17856.62
838.414	17990.62
838.663	17698.62
838.913	17946.62
839.162	17722.62
839.411	17790.62
839.661	17704.62
839.91	17680.62
840.159	17591.62
840.408	17637.62
840.657	17611.62
840.906	17669.62
841.155	17672.62
841.404	17614.62
841.653	17597.62
841.902	17622.62
842.15	17655.62
842.399	17695.62
842.648	17608.62
842.897	17611.62
843.145	17484.62
843.394	17298.62
843.642	17177.62
843.891	17163.62
844.139	17073.62
844.388	16880.62
844.636	16793.62
844.884	16808.62
845.133	16807.62
845.381	16691.62
845.629	16813.62
845.877	16760.62
846.125	16758.62
846.373	16599.62
846.621	16543.62
846.869	16442.62
847.117	16484.62
847.365	16401.62
847.613	16431.62
847.861	16239.62
848.108	16197.62
848.356	16231.62
848.604	16181.62
848.851	16161.62
849.099	16313.62
849.346	16211.62
849.594	16284.62
849.841	16338.62
850.089	16416.62
850.336	16361.62
850.583	16392.62
850.831	16273.62
851.078	16122.62
851.325	16132.62
851.572	16197.62
851.819	16018.62
852.066	15603.62
852.313	15483.62
852.56	15256.62
852.807	15236.62
853.054	15240.62
853.301	15231.62
853.548	15222.62
853.794	15423.62
854.041	15402.62
854.288	15352.62
854.534	15632.62
854.781	15489.62
855.028	15446.62
855.274	15596.62
855.52	15525.62
855.767	15379.62
856.013	15409.62
856.26	15705.62
856.506	15270.62
856.752	15113.62
856.998	15107.62
857.244	15145.62
857.49	15289.62
857.736	15215.62
857.982	15237.62
858.228	15239.62
858.474	15064.62
858.72	14905.62
858.966	14743.62
859.212	14592.62
859.458	14489.62
859.703	14362.62
859.949	14160.62
860.195	14154.62
860.44	14081.62
860.686	13988.62
860.931	14079.62
861.177	13877.62
861.422	13863.62
861.667	13746.62
861.913	13778.62
862.158	13816.62
862.403	13854.62
862.648	13767.62
862.893	13859.62
863.138	13855.62
863.384	13754.62
863.629	13719.62
863.873	13653.62
864.118	13676.62
864.363	13528.62
864.608	13553.62
864.853	13457.62
865.098	13300.62
865.342	13266.62
865.587	13193.62
865.832	13204.62
866.076	13154.62
866.321	13099.62
866.565	13075.62
866.81	13062.62
867.054	13024.62
867.298	13038.62
867.543	12892.62
867.787	13004.62
868.031	12953.62
868.275	12944.62
868.519	12946.62
868.764	12816.62
869.008	12774.62
869.252	12853.62
869.496	12803.62
869.739	12860.62
869.983	12859.62
870.227	12810.62
870.471	12772.62
870.715	12821.62
870.958	12872.62
871.202	12847.62
871.446	13001.62
871.689	12880.62
871.933	12865.62
872.176	12904.62
872.42	12845.62
872.663	12761.62
872.906	12849.62
873.15	12885.62
873.393	12716.62
873.636	12729.62
873.879	12592.62
874.122	12497.62
874.366	12238.62
874.609	12143.62
874.852	11975.62
875.095	11968.62
875.337	11933.62
875.58	11805.62
875.823	11800.62
876.066	11836.62
876.309	11840.62
876.551	11684.62
876.794	11670.62
877.037	11670.62
877.279	11582.62
877.522	11616.62
877.764	11602.62
878.007	11537.62
878.249	11497.62
878.491	11429.62
878.734	11456.62
878.976	11448.62
879.218	11297.62
879.46	11284.62
879.702	11196.62
879.945	11058.62
880.187	10946.62
880.429	10880.62
880.671	10810.62
880.912	10859.62
881.154	10763.62
881.396	10670.62
881.638	10687.62
881.88	10668.62
882.121	10620.62
882.363	10626.62
882.605	10624.62
882.846	10654.62
883.088	10685.62
883.329	10669.62
883.571	10731.62
883.812	10920.62
884.053	11209.62
884.295	11419.62
884.536	11625.62
884.777	11452.62
885.018	11307.62
885.259	11255.62
885.5	11191.62
885.742	11240.62
885.982	11047.62
886.223	10940.62
886.464	10859.62
886.705	10729.62
886.946	10522.62
887.187	10329.62
887.428	10270.62
887.668	10098.62
887.909	9899.62
888.15	9794.62
888.39	9725.62
888.631	9692.62
888.871	9677.62
889.111	9525.62
889.352	9500.62
889.592	9356.62
889.833	9296.62
890.073	9150.62
890.313	9270.62
890.553	9080.62
890.793	9043.62
891.033	9015.62
891.273	8915.62
891.513	8931.62
891.753	8966.62
891.993	8864.62
892.233	8954.62
892.473	8993.62
892.713	8984.62
892.952	8957.62
893.192	8929.62
893.432	8907.62
893.671	8879.62
893.911	8784.62
894.15	8779.62
894.39	8674.62
894.629	8623.62
894.869	8679.62
895.108	8545.62
895.347	8413.62
895.587	8490.62
895.826	8404.62
896.065	8415.62
896.304	8450.62
896.543	8437.62
896.782	8307.62
897.021	8306.62
897.26	8322.62
897.499	8397.62
897.738	8391.62
897.977	8271.62
898.216	8121.62
898.454	8060.62
898.693	8007.62
898.932	8033.62
899.17	8048.62
899.409	7965.62
899.647	7947.62
899.886	7963.62
900.124	7970.62
900.363	7934.62
900.601	7980.62
900.839	7991.62
901.078	7993.62
901.316	8092.62
901.554	8117.62
901.792	8137.62
902.03	8108.62
902.268	8066.62
902.506	8145.62
902.744	8022.62
902.982	7992.62
903.22	7846.62
903.458	7697.62
903.695	7595.62
903.933	7557.62
904.171	7395.62
904.409	7247.62
904.646	7262.62
904.884	7128.62
905.121	7062.62
905.359	6927.62
905.596	6921.62
905.833	6817.62
906.071	6790.62
906.308	6842.62
906.545	6788.62
906.783	6727.62
907.02	6726.62
907.257	6714.62
907.494	6668.62
907.731	6671.62
907.968	6697.62
908.205	6624.62
908.442	6522.62
908.679	6534.62
908.915	6467.62
909.152	6478.62
909.389	6293.62
909.626	6340.62
909.862	6267.62
910.099	6303.62
910.335	6294.62
910.572	6156.62
910.808	6174.62
911.045	6127.62
911.281	6093.62
911.518	6131.62
911.754	6089.62
911.99	6065.62
912.226	6013.62
912.463	5880.62
912.699	5884.62
912.935	5827.62
913.171	5875.62
913.407	5782.62
913.643	5767.62
913.879	5759.62
914.114	5635.62
914.35	5601.62
914.586	5493.62
914.822	5489.62
915.057	5518.62
915.293	5349.62
915.529	5377.62
915.764	5443.62
916	5404.62
916.235	5328.62
916.471	5425.62
916.706	5327.62
916.941	5370.62
917.177	5298.62
917.412	5345.62
917.647	5378.62
917.882	5236.62
918.117	5287.62
918.352	5224.62
918.588	5288.62
918.823	5210.62
919.057	5153.62
919.292	5059.62
919.527	5091.62
919.762	4958.62
919.997	4958.62
920.232	4891.62
920.466	4898.62
920.701	4745.62
920.935	4794.62
921.17	4757.62
921.405	4680.62
921.639	4734.62
921.873	4672.62
922.108	4728.62
922.342	4699.62
922.576	4606.62
922.811	4578.62
923.045	4654.62
923.279	4686.62
923.513	4535.62
923.747	4645.62
923.981	4556.62
924.215	4482.62
924.449	4422.62
924.683	4427.62
924.917	4395.62
925.151	4388.62
925.385	4457.62
925.618	4356.62
925.852	4361.62
926.086	4319.62
926.319	4356.62
926.553	4311.62
926.786	4348.62
927.02	4319.62
927.253	4346.62
927.486	4331.62
927.72	4242.62
927.953	4293.62
928.186	4271.62
928.42	4272.62
928.653	4190.62
928.886	4232.62
929.119	4225.62
929.352	4197.62
929.585	4130.62
929.818	4057.62
930.051	4082.62
930.284	4104.62
930.516	3967.62
930.749	3961.62
930.982	3968.62
931.215	3963.62
931.447	3878.62
931.68	3932.62
931.912	3907.62
932.145	3866.62
932.377	3916.62
932.61	4023.62
932.842	3837.62
933.074	3906.62
933.307	3881.62
933.539	3963.62
933.771	3948.62
934.003	3882.62
934.236	3925.62
934.468	3947.62
934.7	3848.62
934.932	3893.62
935.164	3819.62
935.395	3813.62
935.627	3805.62
935.859	3832.62
936.091	3774.62
936.323	3789.62
936.554	3813.62
936.786	3752.62
937.017	3671.62
937.249	3737.62
937.481	3637.62
937.712	3724.62
937.943	3730.62
938.175	3643.62
938.406	3652.62
938.637	3705.62
938.869	3634.62
939.1	3654.62
939.331	3671.62
939.562	3659.62
939.793	3647.62
940.024	3678.62
940.255	3599.62
940.486	3538.62
940.717	3522.62
940.948	3575.62
941.179	3503.62
941.409	3527.62
941.64	3492.62
941.871	3479.62
942.102	3516.62
942.332	3485.62
942.563	3539.62
942.793	3541.62
943.024	3483.62
943.254	3498.62
943.484	3528.62
943.715	3558.62
943.945	3460.62
944.175	3403.62
944.405	3392.62
944.636	3414.62
944.866	3408.62
945.096	3461.62
945.326	3375.62
945.556	3429.62
945.786	3422.62
946.016	3432.62
946.245	3317.62
946.475	3342.62
946.705	3289.62
946.935	3307.62
947.164	3331.62
947.394	3274.62
947.624	3272.62
947.853	3271.62
948.083	3266.62
948.312	3229.62
948.542	3155.62
948.771	3146.62
949	3197.62
949.23	3191.62
949.459	3173.62
949.688	3236.62
949.917	3185.62
950.146	3151.62
950.375	3234.62
950.604	3133.62
950.833	3261.62
951.062	3227.62
951.291	3171.62
951.52	3146.62
951.749	3119.62
951.978	3104.62
952.206	3066.62
952.435	3055.62
952.664	3078.62
952.892	3100.62
953.121	3104.62
953.349	3080.62
953.578	3067.62
953.806	3008.62
954.035	2998.62
954.263	3032.62
954.491	2967.62
954.719	2997.62
954.948	2963.62
955.176	2952.62
955.404	2880.62
955.632	2958.62
955.86	2936.62
956.088	2880.62
956.316	2943.62
956.544	2912.62
956.772	2871.62
956.999	2841.62
957.227	2893.62
957.455	2890.62
957.683	2832.62
957.91	2820.62
958.138	2769.62
958.365	2757.62
958.593	2751.62
958.82	2728.62
959.048	2793.62
959.275	2769.62
959.502	2728.62
959.73	2705.62
959.957	2749.62
960.184	2781.62
960.411	2703.62
960.638	2762.62
960.865	2724.62
961.092	2769.62
961.319	2668.62
961.546	2714.62
961.773	2731.62
962	2684.62
962.227	2737.62
962.454	2701.62
962.68	2643.62
962.907	2681.62
963.134	2613.62
963.36	2675.62
963.587	2677.62
963.813	2560.62
964.04	2646.62
964.266	2566.62
964.493	2611.62
964.719	2636.62
964.945	2589.62
965.171	2462.62
965.398	2555.62
965.624	2553.62
965.85	2475.62
966.076	2465.62
966.302	2506.62
966.528	2485.62
966.754	2455.62
966.98	2477.62
967.206	2463.62
967.431	2373.62
967.657	2492.62
967.883	2462.62
968.109	2458.62
968.334	2390.62
968.56	2376.62
968.785	2424.62
969.011	2300.62
969.236	2429.62
969.462	2367.62
969.687	2354.62
969.912	2393.62
970.138	2405.62
970.363	2330.62
970.588	2368.62
970.813	2359.62
971.038	2301.62
971.263	2307.62
971.488	2331.62
971.713	2352.62
971.938	2298.62
972.163	2243.62
972.388	2258.62
972.613	2258.62
972.838	2235.62
973.062	2255.62
973.287	2232.62
973.512	2170.62
973.736	2206.62
973.961	2227.62
974.185	2174.62
974.41	2172.62
974.634	2127.62
974.858	2129.62
975.083	2148.62
975.307	2146.62
975.531	2083.62
975.755	2045.62
975.98	2090.62
976.204	1965.62
976.428	2034.62
976.652	2024.62
976.876	2035.62
977.1	2023.62
977.324	1969.62
977.547	2057.62
977.771	2053.62
977.995	2016.62
978.219	1961.62
978.442	2103.62
978.666	1996.62
978.89	2007.62
979.113	2004.62
979.337	1964.62
979.56	1962.62
979.783	2003.62
980.007	1954.62
980.23	1956.62
980.453	1941.62
980.677	1932.62
980.9	1974.62
981.123	1861.62
981.346	1953.62
981.569	1927.62
981.792	1931.62
982.015	1897.62
982.238	1850.62
982.461	1893.62
982.684	1832.62
982.907	1809.62
983.129	1803.62
983.352	1854.62
983.575	1847.62
983.797	1815.62
984.02	1766.62
984.242	1787.62
984.465	1764.62
984.687	1834.62
984.91	1861.62
985.132	1804.62
985.354	1843.62
985.577	1803.62
985.799	1789.62
986.021	1724.62
986.243	1757.62
986.465	1753.62
986.687	1796.62
986.909	1852.62
987.131	1787.62
987.353	1719.62
987.575	1774.62
987.797	1737.62
988.019	1670.62
988.241	1788.62
988.462	1678.62
988.684	1757.62
988.906	1774.62
989.127	1774.62
989.349	1677.62
989.57	1695.62
989.792	1727.62
990.013	1753.62
990.234	1744.62
990.456	1761.62
990.677	1760.62
990.898	1678.62
991.119	1689.62
991.341	1725.62
991.562	1618.62
991.783	1703.62
992.004	1644.62
992.225	1586.62
992.446	1672.62
992.667	1573.62
992.887	1634.62
993.108	1558.62
993.329	1689.62
993.55	1610.62
993.77	1562.62
993.991	1560.62
994.212	1603.62
994.432	1576.62
994.653	1600.62
994.873	1597.62
995.093	1463.62
995.314	1551.62
995.534	1585.62
995.754	1590.62
995.975	1610.62
996.195	1532.62
996.415	1574.62
996.635	1541.62
996.855	1571.62
997.075	1518.62
997.295	1546.62
997.515	1522.62
997.735	1550.62
997.955	1564.62
998.174	1544.62
998.394	1503.62
998.614	1582.62
998.834	1494.62
999.053	1597.62
999.273	1537.62
999.492	1592.62
999.712	1520.62
999.931	1469.62
1000.151	1504.62
1000.37	1513.62
1000.589	1576.62
1000.809	1483.62
1001.028	1621.62
1001.247	1526.62
1001.466	1419.62
1001.685	1552.62
1001.904	1489.62
1002.123	1497.62
1002.342	1498.62
1002.561	1453.62
1002.78	1462.62
1002.999	1526.62
1003.218	1447.62
1003.436	1421.62
1003.655	1499.62
1003.874	1436.62
1004.092	1445.62
1004.311	1494.62
1004.53	1456.62
1004.748	1517.62
1004.966	1453.62
1005.185	1508.62
1005.403	1464.62
1005.622	1422.62
1005.84	1548.62
1006.058	1439.62
1006.276	1486.62
1006.494	1853.62
1006.712	1480.62
1006.931	1531.62
1007.149	1438.62
1007.367	1492.62
1007.584	1495.62
1007.802	1532.62
1008.02	1478.62
1008.238	1589.62
1008.456	1570.62
1008.673	1452.62
1008.891	1566.62
1009.109	1503.62
1009.326	1608.62
1009.544	1694.62
1009.761	1613.62
1009.979	1743.62
1010.196	1746.62
1010.413	1870.62
1010.631	1895.62
1010.848	1931.62
1011.065	1975.62
1011.282	1901.62
1011.5	1846.62
1011.717	1970.62
1011.934	1871.62
1012.151	1905.62
1012.368	1882.62
1012.585	1850.62
1012.801	1913.62
1013.018	1852.62
1013.235	1844.62
1013.452	1839.62
1013.669	1872.62
1013.885	1865.62
1014.102	1911.62
1014.318	1898.62
1014.535	1824.62
1014.751	1852.62
1014.968	1835.62
1015.184	1875.62
1015.401	1786.62
1015.617	1774.62
1015.833	1734.62
1016.049	1750.62
1016.266	1727.62
1016.482	1707.62
1016.698	1626.62
1016.914	1703.62
1017.13	1629.62
1017.346	1626.62
1017.562	1696.62
1017.778	1627.62
1017.993	1580.62
1018.209	1641.62
1018.425	1609.62
1018.641	1552.62
1018.856	1553.62
1019.072	1596.62
1019.288	1638.62
1019.503	1577.62
1019.719	1503.62
1019.934	1510.62
1020.149	1564.62
1020.365	1525.62
1020.58	1416.62
1020.795	1509.62
1021.011	1422.62
1021.226	1406.62
1021.441	1404.62
1021.656	1332.62
1021.871	1232.62
1022.086	1244.62
1022.301	1217.62
1022.516	1195.62
1022.731	1257.62
1022.946	1178.62
1023.16	1163.62
1023.375	1119.62
1023.59	1110.62
1023.804	1067.62
1024.019	1166.62
1024.234	1029.62
1024.448	1097.62
1024.663	1010.62
1024.877	1003.62
1025.092	1023.62
1025.306	1032.62
1025.52	922.62
1025.734	1006.62
1025.949	934.62
1026.163	892.62
1026.377	848.62
1026.591	908.62
1026.805	849.62
1027.019	823.62
1027.233	798.62
1027.447	751.62
1027.661	844.62
1027.875	773.62
1028.088	778.62
1028.302	716.62
1028.516	703.62
1028.73	703.62
1028.943	689.62
1029.157	632.62
1029.37	589.62
1029.584	-0.38
1029.797	-1.38
1030.011	-1.38
1030.224	-2.38
