Data from QEP037381__180__11-24-33-221.txt Node

Date: Fri Apr 28 11:24:33 EDT 2023
User: dcclab
Spectrometer: QEP03738
Trigger mode: 4
Integration Time (sec): 1.000000E1
Scans to average: 1
Electric dark correction enabled: true
Nonlinearity correction enabled: false
Boxcar width: 0
XAxis mode: Wavelengths
Number of Pixels in Spectrum: 1044
>>>>>Begin Spectral Data<<<<<
784.041	13.25
784.3	-0.75
784.558	-2.75
784.817	-1.75
785.075	65922.25
785.334	13010.25
785.592	6849.25
785.851	4806.25
786.109	3645.25
786.368	2853.25
786.626	2326.25
786.884	1923.25
787.143	1629.25
787.401	1350.25
787.659	1212.25
787.917	1075.25
788.175	954.25
788.433	871.25
788.691	795.25
788.949	726.25
789.207	694.25
789.465	631.25
789.723	585.25
789.98	532.25
790.238	579.25
790.496	553.25
790.753	542.25
791.011	564.25
791.268	505.25
791.526	498.25
791.783	524.25
792.041	497.25
792.298	400.25
792.556	478.25
792.813	453.25
793.07	447.25
793.327	433.25
793.584	516.25
793.841	432.25
794.099	452.25
794.356	505.25
794.613	421.25
794.869	447.25
795.126	408.25
795.383	406.25
795.64	422.25
795.897	388.25
796.153	441.25
796.41	412.25
796.667	408.25
796.923	419.25
797.18	418.25
797.436	454.25
797.693	407.25
797.949	460.25
798.206	479.25
798.462	388.25
798.718	449.25
798.974	438.25
799.231	479.25
799.487	455.25
799.743	487.25
799.999	508.25
800.255	489.25
800.511	492.25
800.767	523.25
801.023	531.25
801.279	563.25
801.534	613.25
801.79	657.25
802.046	692.25
802.302	864.25
802.557	1003.25
802.813	1270.25
803.068	1649.25
803.324	2313.25
803.579	3220.25
803.835	4474.25
804.09	6074.25
804.345	7787.25
804.601	9500.25
804.856	10903.25
805.111	12228.25
805.366	13136.25
805.621	13623.25
805.876	13997.25
806.131	14266.25
806.386	14484.25
806.641	14763.25
806.896	14987.25
807.151	15226.25
807.406	15342.25
807.661	15644.25
807.915	15888.25
808.17	16207.25
808.425	16264.25
808.679	16486.25
808.934	16683.25
809.188	16816.25
809.443	17083.25
809.697	17265.25
809.951	17359.25
810.206	17384.25
810.46	17692.25
810.714	17691.25
810.968	17939.25
811.223	17883.25
811.477	18055.25
811.731	18243.25
811.985	18320.25
812.239	18298.25
812.493	18448.25
812.747	18529.25
813	18543.25
813.254	18641.25
813.508	18773.25
813.762	18837.25
814.015	18774.25
814.269	18987.25
814.522	19160.25
814.776	19311.25
815.03	19563.25
815.283	19726.25
815.536	20111.25
815.79	20321.25
816.043	20600.25
816.296	20854.25
816.55	21019.25
816.803	21314.25
817.056	21671.25
817.309	21840.25
817.562	22027.25
817.815	22307.25
818.068	22502.25
818.321	22714.25
818.574	23031.25
818.827	23291.25
819.079	23474.25
819.332	24005.25
819.585	24279.25
819.838	24539.25
820.09	24652.25
820.343	24970.25
820.595	24900.25
820.848	25090.25
821.1	25094.25
821.353	25118.25
821.605	25058.25
821.857	25106.25
822.11	25062.25
822.362	24883.25
822.614	24849.25
822.866	24966.25
823.118	24953.25
823.37	25105.25
823.622	25026.25
823.874	25195.25
824.126	25220.25
824.378	25234.25
824.63	25206.25
824.882	25419.25
825.134	25244.25
825.385	25229.25
825.637	25271.25
825.888	25133.25
826.14	25007.25
826.392	24905.25
826.643	24824.25
826.895	24676.25
827.146	24665.25
827.397	24521.25
827.649	24552.25
827.9	24442.25
828.151	24504.25
828.402	24542.25
828.653	24700.25
828.905	24704.25
829.156	24719.25
829.407	24614.25
829.658	24758.25
829.909	24754.25
830.159	24722.25
830.41	24453.25
830.661	24390.25
830.912	24269.25
831.162	24109.25
831.413	24040.25
831.664	24156.25
831.914	23898.25
832.165	23935.25
832.415	23890.25
832.666	23826.25
832.916	23966.25
833.167	24017.25
833.417	23825.25
833.667	23660.25
833.917	23717.25
834.168	23635.25
834.418	23571.25
834.668	23485.25
834.918	23242.25
835.168	23226.25
835.418	23106.25
835.668	23024.25
835.918	23031.25
836.167	23004.25
836.417	22895.25
836.667	22857.25
836.917	22824.25
837.166	22780.25
837.416	22812.25
837.666	22720.25
837.915	22673.25
838.165	22572.25
838.414	22450.25
838.663	22451.25
838.913	22386.25
839.162	22293.25
839.411	22377.25
839.661	22129.25
839.91	22167.25
840.159	22114.25
840.408	22185.25
840.657	22114.25
840.906	22028.25
841.155	22146.25
841.404	22109.25
841.653	22069.25
841.902	22020.25
842.15	22130.25
842.399	22174.25
842.648	22137.25
842.897	21959.25
843.145	21910.25
843.394	21779.25
843.642	21614.25
843.891	21503.25
844.139	21394.25
844.388	21191.25
844.636	21056.25
844.884	21140.25
845.133	21135.25
845.381	21060.25
845.629	21148.25
845.877	20900.25
846.125	20964.25
846.373	20944.25
846.621	20910.25
846.869	20739.25
847.117	20628.25
847.365	20580.25
847.613	20381.25
847.861	20450.25
848.108	20434.25
848.356	20385.25
848.604	20319.25
848.851	20283.25
849.099	20347.25
849.346	20426.25
849.594	20397.25
849.841	20618.25
850.089	20585.25
850.336	20580.25
850.583	20571.25
850.831	20437.25
851.078	20260.25
851.325	20293.25
851.572	20245.25
851.819	19929.25
852.066	19612.25
852.313	19382.25
852.56	19239.25
852.807	19228.25
853.054	19149.25
853.301	19101.25
853.548	19201.25
853.794	19249.25
854.041	19361.25
854.288	19343.25
854.534	19522.25
854.781	19464.25
855.028	19207.25
855.274	19444.25
855.52	19311.25
855.767	19258.25
856.013	19278.25
856.26	19449.25
856.506	18912.25
856.752	18990.25
856.998	18950.25
857.244	18927.25
857.49	19117.25
857.736	19009.25
857.982	19033.25
858.228	19032.25
858.474	18731.25
858.72	18698.25
858.966	18526.25
859.212	18379.25
859.458	18217.25
859.703	17993.25
859.949	17829.25
860.195	17735.25
860.44	17615.25
860.686	17577.25
860.931	17532.25
861.177	17422.25
861.422	17271.25
861.667	17195.25
861.913	17288.25
862.158	17343.25
862.403	17325.25
862.648	17302.25
862.893	17377.25
863.138	17343.25
863.384	17244.25
863.629	17275.25
863.873	17187.25
864.118	17118.25
864.363	17074.25
864.608	16884.25
864.853	16844.25
865.098	16736.25
865.342	16609.25
865.587	16530.25
865.832	16637.25
866.076	16525.25
866.321	16390.25
866.565	16388.25
866.81	16338.25
867.054	16312.25
867.298	16336.25
867.543	16228.25
867.787	16257.25
868.031	16304.25
868.275	16127.25
868.519	16143.25
868.764	16227.25
869.008	16148.25
869.252	16127.25
869.496	16034.25
869.739	16065.25
869.983	16020.25
870.227	16046.25
870.471	15964.25
870.715	16050.25
870.958	16018.25
871.202	16022.25
871.446	16062.25
871.689	16059.25
871.933	16072.25
872.176	16062.25
872.42	15834.25
872.663	15945.25
872.906	15944.25
873.15	15892.25
873.393	15856.25
873.636	15828.25
873.879	15636.25
874.122	15458.25
874.366	15235.25
874.609	15018.25
874.852	14989.25
875.095	14851.25
875.337	14879.25
875.58	14795.25
875.823	14705.25
876.066	14713.25
876.309	14707.25
876.551	14542.25
876.794	14461.25
877.037	14543.25
877.279	14423.25
877.522	14440.25
877.764	14489.25
878.007	14393.25
878.249	14410.25
878.491	14350.25
878.734	14352.25
878.976	14297.25
879.218	14165.25
879.46	14117.25
879.702	13985.25
879.945	13953.25
880.187	13782.25
880.429	13691.25
880.671	13595.25
880.912	13559.25
881.154	13522.25
881.396	13414.25
881.638	13403.25
881.88	13463.25
882.121	13326.25
882.363	13398.25
882.605	13391.25
882.846	13318.25
883.088	13376.25
883.329	13244.25
883.571	13297.25
883.812	13478.25
884.053	13636.25
884.295	13968.25
884.536	14084.25
884.777	13925.25
885.018	13850.25
885.259	13762.25
885.5	13640.25
885.742	13716.25
885.982	13581.25
886.223	13491.25
886.464	13288.25
886.705	13264.25
886.946	13111.25
887.187	12845.25
887.428	12788.25
887.668	12552.25
887.909	12397.25
888.15	12230.25
888.39	12246.25
888.631	12174.25
888.871	12049.25
889.111	11986.25
889.352	11853.25
889.592	11791.25
889.833	11599.25
890.073	11584.25
890.313	11624.25
890.553	11348.25
890.793	11388.25
891.033	11293.25
891.273	11265.25
891.513	11243.25
891.753	11279.25
891.993	11231.25
892.233	11175.25
892.473	11311.25
892.713	11281.25
892.952	11208.25
893.192	11258.25
893.432	11125.25
893.671	11174.25
893.911	11088.25
894.15	11056.25
894.39	10988.25
894.629	10862.25
894.869	10825.25
895.108	10771.25
895.347	10656.25
895.587	10614.25
895.826	10553.25
896.065	10470.25
896.304	10595.25
896.543	10561.25
896.782	10509.25
897.021	10501.25
897.26	10432.25
897.499	10473.25
897.738	10420.25
897.977	10318.25
898.216	10255.25
898.454	10182.25
898.693	10040.25
898.932	10130.25
899.17	9990.25
899.409	9989.25
899.647	9937.25
899.886	9949.25
900.124	9947.25
900.363	9899.25
900.601	10004.25
900.839	9941.25
901.078	10041.25
901.316	10037.25
901.554	10089.25
901.792	10103.25
902.03	10004.25
902.268	10079.25
902.506	10024.25
902.744	9892.25
902.982	9871.25
903.22	9716.25
903.458	9589.25
903.695	9520.25
903.933	9433.25
904.171	9130.25
904.409	9084.25
904.646	8952.25
904.884	8851.25
905.121	8863.25
905.359	8665.25
905.596	8683.25
905.833	8574.25
906.071	8501.25
906.308	8576.25
906.545	8475.25
906.783	8451.25
907.02	8481.25
907.257	8376.25
907.494	8376.25
907.731	8456.25
907.968	8383.25
908.205	8327.25
908.442	8244.25
908.679	8245.25
908.915	8079.25
909.152	8116.25
909.389	7934.25
909.626	7965.25
909.862	7854.25
910.099	7790.25
910.335	7802.25
910.572	7760.25
910.808	7743.25
911.045	7678.25
911.281	7692.25
911.518	7771.25
911.754	7555.25
911.99	7570.25
912.226	7562.25
912.463	7446.25
912.699	7453.25
912.935	7322.25
913.171	7257.25
913.407	7230.25
913.643	7187.25
913.879	7092.25
914.114	7030.25
914.35	6978.25
914.586	6941.25
914.822	6840.25
915.057	6862.25
915.293	6711.25
915.529	6680.25
915.764	6834.25
916	6804.25
916.235	6680.25
916.471	6693.25
916.706	6625.25
916.941	6679.25
917.177	6599.25
917.412	6671.25
917.647	6638.25
917.882	6567.25
918.117	6630.25
918.352	6540.25
918.588	6577.25
918.823	6509.25
919.057	6453.25
919.292	6274.25
919.527	6366.25
919.762	6239.25
919.997	6203.25
920.232	6097.25
920.466	6122.25
920.701	5931.25
920.935	5942.25
921.17	5992.25
921.405	5860.25
921.639	5923.25
921.873	5892.25
922.108	5890.25
922.342	5846.25
922.576	5761.25
922.811	5741.25
923.045	5805.25
923.279	5797.25
923.513	5672.25
923.747	5684.25
923.981	5660.25
924.215	5585.25
924.449	5591.25
924.683	5531.25
924.917	5477.25
925.151	5490.25
925.385	5506.25
925.618	5473.25
925.852	5447.25
926.086	5360.25
926.319	5401.25
926.553	5383.25
926.786	5409.25
927.02	5345.25
927.253	5411.25
927.486	5425.25
927.72	5327.25
927.953	5386.25
928.186	5276.25
928.42	5282.25
928.653	5203.25
928.886	5209.25
929.119	5264.25
929.352	5181.25
929.585	5188.25
929.818	5058.25
930.051	5155.25
930.284	4987.25
930.516	4920.25
930.749	4939.25
930.982	4930.25
931.215	4904.25
931.447	4829.25
931.68	4856.25
931.912	4830.25
932.145	4805.25
932.377	4806.25
932.61	4961.25
932.842	4795.25
933.074	4848.25
933.307	4796.25
933.539	4847.25
933.771	4889.25
934.003	4817.25
934.236	4887.25
934.468	4849.25
934.7	4811.25
934.932	4781.25
935.164	4794.25
935.395	4733.25
935.627	4746.25
935.859	4704.25
936.091	4663.25
936.323	4690.25
936.554	4689.25
936.786	4678.25
937.017	4592.25
937.249	4591.25
937.481	4554.25
937.712	4609.25
937.943	4562.25
938.175	4525.25
938.406	4535.25
938.637	4603.25
938.869	4462.25
939.1	4544.25
939.331	4501.25
939.562	4503.25
939.793	4473.25
940.024	4493.25
940.255	4475.25
940.486	4424.25
940.717	4376.25
940.948	4421.25
941.179	4332.25
941.409	4347.25
941.64	4332.25
941.871	4408.25
942.102	4300.25
942.332	4344.25
942.563	4386.25
942.793	4379.25
943.024	4299.25
943.254	4293.25
943.484	4376.25
943.715	4394.25
943.945	4282.25
944.175	4253.25
944.405	4251.25
944.636	4240.25
944.866	4288.25
945.096	4268.25
945.326	4144.25
945.556	4258.25
945.786	4261.25
946.016	4156.25
946.245	4100.25
946.475	4099.25
946.705	4108.25
946.935	4103.25
947.164	4047.25
947.394	4035.25
947.624	4003.25
947.853	4035.25
948.083	4008.25
948.312	3936.25
948.542	3915.25
948.771	3904.25
949	3917.25
949.23	3928.25
949.459	3904.25
949.688	3944.25
949.917	3899.25
950.146	3881.25
950.375	3926.25
950.604	3823.25
950.833	3938.25
951.062	3870.25
951.291	3885.25
951.52	3851.25
951.749	3833.25
951.978	3798.25
952.206	3796.25
952.435	3803.25
952.664	3849.25
952.892	3786.25
953.121	3784.25
953.349	3778.25
953.578	3745.25
953.806	3799.25
954.035	3640.25
954.263	3703.25
954.491	3623.25
954.719	3687.25
954.948	3635.25
955.176	3642.25
955.404	3526.25
955.632	3586.25
955.86	3576.25
956.088	3581.25
956.316	3586.25
956.544	3570.25
956.772	3519.25
956.999	3454.25
957.227	3562.25
957.455	3472.25
957.683	3486.25
957.91	3422.25
958.138	3395.25
958.365	3370.25
958.593	3381.25
958.82	3330.25
959.048	3375.25
959.275	3365.25
959.502	3314.25
959.73	3351.25
959.957	3331.25
960.184	3383.25
960.411	3284.25
960.638	3366.25
960.865	3346.25
961.092	3334.25
961.319	3265.25
961.546	3335.25
961.773	3320.25
962	3275.25
962.227	3328.25
962.454	3240.25
962.68	3233.25
962.907	3264.25
963.134	3194.25
963.36	3172.25
963.587	3240.25
963.813	3152.25
964.04	3174.25
964.266	3078.25
964.493	3155.25
964.719	3173.25
964.945	3112.25
965.171	3010.25
965.398	3081.25
965.624	3116.25
965.85	2977.25
966.076	2975.25
966.302	3012.25
966.528	2989.25
966.754	2976.25
966.98	2996.25
967.206	2985.25
967.431	2897.25
967.657	3004.25
967.883	2976.25
968.109	2947.25
968.334	2892.25
968.56	2901.25
968.785	2868.25
969.011	2822.25
969.236	2915.25
969.462	2831.25
969.687	2875.25
969.912	2898.25
970.138	2937.25
970.363	2827.25
970.588	2845.25
970.813	2827.25
971.038	2781.25
971.263	2807.25
971.488	2795.25
971.713	2865.25
971.938	2808.25
972.163	2683.25
972.388	2702.25
972.613	2681.25
972.838	2712.25
973.062	2720.25
973.287	2703.25
973.512	2609.25
973.736	2654.25
973.961	2653.25
974.185	2619.25
974.41	2610.25
974.634	2506.25
974.858	2542.25
975.083	2604.25
975.307	2585.25
975.531	2534.25
975.755	2472.25
975.98	2491.25
976.204	2437.25
976.428	2433.25
976.652	2446.25
976.876	2407.25
977.1	2448.25
977.324	2397.25
977.547	2458.25
977.771	2448.25
977.995	2427.25
978.219	2381.25
978.442	2497.25
978.666	2421.25
978.89	2392.25
979.113	2379.25
979.337	2356.25
979.56	2313.25
979.783	2455.25
980.007	2308.25
980.23	2340.25
980.453	2297.25
980.677	2330.25
980.9	2310.25
981.123	2228.25
981.346	2321.25
981.569	2287.25
981.792	2305.25
982.015	2269.25
982.238	2213.25
982.461	2243.25
982.684	2216.25
982.907	2163.25
983.129	2160.25
983.352	2221.25
983.575	2180.25
983.797	2225.25
984.02	2136.25
984.242	2146.25
984.465	2139.25
984.687	2166.25
984.91	2193.25
985.132	2145.25
985.354	2165.25
985.577	2152.25
985.799	2089.25
986.021	2040.25
986.243	2071.25
986.465	2077.25
986.687	2124.25
986.909	2168.25
987.131	2090.25
987.353	2073.25
987.575	2112.25
987.797	2061.25
988.019	1974.25
988.241	2032.25
988.462	2030.25
988.684	2051.25
988.906	2078.25
989.127	2111.25
989.349	1968.25
989.57	1993.25
989.792	2039.25
990.013	2059.25
990.234	2046.25
990.456	2078.25
990.677	2027.25
990.898	1966.25
991.119	2005.25
991.341	1995.25
991.562	1934.25
991.783	1970.25
992.004	1901.25
992.225	1892.25
992.446	1924.25
992.667	1844.25
992.887	1917.25
993.108	1796.25
993.329	1961.25
993.55	1910.25
993.77	1820.25
993.991	1798.25
994.212	1834.25
994.432	1837.25
994.653	1836.25
994.873	1845.25
995.093	1747.25
995.314	1763.25
995.534	1818.25
995.754	1855.25
995.975	1870.25
996.195	1756.25
996.415	1824.25
996.635	1762.25
996.855	1833.25
997.075	1755.25
997.295	1783.25
997.515	1781.25
997.735	1800.25
997.955	1769.25
998.174	1745.25
998.394	1740.25
998.614	1787.25
998.834	1718.25
999.053	1803.25
999.273	1762.25
999.492	1801.25
999.712	1724.25
999.931	1726.25
1000.151	1737.25
1000.37	1716.25
1000.589	1779.25
1000.809	1677.25
1001.028	1798.25
1001.247	1742.25
1001.466	1621.25
1001.685	1768.25
1001.904	1713.25
1002.123	1688.25
1002.342	1691.25
1002.561	1625.25
1002.78	1674.25
1002.999	1719.25
1003.218	1692.25
1003.436	1648.25
1003.655	1687.25
1003.874	1620.25
1004.092	1639.25
1004.311	1689.25
1004.53	1638.25
1004.748	1707.25
1004.966	1603.25
1005.185	1678.25
1005.403	1664.25
1005.622	1646.25
1005.84	1715.25
1006.058	1623.25
1006.276	1633.25
1006.494	1976.25
1006.712	1631.25
1006.931	1700.25
1007.149	1612.25
1007.367	1622.25
1007.584	1649.25
1007.802	1695.25
1008.02	1636.25
1008.238	1728.25
1008.456	1730.25
1008.673	1620.25
1008.891	1670.25
1009.109	1646.25
1009.326	1707.25
1009.544	1820.25
1009.761	1739.25
1009.979	1826.25
1010.196	1823.25
1010.413	1985.25
1010.631	2033.25
1010.848	2058.25
1011.065	2021.25
1011.282	1983.25
1011.5	1932.25
1011.717	2040.25
1011.934	1998.25
1012.151	1984.25
1012.368	1972.25
1012.585	1915.25
1012.801	1966.25
1013.018	1965.25
1013.235	1910.25
1013.452	1929.25
1013.669	1965.25
1013.885	1939.25
1014.102	1967.25
1014.318	1957.25
1014.535	1906.25
1014.751	1926.25
1014.968	1932.25
1015.184	1945.25
1015.401	1839.25
1015.617	1861.25
1015.833	1803.25
1016.049	1797.25
1016.266	1773.25
1016.482	1752.25
1016.698	1712.25
1016.914	1764.25
1017.13	1717.25
1017.346	1697.25
1017.562	1758.25
1017.778	1673.25
1017.993	1658.25
1018.209	1715.25
1018.425	1681.25
1018.641	1638.25
1018.856	1629.25
1019.072	1660.25
1019.288	1700.25
1019.503	1634.25
1019.719	1544.25
1019.934	1581.25
1020.149	1637.25
1020.365	1558.25
1020.58	1510.25
1020.795	1561.25
1021.011	1472.25
1021.226	1469.25
1021.441	1470.25
1021.656	1402.25
1021.871	1308.25
1022.086	1342.25
1022.301	1310.25
1022.516	1304.25
1022.731	1340.25
1022.946	1260.25
1023.16	1246.25
1023.375	1214.25
1023.59	1173.25
1023.804	1162.25
1024.019	1240.25
1024.234	1118.25
1024.448	1167.25
1024.663	1063.25
1024.877	1089.25
1025.092	1097.25
1025.306	1111.25
1025.52	1004.25
1025.734	1089.25
1025.949	1000.25
1026.163	980.25
1026.377	911.25
1026.591	965.25
1026.805	897.25
1027.019	890.25
1027.233	880.25
1027.447	796.25
1027.661	906.25
1027.875	854.25
1028.088	851.25
1028.302	761.25
1028.516	764.25
1028.73	743.25
1028.943	754.25
1029.157	695.25
1029.37	666.25
1029.584	-3.75
1029.797	2.25
1030.011	-2.75
1030.224	-3.75
