Data from QEP037381__196__11-27-13-222.txt Node

Date: Fri Apr 28 11:27:13 EDT 2023
User: dcclab
Spectrometer: QEP03738
Trigger mode: 4
Integration Time (sec): 1.000000E1
Scans to average: 1
Electric dark correction enabled: true
Nonlinearity correction enabled: false
Boxcar width: 0
XAxis mode: Wavelengths
Number of Pixels in Spectrum: 1044
>>>>>Begin Spectral Data<<<<<
784.041	11
784.3	1
784.558	-1
784.817	-4
785.075	65051
785.334	12888
785.592	6715
785.851	4780
786.109	3688
786.368	2906
786.626	2353
786.884	1961
787.143	1631
787.401	1324
787.659	1223
787.917	1045
788.175	984
788.433	832
788.691	785
788.949	727
789.207	694
789.465	598
789.723	585
789.98	538
790.238	567
790.496	529
790.753	514
791.011	555
791.268	497
791.526	498
791.783	491
792.041	472
792.298	411
792.556	465
792.813	452
793.07	433
793.327	430
793.584	491
793.841	413
794.099	429
794.356	500
794.613	389
794.869	438
795.126	401
795.383	386
795.64	390
795.897	352
796.153	412
796.41	392
796.667	371
796.923	381
797.18	384
797.436	424
797.693	382
797.949	434
798.206	458
798.462	364
798.718	422
798.974	412
799.231	444
799.487	431
799.743	430
799.999	461
800.255	439
800.511	435
800.767	469
801.023	474
801.279	490
801.534	533
801.79	537
802.046	575
802.302	689
802.557	789
802.813	974
803.068	1163
803.324	1635
803.579	2184
803.835	2999
804.09	4080
804.345	5134
804.601	6292
804.856	7336
805.111	8006
805.366	8605
805.621	9000
805.876	9273
806.131	9479
806.386	9606
806.641	9742
806.896	9929
807.151	10022
807.406	10149
807.661	10302
807.915	10412
808.17	10585
808.425	10733
808.679	10807
808.934	10966
809.188	11077
809.443	11170
809.697	11343
809.951	11268
810.206	11361
810.46	11542
810.714	11543
810.968	11703
811.223	11709
811.477	11873
811.731	11932
811.985	12003
812.239	12098
812.493	12095
812.747	12116
813	12141
813.254	12162
813.508	12222
813.762	12277
814.015	12290
814.269	12408
814.522	12461
814.776	12632
815.03	12719
815.283	12919
815.536	13098
815.79	13248
816.043	13437
816.296	13539
816.55	13653
816.803	13898
817.056	14124
817.309	14222
817.562	14366
817.815	14491
818.068	14560
818.321	14744
818.574	14881
818.827	15136
819.079	15335
819.332	15680
819.585	15789
819.838	15958
820.09	15989
820.343	16120
820.595	16116
820.848	16275
821.1	16306
821.353	16309
821.605	16193
821.857	16356
822.11	16086
822.362	16066
822.614	16080
822.866	16140
823.118	16203
823.37	16161
823.622	16292
823.874	16322
824.126	16408
824.378	16224
824.63	16349
824.882	16542
825.134	16376
825.385	16426
825.637	16276
825.888	16240
826.14	16146
826.392	16057
826.643	15911
826.895	15941
827.146	15860
827.397	15826
827.649	15829
827.9	15711
828.151	15824
828.402	15772
828.653	15881
828.905	15977
829.156	15872
829.407	15900
829.658	16060
829.909	16062
830.159	16110
830.41	16077
830.661	15758
830.912	15681
831.162	15609
831.413	15717
831.664	15605
831.914	15660
832.165	15523
832.415	15617
832.666	15475
832.916	15626
833.167	15508
833.417	15485
833.667	15428
833.917	15394
834.168	15351
834.418	15328
834.668	15413
834.918	15215
835.168	15102
835.418	15039
835.668	14984
835.918	14867
836.167	14993
836.417	14842
836.667	14918
836.917	14825
837.166	14885
837.416	14834
837.666	14877
837.915	14713
838.165	14703
838.414	14607
838.663	14648
838.913	14653
839.162	14544
839.411	14647
839.661	14571
839.91	14443
840.159	14509
840.408	14562
840.657	14475
840.906	14523
841.155	14555
841.404	14482
841.653	14591
841.902	14477
842.15	14575
842.399	14588
842.648	14583
842.897	14515
843.145	14363
843.394	14280
843.642	14220
843.891	14135
844.139	14030
844.388	13988
844.636	13902
844.884	13916
845.133	13843
845.381	13750
845.629	13763
845.877	13836
846.125	13711
846.373	13832
846.621	13620
846.869	13684
847.117	13713
847.365	13498
847.613	13500
847.861	13465
848.108	13480
848.356	13367
848.604	13402
848.851	13388
849.099	13371
849.346	13415
849.594	13507
849.841	13635
850.089	13531
850.336	13578
850.583	13595
850.831	13480
851.078	13433
851.325	13283
851.572	13579
851.819	13363
852.066	13052
852.313	12773
852.56	12645
852.807	12678
853.054	12598
853.301	12604
853.548	12679
853.794	12740
854.041	12754
854.288	12836
854.534	13042
854.781	12848
855.028	12831
855.274	12992
855.52	12836
855.767	12935
856.013	12916
856.26	13177
856.506	12623
856.752	12750
856.998	12613
857.244	12700
857.49	12840
857.736	12833
857.982	12774
858.228	12668
858.474	12554
858.72	12439
858.966	12318
859.212	12175
859.458	11998
859.703	11953
859.949	11814
860.195	11821
860.44	11811
860.686	11730
860.931	11793
861.177	11597
861.422	11565
861.667	11409
861.913	11441
862.158	11378
862.403	11454
862.648	11495
862.893	11484
863.138	11433
863.384	11394
863.629	11378
863.873	11403
864.118	11405
864.363	11242
864.608	11302
864.853	11160
865.098	11108
865.342	11030
865.587	10963
865.832	11009
866.076	11000
866.321	10890
866.565	10967
866.81	10832
867.054	10853
867.298	10856
867.543	10765
867.787	10846
868.031	10830
868.275	10716
868.519	10835
868.764	10821
869.008	10744
869.252	10773
869.496	10684
869.739	10706
869.983	10786
870.227	10860
870.471	10713
870.715	10883
870.958	10849
871.202	10803
871.446	10959
871.689	10748
871.933	10810
872.176	10730
872.42	10807
872.663	10766
872.906	10805
873.15	10814
873.393	10773
873.636	10909
873.879	10696
874.122	10551
874.366	10333
874.609	10175
874.852	10203
875.095	10069
875.337	10044
875.58	9986
875.823	9903
876.066	9899
876.309	9903
876.551	9790
876.794	9755
877.037	9805
877.279	9688
877.522	9676
877.764	9738
878.007	9642
878.249	9608
878.491	9548
878.734	9610
878.976	9547
879.218	9429
879.46	9439
879.702	9395
879.945	9299
880.187	9169
880.429	9133
880.671	9001
880.912	9033
881.154	9031
881.396	8922
881.638	8994
881.88	8952
882.121	8928
882.363	8935
882.605	8947
882.846	8976
883.088	8949
883.329	9013
883.571	9076
883.812	9262
884.053	9664
884.295	9829
884.536	10068
884.777	9879
885.018	9796
885.259	9692
885.5	9500
885.742	9661
885.982	9487
886.223	9281
886.464	9281
886.705	9047
886.946	9015
887.187	8754
887.428	8701
887.668	8442
887.909	8269
888.15	8206
888.39	8216
888.631	8141
888.871	8073
889.111	7971
889.352	7948
889.592	7780
889.833	7738
890.073	7697
890.313	7704
890.553	7513
890.793	7565
891.033	7530
891.273	7533
891.513	7498
891.753	7527
891.993	7472
892.233	7482
892.473	7563
892.713	7487
892.952	7436
893.192	7473
893.432	7456
893.671	7458
893.911	7421
894.15	7320
894.39	7251
894.629	7197
894.869	7253
895.108	7161
895.347	7131
895.587	7081
895.826	7054
896.065	7034
896.304	7070
896.543	7070
896.782	6989
897.021	7054
897.26	6960
897.499	7059
897.738	7004
897.977	6948
898.216	6872
898.454	6875
898.693	6775
898.932	6817
899.17	6762
899.409	6713
899.647	6702
899.886	6652
900.124	6755
900.363	6733
900.601	6750
900.839	6777
901.078	6821
901.316	6874
901.554	6943
901.792	6994
902.03	6914
902.268	6952
902.506	6925
902.744	6839
902.982	6824
903.22	6650
903.458	6526
903.695	6560
903.933	6338
904.171	6223
904.409	6153
904.646	6054
904.884	5967
905.121	6022
905.359	5918
905.596	5800
905.833	5754
906.071	5721
906.308	5756
906.545	5750
906.783	5656
907.02	5657
907.257	5640
907.494	5690
907.731	5647
907.968	5640
908.205	5562
908.442	5588
908.679	5558
908.915	5495
909.152	5440
909.389	5294
909.626	5377
909.862	5236
910.099	5273
910.335	5258
910.572	5210
910.808	5203
911.045	5161
911.281	5138
911.518	5254
911.754	5071
911.99	5085
912.226	5083
912.463	4987
912.699	4971
912.935	4964
913.171	4905
913.407	4842
913.643	4830
913.879	4762
914.114	4752
914.35	4717
914.586	4677
914.822	4575
915.057	4666
915.293	4511
915.529	4544
915.764	4567
916	4585
916.235	4529
916.471	4536
916.706	4442
916.941	4511
917.177	4479
917.412	4496
917.647	4478
917.882	4435
918.117	4460
918.352	4430
918.588	4496
918.823	4393
919.057	4322
919.292	4273
919.527	4312
919.762	4203
919.997	4218
920.232	4153
920.466	4166
920.701	4041
920.935	4081
921.17	4038
921.405	3991
921.639	4023
921.873	3957
922.108	3963
922.342	3973
922.576	3868
922.811	3903
923.045	3933
923.279	3936
923.513	3838
923.747	3820
923.981	3859
924.215	3753
924.449	3822
924.683	3714
924.917	3728
925.151	3689
925.385	3756
925.618	3695
925.852	3706
926.086	3659
926.319	3683
926.553	3656
926.786	3730
927.02	3690
927.253	3768
927.486	3671
927.72	3625
927.953	3675
928.186	3633
928.42	3608
928.653	3597
928.886	3536
929.119	3599
929.352	3550
929.585	3538
929.818	3492
930.051	3524
930.284	3455
930.516	3382
930.749	3365
930.982	3452
931.215	3387
931.447	3338
931.68	3368
931.912	3334
932.145	3309
932.377	3352
932.61	3472
932.842	3306
933.074	3327
933.307	3259
933.539	3352
933.771	3325
934.003	3316
934.236	3413
934.468	3335
934.7	3281
934.932	3305
935.164	3294
935.395	3206
935.627	3224
935.859	3269
936.091	3187
936.323	3267
936.554	3273
936.786	3175
937.017	3157
937.249	3157
937.481	3110
937.712	3165
937.943	3191
938.175	3169
938.406	3103
938.637	3193
938.869	3070
939.1	3158
939.331	3110
939.562	3115
939.793	3136
940.024	3124
940.255	3110
940.486	3051
940.717	3027
940.948	3034
941.179	2988
941.409	3043
941.64	2963
941.871	3045
942.102	2965
942.332	3031
942.563	3042
942.793	3051
943.024	2940
943.254	3000
943.484	2999
943.715	3023
943.945	3008
944.175	2918
944.405	2916
944.636	2962
944.866	2963
945.096	2971
945.326	2903
945.556	2954
945.786	2939
946.016	2911
946.245	2884
946.475	2885
946.705	2872
946.935	2874
947.164	2836
947.394	2785
947.624	2852
947.853	2856
948.083	2799
948.312	2765
948.542	2693
948.771	2713
949	2747
949.23	2711
949.459	2757
949.688	2798
949.917	2735
950.146	2750
950.375	2810
950.604	2674
950.833	2784
951.062	2796
951.291	2732
951.52	2668
951.749	2706
951.978	2632
952.206	2652
952.435	2670
952.664	2646
952.892	2677
953.121	2679
953.349	2654
953.578	2660
953.806	2636
954.035	2588
954.263	2594
954.491	2539
954.719	2595
954.948	2536
955.176	2557
955.404	2438
955.632	2509
955.86	2549
956.088	2496
956.316	2558
956.544	2524
956.772	2501
956.999	2458
957.227	2552
957.455	2481
957.683	2476
957.91	2431
958.138	2388
958.365	2411
958.593	2399
958.82	2325
959.048	2413
959.275	2408
959.502	2356
959.73	2374
959.957	2389
960.184	2400
960.411	2333
960.638	2408
960.865	2345
961.092	2353
961.319	2283
961.546	2392
961.773	2349
962	2326
962.227	2372
962.454	2320
962.68	2316
962.907	2313
963.134	2267
963.36	2318
963.587	2317
963.813	2263
964.04	2258
964.266	2222
964.493	2279
964.719	2270
964.945	2226
965.171	2149
965.398	2189
965.624	2217
965.85	2166
966.076	2152
966.302	2197
966.528	2148
966.754	2175
966.98	2130
967.206	2174
967.431	2110
967.657	2177
967.883	2148
968.109	2175
968.334	2098
968.56	2099
968.785	2101
969.011	2047
969.236	2111
969.462	2057
969.687	2069
969.912	2096
970.138	2109
970.363	2025
970.588	2035
970.813	2013
971.038	2002
971.263	2081
971.488	2032
971.713	2066
971.938	2069
972.163	1959
972.388	1958
972.613	1954
972.838	2003
973.062	1945
973.287	1985
973.512	1899
973.736	1959
973.961	1939
974.185	1886
974.41	1954
974.634	1824
974.858	1878
975.083	1892
975.307	1913
975.531	1878
975.755	1804
975.98	1848
976.204	1736
976.428	1770
976.652	1789
976.876	1776
977.1	1781
977.324	1749
977.547	1813
977.771	1790
977.995	1744
978.219	1717
978.442	1824
978.666	1757
978.89	1739
979.113	1784
979.337	1736
979.56	1727
979.783	1801
980.007	1722
980.23	1710
980.453	1682
980.677	1744
980.9	1742
981.123	1651
981.346	1706
981.569	1694
981.792	1698
982.015	1674
982.238	1649
982.461	1669
982.684	1620
982.907	1603
983.129	1583
983.352	1672
983.575	1638
983.797	1631
984.02	1604
984.242	1584
984.465	1589
984.687	1623
984.91	1655
985.132	1598
985.354	1643
985.577	1616
985.799	1596
986.021	1530
986.243	1533
986.465	1556
986.687	1632
986.909	1644
987.131	1591
987.353	1553
987.575	1597
987.797	1559
988.019	1480
988.241	1556
988.462	1497
988.684	1583
988.906	1589
989.127	1603
989.349	1490
989.57	1534
989.792	1564
990.013	1596
990.234	1566
990.456	1601
990.677	1598
990.898	1523
991.119	1513
991.341	1557
991.562	1505
991.783	1540
992.004	1450
992.225	1413
992.446	1509
992.667	1401
992.887	1523
993.108	1391
993.329	1517
993.55	1477
993.77	1438
993.991	1406
994.212	1475
994.432	1438
994.653	1468
994.873	1424
995.093	1347
995.314	1387
995.534	1469
995.754	1455
995.975	1487
996.195	1358
996.415	1455
996.635	1413
996.855	1434
997.075	1420
997.295	1408
997.515	1423
997.735	1433
997.955	1445
998.174	1417
998.394	1387
998.614	1424
998.834	1389
999.053	1449
999.273	1431
999.492	1453
999.712	1384
999.931	1374
1000.151	1415
1000.37	1383
1000.589	1460
1000.809	1378
1001.028	1479
1001.247	1390
1001.466	1302
1001.685	1451
1001.904	1387
1002.123	1379
1002.342	1374
1002.561	1324
1002.78	1346
1002.999	1405
1003.218	1353
1003.436	1311
1003.655	1383
1003.874	1335
1004.092	1345
1004.311	1379
1004.53	1353
1004.748	1436
1004.966	1321
1005.185	1407
1005.403	1404
1005.622	1363
1005.84	1462
1006.058	1355
1006.276	1382
1006.494	1732
1006.712	1339
1006.931	1424
1007.149	1325
1007.367	1355
1007.584	1393
1007.802	1430
1008.02	1390
1008.238	1494
1008.456	1495
1008.673	1349
1008.891	1489
1009.109	1408
1009.326	1518
1009.544	1596
1009.761	1525
1009.979	1647
1010.196	1699
1010.413	1822
1010.631	1859
1010.848	1907
1011.065	1908
1011.282	1863
1011.5	1803
1011.717	1868
1011.934	1820
1012.151	1855
1012.368	1868
1012.585	1810
1012.801	1871
1013.018	1796
1013.235	1786
1013.452	1800
1013.669	1824
1013.885	1853
1014.102	1891
1014.318	1863
1014.535	1826
1014.751	1850
1014.968	1801
1015.184	1838
1015.401	1740
1015.617	1742
1015.833	1713
1016.049	1698
1016.266	1682
1016.482	1677
1016.698	1592
1016.914	1648
1017.13	1604
1017.346	1571
1017.562	1661
1017.778	1583
1017.993	1542
1018.209	1617
1018.425	1571
1018.641	1525
1018.856	1534
1019.072	1537
1019.288	1570
1019.503	1515
1019.719	1460
1019.934	1466
1020.149	1543
1020.365	1462
1020.58	1410
1020.795	1451
1021.011	1385
1021.226	1353
1021.441	1355
1021.656	1297
1021.871	1220
1022.086	1214
1022.301	1214
1022.516	1161
1022.731	1226
1022.946	1144
1023.16	1130
1023.375	1096
1023.59	1058
1023.804	1049
1024.019	1138
1024.234	1007
1024.448	1032
1024.663	946
1024.877	959
1025.092	997
1025.306	1003
1025.52	895
1025.734	971
1025.949	886
1026.163	869
1026.377	807
1026.591	854
1026.805	776
1027.019	782
1027.233	754
1027.447	685
1027.661	810
1027.875	738
1028.088	761
1028.302	679
1028.516	663
1028.73	645
1028.943	671
1029.157	600
1029.37	587
1029.584	-6
1029.797	0
1030.011	-1
1030.224	0
