Data from QEP037381__212__11-29-53-223.txt Node

Date: Fri Apr 28 11:29:53 EDT 2023
User: dcclab
Spectrometer: QEP03738
Trigger mode: 4
Integration Time (sec): 1.000000E1
Scans to average: 1
Electric dark correction enabled: true
Nonlinearity correction enabled: false
Boxcar width: 0
XAxis mode: Wavelengths
Number of Pixels in Spectrum: 1044
>>>>>Begin Spectral Data<<<<<
784.041	10.38
784.3	0.38
784.558	-2.62
784.817	-4.62
785.075	65064.38
785.334	12971.38
785.592	6754.38
785.851	4776.38
786.109	3665.38
786.368	2864.38
786.626	2328.38
786.884	1942.38
787.143	1648.38
787.401	1343.38
787.659	1215.38
787.917	1057.38
788.175	989.38
788.433	862.38
788.691	780.38
788.949	723.38
789.207	701.38
789.465	609.38
789.723	587.38
789.98	540.38
790.238	588.38
790.496	532.38
790.753	509.38
791.011	569.38
791.268	505.38
791.526	492.38
791.783	502.38
792.041	483.38
792.298	407.38
792.556	475.38
792.813	444.38
793.07	411.38
793.327	408.38
793.584	500.38
793.841	433.38
794.099	441.38
794.356	500.38
794.613	394.38
794.869	449.38
795.126	400.38
795.383	380.38
795.64	403.38
795.897	361.38
796.153	431.38
796.41	407.38
796.667	390.38
796.923	411.38
797.18	400.38
797.436	420.38
797.693	386.38
797.949	445.38
798.206	457.38
798.462	380.38
798.718	442.38
798.974	404.38
799.231	436.38
799.487	441.38
799.743	460.38
799.999	465.38
800.255	467.38
800.511	461.38
800.767	496.38
801.023	471.38
801.279	496.38
801.534	552.38
801.79	606.38
802.046	623.38
802.302	760.38
802.557	875.38
802.813	1115.38
803.068	1342.38
803.324	1908.38
803.579	2645.38
803.835	3620.38
804.09	4865.38
804.345	6126.38
804.601	7410.38
804.856	8587.38
805.111	9491.38
805.366	10114.38
805.621	10555.38
805.876	10872.38
806.131	11080.38
806.386	11216.38
806.641	11323.38
806.896	11588.38
807.151	11843.38
807.406	11789.38
807.661	12126.38
807.915	12298.38
808.17	12530.38
808.425	12631.38
808.679	12785.38
808.934	12946.38
809.188	13057.38
809.443	13098.38
809.697	13363.38
809.951	13481.38
810.206	13527.38
810.46	13692.38
810.714	13778.38
810.968	13913.38
811.223	13920.38
811.477	14098.38
811.731	14159.38
811.985	14201.38
812.239	14183.38
812.493	14330.38
812.747	14356.38
813	14356.38
813.254	14509.38
813.508	14515.38
813.762	14549.38
814.015	14561.38
814.269	14750.38
814.522	14700.38
814.776	14981.38
815.03	15155.38
815.283	15277.38
815.536	15538.38
815.79	15829.38
816.043	15961.38
816.296	16138.38
816.55	16391.38
816.803	16553.38
817.056	16811.38
817.309	17006.38
817.562	17190.38
817.815	17369.38
818.068	17493.38
818.321	17624.38
818.574	17820.38
818.827	18118.38
819.079	18266.38
819.332	18812.38
819.585	18959.38
819.838	19105.38
820.09	19119.38
820.343	19347.38
820.595	19376.38
820.848	19615.38
821.1	19664.38
821.353	19519.38
821.605	19553.38
821.857	19498.38
822.11	19396.38
822.362	19376.38
822.614	19336.38
822.866	19394.38
823.118	19276.38
823.37	19551.38
823.622	19422.38
823.874	19562.38
824.126	19615.38
824.378	19558.38
824.63	19656.38
824.882	19731.38
825.134	19677.38
825.385	19589.38
825.637	19486.38
825.888	19566.38
826.14	19526.38
826.392	19340.38
826.643	19189.38
826.895	19302.38
827.146	19026.38
827.397	18980.38
827.649	19122.38
827.9	19145.38
828.151	19072.38
828.402	19010.38
828.653	19103.38
828.905	19085.38
829.156	19156.38
829.407	19170.38
829.658	19284.38
829.909	19368.38
830.159	19530.38
830.41	19373.38
830.661	19157.38
830.912	19047.38
831.162	18895.38
831.413	18840.38
831.664	18991.38
831.914	18882.38
832.165	18739.38
832.415	18822.38
832.666	18837.38
832.916	18815.38
833.167	18777.38
833.417	18764.38
833.667	18617.38
833.917	18598.38
834.168	18574.38
834.418	18477.38
834.668	18348.38
834.918	18257.38
835.168	18232.38
835.418	18073.38
835.668	18045.38
835.918	17917.38
836.167	17996.38
836.417	17871.38
836.667	17849.38
836.917	17828.38
837.166	17946.38
837.416	17941.38
837.666	17903.38
837.915	17812.38
838.165	17823.38
838.414	17706.38
838.663	17767.38
838.913	17744.38
839.162	17644.38
839.411	17790.38
839.661	17596.38
839.91	17601.38
840.159	17602.38
840.408	17583.38
840.657	17641.38
840.906	17600.38
841.155	17605.38
841.404	17567.38
841.653	17587.38
841.902	17616.38
842.15	17629.38
842.399	17670.38
842.648	17618.38
842.897	17538.38
843.145	17365.38
843.394	17242.38
843.642	17129.38
843.891	17121.38
844.139	16908.38
844.388	16830.38
844.636	16743.38
844.884	16784.38
845.133	16685.38
845.381	16710.38
845.629	16715.38
845.877	16615.38
846.125	16675.38
846.373	16657.38
846.621	16512.38
846.869	16497.38
847.117	16449.38
847.365	16381.38
847.613	16325.38
847.861	16270.38
848.108	16281.38
848.356	16274.38
848.604	16143.38
848.851	16202.38
849.099	16283.38
849.346	16294.38
849.594	16350.38
849.841	16412.38
850.089	16396.38
850.336	16402.38
850.583	16465.38
850.831	16407.38
851.078	16198.38
851.325	16285.38
851.572	16321.38
851.819	16024.38
852.066	15781.38
852.313	15544.38
852.56	15326.38
852.807	15262.38
853.054	15290.38
853.301	15218.38
853.548	15285.38
853.794	15318.38
854.041	15409.38
854.288	15445.38
854.534	15687.38
854.781	15608.38
855.028	15548.38
855.274	15561.38
855.52	15535.38
855.767	15525.38
856.013	15680.38
856.26	15841.38
856.506	15367.38
856.752	15325.38
856.998	15294.38
857.244	15329.38
857.49	15398.38
857.736	15470.38
857.982	15450.38
858.228	15361.38
858.474	15069.38
858.72	15098.38
858.966	14870.38
859.212	14724.38
859.458	14622.38
859.703	14428.38
859.949	14246.38
860.195	14224.38
860.44	14269.38
860.686	14136.38
860.931	14178.38
861.177	14005.38
861.422	13925.38
861.667	13832.38
861.913	13688.38
862.158	13805.38
862.403	13815.38
862.648	13955.38
862.893	13880.38
863.138	13886.38
863.384	13731.38
863.629	13756.38
863.873	13779.38
864.118	13765.38
864.363	13481.38
864.608	13539.38
864.853	13420.38
865.098	13342.38
865.342	13262.38
865.587	13132.38
865.832	13239.38
866.076	13207.38
866.321	13117.38
866.565	13173.38
866.81	13006.38
867.054	12990.38
867.298	13069.38
867.543	12959.38
867.787	13003.38
868.031	12996.38
868.275	12997.38
868.519	12949.38
868.764	12854.38
869.008	12902.38
869.252	12936.38
869.496	12901.38
869.739	12934.38
869.983	13033.38
870.227	12955.38
870.471	12927.38
870.715	13021.38
870.958	13020.38
871.202	13082.38
871.446	13113.38
871.689	13060.38
871.933	13067.38
872.176	13036.38
872.42	12934.38
872.663	12999.38
872.906	13044.38
873.15	13057.38
873.393	13045.38
873.636	13056.38
873.879	12945.38
874.122	12662.38
874.366	12497.38
874.609	12381.38
874.852	12178.38
875.095	12052.38
875.337	12069.38
875.58	11936.38
875.823	11910.38
876.066	11955.38
876.309	11935.38
876.551	11809.38
876.794	11603.38
877.037	11777.38
877.279	11602.38
877.522	11671.38
877.764	11729.38
878.007	11557.38
878.249	11538.38
878.491	11514.38
878.734	11491.38
878.976	11501.38
879.218	11359.38
879.46	11325.38
879.702	11258.38
879.945	11088.38
880.187	10946.38
880.429	10968.38
880.671	10854.38
880.912	10834.38
881.154	10745.38
881.396	10633.38
881.638	10778.38
881.88	10726.38
882.121	10674.38
882.363	10756.38
882.605	10789.38
882.846	10760.38
883.088	10794.38
883.329	10835.38
883.571	10940.38
883.812	11126.38
884.053	11598.38
884.295	11878.38
884.536	12150.38
884.777	11900.38
885.018	11821.38
885.259	11817.38
885.5	11586.38
885.742	11603.38
885.982	11448.38
886.223	11334.38
886.464	11139.38
886.705	10978.38
886.946	10835.38
887.187	10447.38
887.428	10414.38
887.668	10197.38
887.909	9913.38
888.15	9779.38
888.39	9752.38
888.631	9717.38
888.871	9609.38
889.111	9489.38
889.352	9470.38
889.592	9338.38
889.833	9201.38
890.073	9182.38
890.313	9227.38
890.553	9066.38
890.793	9014.38
891.033	9012.38
891.273	8908.38
891.513	8926.38
891.753	8879.38
891.993	8865.38
892.233	8917.38
892.473	9002.38
892.713	8902.38
892.952	8833.38
893.192	8887.38
893.432	8905.38
893.671	8901.38
893.911	8807.38
894.15	8771.38
894.39	8638.38
894.629	8682.38
894.869	8614.38
895.108	8519.38
895.347	8488.38
895.587	8551.38
895.826	8421.38
896.065	8371.38
896.304	8417.38
896.543	8346.38
896.782	8352.38
897.021	8358.38
897.26	8348.38
897.499	8386.38
897.738	8355.38
897.977	8249.38
898.216	8207.38
898.454	8112.38
898.693	8053.38
898.932	8106.38
899.17	8054.38
899.409	7999.38
899.647	8010.38
899.886	8054.38
900.124	8004.38
900.363	7987.38
900.601	8083.38
900.839	8099.38
901.078	8100.38
901.316	8190.38
901.554	8256.38
901.792	8339.38
902.03	8289.38
902.268	8270.38
902.506	8291.38
902.744	8184.38
902.982	8115.38
903.22	7971.38
903.458	7830.38
903.695	7709.38
903.933	7592.38
904.171	7413.38
904.409	7282.38
904.646	7214.38
904.884	7146.38
905.121	7082.38
905.359	6943.38
905.596	6899.38
905.833	6828.38
906.071	6781.38
906.308	6788.38
906.545	6795.38
906.783	6689.38
907.02	6724.38
907.257	6694.38
907.494	6712.38
907.731	6714.38
907.968	6597.38
908.205	6546.38
908.442	6591.38
908.679	6564.38
908.915	6470.38
909.152	6439.38
909.389	6298.38
909.626	6292.38
909.862	6236.38
910.099	6225.38
910.335	6217.38
910.572	6161.38
910.808	6156.38
911.045	6068.38
911.281	6083.38
911.518	6148.38
911.754	5994.38
911.99	6010.38
912.226	5934.38
912.463	5891.38
912.699	5895.38
912.935	5830.38
913.171	5779.38
913.407	5699.38
913.643	5712.38
913.879	5669.38
914.114	5618.38
914.35	5537.38
914.586	5494.38
914.822	5411.38
915.057	5463.38
915.293	5339.38
915.529	5349.38
915.764	5406.38
916	5332.38
916.235	5332.38
916.471	5347.38
916.706	5251.38
916.941	5298.38
917.177	5234.38
917.412	5351.38
917.647	5319.38
917.882	5223.38
918.117	5298.38
918.352	5228.38
918.588	5227.38
918.823	5162.38
919.057	5088.38
919.292	4957.38
919.527	5030.38
919.762	4946.38
919.997	4952.38
920.232	4820.38
920.466	4843.38
920.701	4710.38
920.935	4803.38
921.17	4743.38
921.405	4679.38
921.639	4714.38
921.873	4702.38
922.108	4703.38
922.342	4654.38
922.576	4599.38
922.811	4591.38
923.045	4672.38
923.279	4625.38
923.513	4486.38
923.747	4567.38
923.981	4533.38
924.215	4465.38
924.449	4490.38
924.683	4427.38
924.917	4412.38
925.151	4401.38
925.385	4429.38
925.618	4358.38
925.852	4394.38
926.086	4274.38
926.319	4304.38
926.553	4297.38
926.786	4314.38
927.02	4259.38
927.253	4394.38
927.486	4316.38
927.72	4246.38
927.953	4311.38
928.186	4210.38
928.42	4235.38
928.653	4169.38
928.886	4159.38
929.119	4194.38
929.352	4157.38
929.585	4127.38
929.818	4085.38
930.051	4064.38
930.284	4075.38
930.516	3937.38
930.749	3946.38
930.982	4036.38
931.215	3930.38
931.447	3863.38
931.68	3866.38
931.912	3880.38
932.145	3842.38
932.377	3901.38
932.61	3997.38
932.842	3831.38
933.074	3908.38
933.307	3829.38
933.539	3904.38
933.771	3861.38
934.003	3806.38
934.236	3935.38
934.468	3936.38
934.7	3853.38
934.932	3877.38
935.164	3841.38
935.395	3811.38
935.627	3818.38
935.859	3809.38
936.091	3779.38
936.323	3798.38
936.554	3833.38
936.786	3747.38
937.017	3685.38
937.249	3692.38
937.481	3657.38
937.712	3726.38
937.943	3690.38
938.175	3642.38
938.406	3653.38
938.637	3708.38
938.869	3625.38
939.1	3669.38
939.331	3615.38
939.562	3602.38
939.793	3595.38
940.024	3591.38
940.255	3635.38
940.486	3585.38
940.717	3620.38
940.948	3552.38
941.179	3466.38
941.409	3510.38
941.64	3500.38
941.871	3492.38
942.102	3496.38
942.332	3509.38
942.563	3523.38
942.793	3488.38
943.024	3442.38
943.254	3469.38
943.484	3553.38
943.715	3531.38
943.945	3493.38
944.175	3412.38
944.405	3388.38
944.636	3382.38
944.866	3473.38
945.096	3451.38
945.326	3369.38
945.556	3412.38
945.786	3450.38
946.016	3350.38
946.245	3332.38
946.475	3323.38
946.705	3296.38
946.935	3313.38
947.164	3286.38
947.394	3274.38
947.624	3316.38
947.853	3299.38
948.083	3261.38
948.312	3194.38
948.542	3163.38
948.771	3141.38
949	3175.38
949.23	3175.38
949.459	3188.38
949.688	3252.38
949.917	3194.38
950.146	3187.38
950.375	3250.38
950.604	3106.38
950.833	3205.38
951.062	3195.38
951.291	3161.38
951.52	3122.38
951.749	3123.38
951.978	3073.38
952.206	3100.38
952.435	3079.38
952.664	3120.38
952.892	3098.38
953.121	3092.38
953.349	3093.38
953.578	3073.38
953.806	3036.38
954.035	3017.38
954.263	3022.38
954.491	2959.38
954.719	2998.38
954.948	2942.38
955.176	2905.38
955.404	2817.38
955.632	2887.38
955.86	2943.38
956.088	2864.38
956.316	2900.38
956.544	2914.38
956.772	2837.38
956.999	2809.38
957.227	2898.38
957.455	2839.38
957.683	2827.38
957.91	2791.38
958.138	2735.38
958.365	2775.38
958.593	2778.38
958.82	2738.38
959.048	2767.38
959.275	2711.38
959.502	2727.38
959.73	2729.38
959.957	2730.38
960.184	2753.38
960.411	2664.38
960.638	2773.38
960.865	2726.38
961.092	2743.38
961.319	2621.38
961.546	2752.38
961.773	2708.38
962	2700.38
962.227	2712.38
962.454	2700.38
962.68	2631.38
962.907	2666.38
963.134	2587.38
963.36	2625.38
963.587	2631.38
963.813	2551.38
964.04	2574.38
964.266	2545.38
964.493	2619.38
964.719	2577.38
964.945	2568.38
965.171	2470.38
965.398	2525.38
965.624	2556.38
965.85	2470.38
966.076	2469.38
966.302	2507.38
966.528	2448.38
966.754	2470.38
966.98	2482.38
967.206	2478.38
967.431	2354.38
967.657	2470.38
967.883	2444.38
968.109	2462.38
968.334	2412.38
968.56	2386.38
968.785	2385.38
969.011	2351.38
969.236	2417.38
969.462	2347.38
969.687	2370.38
969.912	2367.38
970.138	2448.38
970.363	2308.38
970.588	2369.38
970.813	2345.38
971.038	2282.38
971.263	2353.38
971.488	2312.38
971.713	2343.38
971.938	2347.38
972.163	2232.38
972.388	2261.38
972.613	2252.38
972.838	2227.38
973.062	2284.38
973.287	2243.38
973.512	2173.38
973.736	2212.38
973.961	2202.38
974.185	2177.38
974.41	2214.38
974.634	2108.38
974.858	2128.38
975.083	2178.38
975.307	2190.38
975.531	2126.38
975.755	2046.38
975.98	2097.38
976.204	2026.38
976.428	2018.38
976.652	2029.38
976.876	2029.38
977.1	2041.38
977.324	2005.38
977.547	2023.38
977.771	2067.38
977.995	2023.38
978.219	1962.38
978.442	2081.38
978.666	2014.38
978.89	2033.38
979.113	1980.38
979.337	1997.38
979.56	1942.38
979.783	2028.38
980.007	1922.38
980.23	1955.38
980.453	1941.38
980.677	1935.38
980.9	1949.38
981.123	1881.38
981.346	1946.38
981.569	1913.38
981.792	1954.38
982.015	1885.38
982.238	1882.38
982.461	1880.38
982.684	1836.38
982.907	1851.38
983.129	1810.38
983.352	1884.38
983.575	1832.38
983.797	1850.38
984.02	1799.38
984.242	1799.38
984.465	1813.38
984.687	1851.38
984.91	1865.38
985.132	1840.38
985.354	1853.38
985.577	1771.38
985.799	1788.38
986.021	1749.38
986.243	1764.38
986.465	1772.38
986.687	1788.38
986.909	1837.38
987.131	1792.38
987.353	1754.38
987.575	1764.38
987.797	1758.38
988.019	1667.38
988.241	1740.38
988.462	1671.38
988.684	1748.38
988.906	1768.38
989.127	1805.38
989.349	1693.38
989.57	1701.38
989.792	1771.38
990.013	1758.38
990.234	1771.38
990.456	1791.38
990.677	1765.38
990.898	1714.38
991.119	1727.38
991.341	1720.38
991.562	1674.38
991.783	1719.38
992.004	1651.38
992.225	1634.38
992.446	1692.38
992.667	1576.38
992.887	1696.38
993.108	1574.38
993.329	1707.38
993.55	1647.38
993.77	1585.38
993.991	1570.38
994.212	1628.38
994.432	1599.38
994.653	1604.38
994.873	1595.38
995.093	1484.38
995.314	1551.38
995.534	1623.38
995.754	1627.38
995.975	1651.38
996.195	1543.38
996.415	1615.38
996.635	1578.38
996.855	1595.38
997.075	1581.38
997.295	1553.38
997.515	1564.38
997.735	1591.38
997.955	1587.38
998.174	1553.38
998.394	1550.38
998.614	1599.38
998.834	1553.38
999.053	1611.38
999.273	1592.38
999.492	1619.38
999.712	1555.38
999.931	1506.38
1000.151	1564.38
1000.37	1541.38
1000.589	1586.38
1000.809	1493.38
1001.028	1623.38
1001.247	1579.38
1001.466	1411.38
1001.685	1600.38
1001.904	1520.38
1002.123	1503.38
1002.342	1523.38
1002.561	1470.38
1002.78	1506.38
1002.999	1549.38
1003.218	1510.38
1003.436	1466.38
1003.655	1519.38
1003.874	1464.38
1004.092	1460.38
1004.311	1495.38
1004.53	1488.38
1004.748	1568.38
1004.966	1467.38
1005.185	1521.38
1005.403	1525.38
1005.622	1479.38
1005.84	1542.38
1006.058	1483.38
1006.276	1485.38
1006.494	1861.38
1006.712	1483.38
1006.931	1566.38
1007.149	1465.38
1007.367	1482.38
1007.584	1534.38
1007.802	1582.38
1008.02	1528.38
1008.238	1641.38
1008.456	1641.38
1008.673	1489.38
1008.891	1636.38
1009.109	1622.38
1009.326	1643.38
1009.544	1753.38
1009.761	1710.38
1009.979	1833.38
1010.196	1908.38
1010.413	2009.38
1010.631	2058.38
1010.848	2150.38
1011.065	2115.38
1011.282	2060.38
1011.5	2030.38
1011.717	2093.38
1011.934	2068.38
1012.151	2084.38
1012.368	2059.38
1012.585	2039.38
1012.801	2087.38
1013.018	2077.38
1013.235	2025.38
1013.452	2039.38
1013.669	2080.38
1013.885	2079.38
1014.102	2114.38
1014.318	2097.38
1014.535	2038.38
1014.751	2043.38
1014.968	2041.38
1015.184	2026.38
1015.401	1968.38
1015.617	2003.38
1015.833	1922.38
1016.049	1920.38
1016.266	1909.38
1016.482	1878.38
1016.698	1803.38
1016.914	1847.38
1017.13	1802.38
1017.346	1802.38
1017.562	1854.38
1017.778	1793.38
1017.993	1765.38
1018.209	1812.38
1018.425	1763.38
1018.641	1738.38
1018.856	1723.38
1019.072	1750.38
1019.288	1805.38
1019.503	1754.38
1019.719	1661.38
1019.934	1646.38
1020.149	1738.38
1020.365	1671.38
1020.58	1584.38
1020.795	1608.38
1021.011	1534.38
1021.226	1515.38
1021.441	1514.38
1021.656	1419.38
1021.871	1360.38
1022.086	1369.38
1022.301	1334.38
1022.516	1347.38
1022.731	1338.38
1022.946	1281.38
1023.16	1230.38
1023.375	1218.38
1023.59	1185.38
1023.804	1164.38
1024.019	1219.38
1024.234	1097.38
1024.448	1123.38
1024.663	1027.38
1024.877	1070.38
1025.092	1078.38
1025.306	1081.38
1025.52	972.38
1025.734	1038.38
1025.949	963.38
1026.163	950.38
1026.377	904.38
1026.591	944.38
1026.805	864.38
1027.019	864.38
1027.233	812.38
1027.447	793.38
1027.661	864.38
1027.875	813.38
1028.088	829.38
1028.302	738.38
1028.516	720.38
1028.73	736.38
1028.943	706.38
1029.157	660.38
1029.37	623.38
1029.584	-3.62
1029.797	-0.62
1030.011	1.38
1030.224	-0.62
