Data from QEP037381__165__13-59-59-162.txt Node

Date: Wed Dec 21 13:59:59 EST 2022
User: dcclab
Spectrometer: QEP03738
Trigger mode: 4
Integration Time (sec): 1.000000E1
Scans to average: 1
Electric dark correction enabled: true
Nonlinearity correction enabled: false
Boxcar width: 0
XAxis mode: Wavelengths
Number of Pixels in Spectrum: 1044
>>>>>Begin Spectral Data<<<<<
784.041	11.62
784.3	1.62
784.558	0.62
784.817	-4.38
785.075	104862.62
785.334	17785.62
785.592	8156.62
785.851	5600.62
786.109	4231.62
786.368	3270.62
786.626	2611.62
786.884	2168.62
787.143	1843.62
787.401	1537.62
787.659	1337.62
787.917	1167.62
788.175	1091.62
788.433	948.62
788.691	855.62
788.949	813.62
789.207	755.62
789.465	649.62
789.723	623.62
789.98	603.62
790.238	647.62
790.496	578.62
790.753	562.62
791.011	608.62
791.268	540.62
791.526	524.62
791.783	537.62
792.041	530.62
792.298	436.62
792.556	506.62
792.813	502.62
793.07	452.62
793.327	444.62
793.584	534.62
793.841	457.62
794.099	475.62
794.356	527.62
794.613	418.62
794.869	453.62
795.126	431.62
795.383	417.62
795.64	435.62
795.897	381.62
796.153	446.62
796.41	437.62
796.667	420.62
796.923	430.62
797.18	427.62
797.436	451.62
797.693	414.62
797.949	465.62
798.206	486.62
798.462	415.62
798.718	464.62
798.974	443.62
799.231	498.62
799.487	493.62
799.743	480.62
799.999	518.62
800.255	506.62
800.511	500.62
800.767	528.62
801.023	524.62
801.279	543.62
801.534	604.62
801.79	629.62
802.046	658.62
802.302	818.62
802.557	904.62
802.813	1117.62
803.068	1344.62
803.324	1858.62
803.579	2577.62
803.835	3552.62
804.09	4933.62
804.345	6523.62
804.601	8301.62
804.856	10111.62
805.111	11661.62
805.366	12809.62
805.621	13607.62
805.876	14204.62
806.131	14491.62
806.386	14759.62
806.641	15024.62
806.896	15351.62
807.151	15646.62
807.406	15842.62
807.661	16168.62
807.915	16474.62
808.17	16751.62
808.425	16882.62
808.679	17016.62
808.934	17233.62
809.188	17362.62
809.443	17636.62
809.697	17919.62
809.951	17952.62
810.206	18150.62
810.46	18273.62
810.714	18366.62
810.968	18625.62
811.223	18674.62
811.477	18890.62
811.731	18971.62
811.985	19197.62
812.239	19222.62
812.493	19412.62
812.747	19508.62
813	19500.62
813.254	19344.62
813.508	19666.62
813.762	19738.62
814.015	19882.62
814.269	19950.62
814.522	20206.62
814.776	20309.62
815.03	20779.62
815.283	20978.62
815.536	21259.62
815.79	21548.62
816.043	22018.62
816.296	22336.62
816.55	22535.62
816.803	22829.62
817.056	23110.62
817.309	23305.62
817.562	23444.62
817.815	23800.62
818.068	23967.62
818.321	24194.62
818.574	24607.62
818.827	24882.62
819.079	25123.62
819.332	25536.62
819.585	25769.62
819.838	26164.62
820.09	26296.62
820.343	26604.62
820.595	26763.62
820.848	26842.62
821.1	27044.62
821.353	27028.62
821.605	26968.62
821.857	27015.62
822.11	27027.62
822.362	26777.62
822.614	26666.62
822.866	26819.62
823.118	26613.62
823.37	26890.62
823.622	26888.62
823.874	26881.62
824.126	27127.62
824.378	27168.62
824.63	27125.62
824.882	27343.62
825.134	27234.62
825.385	27185.62
825.637	27170.62
825.888	27078.62
826.14	27109.62
826.392	26815.62
826.643	26763.62
826.895	26694.62
827.146	26605.62
827.397	26568.62
827.649	26527.62
827.9	26507.62
828.151	26610.62
828.402	26544.62
828.653	26625.62
828.905	26625.62
829.156	26933.62
829.407	26631.62
829.658	26719.62
829.909	26636.62
830.159	26607.62
830.41	26406.62
830.661	26312.62
830.912	26189.62
831.162	26136.62
831.413	25884.62
831.664	26095.62
831.914	26033.62
832.165	26003.62
832.415	26058.62
832.666	26000.62
832.916	26074.62
833.167	25898.62
833.417	25861.62
833.667	25869.62
833.917	25704.62
834.168	25677.62
834.418	25564.62
834.668	25569.62
834.918	25324.62
835.168	25269.62
835.418	25194.62
835.668	25127.62
835.918	25116.62
836.167	25087.62
836.417	24966.62
836.667	24863.62
836.917	24844.62
837.166	24873.62
837.416	24903.62
837.666	24854.62
837.915	24603.62
838.165	24622.62
838.414	24494.62
838.663	24484.62
838.913	24491.62
839.162	24377.62
839.411	24260.62
839.661	24319.62
839.91	24204.62
840.159	24082.62
840.408	24184.62
840.657	24040.62
840.906	24084.62
841.155	24135.62
841.404	24151.62
841.653	24113.62
841.902	24089.62
842.15	24060.62
842.399	24048.62
842.648	24032.62
842.897	23939.62
843.145	23921.62
843.394	23679.62
843.642	23491.62
843.891	23508.62
844.139	23388.62
844.388	23293.62
844.636	23200.62
844.884	23127.62
845.133	23010.62
845.381	22941.62
845.629	23062.62
845.877	22975.62
846.125	22885.62
846.373	22846.62
846.621	22785.62
846.869	22762.62
847.117	22729.62
847.365	22446.62
847.613	22432.62
847.861	22358.62
848.108	22351.62
848.356	22320.62
848.604	22174.62
848.851	22074.62
849.099	22217.62
849.346	22219.62
849.594	22344.62
849.841	22453.62
850.089	22601.62
850.336	22436.62
850.583	22479.62
850.831	22376.62
851.078	22114.62
851.325	22094.62
851.572	22134.62
851.819	21782.62
852.066	21602.62
852.313	21402.62
852.56	21031.62
852.807	20964.62
853.054	21057.62
853.301	20788.62
853.548	20879.62
853.794	21118.62
854.041	21065.62
854.288	21107.62
854.534	21352.62
854.781	21412.62
855.028	21221.62
855.274	21177.62
855.52	20957.62
855.767	20826.62
856.013	20682.62
856.26	21021.62
856.506	20604.62
856.752	20581.62
856.998	20460.62
857.244	20577.62
857.49	20623.62
857.736	20654.62
857.982	20711.62
858.228	20606.62
858.474	20471.62
858.72	20371.62
858.966	20324.62
859.212	20098.62
859.458	19902.62
859.703	19638.62
859.949	19499.62
860.195	19335.62
860.44	19223.62
860.686	19154.62
860.931	19079.62
861.177	18940.62
861.422	19057.62
861.667	18932.62
861.913	18975.62
862.158	19067.62
862.403	19019.62
862.648	19096.62
862.893	19093.62
863.138	18989.62
863.384	18925.62
863.629	18968.62
863.873	18972.62
864.118	18863.62
864.363	18685.62
864.608	18720.62
864.853	18645.62
865.098	18531.62
865.342	18473.62
865.587	18275.62
865.832	18276.62
866.076	18300.62
866.321	18169.62
866.565	18148.62
866.81	18041.62
867.054	18040.62
867.298	18030.62
867.543	17890.62
867.787	17945.62
868.031	17772.62
868.275	17808.62
868.519	17716.62
868.764	17806.62
869.008	17585.62
869.252	17679.62
869.496	17613.62
869.739	17558.62
869.983	17470.62
870.227	17366.62
870.471	17382.62
870.715	17437.62
870.958	17510.62
871.202	17426.62
871.446	17416.62
871.689	17347.62
871.933	17404.62
872.176	17438.62
872.42	17329.62
872.663	17357.62
872.906	17176.62
873.15	17228.62
873.393	16952.62
873.636	16855.62
873.879	16824.62
874.122	16651.62
874.366	16421.62
874.609	16413.62
874.852	16299.62
875.095	16287.62
875.337	16151.62
875.58	16057.62
875.823	16132.62
876.066	15987.62
876.309	16040.62
876.551	15830.62
876.794	15792.62
877.037	15910.62
877.279	15709.62
877.522	15762.62
877.764	15756.62
878.007	15759.62
878.249	15692.62
878.491	15652.62
878.734	15740.62
878.976	15676.62
879.218	15545.62
879.46	15502.62
879.702	15359.62
879.945	15235.62
880.187	15207.62
880.429	15079.62
880.671	14913.62
880.912	14901.62
881.154	14894.62
881.396	14805.62
881.638	14761.62
881.88	14772.62
882.121	14749.62
882.363	14610.62
882.605	14701.62
882.846	14578.62
883.088	14584.62
883.329	14379.62
883.571	14334.62
883.812	14523.62
884.053	14482.62
884.295	14487.62
884.536	14739.62
884.777	14574.62
885.018	14450.62
885.259	14485.62
885.5	14319.62
885.742	14710.62
885.982	14397.62
886.223	14288.62
886.464	14265.62
886.705	14146.62
886.946	14068.62
887.187	13915.62
887.428	13914.62
887.668	13677.62
887.909	13617.62
888.15	13531.62
888.39	13445.62
888.631	13486.62
888.871	13283.62
889.111	13241.62
889.352	13239.62
889.592	12943.62
889.833	13000.62
890.073	12870.62
890.313	12874.62
890.553	12610.62
890.793	12628.62
891.033	12620.62
891.273	12456.62
891.513	12436.62
891.753	12444.62
891.993	12357.62
892.233	12425.62
892.473	12552.62
892.713	12509.62
892.952	12469.62
893.192	12430.62
893.432	12388.62
893.671	12404.62
893.911	12358.62
894.15	12234.62
894.39	12107.62
894.629	12100.62
894.869	12080.62
895.108	11954.62
895.347	11870.62
895.587	11874.62
895.826	11742.62
896.065	11702.62
896.304	11837.62
896.543	11799.62
896.782	11635.62
897.021	11610.62
897.26	11514.62
897.499	11593.62
897.738	11556.62
897.977	11466.62
898.216	11407.62
898.454	11230.62
898.693	11165.62
898.932	11141.62
899.17	11096.62
899.409	11077.62
899.647	10964.62
899.886	10969.62
900.124	10948.62
900.363	10899.62
900.601	10954.62
900.839	10908.62
901.078	10939.62
901.316	10940.62
901.554	10893.62
901.792	10976.62
902.03	10965.62
902.268	10921.62
902.506	10939.62
902.744	10787.62
902.982	10822.62
903.22	10706.62
903.458	10520.62
903.695	10480.62
903.933	10367.62
904.171	10238.62
904.409	10163.62
904.646	10043.62
904.884	9837.62
905.121	9808.62
905.359	9697.62
905.596	9649.62
905.833	9539.62
906.071	9474.62
906.308	9582.62
906.545	9464.62
906.783	9349.62
907.02	9364.62
907.257	9334.62
907.494	9290.62
907.731	9373.62
907.968	9277.62
908.205	9159.62
908.442	9165.62
908.679	9093.62
908.915	8992.62
909.152	9046.62
909.389	8819.62
909.626	8892.62
909.862	8717.62
910.099	8823.62
910.335	8763.62
910.572	8605.62
910.808	8703.62
911.045	8594.62
911.281	8634.62
911.518	8590.62
911.754	8487.62
911.99	8527.62
912.226	8402.62
912.463	8320.62
912.699	8299.62
912.935	8181.62
913.171	8149.62
913.407	8083.62
913.643	8110.62
913.879	7953.62
914.114	7880.62
914.35	7797.62
914.586	7773.62
914.822	7669.62
915.057	7685.62
915.293	7519.62
915.529	7519.62
915.764	7593.62
916	7596.62
916.235	7548.62
916.471	7480.62
916.706	7445.62
916.941	7428.62
917.177	7388.62
917.412	7450.62
917.647	7429.62
917.882	7399.62
918.117	7328.62
918.352	7354.62
918.588	7433.62
918.823	7264.62
919.057	7222.62
919.292	7068.62
919.527	7131.62
919.762	7019.62
919.997	7003.62
920.232	6858.62
920.466	6840.62
920.701	6689.62
920.935	6695.62
921.17	6651.62
921.405	6583.62
921.639	6650.62
921.873	6593.62
922.108	6559.62
922.342	6567.62
922.576	6486.62
922.811	6515.62
923.045	6444.62
923.279	6465.62
923.513	6284.62
923.747	6432.62
923.981	6349.62
924.215	6273.62
924.449	6253.62
924.683	6207.62
924.917	6121.62
925.151	6143.62
925.385	6171.62
925.618	6073.62
925.852	6082.62
926.086	5992.62
926.319	6043.62
926.553	6038.62
926.786	6044.62
927.02	5986.62
927.253	6039.62
927.486	6027.62
927.72	5922.62
927.953	5980.62
928.186	5937.62
928.42	5944.62
928.653	5840.62
928.886	5885.62
929.119	5862.62
929.352	5805.62
929.585	5804.62
929.818	5661.62
930.051	5732.62
930.284	5684.62
930.516	5581.62
930.749	5505.62
930.982	5551.62
931.215	5514.62
931.447	5393.62
931.68	5465.62
931.912	5405.62
932.145	5424.62
932.377	5481.62
932.61	5557.62
932.842	5355.62
933.074	5382.62
933.307	5350.62
933.539	5502.62
933.771	5424.62
934.003	5404.62
934.236	5484.62
934.468	5452.62
934.7	5309.62
934.932	5336.62
935.164	5294.62
935.395	5261.62
935.627	5317.62
935.859	5308.62
936.091	5205.62
936.323	5247.62
936.554	5265.62
936.786	5212.62
937.017	5160.62
937.249	5182.62
937.481	5072.62
937.712	5138.62
937.943	5150.62
938.175	5091.62
938.406	5060.62
938.637	5142.62
938.869	5060.62
939.1	5092.62
939.331	4981.62
939.562	5037.62
939.793	5051.62
940.024	5039.62
940.255	5059.62
940.486	4931.62
940.717	4931.62
940.948	4908.62
941.179	4847.62
941.409	4863.62
941.64	4851.62
941.871	4848.62
942.102	4872.62
942.332	4843.62
942.563	4881.62
942.793	4819.62
943.024	4815.62
943.254	4787.62
943.484	4887.62
943.715	4864.62
943.945	4828.62
944.175	4757.62
944.405	4722.62
944.636	4719.62
944.866	4735.62
945.096	4771.62
945.326	4706.62
945.556	4809.62
945.786	4734.62
946.016	4687.62
946.245	4586.62
946.475	4631.62
946.705	4538.62
946.935	4575.62
947.164	4573.62
947.394	4501.62
947.624	4505.62
947.853	4500.62
948.083	4478.62
948.312	4399.62
948.542	4396.62
948.771	4377.62
949	4388.62
949.23	4385.62
949.459	4395.62
949.688	4433.62
949.917	4368.62
950.146	4375.62
950.375	4446.62
950.604	4351.62
950.833	4420.62
951.062	4394.62
951.291	4368.62
951.52	4276.62
951.749	4340.62
951.978	4253.62
952.206	4233.62
952.435	4242.62
952.664	4282.62
952.892	4292.62
953.121	4257.62
953.349	4229.62
953.578	4244.62
953.806	4193.62
954.035	4116.62
954.263	4138.62
954.491	4078.62
954.719	4139.62
954.948	4057.62
955.176	4054.62
955.404	3965.62
955.632	4035.62
955.86	3988.62
956.088	4003.62
956.316	3996.62
956.544	3999.62
956.772	3945.62
956.999	3926.62
957.227	3995.62
957.455	3826.62
957.683	3914.62
957.91	3820.62
958.138	3796.62
958.365	3819.62
958.593	3819.62
958.82	3723.62
959.048	3836.62
959.275	3733.62
959.502	3762.62
959.73	3730.62
959.957	3740.62
960.184	3746.62
960.411	3719.62
960.638	3758.62
960.865	3685.62
961.092	3727.62
961.319	3612.62
961.546	3750.62
961.773	3674.62
962	3622.62
962.227	3727.62
962.454	3674.62
962.68	3608.62
962.907	3625.62
963.134	3579.62
963.36	3594.62
963.587	3594.62
963.813	3498.62
964.04	3557.62
964.266	3472.62
964.493	3530.62
964.719	3491.62
964.945	3503.62
965.171	3374.62
965.398	3423.62
965.624	3423.62
965.85	3331.62
966.076	3350.62
966.302	3376.62
966.528	3335.62
966.754	3367.62
966.98	3349.62
967.206	3293.62
967.431	3251.62
967.657	3325.62
967.883	3297.62
968.109	3272.62
968.334	3244.62
968.56	3254.62
968.785	3206.62
969.011	3155.62
969.236	3245.62
969.462	3181.62
969.687	3199.62
969.912	3225.62
970.138	3199.62
970.363	3161.62
970.588	3167.62
970.813	3135.62
971.038	3104.62
971.263	3183.62
971.488	3116.62
971.713	3152.62
971.938	3132.62
972.163	3031.62
972.388	3019.62
972.613	3001.62
972.838	3001.62
973.062	3015.62
973.287	2977.62
973.512	2936.62
973.736	2946.62
973.961	2951.62
974.185	2920.62
974.41	2935.62
974.634	2865.62
974.858	2818.62
975.083	2888.62
975.307	2887.62
975.531	2836.62
975.755	2772.62
975.98	2771.62
976.204	2733.62
976.428	2738.62
976.652	2717.62
976.876	2713.62
977.1	2722.62
977.324	2669.62
977.547	2701.62
977.771	2740.62
977.995	2720.62
978.219	2628.62
978.442	2753.62
978.666	2668.62
978.89	2651.62
979.113	2660.62
979.337	2652.62
979.56	2583.62
979.783	2710.62
980.007	2577.62
980.23	2624.62
980.453	2560.62
980.677	2599.62
980.9	2596.62
981.123	2455.62
981.346	2570.62
981.569	2520.62
981.792	2550.62
982.015	2496.62
982.238	2479.62
982.461	2508.62
982.684	2447.62
982.907	2404.62
983.129	2409.62
983.352	2457.62
983.575	2389.62
983.797	2435.62
984.02	2373.62
984.242	2351.62
984.465	2370.62
984.687	2382.62
984.91	2393.62
985.132	2388.62
985.354	2376.62
985.577	2337.62
985.799	2326.62
986.021	2238.62
986.243	2264.62
986.465	2269.62
986.687	2284.62
986.909	2349.62
987.131	2284.62
987.353	2231.62
987.575	2270.62
987.797	2254.62
988.019	2165.62
988.241	2247.62
988.462	2185.62
988.684	2271.62
988.906	2284.62
989.127	2266.62
989.349	2171.62
989.57	2200.62
989.792	2237.62
990.013	2243.62
990.234	2218.62
990.456	2220.62
990.677	2199.62
990.898	2173.62
991.119	2147.62
991.341	2161.62
991.562	2106.62
991.783	2182.62
992.004	2046.62
992.225	2063.62
992.446	2114.62
992.667	2039.62
992.887	2067.62
993.108	1975.62
993.329	2093.62
993.55	2036.62
993.77	1974.62
993.991	1938.62
994.212	2023.62
994.432	1984.62
994.653	1995.62
994.873	1997.62
995.093	1876.62
995.314	1900.62
995.534	1986.62
995.754	1988.62
995.975	1971.62
996.195	1909.62
996.415	1950.62
996.635	1933.62
996.855	1919.62
997.075	1907.62
997.295	1898.62
997.515	1870.62
997.735	1914.62
997.955	1880.62
998.174	1893.62
998.394	1858.62
998.614	1885.62
998.834	1843.62
999.053	1888.62
999.273	1863.62
999.492	1929.62
999.712	1849.62
999.931	1797.62
1000.151	1871.62
1000.37	1847.62
1000.589	1896.62
1000.809	1824.62
1001.028	1919.62
1001.247	1861.62
1001.466	1737.62
1001.685	1912.62
1001.904	1818.62
1002.123	1809.62
1002.342	1818.62
1002.561	1780.62
1002.78	1775.62
1002.999	1830.62
1003.218	1754.62
1003.436	1720.62
1003.655	1798.62
1003.874	1742.62
1004.092	1750.62
1004.311	1807.62
1004.53	1748.62
1004.748	1807.62
1004.966	1733.62
1005.185	1757.62
1005.403	1753.62
1005.622	1731.62
1005.84	1766.62
1006.058	1669.62
1006.276	1699.62
1006.494	2223.62
1006.712	1680.62
1006.931	1749.62
1007.149	1657.62
1007.367	1671.62
1007.584	1705.62
1007.802	1727.62
1008.02	1648.62
1008.238	1752.62
1008.456	1726.62
1008.673	1594.62
1008.891	1725.62
1009.109	1637.62
1009.326	1681.62
1009.544	1757.62
1009.761	1654.62
1009.979	1734.62
1010.196	1705.62
1010.413	1785.62
1010.631	1773.62
1010.848	1820.62
1011.065	1795.62
1011.282	1754.62
1011.5	1688.62
1011.717	1813.62
1011.934	1737.62
1012.151	1764.62
1012.368	1755.62
1012.585	1694.62
1012.801	1752.62
1013.018	1707.62
1013.235	1687.62
1013.452	1671.62
1013.669	1693.62
1013.885	1678.62
1014.102	1716.62
1014.318	1662.62
1014.535	1613.62
1014.751	1646.62
1014.968	1634.62
1015.184	1685.62
1015.401	1590.62
1015.617	1633.62
1015.833	1566.62
1016.049	1569.62
1016.266	1547.62
1016.482	1556.62
1016.698	1513.62
1016.914	1543.62
1017.13	1493.62
1017.346	1509.62
1017.562	1589.62
1017.778	1507.62
1017.993	1481.62
1018.209	1543.62
1018.425	1503.62
1018.641	1478.62
1018.856	1464.62
1019.072	1478.62
1019.288	1514.62
1019.503	1477.62
1019.719	1411.62
1019.934	1404.62
1020.149	1484.62
1020.365	1402.62
1020.58	1380.62
1020.795	1418.62
1021.011	1366.62
1021.226	1378.62
1021.441	1364.62
1021.656	1305.62
1021.871	1230.62
1022.086	1223.62
1022.301	1227.62
1022.516	1224.62
1022.731	1288.62
1022.946	1201.62
1023.16	1158.62
1023.375	1163.62
1023.59	1154.62
1023.804	1099.62
1024.019	1208.62
1024.234	1069.62
1024.448	1120.62
1024.663	1019.62
1024.877	1049.62
1025.092	1057.62
1025.306	1095.62
1025.52	967.62
1025.734	1055.62
1025.949	981.62
1026.163	967.62
1026.377	907.62
1026.591	959.62
1026.805	892.62
1027.019	866.62
1027.233	807.62
1027.447	778.62
1027.661	884.62
1027.875	831.62
1028.088	816.62
1028.302	752.62
1028.516	759.62
1028.73	742.62
1028.943	734.62
1029.157	694.62
1029.37	632.62
1029.584	-1.38
1029.797	-2.38
1030.011	-3.38
1030.224	-2.38
