Data from QEP037381__168__14-00-29-163.txt Node

Date: Wed Dec 21 14:00:29 EST 2022
User: dcclab
Spectrometer: QEP03738
Trigger mode: 4
Integration Time (sec): 1.000000E1
Scans to average: 1
Electric dark correction enabled: true
Nonlinearity correction enabled: false
Boxcar width: 0
XAxis mode: Wavelengths
Number of Pixels in Spectrum: 1044
>>>>>Begin Spectral Data<<<<<
784.041	9.5
784.3	0.5
784.558	-1.5
784.817	-3.5
785.075	109117.5
785.334	18642.5
785.592	8618.5
785.851	5867.5
786.109	4441.5
786.368	3454.5
786.626	2788.5
786.884	2306.5
787.143	1914.5
787.401	1586.5
787.659	1441.5
787.917	1233.5
788.175	1125.5
788.433	982.5
788.691	879.5
788.949	824.5
789.207	783.5
789.465	687.5
789.723	653.5
789.98	602.5
790.238	626.5
790.496	596.5
790.753	563.5
791.011	618.5
791.268	540.5
791.526	529.5
791.783	546.5
792.041	537.5
792.298	424.5
792.556	496.5
792.813	489.5
793.07	461.5
793.327	448.5
793.584	530.5
793.841	443.5
794.099	477.5
794.356	507.5
794.613	433.5
794.869	465.5
795.126	424.5
795.383	417.5
795.64	438.5
795.897	393.5
796.153	439.5
796.41	427.5
796.667	407.5
796.923	436.5
797.18	423.5
797.436	442.5
797.693	420.5
797.949	468.5
798.206	497.5
798.462	391.5
798.718	462.5
798.974	443.5
799.231	479.5
799.487	466.5
799.743	484.5
799.999	505.5
800.255	506.5
800.511	479.5
800.767	526.5
801.023	511.5
801.279	543.5
801.534	588.5
801.79	623.5
802.046	643.5
802.302	756.5
802.557	872.5
802.813	1062.5
803.068	1268.5
803.324	1735.5
803.579	2346.5
803.835	3225.5
804.09	4576.5
804.345	5945.5
804.601	7618.5
804.856	9203.5
805.111	10594.5
805.366	11778.5
805.621	12461.5
805.876	12976.5
806.131	13285.5
806.386	13522.5
806.641	13837.5
806.896	14041.5
807.151	14256.5
807.406	14542.5
807.661	14837.5
807.915	15026.5
808.17	15300.5
808.425	15462.5
808.679	15557.5
808.934	15841.5
809.188	15892.5
809.443	16172.5
809.697	16298.5
809.951	16402.5
810.206	16566.5
810.46	16726.5
810.714	16853.5
810.968	17089.5
811.223	17132.5
811.477	17270.5
811.731	17457.5
811.985	17559.5
812.239	17558.5
812.493	17689.5
812.747	17761.5
813	17748.5
813.254	18045.5
813.508	17992.5
813.762	18077.5
814.015	18132.5
814.269	18243.5
814.522	18625.5
814.776	18687.5
815.03	18869.5
815.283	19175.5
815.536	19508.5
815.79	19886.5
816.043	20075.5
816.296	20369.5
816.55	20595.5
816.803	20795.5
817.056	21122.5
817.309	21328.5
817.562	21511.5
817.815	21693.5
818.068	21889.5
818.321	22250.5
818.574	22323.5
818.827	22690.5
819.079	23032.5
819.332	23473.5
819.585	23681.5
819.838	24065.5
820.09	24162.5
820.343	24451.5
820.595	24544.5
820.848	24711.5
821.1	24650.5
821.353	24800.5
821.605	24676.5
821.857	24638.5
822.11	24583.5
822.362	24520.5
822.614	24495.5
822.866	24544.5
823.118	24496.5
823.37	24675.5
823.622	24717.5
823.874	24775.5
824.126	24878.5
824.378	24846.5
824.63	25024.5
824.882	24951.5
825.134	25033.5
825.385	25078.5
825.637	24923.5
825.888	24853.5
826.14	24830.5
826.392	24646.5
826.643	24428.5
826.895	24427.5
827.146	24408.5
827.397	24306.5
827.649	24288.5
827.9	24243.5
828.151	24201.5
828.402	24404.5
828.653	24355.5
828.905	24506.5
829.156	24376.5
829.407	24530.5
829.658	24454.5
829.909	24444.5
830.159	24329.5
830.41	24245.5
830.661	24151.5
830.912	23852.5
831.162	23786.5
831.413	23832.5
831.664	23786.5
831.914	23838.5
832.165	23743.5
832.415	23860.5
832.666	23796.5
832.916	23878.5
833.167	23761.5
833.417	23700.5
833.667	23643.5
833.917	23617.5
834.168	23608.5
834.418	23440.5
834.668	23393.5
834.918	23203.5
835.168	23199.5
835.418	23136.5
835.668	22966.5
835.918	23117.5
836.167	23038.5
836.417	22755.5
836.667	22812.5
836.917	22892.5
837.166	22642.5
837.416	22679.5
837.666	22729.5
837.915	22694.5
838.165	22554.5
838.414	22453.5
838.663	22348.5
838.913	22324.5
839.162	22394.5
839.411	22340.5
839.661	22192.5
839.91	22181.5
840.159	22133.5
840.408	21958.5
840.657	22160.5
840.906	22028.5
841.155	22128.5
841.404	22127.5
841.653	22154.5
841.902	22221.5
842.15	22010.5
842.399	22014.5
842.648	22010.5
842.897	21985.5
843.145	21739.5
843.394	21658.5
843.642	21507.5
843.891	21499.5
844.139	21410.5
844.388	21259.5
844.636	21056.5
844.884	21154.5
845.133	21095.5
845.381	21034.5
845.629	21151.5
845.877	21053.5
846.125	20862.5
846.373	20953.5
846.621	20838.5
846.869	20797.5
847.117	20777.5
847.365	20532.5
847.613	20542.5
847.861	20467.5
848.108	20515.5
848.356	20258.5
848.604	20314.5
848.851	20320.5
849.099	20321.5
849.346	20471.5
849.594	20439.5
849.841	20502.5
850.089	20604.5
850.336	20517.5
850.583	20536.5
850.831	20390.5
851.078	20467.5
851.325	20278.5
851.572	20211.5
851.819	19894.5
852.066	19615.5
852.313	19499.5
852.56	19371.5
852.807	19285.5
853.054	19140.5
853.301	19128.5
853.548	19183.5
853.794	19307.5
854.041	19363.5
854.288	19267.5
854.534	19465.5
854.781	19499.5
855.028	19440.5
855.274	19395.5
855.52	19237.5
855.767	18992.5
856.013	19089.5
856.26	19288.5
856.506	18733.5
856.752	18881.5
856.998	18844.5
857.244	18791.5
857.49	18752.5
857.736	18937.5
857.982	18976.5
858.228	18934.5
858.474	18795.5
858.72	18711.5
858.966	18585.5
859.212	18392.5
859.458	18206.5
859.703	17998.5
859.949	17815.5
860.195	17806.5
860.44	17542.5
860.686	17488.5
860.931	17475.5
861.177	17284.5
861.422	17334.5
861.667	17336.5
861.913	17344.5
862.158	17405.5
862.403	17468.5
862.648	17486.5
862.893	17549.5
863.138	17387.5
863.384	17399.5
863.629	17391.5
863.873	17420.5
864.118	17288.5
864.363	17158.5
864.608	17154.5
864.853	17114.5
865.098	16944.5
865.342	16857.5
865.587	16835.5
865.832	16810.5
866.076	16775.5
866.321	16670.5
866.565	16647.5
866.81	16495.5
867.054	16550.5
867.298	16389.5
867.543	16430.5
867.787	16436.5
868.031	16351.5
868.275	16287.5
868.519	16324.5
868.764	16253.5
869.008	16201.5
869.252	16136.5
869.496	16183.5
869.739	16022.5
869.983	15974.5
870.227	15896.5
870.471	15759.5
870.715	16001.5
870.958	15963.5
871.202	16016.5
871.446	15928.5
871.689	15973.5
871.933	16024.5
872.176	15999.5
872.42	15866.5
872.663	15932.5
872.906	15879.5
873.15	15630.5
873.393	15501.5
873.636	15522.5
873.879	15473.5
874.122	15283.5
874.366	15134.5
874.609	15027.5
874.852	14962.5
875.095	14879.5
875.337	14788.5
875.58	14703.5
875.823	14652.5
876.066	14589.5
876.309	14707.5
876.551	14504.5
876.794	14459.5
877.037	14463.5
877.279	14356.5
877.522	14471.5
877.764	14505.5
878.007	14383.5
878.249	14480.5
878.491	14318.5
878.734	14371.5
878.976	14332.5
879.218	14274.5
879.46	14122.5
879.702	14061.5
879.945	13952.5
880.187	13818.5
880.429	13769.5
880.671	13698.5
880.912	13687.5
881.154	13596.5
881.396	13445.5
881.638	13428.5
881.88	13603.5
882.121	13574.5
882.363	13452.5
882.605	13454.5
882.846	13413.5
883.088	13278.5
883.329	13332.5
883.571	13207.5
883.812	13135.5
884.053	13242.5
884.295	13266.5
884.536	13475.5
884.777	13249.5
885.018	13325.5
885.259	13245.5
885.5	13184.5
885.742	13400.5
885.982	13223.5
886.223	13133.5
886.464	13019.5
886.705	12904.5
886.946	12956.5
887.187	12749.5
887.428	12711.5
887.668	12594.5
887.909	12429.5
888.15	12377.5
888.39	12299.5
888.631	12319.5
888.871	12228.5
889.111	12085.5
889.352	12093.5
889.592	11922.5
889.833	11845.5
890.073	11781.5
890.313	11742.5
890.553	11584.5
890.793	11567.5
891.033	11510.5
891.273	11489.5
891.513	11382.5
891.753	11484.5
891.993	11414.5
892.233	11412.5
892.473	11471.5
892.713	11480.5
892.952	11378.5
893.192	11476.5
893.432	11341.5
893.671	11371.5
893.911	11324.5
894.15	11277.5
894.39	11116.5
894.629	11161.5
894.869	11092.5
895.108	10998.5
895.347	10791.5
895.587	10898.5
895.826	10868.5
896.065	10761.5
896.304	10771.5
896.543	10743.5
896.782	10651.5
897.021	10697.5
897.26	10599.5
897.499	10608.5
897.738	10641.5
897.977	10505.5
898.216	10398.5
898.454	10298.5
898.693	10228.5
898.932	10262.5
899.17	10137.5
899.409	10139.5
899.647	10075.5
899.886	10027.5
900.124	10085.5
900.363	10034.5
900.601	10009.5
900.839	10021.5
901.078	10023.5
901.316	10099.5
901.554	10082.5
901.792	10095.5
902.03	10035.5
902.268	10003.5
902.506	10028.5
902.744	9950.5
902.982	9920.5
903.22	9712.5
903.458	9710.5
903.695	9611.5
903.933	9466.5
904.171	9343.5
904.409	9271.5
904.646	9237.5
904.884	9051.5
905.121	9041.5
905.359	8900.5
905.596	8909.5
905.833	8779.5
906.071	8763.5
906.308	8749.5
906.545	8658.5
906.783	8676.5
907.02	8712.5
907.257	8647.5
907.494	8559.5
907.731	8611.5
907.968	8594.5
908.205	8517.5
908.442	8451.5
908.679	8428.5
908.915	8377.5
909.152	8244.5
909.389	8199.5
909.626	8172.5
909.862	8078.5
910.099	8094.5
910.335	8039.5
910.572	7908.5
910.808	8032.5
911.045	7956.5
911.281	7991.5
911.518	7980.5
911.754	7836.5
911.99	7791.5
912.226	7720.5
912.463	7628.5
912.699	7594.5
912.935	7538.5
913.171	7478.5
913.407	7412.5
913.643	7433.5
913.879	7328.5
914.114	7337.5
914.35	7180.5
914.586	7139.5
914.822	7063.5
915.057	7060.5
915.293	6928.5
915.529	6955.5
915.764	6990.5
916	6946.5
916.235	6900.5
916.471	6893.5
916.706	6808.5
916.941	6823.5
917.177	6797.5
917.412	6812.5
917.647	6821.5
917.882	6730.5
918.117	6791.5
918.352	6778.5
918.588	6838.5
918.823	6655.5
919.057	6627.5
919.292	6493.5
919.527	6561.5
919.762	6445.5
919.997	6432.5
920.232	6327.5
920.466	6284.5
920.701	6150.5
920.935	6212.5
921.17	6144.5
921.405	6100.5
921.639	6148.5
921.873	6064.5
922.108	6087.5
922.342	6053.5
922.576	5967.5
922.811	5992.5
923.045	6014.5
923.279	5921.5
923.513	5803.5
923.747	5934.5
923.981	5839.5
924.215	5743.5
924.449	5766.5
924.683	5726.5
924.917	5620.5
925.151	5659.5
925.385	5656.5
925.618	5557.5
925.852	5552.5
926.086	5473.5
926.319	5590.5
926.553	5568.5
926.786	5606.5
927.02	5491.5
927.253	5599.5
927.486	5534.5
927.72	5505.5
927.953	5541.5
928.186	5481.5
928.42	5495.5
928.653	5363.5
928.886	5370.5
929.119	5471.5
929.352	5359.5
929.585	5309.5
929.818	5232.5
930.051	5279.5
930.284	5234.5
930.516	5052.5
930.749	5127.5
930.982	5068.5
931.215	5060.5
931.447	4995.5
931.68	5041.5
931.912	5007.5
932.145	4918.5
932.377	4973.5
932.61	5175.5
932.842	4897.5
933.074	5052.5
933.307	4922.5
933.539	5002.5
933.771	5004.5
934.003	4943.5
934.236	5043.5
934.468	5063.5
934.7	4960.5
934.932	4987.5
935.164	4824.5
935.395	4849.5
935.627	4879.5
935.859	4883.5
936.091	4785.5
936.323	4874.5
936.554	4820.5
936.786	4844.5
937.017	4731.5
937.249	4769.5
937.481	4656.5
937.712	4724.5
937.943	4668.5
938.175	4674.5
938.406	4708.5
938.637	4781.5
938.869	4580.5
939.1	4694.5
939.331	4659.5
939.562	4640.5
939.793	4656.5
940.024	4646.5
940.255	4623.5
940.486	4587.5
940.717	4558.5
940.948	4533.5
941.179	4508.5
941.409	4491.5
941.64	4434.5
941.871	4531.5
942.102	4473.5
942.332	4480.5
942.563	4528.5
942.793	4492.5
943.024	4431.5
943.254	4437.5
943.484	4508.5
943.715	4475.5
943.945	4455.5
944.175	4415.5
944.405	4338.5
944.636	4380.5
944.866	4429.5
945.096	4384.5
945.326	4312.5
945.556	4369.5
945.786	4393.5
946.016	4295.5
946.245	4241.5
946.475	4241.5
946.705	4195.5
946.935	4171.5
947.164	4193.5
947.394	4120.5
947.624	4194.5
947.853	4182.5
948.083	4138.5
948.312	4146.5
948.542	4063.5
948.771	4016.5
949	4007.5
949.23	4013.5
949.459	4041.5
949.688	4076.5
949.917	4074.5
950.146	4054.5
950.375	4067.5
950.604	3985.5
950.833	4090.5
951.062	4036.5
951.291	4022.5
951.52	3986.5
951.749	4012.5
951.978	3953.5
952.206	3916.5
952.435	3884.5
952.664	3933.5
952.892	3918.5
953.121	3906.5
953.349	3944.5
953.578	3911.5
953.806	3825.5
954.035	3782.5
954.263	3819.5
954.491	3753.5
954.719	3816.5
954.948	3747.5
955.176	3737.5
955.404	3709.5
955.632	3743.5
955.86	3703.5
956.088	3723.5
956.316	3699.5
956.544	3716.5
956.772	3625.5
956.999	3627.5
957.227	3724.5
957.455	3543.5
957.683	3575.5
957.91	3538.5
958.138	3527.5
958.365	3492.5
958.593	3498.5
958.82	3491.5
959.048	3471.5
959.275	3474.5
959.502	3440.5
959.73	3426.5
959.957	3459.5
960.184	3449.5
960.411	3419.5
960.638	3498.5
960.865	3394.5
961.092	3454.5
961.319	3335.5
961.546	3480.5
961.773	3428.5
962	3380.5
962.227	3430.5
962.454	3372.5
962.68	3341.5
962.907	3356.5
963.134	3311.5
963.36	3322.5
963.587	3348.5
963.813	3221.5
964.04	3260.5
964.266	3208.5
964.493	3272.5
964.719	3276.5
964.945	3226.5
965.171	3133.5
965.398	3166.5
965.624	3183.5
965.85	3104.5
966.076	3120.5
966.302	3186.5
966.528	3110.5
966.754	3114.5
966.98	3124.5
967.206	3106.5
967.431	3038.5
967.657	3061.5
967.883	3093.5
968.109	3052.5
968.334	3004.5
968.56	2975.5
968.785	3031.5
969.011	2973.5
969.236	2996.5
969.462	2939.5
969.687	2960.5
969.912	3007.5
970.138	3004.5
970.363	2932.5
970.588	2949.5
970.813	2945.5
971.038	2874.5
971.263	2888.5
971.488	2866.5
971.713	2911.5
971.938	2869.5
972.163	2803.5
972.388	2795.5
972.613	2819.5
972.838	2821.5
973.062	2790.5
973.287	2790.5
973.512	2688.5
973.736	2763.5
973.961	2741.5
974.185	2715.5
974.41	2750.5
974.634	2626.5
974.858	2660.5
975.083	2690.5
975.307	2692.5
975.531	2619.5
975.755	2602.5
975.98	2596.5
976.204	2529.5
976.428	2509.5
976.652	2531.5
976.876	2486.5
977.1	2549.5
977.324	2475.5
977.547	2537.5
977.771	2545.5
977.995	2492.5
978.219	2438.5
978.442	2546.5
978.666	2486.5
978.89	2458.5
979.113	2467.5
979.337	2432.5
979.56	2410.5
979.783	2510.5
980.007	2391.5
980.23	2406.5
980.453	2381.5
980.677	2413.5
980.9	2404.5
981.123	2280.5
981.346	2385.5
981.569	2366.5
981.792	2387.5
982.015	2311.5
982.238	2293.5
982.461	2332.5
982.684	2267.5
982.907	2251.5
983.129	2248.5
983.352	2272.5
983.575	2254.5
983.797	2261.5
984.02	2172.5
984.242	2224.5
984.465	2228.5
984.687	2235.5
984.91	2241.5
985.132	2239.5
985.354	2198.5
985.577	2186.5
985.799	2134.5
986.021	2101.5
986.243	2072.5
986.465	2114.5
986.687	2166.5
986.909	2218.5
987.131	2130.5
987.353	2111.5
987.575	2158.5
987.797	2081.5
988.019	2024.5
988.241	2092.5
988.462	2053.5
988.684	2119.5
988.906	2131.5
989.127	2105.5
989.349	2006.5
989.57	2055.5
989.792	2083.5
990.013	2085.5
990.234	2081.5
990.456	2125.5
990.677	2081.5
990.898	2005.5
991.119	2014.5
991.341	2031.5
991.562	1974.5
991.783	2005.5
992.004	1936.5
992.225	1933.5
992.446	1974.5
992.667	1885.5
992.887	1935.5
993.108	1857.5
993.329	1970.5
993.55	1907.5
993.77	1817.5
993.991	1857.5
994.212	1868.5
994.432	1855.5
994.653	1897.5
994.873	1884.5
995.093	1762.5
995.314	1803.5
995.534	1852.5
995.754	1871.5
995.975	1869.5
996.195	1742.5
996.415	1859.5
996.635	1805.5
996.855	1803.5
997.075	1748.5
997.295	1797.5
997.515	1742.5
997.735	1801.5
997.955	1783.5
998.174	1733.5
998.394	1706.5
998.614	1773.5
998.834	1713.5
999.053	1769.5
999.273	1756.5
999.492	1835.5
999.712	1744.5
999.931	1729.5
1000.151	1751.5
1000.37	1724.5
1000.589	1785.5
1000.809	1704.5
1001.028	1789.5
1001.247	1741.5
1001.466	1638.5
1001.685	1784.5
1001.904	1712.5
1002.123	1674.5
1002.342	1695.5
1002.561	1655.5
1002.78	1693.5
1002.999	1753.5
1003.218	1655.5
1003.436	1634.5
1003.655	1700.5
1003.874	1629.5
1004.092	1636.5
1004.311	1678.5
1004.53	1640.5
1004.748	1700.5
1004.966	1632.5
1005.185	1679.5
1005.403	1682.5
1005.622	1638.5
1005.84	1685.5
1006.058	1587.5
1006.276	1625.5
1006.494	2100.5
1006.712	1639.5
1006.931	1699.5
1007.149	1571.5
1007.367	1592.5
1007.584	1640.5
1007.802	1654.5
1008.02	1600.5
1008.238	1654.5
1008.456	1649.5
1008.673	1506.5
1008.891	1610.5
1009.109	1540.5
1009.326	1603.5
1009.544	1656.5
1009.761	1561.5
1009.979	1621.5
1010.196	1620.5
1010.413	1697.5
1010.631	1724.5
1010.848	1734.5
1011.065	1709.5
1011.282	1676.5
1011.5	1601.5
1011.717	1732.5
1011.934	1653.5
1012.151	1685.5
1012.368	1621.5
1012.585	1587.5
1012.801	1674.5
1013.018	1613.5
1013.235	1551.5
1013.452	1606.5
1013.669	1583.5
1013.885	1537.5
1014.102	1611.5
1014.318	1563.5
1014.535	1542.5
1014.751	1558.5
1014.968	1548.5
1015.184	1591.5
1015.401	1506.5
1015.617	1538.5
1015.833	1490.5
1016.049	1493.5
1016.266	1474.5
1016.482	1489.5
1016.698	1406.5
1016.914	1460.5
1017.13	1410.5
1017.346	1420.5
1017.562	1475.5
1017.778	1407.5
1017.993	1358.5
1018.209	1421.5
1018.425	1412.5
1018.641	1387.5
1018.856	1354.5
1019.072	1392.5
1019.288	1396.5
1019.503	1371.5
1019.719	1306.5
1019.934	1293.5
1020.149	1404.5
1020.365	1331.5
1020.58	1294.5
1020.795	1314.5
1021.011	1284.5
1021.226	1257.5
1021.441	1280.5
1021.656	1225.5
1021.871	1143.5
1022.086	1158.5
1022.301	1161.5
1022.516	1168.5
1022.731	1197.5
1022.946	1120.5
1023.16	1101.5
1023.375	1076.5
1023.59	1069.5
1023.804	1047.5
1024.019	1150.5
1024.234	1006.5
1024.448	1054.5
1024.663	973.5
1024.877	1011.5
1025.092	995.5
1025.306	1020.5
1025.52	921.5
1025.734	1020.5
1025.949	926.5
1026.163	915.5
1026.377	839.5
1026.591	902.5
1026.805	826.5
1027.019	820.5
1027.233	802.5
1027.447	730.5
1027.661	832.5
1027.875	788.5
1028.088	765.5
1028.302	717.5
1028.516	697.5
1028.73	704.5
1028.943	696.5
1029.157	651.5
1029.37	622.5
1029.584	0.5
1029.797	-1.5
1030.011	-1.5
1030.224	-2.5
