Data from QEP037381__173__14-01-19-162.txt Node

Date: Wed Dec 21 14:01:19 EST 2022
User: dcclab
Spectrometer: QEP03738
Trigger mode: 4
Integration Time (sec): 1.000000E1
Scans to average: 1
Electric dark correction enabled: true
Nonlinearity correction enabled: false
Boxcar width: 0
XAxis mode: Wavelengths
Number of Pixels in Spectrum: 1044
>>>>>Begin Spectral Data<<<<<
784.041	15.75
784.3	1.75
784.558	-1.25
784.817	-5.25
785.075	107703.75
785.334	18179.75
785.592	8222.75
785.851	5646.75
786.109	4263.75
786.368	3287.75
786.626	2658.75
786.884	2189.75
787.143	1845.75
787.401	1554.75
787.659	1376.75
787.917	1181.75
788.175	1074.75
788.433	968.75
788.691	885.75
788.949	804.75
789.207	762.75
789.465	677.75
789.723	660.75
789.98	585.75
790.238	641.75
790.496	589.75
790.753	567.75
791.011	622.75
791.268	547.75
791.526	547.75
791.783	545.75
792.041	518.75
792.298	446.75
792.556	519.75
792.813	494.75
793.07	471.75
793.327	446.75
793.584	539.75
793.841	456.75
794.099	476.75
794.356	532.75
794.613	441.75
794.869	476.75
795.126	445.75
795.383	413.75
795.64	446.75
795.897	404.75
796.153	450.75
796.41	445.75
796.667	420.75
796.923	419.75
797.18	446.75
797.436	474.75
797.693	437.75
797.949	471.75
798.206	499.75
798.462	426.75
798.718	479.75
798.974	462.75
799.231	497.75
799.487	497.75
799.743	504.75
799.999	528.75
800.255	520.75
800.511	507.75
800.767	571.75
801.023	554.75
801.279	588.75
801.534	646.75
801.79	691.75
802.046	729.75
802.302	866.75
802.557	957.75
802.813	1227.75
803.068	1491.75
803.324	2098.75
803.579	2873.75
803.835	4000.75
804.09	5605.75
804.345	7464.75
804.601	9485.75
804.856	11682.75
805.111	13500.75
805.366	14931.75
805.621	15915.75
805.876	16575.75
806.131	17006.75
806.386	17428.75
806.641	17654.75
806.896	17984.75
807.151	18444.75
807.406	18638.75
807.661	19022.75
807.915	19484.75
808.17	19711.75
808.425	19999.75
808.679	20079.75
808.934	20350.75
809.188	20546.75
809.443	20767.75
809.697	20999.75
809.951	21211.75
810.206	21374.75
810.46	21710.75
810.714	21761.75
810.968	22126.75
811.223	22242.75
811.477	22547.75
811.731	22666.75
811.985	22714.75
812.239	22849.75
812.493	22977.75
812.747	23063.75
813	23153.75
813.254	23252.75
813.508	23365.75
813.762	23414.75
814.015	23570.75
814.269	23767.75
814.522	24007.75
814.776	24267.75
815.03	24598.75
815.283	24993.75
815.536	25569.75
815.79	25763.75
816.043	26323.75
816.296	26639.75
816.55	26987.75
816.803	27299.75
817.056	27592.75
817.309	27973.75
817.562	28110.75
817.815	28583.75
818.068	28635.75
818.321	29185.75
818.574	29367.75
818.827	29873.75
819.079	30140.75
819.332	30745.75
819.585	31035.75
819.838	31607.75
820.09	31730.75
820.343	32073.75
820.595	32141.75
820.848	32407.75
821.1	32508.75
821.353	32654.75
821.605	32419.75
821.857	32546.75
822.11	32306.75
822.362	32421.75
822.614	32367.75
822.866	32290.75
823.118	32265.75
823.37	32385.75
823.622	32371.75
823.874	32476.75
824.126	32485.75
824.378	32700.75
824.63	32721.75
824.882	32856.75
825.134	32975.75
825.385	32801.75
825.637	32802.75
825.888	32679.75
826.14	32587.75
826.392	32514.75
826.643	32190.75
826.895	32098.75
827.146	32162.75
827.397	31919.75
827.649	32031.75
827.9	31956.75
828.151	31961.75
828.402	32040.75
828.653	32251.75
828.905	32233.75
829.156	32289.75
829.407	32206.75
829.658	32179.75
829.909	32107.75
830.159	32052.75
830.41	31912.75
830.661	31726.75
830.912	31396.75
831.162	31486.75
831.413	31373.75
831.664	31359.75
831.914	31374.75
832.165	31402.75
832.415	31375.75
832.666	31260.75
832.916	31413.75
833.167	31256.75
833.417	31135.75
833.667	31178.75
833.917	30982.75
834.168	30923.75
834.418	30809.75
834.668	30725.75
834.918	30584.75
835.168	30388.75
835.418	30360.75
835.668	30306.75
835.918	30379.75
836.167	30254.75
836.417	30138.75
836.667	30204.75
836.917	30118.75
837.166	29845.75
837.416	29979.75
837.666	29971.75
837.915	29811.75
838.165	29763.75
838.414	29563.75
838.663	29493.75
838.913	29559.75
839.162	29241.75
839.411	29363.75
839.661	29254.75
839.91	29298.75
840.159	28999.75
840.408	28946.75
840.657	29050.75
840.906	29134.75
841.155	29072.75
841.404	29035.75
841.653	28989.75
841.902	29139.75
842.15	29138.75
842.399	28975.75
842.648	28922.75
842.897	28856.75
843.145	28755.75
843.394	28439.75
843.642	28369.75
843.891	28320.75
844.139	28159.75
844.388	27934.75
844.636	27776.75
844.884	27884.75
845.133	27693.75
845.381	27772.75
845.629	27625.75
845.877	27709.75
846.125	27585.75
846.373	27561.75
846.621	27334.75
846.869	27385.75
847.117	27247.75
847.365	27135.75
847.613	26969.75
847.861	26948.75
848.108	26873.75
848.356	26733.75
848.604	26601.75
848.851	26654.75
849.099	26734.75
849.346	26831.75
849.594	26952.75
849.841	26989.75
850.089	27039.75
850.336	27033.75
850.583	27192.75
850.831	27012.75
851.078	26734.75
851.325	26661.75
851.572	26401.75
851.819	26298.75
852.066	25803.75
852.313	25718.75
852.56	25397.75
852.807	25355.75
853.054	25224.75
853.301	25148.75
853.548	25107.75
853.794	25206.75
854.041	25335.75
854.288	25370.75
854.534	25723.75
854.781	25633.75
855.028	25617.75
855.274	25590.75
855.52	25131.75
855.767	25128.75
856.013	24961.75
856.26	25166.75
856.506	24657.75
856.752	24693.75
856.998	24797.75
857.244	24888.75
857.49	24856.75
857.736	24839.75
857.982	24884.75
858.228	24895.75
858.474	24659.75
858.72	24535.75
858.966	24287.75
859.212	24151.75
859.458	23898.75
859.703	23718.75
859.949	23417.75
860.195	23341.75
860.44	23170.75
860.686	22895.75
860.931	22834.75
861.177	22722.75
861.422	22723.75
861.667	22722.75
861.913	22783.75
862.158	22897.75
862.403	22916.75
862.648	22911.75
862.893	22962.75
863.138	22963.75
863.384	22886.75
863.629	22874.75
863.873	22848.75
864.118	22665.75
864.363	22625.75
864.608	22459.75
864.853	22502.75
865.098	22357.75
865.342	22199.75
865.587	22137.75
865.832	22151.75
866.076	21953.75
866.321	22022.75
866.565	21811.75
866.81	21717.75
867.054	21766.75
867.298	21583.75
867.543	21515.75
867.787	21512.75
868.031	21465.75
868.275	21418.75
868.519	21357.75
868.764	21346.75
869.008	21169.75
869.252	21183.75
869.496	20985.75
869.739	20922.75
869.983	21004.75
870.227	20947.75
870.471	20844.75
870.715	20961.75
870.958	20942.75
871.202	20854.75
871.446	20943.75
871.689	20990.75
871.933	20937.75
872.176	20974.75
872.42	20935.75
872.663	20759.75
872.906	20683.75
873.15	20431.75
873.393	20347.75
873.636	20360.75
873.879	20202.75
874.122	20001.75
874.366	19798.75
874.609	19585.75
874.852	19550.75
875.095	19602.75
875.337	19361.75
875.58	19343.75
875.823	19232.75
876.066	19204.75
876.309	19049.75
876.551	18959.75
876.794	18897.75
877.037	18976.75
877.279	18909.75
877.522	18904.75
877.764	18920.75
878.007	18933.75
878.249	18913.75
878.491	18882.75
878.734	18818.75
878.976	18806.75
879.218	18634.75
879.46	18543.75
879.702	18467.75
879.945	18316.75
880.187	18227.75
880.429	18107.75
880.671	17969.75
880.912	17918.75
881.154	17839.75
881.396	17732.75
881.638	17783.75
881.88	17731.75
882.121	17626.75
882.363	17646.75
882.605	17657.75
882.846	17592.75
883.088	17462.75
883.329	17320.75
883.571	17387.75
883.812	17224.75
884.053	17377.75
884.295	17403.75
884.536	17444.75
884.777	17441.75
885.018	17332.75
885.259	17278.75
885.5	17270.75
885.742	17433.75
885.982	17222.75
886.223	17114.75
886.464	16998.75
886.705	16929.75
886.946	16958.75
887.187	16707.75
887.428	16707.75
887.668	16567.75
887.909	16365.75
888.15	16144.75
888.39	16159.75
888.631	16155.75
888.871	16086.75
889.111	15835.75
889.352	15806.75
889.592	15609.75
889.833	15563.75
890.073	15484.75
890.313	15405.75
890.553	15177.75
890.793	15145.75
891.033	15033.75
891.273	14958.75
891.513	14953.75
891.753	14889.75
891.993	14826.75
892.233	14939.75
892.473	14945.75
892.713	15031.75
892.952	14831.75
893.192	14937.75
893.432	14979.75
893.671	14912.75
893.911	14847.75
894.15	14669.75
894.39	14617.75
894.629	14555.75
894.869	14416.75
895.108	14322.75
895.347	14173.75
895.587	14105.75
895.826	14114.75
896.065	14113.75
896.304	14061.75
896.543	14040.75
896.782	13845.75
897.021	13864.75
897.26	13913.75
897.499	13821.75
897.738	13817.75
897.977	13679.75
898.216	13588.75
898.454	13333.75
898.693	13359.75
898.932	13310.75
899.17	13230.75
899.409	13171.75
899.647	13120.75
899.886	13179.75
900.124	13159.75
900.363	13023.75
900.601	13120.75
900.839	13053.75
901.078	13040.75
901.316	13042.75
901.554	13064.75
901.792	13165.75
902.03	13025.75
902.268	13032.75
902.506	13048.75
902.744	12890.75
902.982	12918.75
903.22	12649.75
903.458	12557.75
903.695	12507.75
903.933	12397.75
904.171	12181.75
904.409	12053.75
904.646	11977.75
904.884	11774.75
905.121	11726.75
905.359	11644.75
905.596	11490.75
905.833	11426.75
906.071	11272.75
906.308	11373.75
906.545	11344.75
906.783	11259.75
907.02	11293.75
907.257	11135.75
907.494	11217.75
907.731	11224.75
907.968	11124.75
908.205	11021.75
908.442	10970.75
908.679	10910.75
908.915	10820.75
909.152	10800.75
909.389	10678.75
909.626	10568.75
909.862	10357.75
910.099	10425.75
910.335	10489.75
910.572	10332.75
910.808	10403.75
911.045	10258.75
911.281	10262.75
911.518	10275.75
911.754	10146.75
911.99	10128.75
912.226	10070.75
912.463	9923.75
912.699	9909.75
912.935	9879.75
913.171	9762.75
913.407	9678.75
913.643	9648.75
913.879	9506.75
914.114	9445.75
914.35	9365.75
914.586	9245.75
914.822	9233.75
915.057	9185.75
915.293	9049.75
915.529	8986.75
915.764	9040.75
916	8985.75
916.235	8975.75
916.471	8906.75
916.706	8841.75
916.941	8923.75
917.177	8833.75
917.412	8891.75
917.647	8867.75
917.882	8760.75
918.117	8809.75
918.352	8743.75
918.588	8840.75
918.823	8649.75
919.057	8525.75
919.292	8417.75
919.527	8484.75
919.762	8342.75
919.997	8274.75
920.232	8172.75
920.466	8111.75
920.701	8021.75
920.935	7957.75
921.17	7898.75
921.405	7843.75
921.639	7888.75
921.873	7812.75
922.108	7852.75
922.342	7814.75
922.576	7693.75
922.811	7723.75
923.045	7736.75
923.279	7737.75
923.513	7516.75
923.747	7613.75
923.981	7516.75
924.215	7452.75
924.449	7421.75
924.683	7322.75
924.917	7306.75
925.151	7298.75
925.385	7276.75
925.618	7282.75
925.852	7224.75
926.086	7173.75
926.319	7196.75
926.553	7146.75
926.786	7175.75
927.02	7214.75
927.253	7182.75
927.486	7109.75
927.72	7099.75
927.953	7111.75
928.186	7040.75
928.42	7053.75
928.653	6986.75
928.886	6963.75
929.119	6972.75
929.352	6931.75
929.585	6947.75
929.818	6779.75
930.051	6784.75
930.284	6697.75
930.516	6550.75
930.749	6493.75
930.982	6600.75
931.215	6593.75
931.447	6408.75
931.68	6460.75
931.912	6404.75
932.145	6446.75
932.377	6424.75
932.61	6553.75
932.842	6384.75
933.074	6400.75
933.307	6371.75
933.539	6464.75
933.771	6448.75
934.003	6386.75
934.236	6437.75
934.468	6446.75
934.7	6359.75
934.932	6390.75
935.164	6340.75
935.395	6294.75
935.627	6289.75
935.859	6249.75
936.091	6159.75
936.323	6255.75
936.554	6179.75
936.786	6128.75
937.017	6068.75
937.249	6164.75
937.481	6016.75
937.712	6146.75
937.943	6074.75
938.175	6010.75
938.406	6061.75
938.637	6080.75
938.869	5979.75
939.1	6022.75
939.331	5961.75
939.562	5968.75
939.793	5960.75
940.024	5946.75
940.255	5948.75
940.486	5816.75
940.717	5880.75
940.948	5800.75
941.179	5761.75
941.409	5815.75
941.64	5730.75
941.871	5741.75
942.102	5706.75
942.332	5762.75
942.563	5807.75
942.793	5781.75
943.024	5690.75
943.254	5750.75
943.484	5746.75
943.715	5718.75
943.945	5635.75
944.175	5627.75
944.405	5669.75
944.636	5648.75
944.866	5667.75
945.096	5633.75
945.326	5537.75
945.556	5570.75
945.786	5582.75
946.016	5529.75
946.245	5426.75
946.475	5474.75
946.705	5424.75
946.935	5418.75
947.164	5372.75
947.394	5314.75
947.624	5302.75
947.853	5340.75
948.083	5255.75
948.312	5265.75
948.542	5193.75
948.771	5110.75
949	5189.75
949.23	5209.75
949.459	5180.75
949.688	5224.75
949.917	5180.75
950.146	5201.75
950.375	5223.75
950.604	5150.75
950.833	5181.75
951.062	5160.75
951.291	5145.75
951.52	5094.75
951.749	5109.75
951.978	5073.75
952.206	5039.75
952.435	4992.75
952.664	4991.75
952.892	5055.75
953.121	4938.75
953.349	4986.75
953.578	4995.75
953.806	4956.75
954.035	4854.75
954.263	4851.75
954.491	4792.75
954.719	4884.75
954.948	4799.75
955.176	4770.75
955.404	4686.75
955.632	4756.75
955.86	4745.75
956.088	4704.75
956.316	4718.75
956.544	4710.75
956.772	4629.75
956.999	4667.75
957.227	4671.75
957.455	4614.75
957.683	4560.75
957.91	4505.75
958.138	4510.75
958.365	4490.75
958.593	4433.75
958.82	4366.75
959.048	4446.75
959.275	4436.75
959.502	4381.75
959.73	4359.75
959.957	4350.75
960.184	4381.75
960.411	4326.75
960.638	4423.75
960.865	4374.75
961.092	4339.75
961.319	4269.75
961.546	4353.75
961.773	4406.75
962	4297.75
962.227	4344.75
962.454	4287.75
962.68	4251.75
962.907	4292.75
963.134	4207.75
963.36	4153.75
963.587	4184.75
963.813	4132.75
964.04	4153.75
964.266	4058.75
964.493	4176.75
964.719	4076.75
964.945	4069.75
965.171	3979.75
965.398	4010.75
965.624	4023.75
965.85	3942.75
966.076	3898.75
966.302	3936.75
966.528	3909.75
966.754	3907.75
966.98	3928.75
967.206	3880.75
967.431	3839.75
967.657	3920.75
967.883	3868.75
968.109	3848.75
968.334	3768.75
968.56	3737.75
968.785	3755.75
969.011	3733.75
969.236	3782.75
969.462	3737.75
969.687	3731.75
969.912	3776.75
970.138	3772.75
970.363	3701.75
970.588	3688.75
970.813	3667.75
971.038	3643.75
971.263	3679.75
971.488	3672.75
971.713	3629.75
971.938	3609.75
972.163	3491.75
972.388	3546.75
972.613	3531.75
972.838	3542.75
973.062	3489.75
973.287	3521.75
973.512	3440.75
973.736	3483.75
973.961	3445.75
974.185	3404.75
974.41	3412.75
974.634	3308.75
974.858	3307.75
975.083	3351.75
975.307	3344.75
975.531	3291.75
975.755	3189.75
975.98	3217.75
976.204	3165.75
976.428	3160.75
976.652	3160.75
976.876	3143.75
977.1	3191.75
977.324	3140.75
977.547	3145.75
977.771	3185.75
977.995	3125.75
978.219	3059.75
978.442	3201.75
978.666	3136.75
978.89	3070.75
979.113	3088.75
979.337	3078.75
979.56	3069.75
979.783	3132.75
980.007	3034.75
980.23	3029.75
980.453	2959.75
980.677	3035.75
980.9	2974.75
981.123	2875.75
981.346	2990.75
981.569	2960.75
981.792	2980.75
982.015	2914.75
982.238	2858.75
982.461	2872.75
982.684	2858.75
982.907	2791.75
983.129	2782.75
983.352	2810.75
983.575	2794.75
983.797	2793.75
984.02	2756.75
984.242	2734.75
984.465	2711.75
984.687	2785.75
984.91	2770.75
985.132	2720.75
985.354	2733.75
985.577	2717.75
985.799	2687.75
986.021	2630.75
986.243	2638.75
986.465	2637.75
986.687	2650.75
986.909	2715.75
987.131	2632.75
987.353	2581.75
987.575	2630.75
987.797	2583.75
988.019	2497.75
988.241	2553.75
988.462	2503.75
988.684	2613.75
988.906	2600.75
989.127	2601.75
989.349	2486.75
989.57	2523.75
989.792	2514.75
990.013	2557.75
990.234	2562.75
990.456	2574.75
990.677	2566.75
990.898	2469.75
991.119	2457.75
991.341	2473.75
991.562	2410.75
991.783	2430.75
992.004	2388.75
992.225	2325.75
992.446	2410.75
992.667	2332.75
992.887	2400.75
993.108	2333.75
993.329	2402.75
993.55	2355.75
993.77	2283.75
993.991	2311.75
994.212	2288.75
994.432	2282.75
994.653	2301.75
994.873	2244.75
995.093	2137.75
995.314	2213.75
995.534	2265.75
995.754	2250.75
995.975	2284.75
996.195	2144.75
996.415	2202.75
996.635	2198.75
996.855	2165.75
997.075	2136.75
997.295	2163.75
997.515	2119.75
997.735	2199.75
997.955	2135.75
998.174	2133.75
998.394	2080.75
998.614	2121.75
998.834	2093.75
999.053	2151.75
999.273	2093.75
999.492	2193.75
999.712	2099.75
999.931	2026.75
1000.151	2111.75
1000.37	2082.75
1000.589	2112.75
1000.809	2038.75
1001.028	2113.75
1001.247	2067.75
1001.466	1970.75
1001.685	2118.75
1001.904	2024.75
1002.123	2018.75
1002.342	2020.75
1002.561	1961.75
1002.78	1994.75
1002.999	2049.75
1003.218	1959.75
1003.436	1945.75
1003.655	2016.75
1003.874	1918.75
1004.092	1946.75
1004.311	1963.75
1004.53	1918.75
1004.748	1982.75
1004.966	1930.75
1005.185	1952.75
1005.403	1961.75
1005.622	1929.75
1005.84	1998.75
1006.058	1917.75
1006.276	1920.75
1006.494	2384.75
1006.712	1876.75
1006.931	1960.75
1007.149	1867.75
1007.367	1880.75
1007.584	1883.75
1007.802	1906.75
1008.02	1845.75
1008.238	1936.75
1008.456	1917.75
1008.673	1779.75
1008.891	1905.75
1009.109	1832.75
1009.326	1863.75
1009.544	1917.75
1009.761	1805.75
1009.979	1906.75
1010.196	1865.75
1010.413	1953.75
1010.631	1968.75
1010.848	2041.75
1011.065	1984.75
1011.282	1958.75
1011.5	1889.75
1011.717	1972.75
1011.934	1926.75
1012.151	1931.75
1012.368	1930.75
1012.585	1890.75
1012.801	1916.75
1013.018	1887.75
1013.235	1843.75
1013.452	1876.75
1013.669	1853.75
1013.885	1846.75
1014.102	1866.75
1014.318	1810.75
1014.535	1765.75
1014.751	1814.75
1014.968	1846.75
1015.184	1832.75
1015.401	1773.75
1015.617	1796.75
1015.833	1736.75
1016.049	1721.75
1016.266	1694.75
1016.482	1730.75
1016.698	1639.75
1016.914	1710.75
1017.13	1644.75
1017.346	1609.75
1017.562	1719.75
1017.778	1645.75
1017.993	1632.75
1018.209	1674.75
1018.425	1606.75
1018.641	1609.75
1018.856	1567.75
1019.072	1607.75
1019.288	1650.75
1019.503	1594.75
1019.719	1523.75
1019.934	1524.75
1020.149	1607.75
1020.365	1533.75
1020.58	1532.75
1020.795	1544.75
1021.011	1504.75
1021.226	1476.75
1021.441	1506.75
1021.656	1432.75
1021.871	1357.75
1022.086	1369.75
1022.301	1354.75
1022.516	1323.75
1022.731	1387.75
1022.946	1303.75
1023.16	1283.75
1023.375	1243.75
1023.59	1247.75
1023.804	1195.75
1024.019	1293.75
1024.234	1185.75
1024.448	1214.75
1024.663	1137.75
1024.877	1165.75
1025.092	1175.75
1025.306	1178.75
1025.52	1045.75
1025.734	1172.75
1025.949	1075.75
1026.163	1035.75
1026.377	985.75
1026.591	1030.75
1026.805	947.75
1027.019	943.75
1027.233	902.75
1027.447	845.75
1027.661	947.75
1027.875	889.75
1028.088	890.75
1028.302	813.75
1028.516	814.75
1028.73	793.75
1028.943	762.75
1029.157	734.75
1029.37	690.75
1029.584	-2.25
1029.797	-3.25
1030.011	-0.25
1030.224	-5.25
