Data from QEP037381__163__13-59-39-162.txt Node

Date: Wed Dec 21 13:59:39 EST 2022
User: dcclab
Spectrometer: QEP03738
Trigger mode: 4
Integration Time (sec): 1.000000E1
Scans to average: 1
Electric dark correction enabled: true
Nonlinearity correction enabled: false
Boxcar width: 0
XAxis mode: Wavelengths
Number of Pixels in Spectrum: 1044
>>>>>Begin Spectral Data<<<<<
784.041	13.12
784.3	0.12
784.558	-2.88
784.817	-4.88
785.075	104132.12
785.334	17557.12
785.592	8134.12
785.851	5523.12
786.109	4213.12
786.368	3252.12
786.626	2613.12
786.884	2179.12
787.143	1802.12
787.401	1529.12
787.659	1363.12
787.917	1171.12
788.175	1091.12
788.433	938.12
788.691	853.12
788.949	775.12
789.207	764.12
789.465	656.12
789.723	648.12
789.98	586.12
790.238	622.12
790.496	602.12
790.753	544.12
791.011	602.12
791.268	537.12
791.526	537.12
791.783	548.12
792.041	534.12
792.298	460.12
792.556	525.12
792.813	493.12
793.07	486.12
793.327	460.12
793.584	536.12
793.841	440.12
794.099	474.12
794.356	542.12
794.613	439.12
794.869	485.12
795.126	433.12
795.383	421.12
795.64	441.12
795.897	398.12
796.153	473.12
796.41	448.12
796.667	417.12
796.923	432.12
797.18	452.12
797.436	477.12
797.693	417.12
797.949	499.12
798.206	502.12
798.462	413.12
798.718	502.12
798.974	468.12
799.231	484.12
799.487	492.12
799.743	498.12
799.999	527.12
800.255	526.12
800.511	517.12
800.767	559.12
801.023	566.12
801.279	604.12
801.534	622.12
801.79	678.12
802.046	708.12
802.302	865.12
802.557	1020.12
802.813	1227.12
803.068	1587.12
803.324	2152.12
803.579	2945.12
803.835	4108.12
804.09	5761.12
804.345	7583.12
804.601	9609.12
804.856	11710.12
805.111	13490.12
805.366	14892.12
805.621	15859.12
805.876	16520.12
806.131	17000.12
806.386	17387.12
806.641	17676.12
806.896	18057.12
807.151	18394.12
807.406	18689.12
807.661	18970.12
807.915	19402.12
808.17	19715.12
808.425	19863.12
808.679	20018.12
808.934	20358.12
809.188	20370.12
809.443	20743.12
809.697	20918.12
809.951	20995.12
810.206	21314.12
810.46	21523.12
810.714	21630.12
810.968	21881.12
811.223	22019.12
811.477	22205.12
811.731	22389.12
811.985	22456.12
812.239	22653.12
812.493	22779.12
812.747	22824.12
813	22895.12
813.254	23069.12
813.508	23187.12
813.762	23246.12
814.015	23350.12
814.269	23427.12
814.522	23752.12
814.776	24052.12
815.03	24477.12
815.283	24604.12
815.536	25208.12
815.79	25504.12
816.043	25893.12
816.296	26165.12
816.55	26508.12
816.803	26786.12
817.056	27272.12
817.309	27465.12
817.562	27702.12
817.815	27995.12
818.068	28124.12
818.321	28644.12
818.574	28820.12
818.827	29316.12
819.079	29717.12
819.332	30305.12
819.585	30603.12
819.838	30948.12
820.09	31055.12
820.343	31486.12
820.595	31671.12
820.848	31695.12
821.1	31955.12
821.353	31874.12
821.605	31875.12
821.857	31933.12
822.11	31687.12
822.362	31726.12
822.614	31625.12
822.866	31479.12
823.118	31539.12
823.37	31747.12
823.622	31650.12
823.874	31849.12
824.126	31956.12
824.378	31957.12
824.63	32025.12
824.882	32138.12
825.134	32223.12
825.385	32151.12
825.637	32200.12
825.888	31947.12
826.14	31802.12
826.392	31733.12
826.643	31546.12
826.895	31535.12
827.146	31441.12
827.397	31244.12
827.649	31389.12
827.9	31157.12
828.151	31309.12
828.402	31337.12
828.653	31402.12
828.905	31439.12
829.156	31478.12
829.407	31593.12
829.658	31413.12
829.909	31368.12
830.159	31331.12
830.41	31262.12
830.661	31168.12
830.912	30949.12
831.162	30802.12
831.413	30695.12
831.664	30754.12
831.914	30710.12
832.165	30637.12
832.415	30689.12
832.666	30571.12
832.916	30760.12
833.167	30595.12
833.417	30617.12
833.667	30461.12
833.917	30411.12
834.168	30317.12
834.418	30173.12
834.668	30076.12
834.918	29908.12
835.168	29908.12
835.418	29672.12
835.668	29685.12
835.918	29559.12
836.167	29579.12
836.417	29300.12
836.667	29435.12
836.917	29401.12
837.166	29270.12
837.416	29285.12
837.666	29235.12
837.915	29162.12
838.165	29099.12
838.414	28977.12
838.663	28824.12
838.913	28879.12
839.162	28711.12
839.411	28725.12
839.661	28496.12
839.91	28402.12
840.159	28486.12
840.408	28469.12
840.657	28293.12
840.906	28300.12
841.155	28428.12
841.404	28413.12
841.653	28391.12
841.902	28392.12
842.15	28540.12
842.399	28482.12
842.648	28443.12
842.897	28277.12
843.145	28127.12
843.394	27997.12
843.642	27865.12
843.891	27627.12
844.139	27436.12
844.388	27380.12
844.636	27255.12
844.884	27095.12
845.133	27143.12
845.381	27170.12
845.629	27170.12
845.877	27022.12
846.125	26911.12
846.373	26938.12
846.621	26797.12
846.869	26803.12
847.117	26601.12
847.365	26586.12
847.613	26428.12
847.861	26428.12
848.108	26241.12
848.356	26179.12
848.604	26034.12
848.851	26108.12
849.099	26080.12
849.346	26142.12
849.594	26300.12
849.841	26328.12
850.089	26477.12
850.336	26521.12
850.583	26441.12
850.831	26307.12
851.078	26185.12
851.325	26081.12
851.572	25981.12
851.819	25697.12
852.066	25243.12
852.313	24997.12
852.56	24851.12
852.807	24724.12
853.054	24539.12
853.301	24592.12
853.548	24641.12
853.794	24809.12
854.041	24713.12
854.288	24847.12
854.534	25044.12
854.781	25094.12
855.028	24811.12
855.274	24835.12
855.52	24474.12
855.767	24451.12
856.013	24368.12
856.26	24658.12
856.506	24128.12
856.752	24216.12
856.998	24215.12
857.244	24198.12
857.49	24246.12
857.736	24327.12
857.982	24218.12
858.228	24238.12
858.474	24107.12
858.72	24037.12
858.966	23870.12
859.212	23617.12
859.458	23339.12
859.703	23066.12
859.949	22881.12
860.195	22616.12
860.44	22575.12
860.686	22418.12
860.931	22306.12
861.177	22201.12
861.422	22303.12
861.667	22193.12
861.913	22102.12
862.158	22292.12
862.403	22429.12
862.648	22437.12
862.893	22510.12
863.138	22387.12
863.384	22429.12
863.629	22291.12
863.873	22270.12
864.118	22186.12
864.363	22079.12
864.608	21933.12
864.853	21862.12
865.098	21746.12
865.342	21621.12
865.587	21507.12
865.832	21585.12
866.076	21398.12
866.321	21378.12
866.565	21242.12
866.81	21152.12
867.054	21185.12
867.298	21153.12
867.543	21006.12
867.787	21023.12
868.031	20901.12
868.275	20905.12
868.519	20758.12
868.764	20715.12
869.008	20773.12
869.252	20722.12
869.496	20612.12
869.739	20455.12
869.983	20456.12
870.227	20498.12
870.471	20340.12
870.715	20385.12
870.958	20416.12
871.202	20423.12
871.446	20576.12
871.689	20420.12
871.933	20394.12
872.176	20387.12
872.42	20425.12
872.663	20233.12
872.906	20145.12
873.15	20059.12
873.393	19901.12
873.636	19822.12
873.879	19727.12
874.122	19492.12
874.366	19321.12
874.609	19239.12
874.852	19003.12
875.095	19054.12
875.337	18939.12
875.58	18801.12
875.823	18735.12
876.066	18777.12
876.309	18676.12
876.551	18447.12
876.794	18509.12
877.037	18579.12
877.279	18371.12
877.522	18502.12
877.764	18514.12
878.007	18426.12
878.249	18470.12
878.491	18342.12
878.734	18429.12
878.976	18372.12
879.218	18131.12
879.46	18050.12
879.702	18021.12
879.945	17843.12
880.187	17696.12
880.429	17637.12
880.671	17593.12
880.912	17414.12
881.154	17428.12
881.396	17226.12
881.638	17286.12
881.88	17335.12
882.121	17202.12
882.363	17210.12
882.605	17185.12
882.846	17049.12
883.088	17049.12
883.329	16896.12
883.571	16854.12
883.812	16874.12
884.053	16887.12
884.295	16976.12
884.536	17048.12
884.777	16960.12
885.018	16859.12
885.259	16838.12
885.5	16819.12
885.742	17095.12
885.982	16804.12
886.223	16689.12
886.464	16592.12
886.705	16534.12
886.946	16492.12
887.187	16247.12
887.428	16308.12
887.668	15958.12
887.909	15927.12
888.15	15684.12
888.39	15737.12
888.631	15626.12
888.871	15499.12
889.111	15447.12
889.352	15398.12
889.592	15232.12
889.833	15046.12
890.073	14927.12
890.313	14989.12
890.553	14758.12
890.793	14688.12
891.033	14654.12
891.273	14597.12
891.513	14512.12
891.753	14496.12
891.993	14429.12
892.233	14525.12
892.473	14607.12
892.713	14519.12
892.952	14440.12
893.192	14459.12
893.432	14503.12
893.671	14464.12
893.911	14394.12
894.15	14347.12
894.39	14213.12
894.629	14099.12
894.869	14067.12
895.108	13979.12
895.347	13864.12
895.587	13812.12
895.826	13724.12
896.065	13686.12
896.304	13724.12
896.543	13705.12
896.782	13505.12
897.021	13502.12
897.26	13594.12
897.499	13519.12
897.738	13491.12
897.977	13291.12
898.216	13181.12
898.454	13117.12
898.693	13062.12
898.932	13030.12
899.17	12814.12
899.409	12802.12
899.647	12776.12
899.886	12742.12
900.124	12827.12
900.363	12746.12
900.601	12740.12
900.839	12732.12
901.078	12764.12
901.316	12804.12
901.554	12767.12
901.792	12786.12
902.03	12699.12
902.268	12672.12
902.506	12695.12
902.744	12571.12
902.982	12536.12
903.22	12363.12
903.458	12254.12
903.695	12132.12
903.933	12014.12
904.171	11890.12
904.409	11658.12
904.646	11596.12
904.884	11491.12
905.121	11399.12
905.359	11277.12
905.596	11192.12
905.833	11063.12
906.071	11055.12
906.308	10975.12
906.545	11004.12
906.783	10971.12
907.02	11024.12
907.257	10907.12
907.494	10884.12
907.731	10869.12
907.968	10847.12
908.205	10738.12
908.442	10684.12
908.679	10512.12
908.915	10508.12
909.152	10434.12
909.389	10279.12
909.626	10274.12
909.862	10205.12
910.099	10091.12
910.335	10170.12
910.572	10006.12
910.808	10132.12
911.045	10025.12
911.281	9983.12
911.518	9932.12
911.754	9841.12
911.99	9866.12
912.226	9696.12
912.463	9676.12
912.699	9578.12
912.935	9552.12
913.171	9470.12
913.407	9409.12
913.643	9365.12
913.879	9258.12
914.114	9153.12
914.35	8995.12
914.586	9062.12
914.822	8901.12
915.057	8888.12
915.293	8716.12
915.529	8726.12
915.764	8770.12
916	8785.12
916.235	8672.12
916.471	8657.12
916.706	8570.12
916.941	8630.12
917.177	8525.12
917.412	8652.12
917.647	8596.12
917.882	8517.12
918.117	8531.12
918.352	8502.12
918.588	8543.12
918.823	8335.12
919.057	8292.12
919.292	8170.12
919.527	8227.12
919.762	8090.12
919.997	8043.12
920.232	7961.12
920.466	7858.12
920.701	7671.12
920.935	7725.12
921.17	7684.12
921.405	7601.12
921.639	7613.12
921.873	7573.12
922.108	7640.12
922.342	7578.12
922.576	7448.12
922.811	7421.12
923.045	7501.12
923.279	7522.12
923.513	7308.12
923.747	7425.12
923.981	7364.12
924.215	7238.12
924.449	7227.12
924.683	7047.12
924.917	7073.12
925.151	7093.12
925.385	7048.12
925.618	7043.12
925.852	6986.12
926.086	6903.12
926.319	6983.12
926.553	6980.12
926.786	6994.12
927.02	6940.12
927.253	6974.12
927.486	7000.12
927.72	6889.12
927.953	6926.12
928.186	6861.12
928.42	6848.12
928.653	6790.12
928.886	6731.12
929.119	6790.12
929.352	6731.12
929.585	6662.12
929.818	6603.12
930.051	6585.12
930.284	6500.12
930.516	6383.12
930.749	6324.12
930.982	6436.12
931.215	6360.12
931.447	6271.12
931.68	6289.12
931.912	6269.12
932.145	6243.12
932.377	6279.12
932.61	6383.12
932.842	6175.12
933.074	6208.12
933.307	6142.12
933.539	6265.12
933.771	6243.12
934.003	6197.12
934.236	6242.12
934.468	6258.12
934.7	6191.12
934.932	6170.12
935.164	6128.12
935.395	6096.12
935.627	6082.12
935.859	6095.12
936.091	6020.12
936.323	6067.12
936.554	6004.12
936.786	5949.12
937.017	5888.12
937.249	5954.12
937.481	5841.12
937.712	5930.12
937.943	5885.12
938.175	5881.12
938.406	5820.12
938.637	5878.12
938.869	5801.12
939.1	5872.12
939.331	5803.12
939.562	5790.12
939.793	5766.12
940.024	5795.12
940.255	5747.12
940.486	5706.12
940.717	5597.12
940.948	5618.12
941.179	5571.12
941.409	5607.12
941.64	5566.12
941.871	5553.12
942.102	5551.12
942.332	5530.12
942.563	5618.12
942.793	5522.12
943.024	5534.12
943.254	5616.12
943.484	5520.12
943.715	5586.12
943.945	5524.12
944.175	5453.12
944.405	5452.12
944.636	5434.12
944.866	5449.12
945.096	5464.12
945.326	5424.12
945.556	5496.12
945.786	5455.12
946.016	5332.12
946.245	5312.12
946.475	5285.12
946.705	5242.12
946.935	5240.12
947.164	5199.12
947.394	5158.12
947.624	5188.12
947.853	5162.12
948.083	5112.12
948.312	5090.12
948.542	5037.12
948.771	5014.12
949	5014.12
949.23	5034.12
949.459	5020.12
949.688	5094.12
949.917	4998.12
950.146	5023.12
950.375	5078.12
950.604	4992.12
950.833	4993.12
951.062	5007.12
951.291	4970.12
951.52	4969.12
951.749	4895.12
951.978	4904.12
952.206	4833.12
952.435	4837.12
952.664	4911.12
952.892	4883.12
953.121	4825.12
953.349	4875.12
953.578	4804.12
953.806	4738.12
954.035	4714.12
954.263	4750.12
954.491	4667.12
954.719	4768.12
954.948	4654.12
955.176	4622.12
955.404	4559.12
955.632	4628.12
955.86	4586.12
956.088	4556.12
956.316	4551.12
956.544	4569.12
956.772	4505.12
956.999	4464.12
957.227	4518.12
957.455	4399.12
957.683	4385.12
957.91	4338.12
958.138	4328.12
958.365	4349.12
958.593	4343.12
958.82	4250.12
959.048	4295.12
959.275	4243.12
959.502	4269.12
959.73	4236.12
959.957	4232.12
960.184	4245.12
960.411	4195.12
960.638	4282.12
960.865	4183.12
961.092	4219.12
961.319	4149.12
961.546	4242.12
961.773	4213.12
962	4194.12
962.227	4238.12
962.454	4158.12
962.68	4127.12
962.907	4158.12
963.134	4074.12
963.36	4073.12
963.587	4064.12
963.813	3994.12
964.04	4009.12
964.266	3964.12
964.493	4035.12
964.719	3953.12
964.945	3908.12
965.171	3830.12
965.398	3898.12
965.624	3930.12
965.85	3823.12
966.076	3780.12
966.302	3841.12
966.528	3829.12
966.754	3799.12
966.98	3756.12
967.206	3755.12
967.431	3702.12
967.657	3782.12
967.883	3725.12
968.109	3735.12
968.334	3654.12
968.56	3675.12
968.785	3652.12
969.011	3617.12
969.236	3660.12
969.462	3565.12
969.687	3616.12
969.912	3628.12
970.138	3610.12
970.363	3532.12
970.588	3577.12
970.813	3534.12
971.038	3490.12
971.263	3532.12
971.488	3504.12
971.713	3539.12
971.938	3504.12
972.163	3436.12
972.388	3429.12
972.613	3420.12
972.838	3412.12
973.062	3403.12
973.287	3395.12
973.512	3279.12
973.736	3339.12
973.961	3318.12
974.185	3284.12
974.41	3292.12
974.634	3218.12
974.858	3276.12
975.083	3230.12
975.307	3217.12
975.531	3174.12
975.755	3098.12
975.98	3128.12
976.204	3036.12
976.428	3067.12
976.652	3035.12
976.876	3046.12
977.1	3085.12
977.324	2998.12
977.547	3063.12
977.771	3062.12
977.995	3039.12
978.219	2944.12
978.442	3079.12
978.666	2990.12
978.89	2998.12
979.113	2989.12
979.337	2951.12
979.56	2916.12
979.783	3034.12
980.007	2892.12
980.23	2889.12
980.453	2899.12
980.677	2937.12
980.9	2910.12
981.123	2778.12
981.346	2938.12
981.569	2861.12
981.792	2840.12
982.015	2794.12
982.238	2814.12
982.461	2771.12
982.684	2759.12
982.907	2724.12
983.129	2690.12
983.352	2767.12
983.575	2712.12
983.797	2687.12
984.02	2664.12
984.242	2651.12
984.465	2648.12
984.687	2682.12
984.91	2662.12
985.132	2658.12
985.354	2697.12
985.577	2637.12
985.799	2625.12
986.021	2527.12
986.243	2540.12
986.465	2544.12
986.687	2608.12
986.909	2625.12
987.131	2565.12
987.353	2472.12
987.575	2556.12
987.797	2508.12
988.019	2414.12
988.241	2487.12
988.462	2466.12
988.684	2517.12
988.906	2502.12
989.127	2531.12
989.349	2363.12
989.57	2444.12
989.792	2469.12
990.013	2471.12
990.234	2487.12
990.456	2468.12
990.677	2459.12
990.898	2409.12
991.119	2430.12
991.341	2398.12
991.562	2336.12
991.783	2363.12
992.004	2250.12
992.225	2291.12
992.446	2339.12
992.667	2260.12
992.887	2348.12
993.108	2210.12
993.329	2347.12
993.55	2247.12
993.77	2202.12
993.991	2207.12
994.212	2251.12
994.432	2206.12
994.653	2217.12
994.873	2221.12
995.093	2091.12
995.314	2110.12
995.534	2194.12
995.754	2191.12
995.975	2201.12
996.195	2074.12
996.415	2188.12
996.635	2119.12
996.855	2132.12
997.075	2085.12
997.295	2092.12
997.515	2040.12
997.735	2110.12
997.955	2095.12
998.174	2052.12
998.394	2072.12
998.614	2099.12
998.834	1999.12
999.053	2103.12
999.273	2057.12
999.492	2122.12
999.712	2034.12
999.931	1976.12
1000.151	2047.12
1000.37	2034.12
1000.589	2078.12
1000.809	1983.12
1001.028	2111.12
1001.247	2036.12
1001.466	1904.12
1001.685	2036.12
1001.904	2005.12
1002.123	1934.12
1002.342	1965.12
1002.561	1927.12
1002.78	1910.12
1002.999	1969.12
1003.218	1933.12
1003.436	1918.12
1003.655	1935.12
1003.874	1888.12
1004.092	1889.12
1004.311	1911.12
1004.53	1895.12
1004.748	1941.12
1004.966	1858.12
1005.185	1908.12
1005.403	1887.12
1005.622	1888.12
1005.84	1961.12
1006.058	1829.12
1006.276	1843.12
1006.494	2365.12
1006.712	1866.12
1006.931	1913.12
1007.149	1810.12
1007.367	1800.12
1007.584	1860.12
1007.802	1886.12
1008.02	1823.12
1008.238	1913.12
1008.456	1903.12
1008.673	1766.12
1008.891	1863.12
1009.109	1795.12
1009.326	1836.12
1009.544	1890.12
1009.761	1788.12
1009.979	1871.12
1010.196	1858.12
1010.413	1914.12
1010.631	1944.12
1010.848	1974.12
1011.065	1969.12
1011.282	1929.12
1011.5	1854.12
1011.717	1973.12
1011.934	1902.12
1012.151	1929.12
1012.368	1914.12
1012.585	1846.12
1012.801	1898.12
1013.018	1859.12
1013.235	1843.12
1013.452	1848.12
1013.669	1873.12
1013.885	1830.12
1014.102	1852.12
1014.318	1818.12
1014.535	1764.12
1014.751	1844.12
1014.968	1787.12
1015.184	1820.12
1015.401	1734.12
1015.617	1762.12
1015.833	1748.12
1016.049	1719.12
1016.266	1685.12
1016.482	1720.12
1016.698	1638.12
1016.914	1678.12
1017.13	1643.12
1017.346	1648.12
1017.562	1718.12
1017.778	1628.12
1017.993	1606.12
1018.209	1679.12
1018.425	1635.12
1018.641	1617.12
1018.856	1585.12
1019.072	1616.12
1019.288	1631.12
1019.503	1604.12
1019.719	1500.12
1019.934	1523.12
1020.149	1616.12
1020.365	1537.12
1020.58	1498.12
1020.795	1553.12
1021.011	1516.12
1021.226	1489.12
1021.441	1498.12
1021.656	1377.12
1021.871	1344.12
1022.086	1369.12
1022.301	1337.12
1022.516	1317.12
1022.731	1355.12
1022.946	1306.12
1023.16	1282.12
1023.375	1255.12
1023.59	1233.12
1023.804	1197.12
1024.019	1308.12
1024.234	1178.12
1024.448	1203.12
1024.663	1115.12
1024.877	1164.12
1025.092	1166.12
1025.306	1169.12
1025.52	1046.12
1025.734	1129.12
1025.949	1055.12
1026.163	1042.12
1026.377	972.12
1026.591	1020.12
1026.805	971.12
1027.019	929.12
1027.233	910.12
1027.447	846.12
1027.661	936.12
1027.875	886.12
1028.088	882.12
1028.302	826.12
1028.516	821.12
1028.73	793.12
1028.943	785.12
1029.157	753.12
1029.37	692.12
1029.584	-1.88
1029.797	-1.88
1030.011	-2.88
1030.224	1.12
