Data from QEP037381__182__14-02-49-163.txt Node

Date: Wed Dec 21 14:02:49 EST 2022
User: dcclab
Spectrometer: QEP03738
Trigger mode: 4
Integration Time (sec): 1.000000E1
Scans to average: 1
Electric dark correction enabled: true
Nonlinearity correction enabled: false
Boxcar width: 0
XAxis mode: Wavelengths
Number of Pixels in Spectrum: 1044
>>>>>Begin Spectral Data<<<<<
784.041	12.25
784.3	-0.75
784.558	-2.75
784.817	-5.75
785.075	107294.25
785.334	17894.25
785.592	8186.25
785.851	5656.25
786.109	4277.25
786.368	3289.25
786.626	2665.25
786.884	2251.25
787.143	1849.25
787.401	1531.25
787.659	1404.25
787.917	1208.25
788.175	1091.25
788.433	942.25
788.691	862.25
788.949	788.25
789.207	789.25
789.465	653.25
789.723	646.25
789.98	590.25
790.238	624.25
790.496	589.25
790.753	561.25
791.011	613.25
791.268	524.25
791.526	525.25
791.783	549.25
792.041	520.25
792.298	438.25
792.556	500.25
792.813	503.25
793.07	454.25
793.327	431.25
793.584	535.25
793.841	444.25
794.099	470.25
794.356	511.25
794.613	425.25
794.869	471.25
795.126	431.25
795.383	419.25
795.64	435.25
795.897	403.25
796.153	448.25
796.41	436.25
796.667	418.25
796.923	420.25
797.18	416.25
797.436	459.25
797.693	412.25
797.949	474.25
798.206	486.25
798.462	407.25
798.718	471.25
798.974	442.25
799.231	490.25
799.487	469.25
799.743	485.25
799.999	501.25
800.255	511.25
800.511	482.25
800.767	525.25
801.023	529.25
801.279	558.25
801.534	596.25
801.79	645.25
802.046	651.25
802.302	765.25
802.557	877.25
802.813	1076.25
803.068	1324.25
803.324	1817.25
803.579	2453.25
803.835	3472.25
804.09	4756.25
804.345	6314.25
804.601	7994.25
804.856	9694.25
805.111	11239.25
805.366	12391.25
805.621	13324.25
805.876	13782.25
806.131	14170.25
806.386	14397.25
806.641	14696.25
806.896	14979.25
807.151	15205.25
807.406	15642.25
807.661	15767.25
807.915	16091.25
808.17	16368.25
808.425	16583.25
808.679	16616.25
808.934	16803.25
809.188	17037.25
809.443	17283.25
809.697	17441.25
809.951	17500.25
810.206	17670.25
810.46	17909.25
810.714	18051.25
810.968	18248.25
811.223	18446.25
811.477	18514.25
811.731	18679.25
811.985	18882.25
812.239	18781.25
812.493	18933.25
812.747	18965.25
813	19012.25
813.254	19155.25
813.508	19315.25
813.762	19332.25
814.015	19387.25
814.269	19540.25
814.522	19769.25
814.776	20036.25
815.03	20337.25
815.283	20622.25
815.536	21008.25
815.79	21200.25
816.043	21575.25
816.296	21847.25
816.55	22047.25
816.803	22273.25
817.056	22774.25
817.309	22883.25
817.562	23112.25
817.815	23370.25
818.068	23580.25
818.321	23779.25
818.574	24226.25
818.827	24530.25
819.079	24760.25
819.332	25169.25
819.585	25486.25
819.838	25799.25
820.09	25859.25
820.343	26200.25
820.595	26202.25
820.848	26474.25
821.1	26499.25
821.353	26576.25
821.605	26508.25
821.857	26584.25
822.11	26309.25
822.362	26370.25
822.614	26364.25
822.866	26238.25
823.118	26342.25
823.37	26302.25
823.622	26442.25
823.874	26617.25
824.126	26578.25
824.378	26659.25
824.63	26732.25
824.882	26753.25
825.134	26859.25
825.385	26806.25
825.637	26796.25
825.888	26627.25
826.14	26586.25
826.392	26359.25
826.643	26339.25
826.895	26358.25
827.146	26210.25
827.397	26272.25
827.649	26159.25
827.9	26033.25
828.151	26057.25
828.402	26177.25
828.653	26134.25
828.905	26272.25
829.156	26398.25
829.407	26342.25
829.658	26281.25
829.909	26319.25
830.159	26307.25
830.41	26109.25
830.661	25891.25
830.912	25830.25
831.162	25804.25
831.413	25604.25
831.664	25745.25
831.914	25663.25
832.165	25655.25
832.415	25564.25
832.666	25640.25
832.916	25602.25
833.167	25562.25
833.417	25501.25
833.667	25410.25
833.917	25408.25
834.168	25331.25
834.418	25314.25
834.668	25183.25
834.918	24978.25
835.168	24970.25
835.418	24822.25
835.668	24806.25
835.918	24809.25
836.167	24643.25
836.417	24697.25
836.667	24593.25
836.917	24510.25
837.166	24460.25
837.416	24482.25
837.666	24480.25
837.915	24369.25
838.165	24293.25
838.414	24259.25
838.663	24203.25
838.913	24249.25
839.162	24015.25
839.411	24017.25
839.661	24014.25
839.91	23894.25
840.159	23786.25
840.408	23890.25
840.657	23883.25
840.906	23887.25
841.155	23983.25
841.404	23755.25
841.653	23826.25
841.902	23852.25
842.15	23767.25
842.399	23826.25
842.648	23797.25
842.897	23763.25
843.145	23558.25
843.394	23504.25
843.642	23273.25
843.891	23286.25
844.139	23147.25
844.388	22974.25
844.636	22909.25
844.884	22911.25
845.133	22792.25
845.381	22799.25
845.629	22806.25
845.877	22696.25
846.125	22592.25
846.373	22612.25
846.621	22603.25
846.869	22503.25
847.117	22329.25
847.365	22237.25
847.613	22218.25
847.861	22114.25
848.108	22098.25
848.356	22036.25
848.604	22032.25
848.851	21953.25
849.099	22029.25
849.346	22060.25
849.594	22025.25
849.841	22270.25
850.089	22204.25
850.336	22270.25
850.583	22230.25
850.831	22204.25
851.078	22065.25
851.325	21908.25
851.572	21847.25
851.819	21694.25
852.066	21387.25
852.313	21117.25
852.56	20994.25
852.807	20833.25
853.054	20775.25
853.301	20705.25
853.548	20794.25
853.794	20848.25
854.041	20889.25
854.288	20881.25
854.534	21159.25
854.781	21110.25
855.028	20995.25
855.274	21003.25
855.52	20797.25
855.767	20642.25
856.013	20812.25
856.26	20965.25
856.506	20434.25
856.752	20454.25
856.998	20451.25
857.244	20428.25
857.49	20508.25
857.736	20583.25
857.982	20581.25
858.228	20577.25
858.474	20393.25
858.72	20322.25
858.966	20098.25
859.212	20068.25
859.458	19709.25
859.703	19524.25
859.949	19287.25
860.195	19246.25
860.44	19143.25
860.686	18997.25
860.931	18924.25
861.177	18825.25
861.422	18764.25
861.667	18736.25
861.913	18757.25
862.158	18779.25
862.403	18849.25
862.648	18886.25
862.893	18927.25
863.138	18941.25
863.384	18864.25
863.629	18802.25
863.873	18821.25
864.118	18789.25
864.363	18568.25
864.608	18572.25
864.853	18515.25
865.098	18363.25
865.342	18369.25
865.587	18225.25
865.832	18171.25
866.076	18194.25
866.321	18049.25
866.565	18064.25
866.81	18028.25
867.054	17852.25
867.298	17824.25
867.543	17803.25
867.787	17790.25
868.031	17723.25
868.275	17710.25
868.519	17763.25
868.764	17615.25
869.008	17617.25
869.252	17600.25
869.496	17406.25
869.739	17383.25
869.983	17361.25
870.227	17360.25
870.471	17291.25
870.715	17445.25
870.958	17432.25
871.202	17412.25
871.446	17366.25
871.689	17315.25
871.933	17348.25
872.176	17274.25
872.42	17394.25
872.663	17228.25
872.906	17293.25
873.15	17035.25
873.393	16995.25
873.636	17018.25
873.879	16788.25
874.122	16677.25
874.366	16363.25
874.609	16392.25
874.852	16293.25
875.095	16145.25
875.337	16036.25
875.58	15948.25
875.823	15987.25
876.066	15883.25
876.309	15946.25
876.551	15831.25
876.794	15708.25
877.037	15668.25
877.279	15653.25
877.522	15665.25
877.764	15704.25
878.007	15682.25
878.249	15671.25
878.491	15548.25
878.734	15560.25
878.976	15585.25
879.218	15432.25
879.46	15435.25
879.702	15294.25
879.945	15223.25
880.187	15114.25
880.429	14968.25
880.671	14878.25
880.912	14798.25
881.154	14786.25
881.396	14772.25
881.638	14761.25
881.88	14736.25
882.121	14616.25
882.363	14588.25
882.605	14616.25
882.846	14587.25
883.088	14411.25
883.329	14347.25
883.571	14389.25
883.812	14379.25
884.053	14448.25
884.295	14603.25
884.536	14749.25
884.777	14598.25
885.018	14588.25
885.259	14526.25
885.5	14491.25
885.742	14726.25
885.982	14439.25
886.223	14331.25
886.464	14229.25
886.705	14170.25
886.946	14210.25
887.187	13932.25
887.428	13841.25
887.668	13727.25
887.909	13588.25
888.15	13432.25
888.39	13441.25
888.631	13352.25
888.871	13168.25
889.111	13141.25
889.352	13107.25
889.592	12937.25
889.833	12798.25
890.073	12753.25
890.313	12765.25
890.553	12618.25
890.793	12470.25
891.033	12470.25
891.273	12442.25
891.513	12452.25
891.753	12397.25
891.993	12305.25
892.233	12328.25
892.473	12423.25
892.713	12430.25
892.952	12344.25
893.192	12327.25
893.432	12404.25
893.671	12309.25
893.911	12257.25
894.15	12134.25
894.39	12034.25
894.629	11931.25
894.869	11980.25
895.108	11861.25
895.347	11796.25
895.587	11779.25
895.826	11703.25
896.065	11680.25
896.304	11721.25
896.543	11703.25
896.782	11529.25
897.021	11516.25
897.26	11497.25
897.499	11549.25
897.738	11525.25
897.977	11376.25
898.216	11253.25
898.454	11206.25
898.693	11135.25
898.932	11123.25
899.17	11031.25
899.409	11032.25
899.647	10998.25
899.886	10839.25
900.124	10868.25
900.363	10943.25
900.601	10931.25
900.839	10890.25
901.078	10802.25
901.316	10847.25
901.554	10966.25
901.792	10937.25
902.03	10867.25
902.268	10970.25
902.506	10935.25
902.744	10838.25
902.982	10773.25
903.22	10595.25
903.458	10513.25
903.695	10416.25
903.933	10362.25
904.171	10117.25
904.409	10076.25
904.646	9932.25
904.884	9824.25
905.121	9696.25
905.359	9612.25
905.596	9627.25
905.833	9496.25
906.071	9428.25
906.308	9493.25
906.545	9425.25
906.783	9297.25
907.02	9300.25
907.257	9320.25
907.494	9344.25
907.731	9240.25
907.968	9251.25
908.205	9142.25
908.442	9157.25
908.679	9126.25
908.915	9027.25
909.152	8976.25
909.389	8837.25
909.626	8844.25
909.862	8750.25
910.099	8729.25
910.335	8752.25
910.572	8608.25
910.808	8613.25
911.045	8599.25
911.281	8495.25
911.518	8624.25
911.754	8476.25
911.99	8413.25
912.226	8384.25
912.463	8272.25
912.699	8199.25
912.935	8146.25
913.171	8167.25
913.407	8044.25
913.643	8151.25
913.879	8015.25
914.114	7907.25
914.35	7829.25
914.586	7718.25
914.822	7607.25
915.057	7659.25
915.293	7484.25
915.529	7468.25
915.764	7549.25
916	7545.25
916.235	7508.25
916.471	7522.25
916.706	7409.25
916.941	7398.25
917.177	7428.25
917.412	7375.25
917.647	7428.25
917.882	7317.25
918.117	7370.25
918.352	7359.25
918.588	7368.25
918.823	7258.25
919.057	7192.25
919.292	7003.25
919.527	7101.25
919.762	6943.25
919.997	6939.25
920.232	6803.25
920.466	6783.25
920.701	6679.25
920.935	6645.25
921.17	6598.25
921.405	6557.25
921.639	6597.25
921.873	6514.25
922.108	6517.25
922.342	6543.25
922.576	6464.25
922.811	6491.25
923.045	6449.25
923.279	6473.25
923.513	6273.25
923.747	6346.25
923.981	6303.25
924.215	6238.25
924.449	6187.25
924.683	6099.25
924.917	6137.25
925.151	6002.25
925.385	6206.25
925.618	6065.25
925.852	6028.25
926.086	5978.25
926.319	6002.25
926.553	6043.25
926.786	6024.25
927.02	5986.25
927.253	5990.25
927.486	6083.25
927.72	5934.25
927.953	5954.25
928.186	5925.25
928.42	5896.25
928.653	5817.25
928.886	5790.25
929.119	5830.25
929.352	5765.25
929.585	5771.25
929.818	5731.25
930.051	5699.25
930.284	5656.25
930.516	5575.25
930.749	5491.25
930.982	5493.25
931.215	5509.25
931.447	5400.25
931.68	5451.25
931.912	5438.25
932.145	5376.25
932.377	5382.25
932.61	5588.25
932.842	5306.25
933.074	5434.25
933.307	5350.25
933.539	5434.25
933.771	5445.25
934.003	5387.25
934.236	5415.25
934.468	5415.25
934.7	5353.25
934.932	5330.25
935.164	5323.25
935.395	5266.25
935.627	5278.25
935.859	5275.25
936.091	5201.25
936.323	5249.25
936.554	5253.25
936.786	5207.25
937.017	5073.25
937.249	5151.25
937.481	5087.25
937.712	5127.25
937.943	5128.25
938.175	5033.25
938.406	5081.25
938.637	5148.25
938.869	5015.25
939.1	5026.25
939.331	5018.25
939.562	5035.25
939.793	5024.25
940.024	4960.25
940.255	4972.25
940.486	4917.25
940.717	4924.25
940.948	4902.25
941.179	4833.25
941.409	4864.25
941.64	4827.25
941.871	4844.25
942.102	4774.25
942.332	4843.25
942.563	4914.25
942.793	4799.25
943.024	4766.25
943.254	4843.25
943.484	4850.25
943.715	4869.25
943.945	4868.25
944.175	4748.25
944.405	4705.25
944.636	4741.25
944.866	4811.25
945.096	4755.25
945.326	4659.25
945.556	4700.25
945.786	4754.25
946.016	4685.25
946.245	4576.25
946.475	4596.25
946.705	4530.25
946.935	4504.25
947.164	4566.25
947.394	4485.25
947.624	4452.25
947.853	4487.25
948.083	4452.25
948.312	4475.25
948.542	4361.25
948.771	4373.25
949	4344.25
949.23	4360.25
949.459	4351.25
949.688	4427.25
949.917	4351.25
950.146	4381.25
950.375	4417.25
950.604	4302.25
950.833	4360.25
951.062	4384.25
951.291	4339.25
951.52	4324.25
951.749	4260.25
951.978	4217.25
952.206	4232.25
952.435	4241.25
952.664	4262.25
952.892	4238.25
953.121	4223.25
953.349	4262.25
953.578	4221.25
953.806	4152.25
954.035	4102.25
954.263	4136.25
954.491	4090.25
954.719	4095.25
954.948	4078.25
955.176	4012.25
955.404	3975.25
955.632	4028.25
955.86	3989.25
956.088	4022.25
956.316	3998.25
956.544	4037.25
956.772	3894.25
956.999	3893.25
957.227	3962.25
957.455	3863.25
957.683	3862.25
957.91	3786.25
958.138	3794.25
958.365	3789.25
958.593	3774.25
958.82	3692.25
959.048	3802.25
959.275	3722.25
959.502	3738.25
959.73	3684.25
959.957	3714.25
960.184	3751.25
960.411	3658.25
960.638	3740.25
960.865	3712.25
961.092	3699.25
961.319	3615.25
961.546	3700.25
961.773	3733.25
962	3670.25
962.227	3665.25
962.454	3643.25
962.68	3607.25
962.907	3614.25
963.134	3579.25
963.36	3580.25
963.587	3592.25
963.813	3479.25
964.04	3526.25
964.266	3474.25
964.493	3566.25
964.719	3467.25
964.945	3432.25
965.171	3381.25
965.398	3455.25
965.624	3401.25
965.85	3316.25
966.076	3385.25
966.302	3400.25
966.528	3314.25
966.754	3374.25
966.98	3316.25
967.206	3326.25
967.431	3270.25
967.657	3354.25
967.883	3325.25
968.109	3300.25
968.334	3205.25
968.56	3192.25
968.785	3211.25
969.011	3194.25
969.236	3238.25
969.462	3161.25
969.687	3170.25
969.912	3219.25
970.138	3238.25
970.363	3138.25
970.588	3186.25
970.813	3129.25
971.038	3116.25
971.263	3141.25
971.488	3146.25
971.713	3134.25
971.938	3125.25
972.163	3020.25
972.388	3031.25
972.613	3017.25
972.838	2999.25
973.062	3000.25
973.287	3000.25
973.512	2948.25
973.736	2972.25
973.961	2921.25
974.185	2925.25
974.41	2942.25
974.634	2852.25
974.858	2827.25
975.083	2890.25
975.307	2868.25
975.531	2862.25
975.755	2781.25
975.98	2769.25
976.204	2726.25
976.428	2707.25
976.652	2704.25
976.876	2684.25
977.1	2727.25
977.324	2654.25
977.547	2715.25
977.771	2693.25
977.995	2667.25
978.219	2597.25
978.442	2748.25
978.666	2637.25
978.89	2645.25
979.113	2661.25
979.337	2641.25
979.56	2571.25
979.783	2702.25
980.007	2552.25
980.23	2578.25
980.453	2528.25
980.677	2600.25
980.9	2509.25
981.123	2451.25
981.346	2583.25
981.569	2538.25
981.792	2569.25
982.015	2519.25
982.238	2461.25
982.461	2472.25
982.684	2426.25
982.907	2428.25
983.129	2412.25
983.352	2474.25
983.575	2382.25
983.797	2433.25
984.02	2356.25
984.242	2344.25
984.465	2381.25
984.687	2398.25
984.91	2384.25
985.132	2359.25
985.354	2369.25
985.577	2323.25
985.799	2345.25
986.021	2223.25
986.243	2273.25
986.465	2268.25
986.687	2298.25
986.909	2363.25
987.131	2305.25
987.353	2247.25
987.575	2282.25
987.797	2235.25
988.019	2202.25
988.241	2234.25
988.462	2208.25
988.684	2239.25
988.906	2270.25
989.127	2260.25
989.349	2179.25
989.57	2167.25
989.792	2226.25
990.013	2254.25
990.234	2266.25
990.456	2206.25
990.677	2194.25
990.898	2201.25
991.119	2125.25
991.341	2138.25
991.562	2097.25
991.783	2157.25
992.004	2086.25
992.225	2038.25
992.446	2100.25
992.667	2015.25
992.887	2078.25
993.108	1940.25
993.329	2116.25
993.55	2039.25
993.77	1984.25
993.991	2017.25
994.212	2001.25
994.432	1999.25
994.653	1985.25
994.873	1992.25
995.093	1881.25
995.314	1928.25
995.534	1985.25
995.754	1984.25
995.975	1998.25
996.195	1893.25
996.415	1929.25
996.635	1885.25
996.855	1952.25
997.075	1888.25
997.295	1888.25
997.515	1861.25
997.735	1916.25
997.955	1883.25
998.174	1905.25
998.394	1832.25
998.614	1919.25
998.834	1823.25
999.053	1917.25
999.273	1887.25
999.492	1913.25
999.712	1839.25
999.931	1836.25
1000.151	1869.25
1000.37	1841.25
1000.589	1900.25
1000.809	1831.25
1001.028	1909.25
1001.247	1847.25
1001.466	1745.25
1001.685	1857.25
1001.904	1793.25
1002.123	1789.25
1002.342	1773.25
1002.561	1738.25
1002.78	1778.25
1002.999	1820.25
1003.218	1779.25
1003.436	1758.25
1003.655	1795.25
1003.874	1723.25
1004.092	1732.25
1004.311	1773.25
1004.53	1732.25
1004.748	1826.25
1004.966	1707.25
1005.185	1780.25
1005.403	1773.25
1005.622	1717.25
1005.84	1780.25
1006.058	1690.25
1006.276	1717.25
1006.494	2223.25
1006.712	1704.25
1006.931	1750.25
1007.149	1687.25
1007.367	1671.25
1007.584	1715.25
1007.802	1767.25
1008.02	1667.25
1008.238	1787.25
1008.456	1749.25
1008.673	1635.25
1008.891	1745.25
1009.109	1664.25
1009.326	1706.25
1009.544	1787.25
1009.761	1691.25
1009.979	1751.25
1010.196	1769.25
1010.413	1828.25
1010.631	1879.25
1010.848	1841.25
1011.065	1890.25
1011.282	1851.25
1011.5	1795.25
1011.717	1883.25
1011.934	1820.25
1012.151	1855.25
1012.368	1824.25
1012.585	1784.25
1012.801	1816.25
1013.018	1782.25
1013.235	1752.25
1013.452	1772.25
1013.669	1775.25
1013.885	1752.25
1014.102	1790.25
1014.318	1747.25
1014.535	1713.25
1014.751	1754.25
1014.968	1727.25
1015.184	1772.25
1015.401	1692.25
1015.617	1713.25
1015.833	1666.25
1016.049	1634.25
1016.266	1612.25
1016.482	1635.25
1016.698	1596.25
1016.914	1661.25
1017.13	1586.25
1017.346	1564.25
1017.562	1632.25
1017.778	1550.25
1017.993	1539.25
1018.209	1580.25
1018.425	1577.25
1018.641	1529.25
1018.856	1501.25
1019.072	1547.25
1019.288	1574.25
1019.503	1529.25
1019.719	1459.25
1019.934	1444.25
1020.149	1543.25
1020.365	1475.25
1020.58	1399.25
1020.795	1453.25
1021.011	1403.25
1021.226	1404.25
1021.441	1388.25
1021.656	1340.25
1021.871	1273.25
1022.086	1244.25
1022.301	1249.25
1022.516	1233.25
1022.731	1311.25
1022.946	1205.25
1023.16	1206.25
1023.375	1181.25
1023.59	1152.25
1023.804	1108.25
1024.019	1216.25
1024.234	1109.25
1024.448	1104.25
1024.663	1068.25
1024.877	1066.25
1025.092	1070.25
1025.306	1097.25
1025.52	981.25
1025.734	1081.25
1025.949	1002.25
1026.163	989.25
1026.377	920.25
1026.591	972.25
1026.805	886.25
1027.019	885.25
1027.233	825.25
1027.447	779.25
1027.661	889.25
1027.875	837.25
1028.088	844.25
1028.302	750.25
1028.516	752.25
1028.73	749.25
1028.943	736.25
1029.157	685.25
1029.37	659.25
1029.584	0.25
1029.797	-2.75
1030.011	1.25
1030.224	-1.75
