Data from QEP037381__171__14-00-59-162.txt Node

Date: Wed Dec 21 14:00:59 EST 2022
User: dcclab
Spectrometer: QEP03738
Trigger mode: 4
Integration Time (sec): 1.000000E1
Scans to average: 1
Electric dark correction enabled: true
Nonlinearity correction enabled: false
Boxcar width: 0
XAxis mode: Wavelengths
Number of Pixels in Spectrum: 1044
>>>>>Begin Spectral Data<<<<<
784.041	10.12
784.3	0.12
784.558	1.12
784.817	-3.88
785.075	105690.12
785.334	18086.12
785.592	8414.12
785.851	5809.12
786.109	4327.12
786.368	3396.12
786.626	2744.12
786.884	2252.12
787.143	1918.12
787.401	1562.12
787.659	1429.12
787.917	1174.12
788.175	1087.12
788.433	979.12
788.691	872.12
788.949	800.12
789.207	777.12
789.465	672.12
789.723	642.12
789.98	583.12
790.238	634.12
790.496	604.12
790.753	553.12
791.011	627.12
791.268	548.12
791.526	537.12
791.783	542.12
792.041	527.12
792.298	445.12
792.556	518.12
792.813	482.12
793.07	473.12
793.327	466.12
793.584	525.12
793.841	451.12
794.099	470.12
794.356	526.12
794.613	446.12
794.869	476.12
795.126	431.12
795.383	424.12
795.64	455.12
795.897	391.12
796.153	457.12
796.41	443.12
796.667	424.12
796.923	428.12
797.18	433.12
797.436	460.12
797.693	422.12
797.949	469.12
798.206	492.12
798.462	407.12
798.718	476.12
798.974	448.12
799.231	500.12
799.487	479.12
799.743	486.12
799.999	514.12
800.255	510.12
800.511	496.12
800.767	551.12
801.023	542.12
801.279	573.12
801.534	615.12
801.79	657.12
802.046	683.12
802.302	811.12
802.557	919.12
802.813	1136.12
803.068	1369.12
803.324	1922.12
803.579	2641.12
803.835	3654.12
804.09	5096.12
804.345	6813.12
804.601	8623.12
804.856	10518.12
805.111	12197.12
805.366	13577.12
805.621	14387.12
805.876	14952.12
806.131	15391.12
806.386	15643.12
806.641	15988.12
806.896	16296.12
807.151	16585.12
807.406	16771.12
807.661	17220.12
807.915	17510.12
808.17	17738.12
808.425	17988.12
808.679	18115.12
808.934	18409.12
809.188	18525.12
809.443	18806.12
809.697	18939.12
809.951	19137.12
810.206	19320.12
810.46	19499.12
810.714	19626.12
810.968	19925.12
811.223	19989.12
811.477	20141.12
811.731	20404.12
811.985	20399.12
812.239	20554.12
812.493	20666.12
812.747	20696.12
813	20892.12
813.254	20902.12
813.508	21049.12
813.762	21123.12
814.015	21202.12
814.269	21420.12
814.522	21675.12
814.776	21884.12
815.03	22128.12
815.283	22469.12
815.536	22883.12
815.79	23235.12
816.043	23505.12
816.296	23977.12
816.55	24205.12
816.803	24485.12
817.056	24847.12
817.309	25037.12
817.562	25330.12
817.815	25617.12
818.068	25755.12
818.321	26158.12
818.574	26351.12
818.827	26846.12
819.079	27179.12
819.332	27544.12
819.585	27946.12
819.838	28303.12
820.09	28487.12
820.343	28778.12
820.595	28869.12
820.848	29087.12
821.1	29083.12
821.353	29268.12
821.605	29080.12
821.857	29033.12
822.11	29094.12
822.362	28973.12
822.614	28879.12
822.866	28947.12
823.118	29006.12
823.37	29062.12
823.622	29073.12
823.874	29295.12
824.126	29299.12
824.378	29229.12
824.63	29323.12
824.882	29578.12
825.134	29567.12
825.385	29363.12
825.637	29435.12
825.888	29383.12
826.14	29187.12
826.392	29056.12
826.643	28961.12
826.895	28972.12
827.146	28874.12
827.397	28630.12
827.649	28751.12
827.9	28774.12
828.151	28656.12
828.402	28784.12
828.653	28936.12
828.905	28932.12
829.156	29003.12
829.407	28832.12
829.658	28755.12
829.909	28801.12
830.159	28751.12
830.41	28516.12
830.661	28537.12
830.912	28354.12
831.162	28203.12
831.413	28067.12
831.664	28242.12
831.914	28154.12
832.165	28149.12
832.415	28068.12
832.666	28052.12
832.916	27990.12
833.167	28014.12
833.417	28050.12
833.667	27802.12
833.917	27780.12
834.168	27680.12
834.418	27573.12
834.668	27618.12
834.918	27467.12
835.168	27494.12
835.418	27173.12
835.668	27244.12
835.918	27190.12
836.167	27074.12
836.417	27023.12
836.667	26883.12
836.917	26955.12
837.166	26677.12
837.416	26938.12
837.666	26754.12
837.915	26789.12
838.165	26559.12
838.414	26486.12
838.663	26384.12
838.913	26406.12
839.162	26225.12
839.411	26281.12
839.661	26203.12
839.91	26220.12
840.159	26023.12
840.408	26065.12
840.657	26101.12
840.906	26033.12
841.155	25994.12
841.404	25988.12
841.653	25950.12
841.902	25856.12
842.15	25974.12
842.399	25971.12
842.648	25969.12
842.897	25771.12
843.145	25656.12
843.394	25505.12
843.642	25347.12
843.891	25310.12
844.139	25194.12
844.388	25147.12
844.636	24880.12
844.884	24983.12
845.133	24842.12
845.381	24776.12
845.629	24775.12
845.877	24722.12
846.125	24738.12
846.373	24716.12
846.621	24510.12
846.869	24555.12
847.117	24389.12
847.365	24287.12
847.613	24136.12
847.861	24088.12
848.108	24008.12
848.356	24011.12
848.604	23922.12
848.851	23943.12
849.099	24024.12
849.346	23994.12
849.594	24064.12
849.841	24103.12
850.089	24103.12
850.336	24130.12
850.583	24237.12
850.831	24108.12
851.078	24012.12
851.325	23828.12
851.572	23758.12
851.819	23502.12
852.066	23183.12
852.313	22953.12
852.56	22641.12
852.807	22650.12
853.054	22619.12
853.301	22409.12
853.548	22482.12
853.794	22565.12
854.041	22775.12
854.288	22748.12
854.534	22984.12
854.781	22961.12
855.028	22783.12
855.274	22704.12
855.52	22469.12
855.767	22341.12
856.013	22317.12
856.26	22479.12
856.506	22107.12
856.752	22077.12
856.998	22170.12
857.244	22109.12
857.49	22333.12
857.736	22298.12
857.982	22240.12
858.228	22202.12
858.474	22109.12
858.72	21999.12
858.966	21776.12
859.212	21649.12
859.458	21371.12
859.703	21198.12
859.949	20883.12
860.195	20747.12
860.44	20723.12
860.686	20455.12
860.931	20520.12
861.177	20378.12
861.422	20376.12
861.667	20321.12
861.913	20375.12
862.158	20438.12
862.403	20564.12
862.648	20451.12
862.893	20679.12
863.138	20497.12
863.384	20506.12
863.629	20453.12
863.873	20416.12
864.118	20311.12
864.363	20218.12
864.608	20067.12
864.853	20064.12
865.098	19979.12
865.342	19858.12
865.587	19696.12
865.832	19765.12
866.076	19652.12
866.321	19633.12
866.565	19492.12
866.81	19317.12
867.054	19428.12
867.298	19338.12
867.543	19226.12
867.787	19213.12
868.031	19120.12
868.275	19098.12
868.519	19017.12
868.764	19072.12
869.008	18968.12
869.252	18905.12
869.496	18770.12
869.739	18789.12
869.983	18779.12
870.227	18674.12
870.471	18616.12
870.715	18660.12
870.958	18770.12
871.202	18705.12
871.446	18677.12
871.689	18702.12
871.933	18631.12
872.176	18666.12
872.42	18684.12
872.663	18492.12
872.906	18446.12
873.15	18373.12
873.393	18210.12
873.636	18194.12
873.879	18017.12
874.122	17880.12
874.366	17609.12
874.609	17580.12
874.852	17461.12
875.095	17406.12
875.337	17305.12
875.58	17158.12
875.823	17213.12
876.066	17225.12
876.309	17116.12
876.551	17008.12
876.794	16939.12
877.037	16937.12
877.279	16837.12
877.522	16847.12
877.764	16894.12
878.007	16908.12
878.249	16927.12
878.491	16758.12
878.734	16864.12
878.976	16797.12
879.218	16655.12
879.46	16532.12
879.702	16460.12
879.945	16395.12
880.187	16265.12
880.429	16307.12
880.671	16046.12
880.912	16034.12
881.154	15877.12
881.396	15904.12
881.638	15862.12
881.88	15860.12
882.121	15779.12
882.363	15743.12
882.605	15708.12
882.846	15627.12
883.088	15604.12
883.329	15497.12
883.571	15379.12
883.812	15375.12
884.053	15416.12
884.295	15579.12
884.536	15570.12
884.777	15600.12
885.018	15527.12
885.259	15508.12
885.5	15338.12
885.742	15667.12
885.982	15391.12
886.223	15276.12
886.464	15148.12
886.705	15131.12
886.946	15020.12
887.187	14872.12
887.428	14888.12
887.668	14740.12
887.909	14636.12
888.15	14473.12
888.39	14511.12
888.631	14395.12
888.871	14198.12
889.111	14163.12
889.352	14074.12
889.592	13936.12
889.833	13846.12
890.073	13783.12
890.313	13765.12
890.553	13533.12
890.793	13485.12
891.033	13475.12
891.273	13379.12
891.513	13362.12
891.753	13332.12
891.993	13217.12
892.233	13348.12
892.473	13375.12
892.713	13328.12
892.952	13298.12
893.192	13396.12
893.432	13299.12
893.671	13249.12
893.911	13202.12
894.15	13203.12
894.39	13016.12
894.629	12926.12
894.869	12824.12
895.108	12881.12
895.347	12644.12
895.587	12694.12
895.826	12593.12
896.065	12506.12
896.304	12524.12
896.543	12494.12
896.782	12430.12
897.021	12395.12
897.26	12459.12
897.499	12415.12
897.738	12346.12
897.977	12223.12
898.216	12146.12
898.454	12088.12
898.693	11860.12
898.932	11901.12
899.17	11760.12
899.409	11773.12
899.647	11749.12
899.886	11719.12
900.124	11670.12
900.363	11647.12
900.601	11658.12
900.839	11673.12
901.078	11683.12
901.316	11627.12
901.554	11694.12
901.792	11706.12
902.03	11616.12
902.268	11679.12
902.506	11644.12
902.744	11514.12
902.982	11504.12
903.22	11334.12
903.458	11232.12
903.695	11165.12
903.933	11072.12
904.171	10877.12
904.409	10797.12
904.646	10707.12
904.884	10435.12
905.121	10537.12
905.359	10432.12
905.596	10287.12
905.833	10225.12
906.071	10183.12
906.308	10203.12
906.545	10090.12
906.783	10005.12
907.02	10083.12
907.257	9997.12
907.494	10020.12
907.731	9980.12
907.968	9989.12
908.205	9841.12
908.442	9727.12
908.679	9810.12
908.915	9658.12
909.152	9603.12
909.389	9538.12
909.626	9441.12
909.862	9411.12
910.099	9379.12
910.335	9337.12
910.572	9258.12
910.808	9251.12
911.045	9233.12
911.281	9191.12
911.518	9207.12
911.754	9112.12
911.99	9052.12
912.226	8974.12
912.463	8882.12
912.699	8804.12
912.935	8754.12
913.171	8763.12
913.407	8616.12
913.643	8667.12
913.879	8544.12
914.114	8387.12
914.35	8336.12
914.586	8296.12
914.822	8205.12
915.057	8239.12
915.293	8010.12
915.529	8002.12
915.764	8091.12
916	8043.12
916.235	7997.12
916.471	8011.12
916.706	7915.12
916.941	7921.12
917.177	7909.12
917.412	7968.12
917.647	7894.12
917.882	7921.12
918.117	7948.12
918.352	7792.12
918.588	7885.12
918.823	7740.12
919.057	7659.12
919.292	7534.12
919.527	7600.12
919.762	7415.12
919.997	7370.12
920.232	7307.12
920.466	7233.12
920.701	7065.12
920.935	7126.12
921.17	7060.12
921.405	7017.12
921.639	7019.12
921.873	7002.12
922.108	7046.12
922.342	6946.12
922.576	6897.12
922.811	6863.12
923.045	6934.12
923.279	6901.12
923.513	6750.12
923.747	6834.12
923.981	6727.12
924.215	6630.12
924.449	6643.12
924.683	6540.12
924.917	6535.12
925.151	6535.12
925.385	6579.12
925.618	6483.12
925.852	6432.12
926.086	6401.12
926.319	6428.12
926.553	6444.12
926.786	6380.12
927.02	6434.12
927.253	6442.12
927.486	6421.12
927.72	6341.12
927.953	6380.12
928.186	6282.12
928.42	6314.12
928.653	6227.12
928.886	6237.12
929.119	6204.12
929.352	6221.12
929.585	6140.12
929.818	6089.12
930.051	6070.12
930.284	6052.12
930.516	5908.12
930.749	5854.12
930.982	5865.12
931.215	5851.12
931.447	5780.12
931.68	5764.12
931.912	5760.12
932.145	5739.12
932.377	5754.12
932.61	5926.12
932.842	5745.12
933.074	5750.12
933.307	5727.12
933.539	5814.12
933.771	5785.12
934.003	5696.12
934.236	5799.12
934.468	5783.12
934.7	5686.12
934.932	5742.12
935.164	5656.12
935.395	5663.12
935.627	5674.12
935.859	5595.12
936.091	5519.12
936.323	5624.12
936.554	5615.12
936.786	5560.12
937.017	5462.12
937.249	5484.12
937.481	5377.12
937.712	5481.12
937.943	5435.12
938.175	5406.12
938.406	5387.12
938.637	5496.12
938.869	5389.12
939.1	5385.12
939.331	5376.12
939.562	5402.12
939.793	5295.12
940.024	5348.12
940.255	5355.12
940.486	5230.12
940.717	5208.12
940.948	5215.12
941.179	5170.12
941.409	5141.12
941.64	5103.12
941.871	5168.12
942.102	5112.12
942.332	5142.12
942.563	5210.12
942.793	5177.12
943.024	5065.12
943.254	5090.12
943.484	5197.12
943.715	5152.12
943.945	5099.12
944.175	5035.12
944.405	5017.12
944.636	5014.12
944.866	5051.12
945.096	5047.12
945.326	5018.12
945.556	5048.12
945.786	5040.12
946.016	4983.12
946.245	4878.12
946.475	4865.12
946.705	4874.12
946.935	4810.12
947.164	4827.12
947.394	4764.12
947.624	4821.12
947.853	4787.12
948.083	4749.12
948.312	4708.12
948.542	4668.12
948.771	4630.12
949	4654.12
949.23	4675.12
949.459	4628.12
949.688	4671.12
949.917	4622.12
950.146	4626.12
950.375	4706.12
950.604	4586.12
950.833	4685.12
951.062	4643.12
951.291	4630.12
951.52	4537.12
951.749	4571.12
951.978	4532.12
952.206	4521.12
952.435	4496.12
952.664	4524.12
952.892	4534.12
953.121	4450.12
953.349	4480.12
953.578	4448.12
953.806	4375.12
954.035	4353.12
954.263	4426.12
954.491	4337.12
954.719	4363.12
954.948	4305.12
955.176	4269.12
955.404	4216.12
955.632	4307.12
955.86	4289.12
956.088	4208.12
956.316	4253.12
956.544	4269.12
956.772	4171.12
956.999	4096.12
957.227	4196.12
957.455	4093.12
957.683	4085.12
957.91	4081.12
958.138	4072.12
958.365	3976.12
958.593	4023.12
958.82	3954.12
959.048	4026.12
959.275	3982.12
959.502	3954.12
959.73	3909.12
959.957	3948.12
960.184	3965.12
960.411	3874.12
960.638	3963.12
960.865	3899.12
961.092	3930.12
961.319	3824.12
961.546	3965.12
961.773	3963.12
962	3890.12
962.227	3931.12
962.454	3880.12
962.68	3835.12
962.907	3838.12
963.134	3784.12
963.36	3767.12
963.587	3766.12
963.813	3685.12
964.04	3742.12
964.266	3624.12
964.493	3742.12
964.719	3718.12
964.945	3684.12
965.171	3550.12
965.398	3596.12
965.624	3587.12
965.85	3543.12
966.076	3493.12
966.302	3542.12
966.528	3519.12
966.754	3568.12
966.98	3566.12
967.206	3475.12
967.431	3429.12
967.657	3496.12
967.883	3498.12
968.109	3487.12
968.334	3391.12
968.56	3419.12
968.785	3437.12
969.011	3385.12
969.236	3406.12
969.462	3324.12
969.687	3384.12
969.912	3396.12
970.138	3406.12
970.363	3355.12
970.588	3331.12
970.813	3317.12
971.038	3250.12
971.263	3292.12
971.488	3324.12
971.713	3333.12
971.938	3271.12
972.163	3179.12
972.388	3203.12
972.613	3164.12
972.838	3204.12
973.062	3178.12
973.287	3155.12
973.512	3113.12
973.736	3134.12
973.961	3095.12
974.185	3048.12
974.41	3090.12
974.634	3021.12
974.858	2997.12
975.083	3039.12
975.307	3054.12
975.531	2976.12
975.755	2890.12
975.98	2953.12
976.204	2868.12
976.428	2851.12
976.652	2838.12
976.876	2824.12
977.1	2861.12
977.324	2830.12
977.547	2850.12
977.771	2837.12
977.995	2848.12
978.219	2749.12
978.442	2868.12
978.666	2790.12
978.89	2763.12
979.113	2807.12
979.337	2763.12
979.56	2760.12
979.783	2786.12
980.007	2708.12
980.23	2746.12
980.453	2695.12
980.677	2739.12
980.9	2756.12
981.123	2592.12
981.346	2669.12
981.569	2655.12
981.792	2690.12
982.015	2609.12
982.238	2630.12
982.461	2617.12
982.684	2584.12
982.907	2535.12
983.129	2496.12
983.352	2596.12
983.575	2578.12
983.797	2522.12
984.02	2467.12
984.242	2463.12
984.465	2486.12
984.687	2494.12
984.91	2515.12
985.132	2481.12
985.354	2496.12
985.577	2457.12
985.799	2453.12
986.021	2338.12
986.243	2378.12
986.465	2363.12
986.687	2437.12
986.909	2496.12
987.131	2384.12
987.353	2346.12
987.575	2384.12
987.797	2323.12
988.019	2300.12
988.241	2309.12
988.462	2285.12
988.684	2337.12
988.906	2379.12
989.127	2374.12
989.349	2232.12
989.57	2268.12
989.792	2314.12
990.013	2322.12
990.234	2356.12
990.456	2303.12
990.677	2324.12
990.898	2252.12
991.119	2249.12
991.341	2305.12
991.562	2190.12
991.783	2228.12
992.004	2175.12
992.225	2124.12
992.446	2166.12
992.667	2073.12
992.887	2165.12
993.108	2100.12
993.329	2200.12
993.55	2151.12
993.77	2054.12
993.991	2056.12
994.212	2107.12
994.432	2074.12
994.653	2053.12
994.873	2064.12
995.093	1974.12
995.314	1992.12
995.534	2056.12
995.754	2054.12
995.975	2112.12
996.195	1970.12
996.415	2002.12
996.635	1995.12
996.855	2000.12
997.075	1964.12
997.295	1969.12
997.515	1944.12
997.735	1993.12
997.955	1951.12
998.174	1956.12
998.394	1915.12
998.614	1963.12
998.834	1870.12
999.053	1967.12
999.273	1900.12
999.492	1995.12
999.712	1915.12
999.931	1907.12
1000.151	1920.12
1000.37	1909.12
1000.589	1952.12
1000.809	1863.12
1001.028	2022.12
1001.247	1975.12
1001.466	1794.12
1001.685	1954.12
1001.904	1871.12
1002.123	1843.12
1002.342	1850.12
1002.561	1817.12
1002.78	1863.12
1002.999	1913.12
1003.218	1828.12
1003.436	1776.12
1003.655	1864.12
1003.874	1769.12
1004.092	1788.12
1004.311	1855.12
1004.53	1803.12
1004.748	1877.12
1004.966	1797.12
1005.185	1836.12
1005.403	1804.12
1005.622	1806.12
1005.84	1880.12
1006.058	1750.12
1006.276	1775.12
1006.494	2267.12
1006.712	1752.12
1006.931	1822.12
1007.149	1709.12
1007.367	1704.12
1007.584	1749.12
1007.802	1762.12
1008.02	1702.12
1008.238	1844.12
1008.456	1749.12
1008.673	1635.12
1008.891	1776.12
1009.109	1695.12
1009.326	1720.12
1009.544	1806.12
1009.761	1707.12
1009.979	1769.12
1010.196	1763.12
1010.413	1834.12
1010.631	1827.12
1010.848	1844.12
1011.065	1843.12
1011.282	1809.12
1011.5	1737.12
1011.717	1822.12
1011.934	1772.12
1012.151	1822.12
1012.368	1789.12
1012.585	1746.12
1012.801	1775.12
1013.018	1719.12
1013.235	1690.12
1013.452	1716.12
1013.669	1726.12
1013.885	1694.12
1014.102	1715.12
1014.318	1714.12
1014.535	1631.12
1014.751	1667.12
1014.968	1673.12
1015.184	1723.12
1015.401	1595.12
1015.617	1645.12
1015.833	1599.12
1016.049	1610.12
1016.266	1568.12
1016.482	1591.12
1016.698	1528.12
1016.914	1572.12
1017.13	1539.12
1017.346	1503.12
1017.562	1610.12
1017.778	1528.12
1017.993	1516.12
1018.209	1538.12
1018.425	1551.12
1018.641	1464.12
1018.856	1489.12
1019.072	1497.12
1019.288	1528.12
1019.503	1526.12
1019.719	1405.12
1019.934	1437.12
1020.149	1496.12
1020.365	1447.12
1020.58	1403.12
1020.795	1444.12
1021.011	1388.12
1021.226	1359.12
1021.441	1385.12
1021.656	1326.12
1021.871	1267.12
1022.086	1275.12
1022.301	1252.12
1022.516	1235.12
1022.731	1307.12
1022.946	1225.12
1023.16	1200.12
1023.375	1189.12
1023.59	1143.12
1023.804	1151.12
1024.019	1237.12
1024.234	1091.12
1024.448	1132.12
1024.663	1065.12
1024.877	1073.12
1025.092	1088.12
1025.306	1124.12
1025.52	998.12
1025.734	1095.12
1025.949	1025.12
1026.163	981.12
1026.377	915.12
1026.591	956.12
1026.805	884.12
1027.019	890.12
1027.233	855.12
1027.447	800.12
1027.661	896.12
1027.875	828.12
1028.088	820.12
1028.302	782.12
1028.516	767.12
1028.73	763.12
1028.943	724.12
1029.157	702.12
1029.37	659.12
1029.584	-0.88
1029.797	-0.88
1030.011	-3.88
1030.224	-1.88
