Data from QEP037381__185__14-03-19-163.txt Node

Date: Wed Dec 21 14:03:19 EST 2022
User: dcclab
Spectrometer: QEP03738
Trigger mode: 4
Integration Time (sec): 1.000000E1
Scans to average: 1
Electric dark correction enabled: true
Nonlinearity correction enabled: false
Boxcar width: 0
XAxis mode: Wavelengths
Number of Pixels in Spectrum: 1044
>>>>>Begin Spectral Data<<<<<
784.041	12.38
784.3	0.38
784.558	-1.62
784.817	-5.62
785.075	99863.38
785.334	17286.38
785.592	8118.38
785.851	5657.38
786.109	4246.38
786.368	3354.38
786.626	2647.38
786.884	2179.38
787.143	1819.38
787.401	1516.38
787.659	1368.38
787.917	1188.38
788.175	1080.38
788.433	951.38
788.691	857.38
788.949	798.38
789.207	764.38
789.465	658.38
789.723	628.38
789.98	588.38
790.238	628.38
790.496	588.38
790.753	554.38
791.011	596.38
791.268	531.38
791.526	521.38
791.783	526.38
792.041	523.38
792.298	433.38
792.556	498.38
792.813	477.38
793.07	452.38
793.327	444.38
793.584	544.38
793.841	453.38
794.099	482.38
794.356	518.38
794.613	423.38
794.869	457.38
795.126	422.38
795.383	426.38
795.64	434.38
795.897	379.38
796.153	443.38
796.41	434.38
796.667	408.38
796.923	421.38
797.18	435.38
797.436	452.38
797.693	408.38
797.949	471.38
798.206	507.38
798.462	405.38
798.718	468.38
798.974	447.38
799.231	491.38
799.487	468.38
799.743	475.38
799.999	514.38
800.255	507.38
800.511	477.38
800.767	519.38
801.023	524.38
801.279	562.38
801.534	578.38
801.79	632.38
802.046	639.38
802.302	763.38
802.557	866.38
802.813	1072.38
803.068	1303.38
803.324	1794.38
803.579	2419.38
803.835	3329.38
804.09	4661.38
804.345	6166.38
804.601	7776.38
804.856	9501.38
805.111	10992.38
805.366	12083.38
805.621	12869.38
805.876	13332.38
806.131	13734.38
806.386	13959.38
806.641	14245.38
806.896	14558.38
807.151	14838.38
807.406	14948.38
807.661	15323.38
807.915	15595.38
808.17	15849.38
808.425	16082.38
808.679	16126.38
808.934	16434.38
809.188	16549.38
809.443	16790.38
809.697	16928.38
809.951	16999.38
810.206	17174.38
810.46	17418.38
810.714	17554.38
810.968	17660.38
811.223	17774.38
811.477	18019.38
811.731	18143.38
811.985	18247.38
812.239	18305.38
812.493	18442.38
812.747	18500.38
813	18439.38
813.254	18616.38
813.508	18688.38
813.762	18865.38
814.015	18776.38
814.269	19019.38
814.522	19352.38
814.776	19606.38
815.03	19840.38
815.283	20052.38
815.536	20444.38
815.79	20719.38
816.043	20955.38
816.296	21207.38
816.55	21542.38
816.803	21828.38
817.056	22136.38
817.309	22373.38
817.562	22524.38
817.815	22785.38
818.068	22989.38
818.321	23230.38
818.574	23557.38
818.827	23861.38
819.079	24074.38
819.332	24578.38
819.585	24839.38
819.838	25172.38
820.09	25331.38
820.343	25586.38
820.595	25631.38
820.848	25895.38
821.1	25949.38
821.353	26015.38
821.605	25923.38
821.857	25955.38
822.11	25839.38
822.362	25829.38
822.614	25766.38
822.866	25801.38
823.118	25827.38
823.37	25975.38
823.622	25912.38
823.874	25961.38
824.126	26097.38
824.378	26176.38
824.63	26277.38
824.882	26232.38
825.134	26204.38
825.385	26155.38
825.637	26209.38
825.888	26049.38
826.14	26061.38
826.392	25934.38
826.643	25776.38
826.895	25676.38
827.146	25609.38
827.397	25580.38
827.649	25682.38
827.9	25484.38
828.151	25611.38
828.402	25609.38
828.653	25746.38
828.905	25770.38
829.156	25895.38
829.407	25670.38
829.658	25762.38
829.909	25760.38
830.159	25576.38
830.41	25439.38
830.661	25336.38
830.912	25210.38
831.162	25147.38
831.413	24969.38
831.664	25125.38
831.914	25028.38
832.165	25012.38
832.415	25139.38
832.666	25080.38
832.916	25038.38
833.167	24960.38
833.417	25004.38
833.667	24855.38
833.917	24906.38
834.168	24721.38
834.418	24637.38
834.668	24644.38
834.918	24538.38
835.168	24423.38
835.418	24237.38
835.668	24281.38
835.918	24201.38
836.167	24197.38
836.417	24063.38
836.667	24064.38
836.917	24066.38
837.166	23856.38
837.416	23976.38
837.666	23930.38
837.915	23824.38
838.165	23805.38
838.414	23679.38
838.663	23507.38
838.913	23607.38
839.162	23466.38
839.411	23550.38
839.661	23408.38
839.91	23385.38
840.159	23217.38
840.408	23306.38
840.657	23340.38
840.906	23246.38
841.155	23293.38
841.404	23219.38
841.653	23204.38
841.902	23173.38
842.15	23150.38
842.399	23291.38
842.648	23210.38
842.897	23007.38
843.145	22973.38
843.394	22795.38
843.642	22649.38
843.891	22638.38
844.139	22608.38
844.388	22411.38
844.636	22351.38
844.884	22191.38
845.133	22201.38
845.381	22038.38
845.629	22215.38
845.877	22107.38
846.125	22091.38
846.373	22074.38
846.621	22013.38
846.869	22026.38
847.117	21779.38
847.365	21678.38
847.613	21622.38
847.861	21597.38
848.108	21641.38
848.356	21464.38
848.604	21391.38
848.851	21459.38
849.099	21429.38
849.346	21528.38
849.594	21580.38
849.841	21614.38
850.089	21781.38
850.336	21674.38
850.583	21630.38
850.831	21530.38
851.078	21440.38
851.325	21297.38
851.572	21251.38
851.819	21063.38
852.066	20673.38
852.313	20474.38
852.56	20374.38
852.807	20213.38
853.054	20167.38
853.301	20175.38
853.548	20231.38
853.794	20375.38
854.041	20385.38
854.288	20414.38
854.534	20501.38
854.781	20543.38
855.028	20422.38
855.274	20394.38
855.52	20264.38
855.767	20067.38
856.013	20127.38
856.26	20315.38
856.506	19877.38
856.752	19867.38
856.998	19727.38
857.244	19774.38
857.49	19924.38
857.736	19981.38
857.982	20040.38
858.228	19960.38
858.474	19814.38
858.72	19718.38
858.966	19600.38
859.212	19305.38
859.458	19137.38
859.703	18961.38
859.949	18807.38
860.195	18719.38
860.44	18534.38
860.686	18402.38
860.931	18474.38
861.177	18315.38
861.422	18348.38
861.667	18252.38
861.913	18294.38
862.158	18361.38
862.403	18459.38
862.648	18464.38
862.893	18429.38
863.138	18385.38
863.384	18374.38
863.629	18409.38
863.873	18399.38
864.118	18137.38
864.363	18161.38
864.608	18115.38
864.853	18018.38
865.098	17931.38
865.342	17857.38
865.587	17807.38
865.832	17698.38
866.076	17707.38
866.321	17693.38
866.565	17667.38
866.81	17407.38
867.054	17458.38
867.298	17327.38
867.543	17311.38
867.787	17326.38
868.031	17341.38
868.275	17189.38
868.519	17331.38
868.764	17168.38
869.008	17063.38
869.252	17107.38
869.496	16846.38
869.739	16919.38
869.983	16955.38
870.227	16856.38
870.471	16773.38
870.715	16926.38
870.958	16840.38
871.202	16861.38
871.446	16960.38
871.689	16854.38
871.933	16924.38
872.176	16746.38
872.42	16845.38
872.663	16660.38
872.906	16637.38
873.15	16509.38
873.393	16395.38
873.636	16324.38
873.879	16169.38
874.122	16134.38
874.366	15922.38
874.609	15891.38
874.852	15773.38
875.095	15694.38
875.337	15610.38
875.58	15479.38
875.823	15557.38
876.066	15445.38
876.309	15461.38
876.551	15333.38
876.794	15181.38
877.037	15324.38
877.279	15260.38
877.522	15245.38
877.764	15309.38
878.007	15209.38
878.249	15252.38
878.491	15175.38
878.734	15240.38
878.976	15239.38
879.218	14988.38
879.46	15017.38
879.702	14920.38
879.945	14763.38
880.187	14652.38
880.429	14631.38
880.671	14625.38
880.912	14461.38
881.154	14475.38
881.396	14262.38
881.638	14335.38
881.88	14305.38
882.121	14327.38
882.363	14170.38
882.605	14269.38
882.846	14110.38
883.088	14095.38
883.329	14045.38
883.571	13937.38
883.812	13909.38
884.053	14023.38
884.295	14009.38
884.536	14102.38
884.777	14067.38
885.018	14030.38
885.259	14004.38
885.5	13873.38
885.742	14215.38
885.982	13882.38
886.223	13850.38
886.464	13825.38
886.705	13672.38
886.946	13602.38
887.187	13537.38
887.428	13518.38
887.668	13263.38
887.909	13157.38
888.15	13093.38
888.39	13007.38
888.631	13032.38
888.871	12928.38
889.111	12801.38
889.352	12697.38
889.592	12528.38
889.833	12533.38
890.073	12459.38
890.313	12435.38
890.553	12238.38
890.793	12218.38
891.033	12161.38
891.273	12144.38
891.513	12011.38
891.753	12098.38
891.993	12038.38
892.233	12092.38
892.473	12126.38
892.713	12060.38
892.952	12061.38
893.192	12099.38
893.432	11949.38
893.671	12078.38
893.911	11922.38
894.15	11920.38
894.39	11715.38
894.629	11705.38
894.869	11660.38
895.108	11613.38
895.347	11511.38
895.587	11507.38
895.826	11439.38
896.065	11342.38
896.304	11393.38
896.543	11376.38
896.782	11244.38
897.021	11199.38
897.26	11259.38
897.499	11221.38
897.738	11201.38
897.977	11102.38
898.216	10893.38
898.454	10874.38
898.693	10787.38
898.932	10802.38
899.17	10767.38
899.409	10725.38
899.647	10642.38
899.886	10577.38
900.124	10656.38
900.363	10526.38
900.601	10606.38
900.839	10560.38
901.078	10601.38
901.316	10562.38
901.554	10637.38
901.792	10682.38
902.03	10526.38
902.268	10540.38
902.506	10597.38
902.744	10483.38
902.982	10499.38
903.22	10235.38
903.458	10186.38
903.695	10158.38
903.933	10096.38
904.171	9895.38
904.409	9759.38
904.646	9692.38
904.884	9563.38
905.121	9485.38
905.359	9456.38
905.596	9332.38
905.833	9304.38
906.071	9211.38
906.308	9221.38
906.545	9162.38
906.783	9165.38
907.02	9145.38
907.257	9088.38
907.494	9039.38
907.731	9056.38
907.968	9079.38
908.205	8950.38
908.442	8853.38
908.679	8859.38
908.915	8769.38
909.152	8772.38
909.389	8538.38
909.626	8589.38
909.862	8504.38
910.099	8542.38
910.335	8577.38
910.572	8481.38
910.808	8385.38
911.045	8355.38
911.281	8328.38
911.518	8279.38
911.754	8257.38
911.99	8238.38
912.226	8242.38
912.463	8093.38
912.699	8060.38
912.935	8024.38
913.171	7956.38
913.407	7849.38
913.643	7798.38
913.879	7775.38
914.114	7676.38
914.35	7612.38
914.586	7556.38
914.822	7494.38
915.057	7505.38
915.293	7298.38
915.529	7283.38
915.764	7336.38
916	7354.38
916.235	7294.38
916.471	7313.38
916.706	7233.38
916.941	7222.38
917.177	7229.38
917.412	7231.38
917.647	7252.38
917.882	7164.38
918.117	7228.38
918.352	7194.38
918.588	7174.38
918.823	7036.38
919.057	6993.38
919.292	6863.38
919.527	6936.38
919.762	6769.38
919.997	6788.38
920.232	6641.38
920.466	6639.38
920.701	6480.38
920.935	6547.38
921.17	6478.38
921.405	6373.38
921.639	6413.38
921.873	6401.38
922.108	6384.38
922.342	6409.38
922.576	6307.38
922.811	6228.38
923.045	6288.38
923.279	6340.38
923.513	6111.38
923.747	6193.38
923.981	6117.38
924.215	6076.38
924.449	6064.38
924.683	5982.38
924.917	5992.38
925.151	5950.38
925.385	6030.38
925.618	5937.38
925.852	5912.38
926.086	5832.38
926.319	5864.38
926.553	5828.38
926.786	5847.38
927.02	5809.38
927.253	5862.38
927.486	5839.38
927.72	5768.38
927.953	5850.38
928.186	5721.38
928.42	5803.38
928.653	5711.38
928.886	5658.38
929.119	5720.38
929.352	5651.38
929.585	5579.38
929.818	5590.38
930.051	5548.38
930.284	5462.38
930.516	5385.38
930.749	5401.38
930.982	5439.38
931.215	5332.38
931.447	5246.38
931.68	5277.38
931.912	5282.38
932.145	5271.38
932.377	5254.38
932.61	5414.38
932.842	5243.38
933.074	5306.38
933.307	5253.38
933.539	5325.38
933.771	5335.38
934.003	5263.38
934.236	5314.38
934.468	5309.38
934.7	5202.38
934.932	5229.38
935.164	5200.38
935.395	5134.38
935.627	5166.38
935.859	5158.38
936.091	5048.38
936.323	5140.38
936.554	5119.38
936.786	5042.38
937.017	4970.38
937.249	4980.38
937.481	4933.38
937.712	4990.38
937.943	4910.38
938.175	4973.38
938.406	4906.38
938.637	5035.38
938.869	4900.38
939.1	4908.38
939.331	4854.38
939.562	4935.38
939.793	4891.38
940.024	4893.38
940.255	4863.38
940.486	4822.38
940.717	4761.38
940.948	4722.38
941.179	4681.38
941.409	4694.38
941.64	4723.38
941.871	4745.38
942.102	4678.38
942.332	4720.38
942.563	4735.38
942.793	4730.38
943.024	4698.38
943.254	4702.38
943.484	4748.38
943.715	4737.38
943.945	4690.38
944.175	4632.38
944.405	4605.38
944.636	4657.38
944.866	4633.38
945.096	4692.38
945.326	4577.38
945.556	4620.38
945.786	4603.38
946.016	4576.38
946.245	4491.38
946.475	4508.38
946.705	4472.38
946.935	4475.38
947.164	4401.38
947.394	4397.38
947.624	4356.38
947.853	4408.38
948.083	4352.38
948.312	4329.38
948.542	4278.38
948.771	4242.38
949	4332.38
949.23	4306.38
949.459	4264.38
949.688	4277.38
949.917	4263.38
950.146	4275.38
950.375	4297.38
950.604	4264.38
950.833	4319.38
951.062	4262.38
951.291	4243.38
951.52	4193.38
951.749	4200.38
951.978	4110.38
952.206	4165.38
952.435	4107.38
952.664	4186.38
952.892	4209.38
953.121	4107.38
953.349	4173.38
953.578	4094.38
953.806	4083.38
954.035	4041.38
954.263	4037.38
954.491	3972.38
954.719	4030.38
954.948	4010.38
955.176	3951.38
955.404	3911.38
955.632	3889.38
955.86	3942.38
956.088	3904.38
956.316	3899.38
956.544	3928.38
956.772	3829.38
956.999	3813.38
957.227	3876.38
957.455	3753.38
957.683	3798.38
957.91	3717.38
958.138	3704.38
958.365	3695.38
958.593	3690.38
958.82	3615.38
959.048	3670.38
959.275	3655.38
959.502	3646.38
959.73	3609.38
959.957	3654.38
960.184	3627.38
960.411	3617.38
960.638	3684.38
960.865	3645.38
961.092	3627.38
961.319	3563.38
961.546	3634.38
961.773	3579.38
962	3558.38
962.227	3637.38
962.454	3566.38
962.68	3535.38
962.907	3562.38
963.134	3471.38
963.36	3485.38
963.587	3510.38
963.813	3410.38
964.04	3450.38
964.266	3358.38
964.493	3474.38
964.719	3391.38
964.945	3434.38
965.171	3304.38
965.398	3348.38
965.624	3378.38
965.85	3266.38
966.076	3319.38
966.302	3283.38
966.528	3274.38
966.754	3271.38
966.98	3272.38
967.206	3217.38
967.431	3210.38
967.657	3255.38
967.883	3266.38
968.109	3225.38
968.334	3175.38
968.56	3151.38
968.785	3197.38
969.011	3106.38
969.236	3138.38
969.462	3102.38
969.687	3073.38
969.912	3140.38
970.138	3198.38
970.363	3044.38
970.588	3099.38
970.813	3014.38
971.038	3017.38
971.263	3045.38
971.488	3070.38
971.713	3070.38
971.938	3046.38
972.163	2932.38
972.388	2972.38
972.613	2934.38
972.838	2965.38
973.062	2944.38
973.287	2940.38
973.512	2870.38
973.736	2903.38
973.961	2872.38
974.185	2832.38
974.41	2876.38
974.634	2776.38
974.858	2774.38
975.083	2847.38
975.307	2801.38
975.531	2732.38
975.755	2720.38
975.98	2714.38
976.204	2641.38
976.428	2621.38
976.652	2589.38
976.876	2632.38
977.1	2661.38
977.324	2625.38
977.547	2652.38
977.771	2654.38
977.995	2600.38
978.219	2567.38
978.442	2678.38
978.666	2586.38
978.89	2574.38
979.113	2601.38
979.337	2594.38
979.56	2549.38
979.783	2612.38
980.007	2509.38
980.23	2568.38
980.453	2485.38
980.677	2543.38
980.9	2504.38
981.123	2425.38
981.346	2530.38
981.569	2491.38
981.792	2473.38
982.015	2433.38
982.238	2417.38
982.461	2477.38
982.684	2404.38
982.907	2372.38
983.129	2312.38
983.352	2397.38
983.575	2357.38
983.797	2369.38
984.02	2296.38
984.242	2314.38
984.465	2340.38
984.687	2326.38
984.91	2341.38
985.132	2334.38
985.354	2327.38
985.577	2289.38
985.799	2256.38
986.021	2203.38
986.243	2226.38
986.465	2241.38
986.687	2253.38
986.909	2292.38
987.131	2244.38
987.353	2182.38
987.575	2224.38
987.797	2196.38
988.019	2099.38
988.241	2191.38
988.462	2137.38
988.684	2181.38
988.906	2242.38
989.127	2251.38
989.349	2129.38
989.57	2135.38
989.792	2180.38
990.013	2182.38
990.234	2183.38
990.456	2215.38
990.677	2163.38
990.898	2121.38
991.119	2081.38
991.341	2139.38
991.562	2060.38
991.783	2136.38
992.004	2028.38
992.225	1991.38
992.446	2075.38
992.667	1972.38
992.887	2029.38
993.108	1951.38
993.329	2055.38
993.55	1979.38
993.77	1947.38
993.991	1936.38
994.212	1967.38
994.432	1928.38
994.653	1976.38
994.873	1938.38
995.093	1821.38
995.314	1848.38
995.534	1953.38
995.754	1946.38
995.975	1938.38
996.195	1861.38
996.415	1892.38
996.635	1865.38
996.855	1855.38
997.075	1890.38
997.295	1870.38
997.515	1827.38
997.735	1862.38
997.955	1860.38
998.174	1828.38
998.394	1791.38
998.614	1830.38
998.834	1794.38
999.053	1857.38
999.273	1822.38
999.492	1877.38
999.712	1842.38
999.931	1815.38
1000.151	1825.38
1000.37	1790.38
1000.589	1825.38
1000.809	1755.38
1001.028	1887.38
1001.247	1819.38
1001.466	1708.38
1001.685	1840.38
1001.904	1751.38
1002.123	1767.38
1002.342	1744.38
1002.561	1727.38
1002.78	1707.38
1002.999	1780.38
1003.218	1736.38
1003.436	1699.38
1003.655	1766.38
1003.874	1693.38
1004.092	1688.38
1004.311	1736.38
1004.53	1698.38
1004.748	1774.38
1004.966	1717.38
1005.185	1755.38
1005.403	1715.38
1005.622	1684.38
1005.84	1777.38
1006.058	1681.38
1006.276	1678.38
1006.494	2193.38
1006.712	1666.38
1006.931	1728.38
1007.149	1672.38
1007.367	1627.38
1007.584	1678.38
1007.802	1705.38
1008.02	1630.38
1008.238	1715.38
1008.456	1708.38
1008.673	1564.38
1008.891	1670.38
1009.109	1607.38
1009.326	1633.38
1009.544	1717.38
1009.761	1623.38
1009.979	1680.38
1010.196	1666.38
1010.413	1745.38
1010.631	1760.38
1010.848	1788.38
1011.065	1763.38
1011.282	1721.38
1011.5	1656.38
1011.717	1753.38
1011.934	1715.38
1012.151	1747.38
1012.368	1733.38
1012.585	1676.38
1012.801	1683.38
1013.018	1676.38
1013.235	1611.38
1013.452	1626.38
1013.669	1654.38
1013.885	1592.38
1014.102	1661.38
1014.318	1600.38
1014.535	1589.38
1014.751	1624.38
1014.968	1591.38
1015.184	1638.38
1015.401	1574.38
1015.617	1601.38
1015.833	1508.38
1016.049	1531.38
1016.266	1530.38
1016.482	1535.38
1016.698	1472.38
1016.914	1494.38
1017.13	1464.38
1017.346	1474.38
1017.562	1519.38
1017.778	1488.38
1017.993	1413.38
1018.209	1472.38
1018.425	1454.38
1018.641	1434.38
1018.856	1401.38
1019.072	1438.38
1019.288	1479.38
1019.503	1414.38
1019.719	1351.38
1019.934	1346.38
1020.149	1423.38
1020.365	1391.38
1020.58	1346.38
1020.795	1401.38
1021.011	1329.38
1021.226	1296.38
1021.441	1341.38
1021.656	1253.38
1021.871	1191.38
1022.086	1223.38
1022.301	1182.38
1022.516	1185.38
1022.731	1262.38
1022.946	1156.38
1023.16	1146.38
1023.375	1127.38
1023.59	1113.38
1023.804	1089.38
1024.019	1177.38
1024.234	1040.38
1024.448	1064.38
1024.663	1016.38
1024.877	1033.38
1025.092	1052.38
1025.306	1058.38
1025.52	962.38
1025.734	1041.38
1025.949	978.38
1026.163	926.38
1026.377	892.38
1026.591	914.38
1026.805	854.38
1027.019	851.38
1027.233	811.38
1027.447	772.38
1027.661	870.38
1027.875	811.38
1028.088	816.38
1028.302	718.38
1028.516	706.38
1028.73	721.38
1028.943	711.38
1029.157	665.38
1029.37	631.38
1029.584	-1.62
1029.797	-1.62
1030.011	0.38
1030.224	-2.62
