Data from QEP037381__181__14-02-39-163.txt Node

Date: Wed Dec 21 14:02:39 EST 2022
User: dcclab
Spectrometer: QEP03738
Trigger mode: 4
Integration Time (sec): 1.000000E1
Scans to average: 1
Electric dark correction enabled: true
Nonlinearity correction enabled: false
Boxcar width: 0
XAxis mode: Wavelengths
Number of Pixels in Spectrum: 1044
>>>>>Begin Spectral Data<<<<<
784.041	10.5
784.3	0.5
784.558	-2.5
784.817	-2.5
785.075	104212.5
785.334	17532.5
785.592	8033.5
785.851	5518.5
786.109	4172.5
786.368	3245.5
786.626	2618.5
786.884	2158.5
787.143	1837.5
787.401	1498.5
787.659	1352.5
787.917	1166.5
788.175	1055.5
788.433	953.5
788.691	868.5
788.949	791.5
789.207	752.5
789.465	667.5
789.723	644.5
789.98	584.5
790.238	632.5
790.496	570.5
790.753	548.5
791.011	618.5
791.268	547.5
791.526	513.5
791.783	551.5
792.041	524.5
792.298	451.5
792.556	512.5
792.813	473.5
793.07	468.5
793.327	451.5
793.584	546.5
793.841	476.5
794.099	472.5
794.356	531.5
794.613	437.5
794.869	489.5
795.126	430.5
795.383	416.5
795.64	444.5
795.897	399.5
796.153	451.5
796.41	431.5
796.667	428.5
796.923	427.5
797.18	428.5
797.436	443.5
797.693	414.5
797.949	476.5
798.206	494.5
798.462	419.5
798.718	473.5
798.974	452.5
799.231	490.5
799.487	475.5
799.743	473.5
799.999	504.5
800.255	514.5
800.511	500.5
800.767	537.5
801.023	529.5
801.279	556.5
801.534	592.5
801.79	664.5
802.046	671.5
802.302	815.5
802.557	908.5
802.813	1131.5
803.068	1359.5
803.324	1926.5
803.579	2603.5
803.835	3624.5
804.09	5072.5
804.345	6712.5
804.601	8597.5
804.856	10521.5
805.111	12140.5
805.366	13407.5
805.621	14214.5
805.876	14877.5
806.131	15244.5
806.386	15525.5
806.641	15850.5
806.896	16009.5
807.151	16362.5
807.406	16642.5
807.661	16946.5
807.915	17325.5
808.17	17591.5
808.425	17739.5
808.679	17838.5
808.934	18151.5
809.188	18278.5
809.443	18564.5
809.697	18777.5
809.951	18866.5
810.206	18979.5
810.46	19237.5
810.714	19372.5
810.968	19583.5
811.223	19643.5
811.477	19873.5
811.731	20048.5
811.985	20140.5
812.239	20254.5
812.493	20442.5
812.747	20462.5
813	20430.5
813.254	20681.5
813.508	20775.5
813.762	20837.5
814.015	21011.5
814.269	21160.5
814.522	21352.5
814.776	21474.5
815.03	21790.5
815.283	22201.5
815.536	22516.5
815.79	22923.5
816.043	23277.5
816.296	23518.5
816.55	23798.5
816.803	24207.5
817.056	24459.5
817.309	24674.5
817.562	24917.5
817.815	25227.5
818.068	25402.5
818.321	25812.5
818.574	26145.5
818.827	26483.5
819.079	26735.5
819.332	27323.5
819.585	27472.5
819.838	27897.5
820.09	27986.5
820.343	28450.5
820.595	28406.5
820.848	28653.5
821.1	28845.5
821.353	28705.5
821.605	28849.5
821.857	28853.5
822.11	28581.5
822.362	28723.5
822.614	28569.5
822.866	28652.5
823.118	28594.5
823.37	28699.5
823.622	28686.5
823.874	28804.5
824.126	28829.5
824.378	28928.5
824.63	29053.5
824.882	29062.5
825.134	29136.5
825.385	29027.5
825.637	29003.5
825.888	28873.5
826.14	28883.5
826.392	28659.5
826.643	28543.5
826.895	28408.5
827.146	28438.5
827.397	28470.5
827.649	28360.5
827.9	28321.5
828.151	28339.5
828.402	28341.5
828.653	28579.5
828.905	28529.5
829.156	28605.5
829.407	28479.5
829.658	28559.5
829.909	28419.5
830.159	28418.5
830.41	28305.5
830.661	27971.5
830.912	27915.5
831.162	27795.5
831.413	27736.5
831.664	27810.5
831.914	27747.5
832.165	27695.5
832.415	27705.5
832.666	27770.5
832.916	27847.5
833.167	27763.5
833.417	27755.5
833.667	27542.5
833.917	27435.5
834.168	27400.5
834.418	27270.5
834.668	27151.5
834.918	27096.5
835.168	27020.5
835.418	26876.5
835.668	26818.5
835.918	26842.5
836.167	26782.5
836.417	26662.5
836.667	26527.5
836.917	26539.5
837.166	26491.5
837.416	26524.5
837.666	26391.5
837.915	26419.5
838.165	26355.5
838.414	26203.5
838.663	26201.5
838.913	26061.5
839.162	25935.5
839.411	25999.5
839.661	25861.5
839.91	25820.5
840.159	25730.5
840.408	25831.5
840.657	25638.5
840.906	25668.5
841.155	25815.5
841.404	25733.5
841.653	25696.5
841.902	25659.5
842.15	25799.5
842.399	25714.5
842.648	25650.5
842.897	25586.5
843.145	25330.5
843.394	25285.5
843.642	25123.5
843.891	25034.5
844.139	24875.5
844.388	24795.5
844.636	24656.5
844.884	24572.5
845.133	24489.5
845.381	24571.5
845.629	24452.5
845.877	24483.5
846.125	24404.5
846.373	24477.5
846.621	24313.5
846.869	24208.5
847.117	24098.5
847.365	24004.5
847.613	23835.5
847.861	23866.5
848.108	23713.5
848.356	23703.5
848.604	23712.5
848.851	23734.5
849.099	23617.5
849.346	23820.5
849.594	23855.5
849.841	23873.5
850.089	24005.5
850.336	24003.5
850.583	24044.5
850.831	23766.5
851.078	23692.5
851.325	23517.5
851.572	23517.5
851.819	23199.5
852.066	22982.5
852.313	22692.5
852.56	22554.5
852.807	22449.5
853.054	22314.5
853.301	22230.5
853.548	22300.5
853.794	22383.5
854.041	22557.5
854.288	22519.5
854.534	22820.5
854.781	22623.5
855.028	22538.5
855.274	22570.5
855.52	22439.5
855.767	22092.5
856.013	22119.5
856.26	22406.5
856.506	21939.5
856.752	21993.5
856.998	21870.5
857.244	21802.5
857.49	21992.5
857.736	21963.5
857.982	21880.5
858.228	21998.5
858.474	21910.5
858.72	21726.5
858.966	21555.5
859.212	21422.5
859.458	21113.5
859.703	20952.5
859.949	20714.5
860.195	20673.5
860.44	20475.5
860.686	20231.5
860.931	20216.5
861.177	20191.5
861.422	20142.5
861.667	20094.5
861.913	20226.5
862.158	20201.5
862.403	20370.5
862.648	20333.5
862.893	20365.5
863.138	20404.5
863.384	20237.5
863.629	20241.5
863.873	20167.5
864.118	20173.5
864.363	19947.5
864.608	19946.5
864.853	19840.5
865.098	19747.5
865.342	19579.5
865.587	19518.5
865.832	19479.5
866.076	19461.5
866.321	19434.5
866.565	19450.5
866.81	19170.5
867.054	19189.5
867.298	19101.5
867.543	19088.5
867.787	19017.5
868.031	18955.5
868.275	19010.5
868.519	18894.5
868.764	18849.5
869.008	18731.5
869.252	18766.5
869.496	18650.5
869.739	18642.5
869.983	18577.5
870.227	18542.5
870.471	18459.5
870.715	18451.5
870.958	18550.5
871.202	18519.5
871.446	18613.5
871.689	18552.5
871.933	18476.5
872.176	18528.5
872.42	18509.5
872.663	18350.5
872.906	18319.5
873.15	18174.5
873.393	18028.5
873.636	18030.5
873.879	17856.5
874.122	17712.5
874.366	17528.5
874.609	17317.5
874.852	17292.5
875.095	17226.5
875.337	17204.5
875.58	17045.5
875.823	17021.5
876.066	16983.5
876.309	16973.5
876.551	16801.5
876.794	16780.5
877.037	16705.5
877.279	16719.5
877.522	16752.5
877.764	16760.5
878.007	16820.5
878.249	16781.5
878.491	16650.5
878.734	16710.5
878.976	16631.5
879.218	16460.5
879.46	16434.5
879.702	16271.5
879.945	16243.5
880.187	16001.5
880.429	16025.5
880.671	15978.5
880.912	15821.5
881.154	15766.5
881.396	15719.5
881.638	15729.5
881.88	15697.5
882.121	15658.5
882.363	15614.5
882.605	15673.5
882.846	15526.5
883.088	15523.5
883.329	15302.5
883.571	15361.5
883.812	15250.5
884.053	15288.5
884.295	15406.5
884.536	15506.5
884.777	15352.5
885.018	15258.5
885.259	15286.5
885.5	15225.5
885.742	15539.5
885.982	15208.5
886.223	15162.5
886.464	15122.5
886.705	15013.5
886.946	14951.5
887.187	14778.5
887.428	14751.5
887.668	14565.5
887.909	14492.5
888.15	14392.5
888.39	14306.5
888.631	14288.5
888.871	14165.5
889.111	14052.5
889.352	14003.5
889.592	13768.5
889.833	13738.5
890.073	13614.5
890.313	13620.5
890.553	13488.5
890.793	13442.5
891.033	13350.5
891.273	13223.5
891.513	13230.5
891.753	13179.5
891.993	13188.5
892.233	13222.5
892.473	13339.5
892.713	13188.5
892.952	13199.5
893.192	13187.5
893.432	13184.5
893.671	13196.5
893.911	13136.5
894.15	13023.5
894.39	12896.5
894.629	12790.5
894.869	12753.5
895.108	12699.5
895.347	12642.5
895.587	12549.5
895.826	12503.5
896.065	12483.5
896.304	12431.5
896.543	12494.5
896.782	12343.5
897.021	12333.5
897.26	12278.5
897.499	12268.5
897.738	12250.5
897.977	12068.5
898.216	12117.5
898.454	11900.5
898.693	11830.5
898.932	11869.5
899.17	11717.5
899.409	11709.5
899.647	11670.5
899.886	11555.5
900.124	11658.5
900.363	11595.5
900.601	11651.5
900.839	11578.5
901.078	11565.5
901.316	11570.5
901.554	11632.5
901.792	11639.5
902.03	11572.5
902.268	11607.5
902.506	11502.5
902.744	11471.5
902.982	11415.5
903.22	11249.5
903.458	11155.5
903.695	11134.5
903.933	11015.5
904.171	10831.5
904.409	10632.5
904.646	10578.5
904.884	10394.5
905.121	10402.5
905.359	10179.5
905.596	10210.5
905.833	10051.5
906.071	10071.5
906.308	10072.5
906.545	10013.5
906.783	9953.5
907.02	10006.5
907.257	9900.5
907.494	9935.5
907.731	9925.5
907.968	9877.5
908.205	9792.5
908.442	9655.5
908.679	9614.5
908.915	9588.5
909.152	9540.5
909.389	9375.5
909.626	9418.5
909.862	9315.5
910.099	9287.5
910.335	9250.5
910.572	9118.5
910.808	9147.5
911.045	9115.5
911.281	9076.5
911.518	9135.5
911.754	9022.5
911.99	8991.5
912.226	8947.5
912.463	8906.5
912.699	8830.5
912.935	8709.5
913.171	8669.5
913.407	8607.5
913.643	8527.5
913.879	8471.5
914.114	8360.5
914.35	8255.5
914.586	8262.5
914.822	8122.5
915.057	8166.5
915.293	7981.5
915.529	7965.5
915.764	8104.5
916	7954.5
916.235	7921.5
916.471	7958.5
916.706	7840.5
916.941	7893.5
917.177	7843.5
917.412	7908.5
917.647	7884.5
917.882	7780.5
918.117	7887.5
918.352	7790.5
918.588	7771.5
918.823	7683.5
919.057	7630.5
919.292	7469.5
919.527	7490.5
919.762	7392.5
919.997	7391.5
920.232	7253.5
920.466	7257.5
920.701	7060.5
920.935	7135.5
921.17	7020.5
921.405	6959.5
921.639	6947.5
921.873	6954.5
922.108	6908.5
922.342	6969.5
922.576	6814.5
922.811	6802.5
923.045	6822.5
923.279	6848.5
923.513	6710.5
923.747	6752.5
923.981	6735.5
924.215	6606.5
924.449	6591.5
924.683	6490.5
924.917	6506.5
925.151	6475.5
925.385	6442.5
925.618	6453.5
925.852	6380.5
926.086	6311.5
926.319	6352.5
926.553	6363.5
926.786	6404.5
927.02	6353.5
927.253	6347.5
927.486	6363.5
927.72	6272.5
927.953	6343.5
928.186	6235.5
928.42	6282.5
928.653	6207.5
928.886	6195.5
929.119	6154.5
929.352	6144.5
929.585	6095.5
929.818	6047.5
930.051	6016.5
930.284	5928.5
930.516	5818.5
930.749	5802.5
930.982	5810.5
931.215	5829.5
931.447	5743.5
931.68	5747.5
931.912	5681.5
932.145	5731.5
932.377	5703.5
932.61	5840.5
932.842	5662.5
933.074	5692.5
933.307	5701.5
933.539	5748.5
933.771	5740.5
934.003	5707.5
934.236	5789.5
934.468	5755.5
934.7	5651.5
934.932	5679.5
935.164	5610.5
935.395	5558.5
935.627	5560.5
935.859	5574.5
936.091	5456.5
936.323	5543.5
936.554	5508.5
936.786	5447.5
937.017	5424.5
937.249	5452.5
937.481	5382.5
937.712	5439.5
937.943	5368.5
938.175	5411.5
938.406	5305.5
938.637	5487.5
938.869	5319.5
939.1	5330.5
939.331	5329.5
939.562	5323.5
939.793	5318.5
940.024	5271.5
940.255	5307.5
940.486	5170.5
940.717	5217.5
940.948	5203.5
941.179	5135.5
941.409	5105.5
941.64	5109.5
941.871	5145.5
942.102	5110.5
942.332	5121.5
942.563	5114.5
942.793	5104.5
943.024	5083.5
943.254	5110.5
943.484	5127.5
943.715	5076.5
943.945	5130.5
944.175	4989.5
944.405	4993.5
944.636	5051.5
944.866	5051.5
945.096	5051.5
945.326	4980.5
945.556	4985.5
945.786	5001.5
946.016	4973.5
946.245	4843.5
946.475	4841.5
946.705	4825.5
946.935	4850.5
947.164	4803.5
947.394	4735.5
947.624	4739.5
947.853	4809.5
948.083	4764.5
948.312	4680.5
948.542	4693.5
948.771	4623.5
949	4582.5
949.23	4602.5
949.459	4590.5
949.688	4682.5
949.917	4670.5
950.146	4649.5
950.375	4628.5
950.604	4556.5
950.833	4633.5
951.062	4657.5
951.291	4584.5
951.52	4540.5
951.749	4545.5
951.978	4530.5
952.206	4483.5
952.435	4503.5
952.664	4493.5
952.892	4497.5
953.121	4427.5
953.349	4466.5
953.578	4424.5
953.806	4367.5
954.035	4370.5
954.263	4404.5
954.491	4308.5
954.719	4369.5
954.948	4264.5
955.176	4279.5
955.404	4203.5
955.632	4232.5
955.86	4209.5
956.088	4199.5
956.316	4202.5
956.544	4198.5
956.772	4138.5
956.999	4100.5
957.227	4178.5
957.455	4027.5
957.683	4089.5
957.91	4031.5
958.138	3993.5
958.365	4005.5
958.593	3995.5
958.82	3939.5
959.048	3976.5
959.275	3939.5
959.502	3964.5
959.73	3906.5
959.957	3933.5
960.184	3900.5
960.411	3892.5
960.638	3946.5
960.865	3898.5
961.092	3909.5
961.319	3811.5
961.546	3945.5
961.773	3857.5
962	3857.5
962.227	3914.5
962.454	3873.5
962.68	3811.5
962.907	3863.5
963.134	3740.5
963.36	3794.5
963.587	3770.5
963.813	3726.5
964.04	3747.5
964.266	3641.5
964.493	3728.5
964.719	3686.5
964.945	3657.5
965.171	3561.5
965.398	3593.5
965.624	3626.5
965.85	3508.5
966.076	3555.5
966.302	3571.5
966.528	3530.5
966.754	3515.5
966.98	3508.5
967.206	3485.5
967.431	3450.5
967.657	3517.5
967.883	3467.5
968.109	3447.5
968.334	3408.5
968.56	3401.5
968.785	3382.5
969.011	3353.5
969.236	3385.5
969.462	3307.5
969.687	3328.5
969.912	3387.5
970.138	3415.5
970.363	3301.5
970.588	3301.5
970.813	3263.5
971.038	3271.5
971.263	3273.5
971.488	3327.5
971.713	3295.5
971.938	3260.5
972.163	3196.5
972.388	3197.5
972.613	3172.5
972.838	3164.5
973.062	3183.5
973.287	3125.5
973.512	3076.5
973.736	3089.5
973.961	3130.5
974.185	3056.5
974.41	3064.5
974.634	3010.5
974.858	2982.5
975.083	3054.5
975.307	3025.5
975.531	2989.5
975.755	2888.5
975.98	2911.5
976.204	2855.5
976.428	2790.5
976.652	2832.5
976.876	2802.5
977.1	2818.5
977.324	2796.5
977.547	2845.5
977.771	2829.5
977.995	2821.5
978.219	2786.5
978.442	2867.5
978.666	2777.5
978.89	2808.5
979.113	2760.5
979.337	2810.5
979.56	2729.5
979.783	2795.5
980.007	2698.5
980.23	2735.5
980.453	2675.5
980.677	2725.5
980.9	2672.5
981.123	2566.5
981.346	2694.5
981.569	2613.5
981.792	2683.5
982.015	2610.5
982.238	2540.5
982.461	2608.5
982.684	2556.5
982.907	2515.5
983.129	2521.5
983.352	2558.5
983.575	2572.5
983.797	2570.5
984.02	2487.5
984.242	2479.5
984.465	2479.5
984.687	2465.5
984.91	2481.5
985.132	2468.5
985.354	2465.5
985.577	2440.5
985.799	2425.5
986.021	2368.5
986.243	2373.5
986.465	2381.5
986.687	2417.5
986.909	2437.5
987.131	2354.5
987.353	2344.5
987.575	2362.5
987.797	2326.5
988.019	2254.5
988.241	2324.5
988.462	2308.5
988.684	2353.5
988.906	2348.5
989.127	2387.5
989.349	2243.5
989.57	2293.5
989.792	2309.5
990.013	2323.5
990.234	2296.5
990.456	2312.5
990.677	2301.5
990.898	2256.5
991.119	2237.5
991.341	2291.5
991.562	2181.5
991.783	2240.5
992.004	2143.5
992.225	2106.5
992.446	2177.5
992.667	2074.5
992.887	2181.5
993.108	2063.5
993.329	2196.5
993.55	2119.5
993.77	2063.5
993.991	2029.5
994.212	2116.5
994.432	2117.5
994.653	2093.5
994.873	2049.5
995.093	1985.5
995.314	1994.5
995.534	2056.5
995.754	2043.5
995.975	2065.5
996.195	1989.5
996.415	2013.5
996.635	2002.5
996.855	1981.5
997.075	1986.5
997.295	1937.5
997.515	1927.5
997.735	1956.5
997.955	1971.5
998.174	1919.5
998.394	1899.5
998.614	1935.5
998.834	1907.5
999.053	1990.5
999.273	1943.5
999.492	1984.5
999.712	1941.5
999.931	1868.5
1000.151	1949.5
1000.37	1902.5
1000.589	1945.5
1000.809	1846.5
1001.028	1975.5
1001.247	1939.5
1001.466	1776.5
1001.685	1946.5
1001.904	1871.5
1002.123	1840.5
1002.342	1865.5
1002.561	1785.5
1002.78	1832.5
1002.999	1890.5
1003.218	1838.5
1003.436	1788.5
1003.655	1843.5
1003.874	1780.5
1004.092	1804.5
1004.311	1818.5
1004.53	1766.5
1004.748	1864.5
1004.966	1794.5
1005.185	1803.5
1005.403	1787.5
1005.622	1779.5
1005.84	1842.5
1006.058	1720.5
1006.276	1756.5
1006.494	2253.5
1006.712	1758.5
1006.931	1825.5
1007.149	1720.5
1007.367	1740.5
1007.584	1732.5
1007.802	1789.5
1008.02	1716.5
1008.238	1792.5
1008.456	1798.5
1008.673	1664.5
1008.891	1744.5
1009.109	1702.5
1009.326	1754.5
1009.544	1795.5
1009.761	1662.5
1009.979	1763.5
1010.196	1736.5
1010.413	1822.5
1010.631	1846.5
1010.848	1852.5
1011.065	1834.5
1011.282	1790.5
1011.5	1727.5
1011.717	1832.5
1011.934	1746.5
1012.151	1805.5
1012.368	1794.5
1012.585	1729.5
1012.801	1791.5
1013.018	1746.5
1013.235	1693.5
1013.452	1719.5
1013.669	1737.5
1013.885	1693.5
1014.102	1734.5
1014.318	1704.5
1014.535	1673.5
1014.751	1692.5
1014.968	1669.5
1015.184	1705.5
1015.401	1612.5
1015.617	1673.5
1015.833	1618.5
1016.049	1625.5
1016.266	1589.5
1016.482	1589.5
1016.698	1553.5
1016.914	1583.5
1017.13	1532.5
1017.346	1520.5
1017.562	1583.5
1017.778	1524.5
1017.993	1483.5
1018.209	1544.5
1018.425	1539.5
1018.641	1495.5
1018.856	1444.5
1019.072	1488.5
1019.288	1519.5
1019.503	1474.5
1019.719	1403.5
1019.934	1439.5
1020.149	1491.5
1020.365	1458.5
1020.58	1386.5
1020.795	1475.5
1021.011	1399.5
1021.226	1365.5
1021.441	1395.5
1021.656	1313.5
1021.871	1269.5
1022.086	1264.5
1022.301	1252.5
1022.516	1245.5
1022.731	1305.5
1022.946	1226.5
1023.16	1206.5
1023.375	1168.5
1023.59	1149.5
1023.804	1125.5
1024.019	1216.5
1024.234	1098.5
1024.448	1142.5
1024.663	1030.5
1024.877	1073.5
1025.092	1072.5
1025.306	1088.5
1025.52	998.5
1025.734	1098.5
1025.949	1011.5
1026.163	982.5
1026.377	930.5
1026.591	986.5
1026.805	886.5
1027.019	895.5
1027.233	847.5
1027.447	814.5
1027.661	902.5
1027.875	827.5
1028.088	846.5
1028.302	753.5
1028.516	762.5
1028.73	736.5
1028.943	747.5
1029.157	689.5
1029.37	668.5
1029.584	-2.5
1029.797	-2.5
1030.011	0.5
1030.224	-1.5
