Data from QEP037381__187__14-03-39-163.txt Node

Date: Wed Dec 21 14:03:39 EST 2022
User: dcclab
Spectrometer: QEP03738
Trigger mode: 4
Integration Time (sec): 1.000000E1
Scans to average: 1
Electric dark correction enabled: true
Nonlinearity correction enabled: false
Boxcar width: 0
XAxis mode: Wavelengths
Number of Pixels in Spectrum: 1044
>>>>>Begin Spectral Data<<<<<
784.041	11.25
784.3	2.25
784.558	-1.75
784.817	-3.75
785.075	108116.25
785.334	18254.25
785.592	8399.25
785.851	5747.25
786.109	4343.25
786.368	3421.25
786.626	2741.25
786.884	2269.25
787.143	1871.25
787.401	1584.25
787.659	1416.25
787.917	1235.25
788.175	1112.25
788.433	973.25
788.691	896.25
788.949	809.25
789.207	785.25
789.465	669.25
789.723	642.25
789.98	595.25
790.238	628.25
790.496	594.25
790.753	543.25
791.011	606.25
791.268	534.25
791.526	545.25
791.783	552.25
792.041	531.25
792.298	442.25
792.556	517.25
792.813	492.25
793.07	469.25
793.327	460.25
793.584	535.25
793.841	445.25
794.099	474.25
794.356	525.25
794.613	433.25
794.869	464.25
795.126	419.25
795.383	414.25
795.64	437.25
795.897	395.25
796.153	438.25
796.41	445.25
796.667	424.25
796.923	427.25
797.18	423.25
797.436	445.25
797.693	424.25
797.949	468.25
798.206	497.25
798.462	405.25
798.718	476.25
798.974	437.25
799.231	496.25
799.487	472.25
799.743	490.25
799.999	511.25
800.255	513.25
800.511	503.25
800.767	529.25
801.023	521.25
801.279	546.25
801.534	592.25
801.79	648.25
802.046	645.25
802.302	777.25
802.557	902.25
802.813	1084.25
803.068	1325.25
803.324	1817.25
803.579	2505.25
803.835	3458.25
804.09	4835.25
804.345	6408.25
804.601	8156.25
804.856	9909.25
805.111	11372.25
805.366	12459.25
805.621	13298.25
805.876	13882.25
806.131	14226.25
806.386	14512.25
806.641	14633.25
806.896	15065.25
807.151	15340.25
807.406	15534.25
807.661	15882.25
807.915	16153.25
808.17	16423.25
808.425	16536.25
808.679	16650.25
808.934	17014.25
809.188	17056.25
809.443	17280.25
809.697	17517.25
809.951	17530.25
810.206	17723.25
810.46	17941.25
810.714	18138.25
810.968	18309.25
811.223	18440.25
811.477	18583.25
811.731	18750.25
811.985	18750.25
812.239	18920.25
812.493	19054.25
812.747	19087.25
813	19206.25
813.254	19210.25
813.508	19401.25
813.762	19474.25
814.015	19557.25
814.269	19718.25
814.522	19812.25
814.776	20228.25
815.03	20530.25
815.283	20734.25
815.536	21031.25
815.79	21299.25
816.043	21603.25
816.296	21982.25
816.55	22210.25
816.803	22389.25
817.056	22873.25
817.309	22994.25
817.562	23259.25
817.815	23467.25
818.068	23560.25
818.321	24019.25
818.574	24215.25
818.827	24615.25
819.079	24852.25
819.332	25446.25
819.585	25686.25
819.838	25976.25
820.09	26143.25
820.343	26408.25
820.595	26599.25
820.848	26718.25
821.1	26779.25
821.353	26778.25
821.605	26771.25
821.857	26785.25
822.11	26779.25
822.362	26719.25
822.614	26690.25
822.866	26776.25
823.118	26572.25
823.37	26782.25
823.622	26804.25
823.874	26875.25
824.126	27087.25
824.378	26999.25
824.63	27104.25
824.882	27166.25
825.134	27120.25
825.385	27211.25
825.637	27049.25
825.888	26973.25
826.14	26842.25
826.392	26806.25
826.643	26601.25
826.895	26689.25
827.146	26540.25
827.397	26335.25
827.649	26458.25
827.9	26407.25
828.151	26262.25
828.402	26471.25
828.653	26506.25
828.905	26628.25
829.156	26584.25
829.407	26558.25
829.658	26536.25
829.909	26639.25
830.159	26518.25
830.41	26245.25
830.661	26230.25
830.912	25973.25
831.162	25895.25
831.413	25811.25
831.664	25865.25
831.914	25839.25
832.165	25847.25
832.415	25867.25
832.666	25868.25
832.916	25856.25
833.167	25799.25
833.417	25807.25
833.667	25748.25
833.917	25676.25
834.168	25542.25
834.418	25505.25
834.668	25353.25
834.918	25289.25
835.168	25079.25
835.418	25077.25
835.668	25028.25
835.918	25043.25
836.167	24974.25
836.417	24823.25
836.667	24855.25
836.917	24893.25
837.166	24690.25
837.416	24769.25
837.666	24656.25
837.915	24614.25
838.165	24494.25
838.414	24414.25
838.663	24315.25
838.913	24234.25
839.162	24133.25
839.411	24281.25
839.661	24126.25
839.91	24008.25
840.159	23946.25
840.408	23902.25
840.657	24021.25
840.906	23965.25
841.155	23977.25
841.404	23941.25
841.653	23969.25
841.902	23905.25
842.15	23882.25
842.399	24080.25
842.648	23788.25
842.897	23857.25
843.145	23594.25
843.394	23422.25
843.642	23434.25
843.891	23376.25
844.139	23284.25
844.388	23034.25
844.636	22936.25
844.884	22959.25
845.133	22853.25
845.381	22937.25
845.629	22851.25
845.877	22733.25
846.125	22683.25
846.373	22691.25
846.621	22678.25
846.869	22542.25
847.117	22396.25
847.365	22389.25
847.613	22156.25
847.861	22206.25
848.108	22197.25
848.356	22009.25
848.604	21990.25
848.851	21985.25
849.099	22092.25
849.346	22230.25
849.594	22166.25
849.841	22262.25
850.089	22176.25
850.336	22296.25
850.583	22242.25
850.831	22205.25
851.078	21967.25
851.325	21937.25
851.572	21766.25
851.819	21664.25
852.066	21373.25
852.313	21127.25
852.56	21047.25
852.807	20866.25
853.054	20787.25
853.301	20786.25
853.548	20680.25
853.794	20807.25
854.041	20909.25
854.288	20996.25
854.534	21084.25
854.781	21140.25
855.028	21037.25
855.274	20936.25
855.52	20800.25
855.767	20595.25
856.013	20534.25
856.26	20803.25
856.506	20322.25
856.752	20437.25
856.998	20400.25
857.244	20404.25
857.49	20437.25
857.736	20506.25
857.982	20485.25
858.228	20495.25
858.474	20380.25
858.72	20217.25
858.966	20093.25
859.212	19936.25
859.458	19755.25
859.703	19521.25
859.949	19365.25
860.195	19205.25
860.44	19129.25
860.686	18956.25
860.931	18933.25
861.177	18729.25
861.422	18823.25
861.667	18781.25
861.913	18737.25
862.158	18825.25
862.403	18914.25
862.648	18879.25
862.893	18947.25
863.138	18928.25
863.384	18936.25
863.629	18873.25
863.873	18859.25
864.118	18772.25
864.363	18612.25
864.608	18569.25
864.853	18560.25
865.098	18407.25
865.342	18366.25
865.587	18274.25
865.832	18194.25
866.076	18135.25
866.321	18061.25
866.565	18109.25
866.81	17868.25
867.054	17940.25
867.298	17820.25
867.543	17856.25
867.787	17782.25
868.031	17735.25
868.275	17658.25
868.519	17607.25
868.764	17513.25
869.008	17475.25
869.252	17553.25
869.496	17380.25
869.739	17312.25
869.983	17354.25
870.227	17251.25
870.471	17158.25
870.715	17180.25
870.958	17250.25
871.202	17310.25
871.446	17265.25
871.689	17263.25
871.933	17263.25
872.176	17257.25
872.42	17229.25
872.663	17065.25
872.906	17001.25
873.15	16956.25
873.393	16764.25
873.636	16637.25
873.879	16587.25
874.122	16511.25
874.366	16234.25
874.609	16208.25
874.852	16090.25
875.095	16127.25
875.337	16005.25
875.58	15888.25
875.823	15871.25
876.066	15879.25
876.309	15820.25
876.551	15647.25
876.794	15646.25
877.037	15599.25
877.279	15504.25
877.522	15555.25
877.764	15679.25
878.007	15575.25
878.249	15659.25
878.491	15572.25
878.734	15598.25
878.976	15463.25
879.218	15460.25
879.46	15279.25
879.702	15240.25
879.945	15130.25
880.187	14996.25
880.429	14992.25
880.671	14819.25
880.912	14731.25
881.154	14793.25
881.396	14695.25
881.638	14737.25
881.88	14651.25
882.121	14633.25
882.363	14533.25
882.605	14515.25
882.846	14442.25
883.088	14427.25
883.329	14269.25
883.571	14206.25
883.812	14270.25
884.053	14247.25
884.295	14307.25
884.536	14462.25
884.777	14230.25
885.018	14250.25
885.259	14176.25
885.5	14181.25
885.742	14426.25
885.982	14214.25
886.223	14067.25
886.464	14091.25
886.705	13967.25
886.946	13941.25
887.187	13775.25
887.428	13740.25
887.668	13668.25
887.909	13498.25
888.15	13371.25
888.39	13387.25
888.631	13374.25
888.871	13203.25
889.111	13075.25
889.352	13039.25
889.592	12872.25
889.833	12804.25
890.073	12762.25
890.313	12738.25
890.553	12569.25
890.793	12529.25
891.033	12538.25
891.273	12367.25
891.513	12393.25
891.753	12350.25
891.993	12306.25
892.233	12288.25
892.473	12381.25
892.713	12356.25
892.952	12367.25
893.192	12409.25
893.432	12299.25
893.671	12326.25
893.911	12194.25
894.15	12164.25
894.39	11995.25
894.629	11919.25
894.869	11972.25
895.108	11841.25
895.347	11750.25
895.587	11697.25
895.826	11612.25
896.065	11621.25
896.304	11674.25
896.543	11689.25
896.782	11557.25
897.021	11499.25
897.26	11473.25
897.499	11484.25
897.738	11332.25
897.977	11210.25
898.216	11211.25
898.454	11105.25
898.693	11049.25
898.932	10975.25
899.17	10920.25
899.409	10903.25
899.647	10855.25
899.886	10808.25
900.124	10874.25
900.363	10798.25
900.601	10823.25
900.839	10745.25
901.078	10785.25
901.316	10837.25
901.554	10799.25
901.792	10835.25
902.03	10722.25
902.268	10759.25
902.506	10751.25
902.744	10678.25
902.982	10683.25
903.22	10516.25
903.458	10450.25
903.695	10327.25
903.933	10160.25
904.171	10097.25
904.409	9912.25
904.646	9891.25
904.884	9724.25
905.121	9693.25
905.359	9634.25
905.596	9563.25
905.833	9452.25
906.071	9431.25
906.308	9392.25
906.545	9428.25
906.783	9358.25
907.02	9320.25
907.257	9279.25
907.494	9269.25
907.731	9277.25
907.968	9254.25
908.205	9181.25
908.442	9071.25
908.679	9052.25
908.915	8953.25
909.152	8914.25
909.389	8807.25
909.626	8805.25
909.862	8722.25
910.099	8663.25
910.335	8655.25
910.572	8567.25
910.808	8590.25
911.045	8541.25
911.281	8512.25
911.518	8498.25
911.754	8460.25
911.99	8363.25
912.226	8295.25
912.463	8266.25
912.699	8215.25
912.935	8149.25
913.171	8037.25
913.407	7987.25
913.643	7956.25
913.879	7909.25
914.114	7847.25
914.35	7734.25
914.586	7727.25
914.822	7610.25
915.057	7652.25
915.293	7519.25
915.529	7466.25
915.764	7473.25
916	7489.25
916.235	7437.25
916.471	7469.25
916.706	7335.25
916.941	7355.25
917.177	7302.25
917.412	7390.25
917.647	7354.25
917.882	7311.25
918.117	7335.25
918.352	7346.25
918.588	7283.25
918.823	7181.25
919.057	7092.25
919.292	6961.25
919.527	7094.25
919.762	6925.25
919.997	6893.25
920.232	6759.25
920.466	6758.25
920.701	6599.25
920.935	6645.25
921.17	6625.25
921.405	6534.25
921.639	6545.25
921.873	6495.25
922.108	6475.25
922.342	6459.25
922.576	6361.25
922.811	6410.25
923.045	6379.25
923.279	6402.25
923.513	6265.25
923.747	6294.25
923.981	6265.25
924.215	6239.25
924.449	6101.25
924.683	6128.25
924.917	6070.25
925.151	6052.25
925.385	6039.25
925.618	6020.25
925.852	6033.25
926.086	5940.25
926.319	5972.25
926.553	5939.25
926.786	5954.25
927.02	5936.25
927.253	5982.25
927.486	5869.25
927.72	5879.25
927.953	5910.25
928.186	5873.25
928.42	5862.25
928.653	5788.25
928.886	5786.25
929.119	5809.25
929.352	5754.25
929.585	5684.25
929.818	5612.25
930.051	5683.25
930.284	5559.25
930.516	5507.25
930.749	5490.25
930.982	5496.25
931.215	5469.25
931.447	5366.25
931.68	5376.25
931.912	5327.25
932.145	5359.25
932.377	5382.25
932.61	5461.25
932.842	5290.25
933.074	5387.25
933.307	5302.25
933.539	5418.25
933.771	5334.25
934.003	5333.25
934.236	5355.25
934.468	5377.25
934.7	5275.25
934.932	5358.25
935.164	5273.25
935.395	5219.25
935.627	5217.25
935.859	5181.25
936.091	5139.25
936.323	5181.25
936.554	5205.25
936.786	5184.25
937.017	5122.25
937.249	5101.25
937.481	5018.25
937.712	5103.25
937.943	5033.25
938.175	5055.25
938.406	5048.25
938.637	5123.25
938.869	5007.25
939.1	4992.25
939.331	4947.25
939.562	4976.25
939.793	4939.25
940.024	4972.25
940.255	4924.25
940.486	4882.25
940.717	4869.25
940.948	4853.25
941.179	4767.25
941.409	4795.25
941.64	4776.25
941.871	4782.25
942.102	4777.25
942.332	4781.25
942.563	4846.25
942.793	4777.25
943.024	4744.25
943.254	4742.25
943.484	4843.25
943.715	4800.25
943.945	4756.25
944.175	4713.25
944.405	4680.25
944.636	4701.25
944.866	4722.25
945.096	4765.25
945.326	4618.25
945.556	4712.25
945.786	4690.25
946.016	4613.25
946.245	4532.25
946.475	4517.25
946.705	4529.25
946.935	4547.25
947.164	4523.25
947.394	4425.25
947.624	4425.25
947.853	4445.25
948.083	4408.25
948.312	4363.25
948.542	4296.25
948.771	4296.25
949	4309.25
949.23	4314.25
949.459	4300.25
949.688	4354.25
949.917	4305.25
950.146	4337.25
950.375	4338.25
950.604	4309.25
950.833	4341.25
951.062	4354.25
951.291	4278.25
951.52	4252.25
951.749	4253.25
951.978	4211.25
952.206	4202.25
952.435	4201.25
952.664	4246.25
952.892	4210.25
953.121	4121.25
953.349	4195.25
953.578	4167.25
953.806	4147.25
954.035	4064.25
954.263	4132.25
954.491	4038.25
954.719	4070.25
954.948	4014.25
955.176	4004.25
955.404	3922.25
955.632	3992.25
955.86	3941.25
956.088	3924.25
956.316	3949.25
956.544	4001.25
956.772	3893.25
956.999	3889.25
957.227	3943.25
957.455	3826.25
957.683	3786.25
957.91	3779.25
958.138	3720.25
958.365	3744.25
958.593	3738.25
958.82	3653.25
959.048	3744.25
959.275	3723.25
959.502	3682.25
959.73	3643.25
959.957	3696.25
960.184	3734.25
960.411	3648.25
960.638	3679.25
960.865	3614.25
961.092	3634.25
961.319	3592.25
961.546	3687.25
961.773	3662.25
962	3611.25
962.227	3628.25
962.454	3620.25
962.68	3592.25
962.907	3588.25
963.134	3506.25
963.36	3534.25
963.587	3537.25
963.813	3450.25
964.04	3518.25
964.266	3427.25
964.493	3501.25
964.719	3463.25
964.945	3441.25
965.171	3361.25
965.398	3391.25
965.624	3359.25
965.85	3344.25
966.076	3285.25
966.302	3330.25
966.528	3317.25
966.754	3304.25
966.98	3332.25
967.206	3241.25
967.431	3223.25
967.657	3306.25
967.883	3232.25
968.109	3256.25
968.334	3189.25
968.56	3180.25
968.785	3164.25
969.011	3115.25
969.236	3179.25
969.462	3088.25
969.687	3171.25
969.912	3188.25
970.138	3197.25
970.363	3123.25
970.588	3144.25
970.813	3123.25
971.038	3075.25
971.263	3066.25
971.488	3092.25
971.713	3118.25
971.938	3065.25
972.163	3000.25
972.388	3005.25
972.613	3013.25
972.838	2976.25
973.062	2957.25
973.287	2929.25
973.512	2885.25
973.736	2907.25
973.961	2905.25
974.185	2898.25
974.41	2897.25
974.634	2788.25
974.858	2807.25
975.083	2842.25
975.307	2871.25
975.531	2765.25
975.755	2733.25
975.98	2738.25
976.204	2686.25
976.428	2668.25
976.652	2670.25
976.876	2658.25
977.1	2709.25
977.324	2656.25
977.547	2700.25
977.771	2690.25
977.995	2652.25
978.219	2578.25
978.442	2691.25
978.666	2643.25
978.89	2630.25
979.113	2626.25
979.337	2591.25
979.56	2568.25
979.783	2643.25
980.007	2536.25
980.23	2560.25
980.453	2509.25
980.677	2573.25
980.9	2535.25
981.123	2428.25
981.346	2563.25
981.569	2507.25
981.792	2530.25
982.015	2478.25
982.238	2414.25
982.461	2455.25
982.684	2413.25
982.907	2379.25
983.129	2356.25
983.352	2422.25
983.575	2351.25
983.797	2357.25
984.02	2346.25
984.242	2321.25
984.465	2355.25
984.687	2357.25
984.91	2359.25
985.132	2349.25
985.354	2350.25
985.577	2304.25
985.799	2286.25
986.021	2205.25
986.243	2242.25
986.465	2267.25
986.687	2309.25
986.909	2320.25
987.131	2254.25
987.353	2201.25
987.575	2227.25
987.797	2190.25
988.019	2153.25
988.241	2201.25
988.462	2133.25
988.684	2221.25
988.906	2233.25
989.127	2256.25
989.349	2128.25
989.57	2162.25
989.792	2156.25
990.013	2207.25
990.234	2192.25
990.456	2225.25
990.677	2173.25
990.898	2126.25
991.119	2108.25
991.341	2160.25
991.562	2073.25
991.783	2090.25
992.004	2038.25
992.225	2020.25
992.446	2103.25
992.667	1981.25
992.887	2061.25
993.108	1953.25
993.329	2086.25
993.55	2038.25
993.77	1961.25
993.991	1941.25
994.212	1988.25
994.432	1950.25
994.653	1953.25
994.873	1963.25
995.093	1836.25
995.314	1906.25
995.534	1950.25
995.754	1957.25
995.975	1975.25
996.195	1854.25
996.415	1905.25
996.635	1859.25
996.855	1899.25
997.075	1857.25
997.295	1879.25
997.515	1816.25
997.735	1907.25
997.955	1856.25
998.174	1831.25
998.394	1840.25
998.614	1878.25
998.834	1811.25
999.053	1851.25
999.273	1841.25
999.492	1903.25
999.712	1825.25
999.931	1785.25
1000.151	1863.25
1000.37	1809.25
1000.589	1876.25
1000.809	1778.25
1001.028	1885.25
1001.247	1824.25
1001.466	1713.25
1001.685	1860.25
1001.904	1760.25
1002.123	1770.25
1002.342	1750.25
1002.561	1736.25
1002.78	1762.25
1002.999	1798.25
1003.218	1729.25
1003.436	1701.25
1003.655	1759.25
1003.874	1727.25
1004.092	1738.25
1004.311	1739.25
1004.53	1733.25
1004.748	1765.25
1004.966	1681.25
1005.185	1772.25
1005.403	1729.25
1005.622	1701.25
1005.84	1793.25
1006.058	1645.25
1006.276	1702.25
1006.494	2176.25
1006.712	1663.25
1006.931	1729.25
1007.149	1632.25
1007.367	1629.25
1007.584	1691.25
1007.802	1698.25
1008.02	1647.25
1008.238	1723.25
1008.456	1716.25
1008.673	1598.25
1008.891	1667.25
1009.109	1635.25
1009.326	1671.25
1009.544	1736.25
1009.761	1614.25
1009.979	1682.25
1010.196	1663.25
1010.413	1746.25
1010.631	1731.25
1010.848	1745.25
1011.065	1764.25
1011.282	1687.25
1011.5	1645.25
1011.717	1775.25
1011.934	1707.25
1012.151	1727.25
1012.368	1717.25
1012.585	1655.25
1012.801	1697.25
1013.018	1652.25
1013.235	1627.25
1013.452	1637.25
1013.669	1642.25
1013.885	1603.25
1014.102	1657.25
1014.318	1614.25
1014.535	1585.25
1014.751	1589.25
1014.968	1582.25
1015.184	1643.25
1015.401	1519.25
1015.617	1572.25
1015.833	1523.25
1016.049	1544.25
1016.266	1494.25
1016.482	1533.25
1016.698	1443.25
1016.914	1490.25
1017.13	1458.25
1017.346	1433.25
1017.562	1507.25
1017.778	1440.25
1017.993	1400.25
1018.209	1456.25
1018.425	1442.25
1018.641	1407.25
1018.856	1397.25
1019.072	1405.25
1019.288	1471.25
1019.503	1404.25
1019.719	1311.25
1019.934	1342.25
1020.149	1446.25
1020.365	1354.25
1020.58	1287.25
1020.795	1378.25
1021.011	1296.25
1021.226	1297.25
1021.441	1291.25
1021.656	1254.25
1021.871	1200.25
1022.086	1194.25
1022.301	1186.25
1022.516	1185.25
1022.731	1245.25
1022.946	1141.25
1023.16	1144.25
1023.375	1105.25
1023.59	1088.25
1023.804	1048.25
1024.019	1159.25
1024.234	1035.25
1024.448	1071.25
1024.663	1007.25
1024.877	1003.25
1025.092	1040.25
1025.306	1048.25
1025.52	947.25
1025.734	1049.25
1025.949	957.25
1026.163	942.25
1026.377	878.25
1026.591	933.25
1026.805	846.25
1027.019	845.25
1027.233	820.25
1027.447	747.25
1027.661	862.25
1027.875	795.25
1028.088	808.25
1028.302	735.25
1028.516	716.25
1028.73	703.25
1028.943	708.25
1029.157	664.25
1029.37	625.25
1029.584	-1.75
1029.797	-3.75
1030.011	0.25
1030.224	-2.75
