Data from QEP037381__176__14-01-49-162.txt Node

Date: Wed Dec 21 14:01:49 EST 2022
User: dcclab
Spectrometer: QEP03738
Trigger mode: 4
Integration Time (sec): 1.000000E1
Scans to average: 1
Electric dark correction enabled: true
Nonlinearity correction enabled: false
Boxcar width: 0
XAxis mode: Wavelengths
Number of Pixels in Spectrum: 1044
>>>>>Begin Spectral Data<<<<<
784.041	11.88
784.3	-1.12
784.558	-0.12
784.817	-3.12
785.075	104725.88
785.334	17925.88
785.592	8390.88
785.851	5810.88
786.109	4379.88
786.368	3396.88
786.626	2739.88
786.884	2296.88
787.143	1927.88
787.401	1596.88
787.659	1432.88
787.917	1206.88
788.175	1103.88
788.433	988.88
788.691	889.88
788.949	805.88
789.207	766.88
789.465	678.88
789.723	657.88
789.98	595.88
790.238	630.88
790.496	596.88
790.753	563.88
791.011	631.88
791.268	539.88
791.526	520.88
791.783	542.88
792.041	538.88
792.298	430.88
792.556	505.88
792.813	485.88
793.07	471.88
793.327	460.88
793.584	523.88
793.841	446.88
794.099	464.88
794.356	528.88
794.613	424.88
794.869	463.88
795.126	422.88
795.383	416.88
795.64	417.88
795.897	389.88
796.153	452.88
796.41	428.88
796.667	413.88
796.923	440.88
797.18	426.88
797.436	439.88
797.693	400.88
797.949	462.88
798.206	492.88
798.462	418.88
798.718	471.88
798.974	442.88
799.231	474.88
799.487	462.88
799.743	484.88
799.999	493.88
800.255	496.88
800.511	477.88
800.767	516.88
801.023	507.88
801.279	539.88
801.534	579.88
801.79	623.88
802.046	622.88
802.302	763.88
802.557	852.88
802.813	1031.88
803.068	1277.88
803.324	1736.88
803.579	2327.88
803.835	3260.88
804.09	4516.88
804.345	5920.88
804.601	7539.88
804.856	9153.88
805.111	10532.88
805.366	11569.88
805.621	12274.88
805.876	12838.88
806.131	13147.88
806.386	13375.88
806.641	13534.88
806.896	13808.88
807.151	14184.88
807.406	14346.88
807.661	14567.88
807.915	14899.88
808.17	15096.88
808.425	15264.88
808.679	15297.88
808.934	15659.88
809.188	15608.88
809.443	15821.88
809.697	16113.88
809.951	16147.88
810.206	16391.88
810.46	16477.88
810.714	16629.88
810.968	16794.88
811.223	16822.88
811.477	17065.88
811.731	17220.88
811.985	17273.88
812.239	17311.88
812.493	17440.88
812.747	17619.88
813	17533.88
813.254	17654.88
813.508	17818.88
813.762	17903.88
814.015	17918.88
814.269	18008.88
814.522	18264.88
814.776	18431.88
815.03	18717.88
815.283	18954.88
815.536	19244.88
815.79	19541.88
816.043	19833.88
816.296	20102.88
816.55	20356.88
816.803	20581.88
817.056	20939.88
817.309	21053.88
817.562	21257.88
817.815	21506.88
818.068	21726.88
818.321	21956.88
818.574	22191.88
818.827	22496.88
819.079	22733.88
819.332	23250.88
819.585	23506.88
819.838	23855.88
820.09	23904.88
820.343	24233.88
820.595	24060.88
820.848	24318.88
821.1	24617.88
821.353	24475.88
821.605	24499.88
821.857	24530.88
822.11	24373.88
822.362	24331.88
822.614	24114.88
822.866	24301.88
823.118	24336.88
823.37	24501.88
823.622	24438.88
823.874	24427.88
824.126	24497.88
824.378	24647.88
824.63	24693.88
824.882	24858.88
825.134	24704.88
825.385	24754.88
825.637	24687.88
825.888	24618.88
826.14	24529.88
826.392	24418.88
826.643	24218.88
826.895	24223.88
827.146	24142.88
827.397	24142.88
827.649	24133.88
827.9	24083.88
828.151	24092.88
828.402	24144.88
828.653	24148.88
828.905	24291.88
829.156	24214.88
829.407	24169.88
829.658	24235.88
829.909	24212.88
830.159	24171.88
830.41	24150.88
830.661	23745.88
830.912	23810.88
831.162	23688.88
831.413	23573.88
831.664	23621.88
831.914	23537.88
832.165	23599.88
832.415	23538.88
832.666	23624.88
832.916	23716.88
833.167	23569.88
833.417	23555.88
833.667	23383.88
833.917	23384.88
834.168	23243.88
834.418	23244.88
834.668	23212.88
834.918	22946.88
835.168	22934.88
835.418	22942.88
835.668	22901.88
835.918	22884.88
836.167	22777.88
836.417	22727.88
836.667	22700.88
836.917	22538.88
837.166	22625.88
837.416	22570.88
837.666	22481.88
837.915	22351.88
838.165	22409.88
838.414	22271.88
838.663	22224.88
838.913	22229.88
839.162	22138.88
839.411	22138.88
839.661	22040.88
839.91	21948.88
840.159	21939.88
840.408	21932.88
840.657	21854.88
840.906	21958.88
841.155	21912.88
841.404	21905.88
841.653	21850.88
841.902	21872.88
842.15	21921.88
842.399	21893.88
842.648	21871.88
842.897	21767.88
843.145	21570.88
843.394	21510.88
843.642	21451.88
843.891	21257.88
844.139	21216.88
844.388	21047.88
844.636	20932.88
844.884	21057.88
845.133	20880.88
845.381	20876.88
845.629	20888.88
845.877	20856.88
846.125	20798.88
846.373	20676.88
846.621	20688.88
846.869	20588.88
847.117	20459.88
847.365	20374.88
847.613	20389.88
847.861	20329.88
848.108	20243.88
848.356	20078.88
848.604	20098.88
848.851	20086.88
849.099	20195.88
849.346	20173.88
849.594	20339.88
849.841	20427.88
850.089	20407.88
850.336	20424.88
850.583	20345.88
850.831	20402.88
851.078	20093.88
851.325	19919.88
851.572	20047.88
851.819	19782.88
852.066	19495.88
852.313	19242.88
852.56	19099.88
852.807	19018.88
853.054	19018.88
853.301	19026.88
853.548	18983.88
853.794	19130.88
854.041	19091.88
854.288	19147.88
854.534	19445.88
854.781	19276.88
855.028	19204.88
855.274	19277.88
855.52	18995.88
855.767	18797.88
856.013	18817.88
856.26	19131.88
856.506	18679.88
856.752	18649.88
856.998	18698.88
857.244	18739.88
857.49	18677.88
857.736	18742.88
857.982	18754.88
858.228	18706.88
858.474	18702.88
858.72	18466.88
858.966	18359.88
859.212	18253.88
859.458	18035.88
859.703	17887.88
859.949	17669.88
860.195	17563.88
860.44	17373.88
860.686	17247.88
860.931	17353.88
861.177	17174.88
861.422	17219.88
861.667	17118.88
861.913	17184.88
862.158	17272.88
862.403	17268.88
862.648	17319.88
862.893	17326.88
863.138	17373.88
863.384	17296.88
863.629	17370.88
863.873	17244.88
864.118	17142.88
864.363	16983.88
864.608	16897.88
864.853	16918.88
865.098	16841.88
865.342	16810.88
865.587	16653.88
865.832	16702.88
866.076	16628.88
866.321	16575.88
866.565	16635.88
866.81	16425.88
867.054	16371.88
867.298	16343.88
867.543	16346.88
867.787	16329.88
868.031	16247.88
868.275	16232.88
868.519	16117.88
868.764	16068.88
869.008	16092.88
869.252	16070.88
869.496	15938.88
869.739	15955.88
869.983	15910.88
870.227	15795.88
870.471	15739.88
870.715	15871.88
870.958	15858.88
871.202	15697.88
871.446	15971.88
871.689	15840.88
871.933	15875.88
872.176	15890.88
872.42	15753.88
872.663	15705.88
872.906	15678.88
873.15	15522.88
873.393	15395.88
873.636	15343.88
873.879	15279.88
874.122	15149.88
874.366	14916.88
874.609	14961.88
874.852	14854.88
875.095	14767.88
875.337	14681.88
875.58	14498.88
875.823	14621.88
876.066	14532.88
876.309	14540.88
876.551	14499.88
876.794	14429.88
877.037	14396.88
877.279	14169.88
877.522	14249.88
877.764	14425.88
878.007	14319.88
878.249	14339.88
878.491	14246.88
878.734	14293.88
878.976	14268.88
879.218	14127.88
879.46	14111.88
879.702	14035.88
879.945	13853.88
880.187	13792.88
880.429	13708.88
880.671	13637.88
880.912	13595.88
881.154	13491.88
881.396	13473.88
881.638	13486.88
881.88	13379.88
882.121	13389.88
882.363	13356.88
882.605	13370.88
882.846	13326.88
883.088	13293.88
883.329	13151.88
883.571	13059.88
883.812	13061.88
884.053	13119.88
884.295	13207.88
884.536	13267.88
884.777	13103.88
885.018	13178.88
885.259	13104.88
885.5	13048.88
885.742	13310.88
885.982	13043.88
886.223	13041.88
886.464	13007.88
886.705	12915.88
886.946	12803.88
887.187	12653.88
887.428	12563.88
887.668	12462.88
887.909	12382.88
888.15	12298.88
888.39	12277.88
888.631	12098.88
888.871	12107.88
889.111	12017.88
889.352	11993.88
889.592	11862.88
889.833	11784.88
890.073	11757.88
890.313	11678.88
890.553	11509.88
890.793	11441.88
891.033	11435.88
891.273	11393.88
891.513	11360.88
891.753	11314.88
891.993	11312.88
892.233	11299.88
892.473	11414.88
892.713	11324.88
892.952	11324.88
893.192	11355.88
893.432	11246.88
893.671	11266.88
893.911	11155.88
894.15	11179.88
894.39	11026.88
894.629	11030.88
894.869	10991.88
895.108	10881.88
895.347	10744.88
895.587	10743.88
895.826	10728.88
896.065	10643.88
896.304	10667.88
896.543	10636.88
896.782	10513.88
897.021	10625.88
897.26	10522.88
897.499	10500.88
897.738	10538.88
897.977	10424.88
898.216	10318.88
898.454	10214.88
898.693	10153.88
898.932	10081.88
899.17	9999.88
899.409	10011.88
899.647	10015.88
899.886	9914.88
900.124	9961.88
900.363	9938.88
900.601	9944.88
900.839	9921.88
901.078	9963.88
901.316	9890.88
901.554	9906.88
901.792	9948.88
902.03	9913.88
902.268	9895.88
902.506	9919.88
902.744	9803.88
902.982	9811.88
903.22	9672.88
903.458	9532.88
903.695	9581.88
903.933	9429.88
904.171	9308.88
904.409	9172.88
904.646	9074.88
904.884	8986.88
905.121	8999.88
905.359	8814.88
905.596	8779.88
905.833	8679.88
906.071	8664.88
906.308	8667.88
906.545	8651.88
906.783	8554.88
907.02	8596.88
907.257	8515.88
907.494	8469.88
907.731	8525.88
907.968	8510.88
908.205	8461.88
908.442	8369.88
908.679	8315.88
908.915	8209.88
909.152	8236.88
909.389	8094.88
909.626	8065.88
909.862	8049.88
910.099	8035.88
910.335	8020.88
910.572	7865.88
910.808	7902.88
911.045	7876.88
911.281	7820.88
911.518	7841.88
911.754	7778.88
911.99	7753.88
912.226	7685.88
912.463	7578.88
912.699	7548.88
912.935	7528.88
913.171	7447.88
913.407	7347.88
913.643	7447.88
913.879	7344.88
914.114	7185.88
914.35	7098.88
914.586	7122.88
914.822	6988.88
915.057	7101.88
915.293	6840.88
915.529	6860.88
915.764	6937.88
916	6936.88
916.235	6807.88
916.471	6840.88
916.706	6710.88
916.941	6768.88
917.177	6753.88
917.412	6785.88
917.647	6807.88
917.882	6760.88
918.117	6769.88
918.352	6712.88
918.588	6714.88
918.823	6627.88
919.057	6621.88
919.292	6433.88
919.527	6518.88
919.762	6363.88
919.997	6354.88
920.232	6258.88
920.466	6271.88
920.701	6111.88
920.935	6155.88
921.17	6049.88
921.405	6020.88
921.639	6093.88
921.873	6030.88
922.108	5993.88
922.342	5928.88
922.576	5903.88
922.811	5916.88
923.045	5929.88
923.279	5944.88
923.513	5758.88
923.747	5844.88
923.981	5776.88
924.215	5756.88
924.449	5670.88
924.683	5607.88
924.917	5596.88
925.151	5608.88
925.385	5622.88
925.618	5547.88
925.852	5568.88
926.086	5471.88
926.319	5518.88
926.553	5523.88
926.786	5520.88
927.02	5554.88
927.253	5550.88
927.486	5479.88
927.72	5410.88
927.953	5486.88
928.186	5455.88
928.42	5391.88
928.653	5293.88
928.886	5350.88
929.119	5321.88
929.352	5292.88
929.585	5345.88
929.818	5201.88
930.051	5197.88
930.284	5156.88
930.516	5014.88
930.749	5066.88
930.982	5114.88
931.215	4987.88
931.447	4915.88
931.68	4956.88
931.912	4931.88
932.145	4948.88
932.377	4960.88
932.61	5071.88
932.842	4864.88
933.074	4966.88
933.307	4865.88
933.539	5002.88
933.771	4983.88
934.003	4857.88
934.236	5000.88
934.468	4982.88
934.7	4871.88
934.932	4914.88
935.164	4873.88
935.395	4813.88
935.627	4858.88
935.859	4882.88
936.091	4770.88
936.323	4756.88
936.554	4836.88
936.786	4751.88
937.017	4741.88
937.249	4710.88
937.481	4611.88
937.712	4717.88
937.943	4704.88
938.175	4668.88
938.406	4637.88
938.637	4700.88
938.869	4622.88
939.1	4688.88
939.331	4595.88
939.562	4605.88
939.793	4570.88
940.024	4547.88
940.255	4554.88
940.486	4524.88
940.717	4489.88
940.948	4448.88
941.179	4404.88
941.409	4418.88
941.64	4408.88
941.871	4473.88
942.102	4395.88
942.332	4399.88
942.563	4511.88
942.793	4448.88
943.024	4388.88
943.254	4420.88
943.484	4403.88
943.715	4448.88
943.945	4425.88
944.175	4398.88
944.405	4304.88
944.636	4325.88
944.866	4366.88
945.096	4401.88
945.326	4269.88
945.556	4371.88
945.786	4306.88
946.016	4294.88
946.245	4259.88
946.475	4210.88
946.705	4205.88
946.935	4210.88
947.164	4168.88
947.394	4149.88
947.624	4092.88
947.853	4148.88
948.083	4097.88
948.312	4044.88
948.542	4028.88
948.771	3963.88
949	3967.88
949.23	4009.88
949.459	4005.88
949.688	4078.88
949.917	4001.88
950.146	4036.88
950.375	4076.88
950.604	3997.88
950.833	4079.88
951.062	4016.88
951.291	3973.88
951.52	3912.88
951.749	3938.88
951.978	3934.88
952.206	3897.88
952.435	3871.88
952.664	3898.88
952.892	3908.88
953.121	3881.88
953.349	3907.88
953.578	3898.88
953.806	3811.88
954.035	3777.88
954.263	3800.88
954.491	3719.88
954.719	3802.88
954.948	3664.88
955.176	3690.88
955.404	3650.88
955.632	3702.88
955.86	3691.88
956.088	3674.88
956.316	3640.88
956.544	3733.88
956.772	3612.88
956.999	3554.88
957.227	3656.88
957.455	3531.88
957.683	3557.88
957.91	3494.88
958.138	3480.88
958.365	3455.88
958.593	3473.88
958.82	3379.88
959.048	3454.88
959.275	3467.88
959.502	3390.88
959.73	3413.88
959.957	3389.88
960.184	3409.88
960.411	3341.88
960.638	3440.88
960.865	3418.88
961.092	3441.88
961.319	3348.88
961.546	3431.88
961.773	3375.88
962	3330.88
962.227	3394.88
962.454	3373.88
962.68	3337.88
962.907	3347.88
963.134	3270.88
963.36	3301.88
963.587	3277.88
963.813	3219.88
964.04	3225.88
964.266	3169.88
964.493	3235.88
964.719	3197.88
964.945	3231.88
965.171	3099.88
965.398	3105.88
965.624	3175.88
965.85	3103.88
966.076	3047.88
966.302	3129.88
966.528	3060.88
966.754	3126.88
966.98	3083.88
967.206	3032.88
967.431	2982.88
967.657	3059.88
967.883	3048.88
968.109	3014.88
968.334	2951.88
968.56	2949.88
968.785	2972.88
969.011	2942.88
969.236	2968.88
969.462	2935.88
969.687	2952.88
969.912	2969.88
970.138	2972.88
970.363	2886.88
970.588	2908.88
970.813	2863.88
971.038	2861.88
971.263	2882.88
971.488	2878.88
971.713	2887.88
971.938	2869.88
972.163	2785.88
972.388	2776.88
972.613	2780.88
972.838	2789.88
973.062	2771.88
973.287	2741.88
973.512	2705.88
973.736	2737.88
973.961	2700.88
974.185	2690.88
974.41	2739.88
974.634	2611.88
974.858	2621.88
975.083	2636.88
975.307	2705.88
975.531	2577.88
975.755	2552.88
975.98	2534.88
976.204	2489.88
976.428	2471.88
976.652	2503.88
976.876	2463.88
977.1	2522.88
977.324	2468.88
977.547	2498.88
977.771	2526.88
977.995	2441.88
978.219	2412.88
978.442	2507.88
978.666	2459.88
978.89	2446.88
979.113	2433.88
979.337	2400.88
979.56	2385.88
979.783	2463.88
980.007	2382.88
980.23	2390.88
980.453	2343.88
980.677	2400.88
980.9	2372.88
981.123	2290.88
981.346	2349.88
981.569	2319.88
981.792	2361.88
982.015	2323.88
982.238	2269.88
982.461	2267.88
982.684	2258.88
982.907	2225.88
983.129	2219.88
983.352	2288.88
983.575	2215.88
983.797	2247.88
984.02	2157.88
984.242	2176.88
984.465	2180.88
984.687	2213.88
984.91	2191.88
985.132	2177.88
985.354	2237.88
985.577	2170.88
985.799	2161.88
986.021	2028.88
986.243	2081.88
986.465	2099.88
986.687	2150.88
986.909	2218.88
987.131	2096.88
987.353	2077.88
987.575	2089.88
987.797	2074.88
988.019	2027.88
988.241	2091.88
988.462	2023.88
988.684	2078.88
988.906	2068.88
989.127	2096.88
989.349	1990.88
989.57	2002.88
989.792	2084.88
990.013	2066.88
990.234	2093.88
990.456	2120.88
990.677	2030.88
990.898	1995.88
991.119	1995.88
991.341	2031.88
991.562	1942.88
991.783	1991.88
992.004	1907.88
992.225	1896.88
992.446	1915.88
992.667	1828.88
992.887	1949.88
993.108	1824.88
993.329	1973.88
993.55	1876.88
993.77	1842.88
993.991	1812.88
994.212	1874.88
994.432	1852.88
994.653	1847.88
994.873	1838.88
995.093	1748.88
995.314	1788.88
995.534	1818.88
995.754	1821.88
995.975	1864.88
996.195	1739.88
996.415	1792.88
996.635	1779.88
996.855	1807.88
997.075	1763.88
997.295	1751.88
997.515	1715.88
997.735	1767.88
997.955	1768.88
998.174	1755.88
998.394	1703.88
998.614	1769.88
998.834	1711.88
999.053	1775.88
999.273	1732.88
999.492	1802.88
999.712	1739.88
999.931	1697.88
1000.151	1718.88
1000.37	1690.88
1000.589	1754.88
1000.809	1675.88
1001.028	1782.88
1001.247	1706.88
1001.466	1610.88
1001.685	1769.88
1001.904	1681.88
1002.123	1685.88
1002.342	1676.88
1002.561	1634.88
1002.78	1650.88
1002.999	1710.88
1003.218	1644.88
1003.436	1608.88
1003.655	1683.88
1003.874	1624.88
1004.092	1627.88
1004.311	1659.88
1004.53	1623.88
1004.748	1689.88
1004.966	1607.88
1005.185	1656.88
1005.403	1647.88
1005.622	1624.88
1005.84	1677.88
1006.058	1588.88
1006.276	1605.88
1006.494	2089.88
1006.712	1626.88
1006.931	1658.88
1007.149	1561.88
1007.367	1546.88
1007.584	1626.88
1007.802	1614.88
1008.02	1584.88
1008.238	1680.88
1008.456	1649.88
1008.673	1490.88
1008.891	1588.88
1009.109	1533.88
1009.326	1574.88
1009.544	1672.88
1009.761	1552.88
1009.979	1604.88
1010.196	1614.88
1010.413	1647.88
1010.631	1716.88
1010.848	1693.88
1011.065	1687.88
1011.282	1623.88
1011.5	1572.88
1011.717	1688.88
1011.934	1620.88
1012.151	1683.88
1012.368	1639.88
1012.585	1593.88
1012.801	1627.88
1013.018	1595.88
1013.235	1565.88
1013.452	1576.88
1013.669	1607.88
1013.885	1540.88
1014.102	1580.88
1014.318	1548.88
1014.535	1510.88
1014.751	1545.88
1014.968	1514.88
1015.184	1535.88
1015.401	1488.88
1015.617	1528.88
1015.833	1472.88
1016.049	1482.88
1016.266	1446.88
1016.482	1432.88
1016.698	1375.88
1016.914	1457.88
1017.13	1399.88
1017.346	1396.88
1017.562	1445.88
1017.778	1412.88
1017.993	1395.88
1018.209	1432.88
1018.425	1394.88
1018.641	1355.88
1018.856	1329.88
1019.072	1378.88
1019.288	1401.88
1019.503	1381.88
1019.719	1274.88
1019.934	1294.88
1020.149	1401.88
1020.365	1323.88
1020.58	1298.88
1020.795	1316.88
1021.011	1289.88
1021.226	1247.88
1021.441	1282.88
1021.656	1185.88
1021.871	1133.88
1022.086	1152.88
1022.301	1146.88
1022.516	1140.88
1022.731	1175.88
1022.946	1119.88
1023.16	1076.88
1023.375	1056.88
1023.59	1039.88
1023.804	1014.88
1024.019	1131.88
1024.234	1018.88
1024.448	1045.88
1024.663	958.88
1024.877	1005.88
1025.092	1020.88
1025.306	1011.88
1025.52	925.88
1025.734	1005.88
1025.949	910.88
1026.163	892.88
1026.377	842.88
1026.591	894.88
1026.805	806.88
1027.019	825.88
1027.233	788.88
1027.447	723.88
1027.661	829.88
1027.875	765.88
1028.088	780.88
1028.302	697.88
1028.516	690.88
1028.73	715.88
1028.943	687.88
1029.157	630.88
1029.37	599.88
1029.584	-2.12
1029.797	-1.12
1030.011	-3.12
1030.224	-1.12
