Data from QEP037381__13__14-14-03-766.txt Node

Date: Wed Dec 21 14:14:03 EST 2022
User: dcclab
Spectrometer: QEP03738
Trigger mode: 4
Integration Time (sec): 1.000000E1
Scans to average: 1
Electric dark correction enabled: true
Nonlinearity correction enabled: false
Boxcar width: 0
XAxis mode: Wavelengths
Number of Pixels in Spectrum: 1044
>>>>>Begin Spectral Data<<<<<
784.041	12.38
784.3	2.38
784.558	-6.62
784.817	-4.62
785.075	99712.38
785.334	16737.38
785.592	7671.38
785.851	5221.38
786.109	3998.38
786.368	3092.38
786.626	2473.38
786.884	2052.38
787.143	1749.38
787.401	1434.38
787.659	1310.38
787.917	1139.38
788.175	1020.38
788.433	913.38
788.691	823.38
788.949	768.38
789.207	739.38
789.465	651.38
789.723	631.38
789.98	566.38
790.238	628.38
790.496	583.38
790.753	566.38
791.011	608.38
791.268	536.38
791.526	516.38
791.783	546.38
792.041	528.38
792.298	449.38
792.556	499.38
792.813	501.38
793.07	478.38
793.327	458.38
793.584	535.38
793.841	465.38
794.099	481.38
794.356	521.38
794.613	436.38
794.869	472.38
795.126	421.38
795.383	422.38
795.64	465.38
795.897	390.38
796.153	467.38
796.41	452.38
796.667	433.38
796.923	443.38
797.18	445.38
797.436	471.38
797.693	438.38
797.949	476.38
798.206	500.38
798.462	415.38
798.718	487.38
798.974	450.38
799.231	508.38
799.487	508.38
799.743	505.38
799.999	521.38
800.255	534.38
800.511	530.38
800.767	570.38
801.023	554.38
801.279	595.38
801.534	641.38
801.79	710.38
802.046	759.38
802.302	912.38
802.557	1039.38
802.813	1334.38
803.068	1671.38
803.324	2330.38
803.579	3157.38
803.835	4398.38
804.09	6019.38
804.345	7764.38
804.601	9822.38
804.856	11892.38
805.111	13774.38
805.366	15153.38
805.621	16292.38
805.876	17020.38
806.131	17412.38
806.386	17735.38
806.641	18138.38
806.896	18410.38
807.151	18699.38
807.406	18954.38
807.661	19396.38
807.915	19665.38
808.17	19924.38
808.425	20250.38
808.679	20321.38
808.934	20561.38
809.188	20706.38
809.443	20843.38
809.697	21223.38
809.951	21229.38
810.206	21449.38
810.46	21726.38
810.714	21826.38
810.968	22054.38
811.223	22229.38
811.477	22463.38
811.731	22632.38
811.985	22747.38
812.239	22658.38
812.493	22899.38
812.747	22993.38
813	22940.38
813.254	23189.38
813.508	23235.38
813.762	23373.38
814.015	23429.38
814.269	23663.38
814.522	23849.38
814.776	24172.38
815.03	24381.38
815.283	24858.38
815.536	25144.38
815.79	25542.38
816.043	25887.38
816.296	26174.38
816.55	26453.38
816.803	26856.38
817.056	27143.38
817.309	27378.38
817.562	27717.38
817.815	27949.38
818.068	28062.38
818.321	28345.38
818.574	28819.38
818.827	29137.38
819.079	29405.38
819.332	30001.38
819.585	30293.38
819.838	30682.38
820.09	30795.38
820.343	31055.38
820.595	31221.38
820.848	31350.38
821.1	31491.38
821.353	31456.38
821.605	31473.38
821.857	31430.38
822.11	31295.38
822.362	31312.38
822.614	31228.38
822.866	31188.38
823.118	31153.38
823.37	31219.38
823.622	31467.38
823.874	31425.38
824.126	31613.38
824.378	31675.38
824.63	31720.38
824.882	31831.38
825.134	31736.38
825.385	31755.38
825.637	31561.38
825.888	31597.38
826.14	31650.38
826.392	31413.38
826.643	31276.38
826.895	31071.38
827.146	31022.38
827.397	30944.38
827.649	30971.38
827.9	30870.38
828.151	31050.38
828.402	31164.38
828.653	31277.38
828.905	31149.38
829.156	31331.38
829.407	31479.38
829.658	31352.38
829.909	31488.38
830.159	31602.38
830.41	31438.38
830.661	31222.38
830.912	30945.38
831.162	30937.38
831.413	30882.38
831.664	30824.38
831.914	30840.38
832.165	30567.38
832.415	30824.38
832.666	30705.38
832.916	30839.38
833.167	30775.38
833.417	30864.38
833.667	30665.38
833.917	30499.38
834.168	30440.38
834.418	30447.38
834.668	30330.38
834.918	30144.38
835.168	30007.38
835.418	29952.38
835.668	29896.38
835.918	29880.38
836.167	29864.38
836.417	29688.38
836.667	29656.38
836.917	29582.38
837.166	29673.38
837.416	29776.38
837.666	29716.38
837.915	29610.38
838.165	29646.38
838.414	29484.38
838.663	29393.38
838.913	29432.38
839.162	29283.38
839.411	29434.38
839.661	29272.38
839.91	29299.38
840.159	29241.38
840.408	29141.38
840.657	29291.38
840.906	29236.38
841.155	29209.38
841.404	29267.38
841.653	29211.38
841.902	29228.38
842.15	29451.38
842.399	29420.38
842.648	29412.38
842.897	29254.38
843.145	29010.38
843.394	28997.38
843.642	28653.38
843.891	28677.38
844.139	28455.38
844.388	28303.38
844.636	28173.38
844.884	28156.38
845.133	28247.38
845.381	28116.38
845.629	28088.38
845.877	28062.38
846.125	28075.38
846.373	27955.38
846.621	27888.38
846.869	27793.38
847.117	27681.38
847.365	27500.38
847.613	27477.38
847.861	27328.38
848.108	27354.38
848.356	27299.38
848.604	27170.38
848.851	27151.38
849.099	27229.38
849.346	27385.38
849.594	27349.38
849.841	27624.38
850.089	27702.38
850.336	27745.38
850.583	27826.38
850.831	27618.38
851.078	27504.38
851.325	27575.38
851.572	27538.38
851.819	27191.38
852.066	26778.38
852.313	26368.38
852.56	26129.38
852.807	26140.38
853.054	26033.38
853.301	26020.38
853.548	25957.38
853.794	26086.38
854.041	26243.38
854.288	26430.38
854.534	26719.38
854.781	26618.38
855.028	26487.38
855.274	26406.38
855.52	26396.38
855.767	26240.38
856.013	26403.38
856.26	26689.38
856.506	26021.38
856.752	26091.38
856.998	26036.38
857.244	26170.38
857.49	26308.38
857.736	26342.38
857.982	26256.38
858.228	26230.38
858.474	25934.38
858.72	25758.38
858.966	25596.38
859.212	25339.38
859.458	25003.38
859.703	24840.38
859.949	24496.38
860.195	24619.38
860.44	24319.38
860.686	24260.38
860.931	24428.38
861.177	24141.38
861.422	24065.38
861.667	23953.38
861.913	23770.38
862.158	23870.38
862.403	23898.38
862.648	23987.38
862.893	23907.38
863.138	24049.38
863.384	23934.38
863.629	23882.38
863.873	23921.38
864.118	23792.38
864.363	23757.38
864.608	23702.38
864.853	23561.38
865.098	23299.38
865.342	23318.38
865.587	23303.38
865.832	23217.38
866.076	23257.38
866.321	23036.38
866.565	23026.38
866.81	22922.38
867.054	22902.38
867.298	22782.38
867.543	22740.38
867.787	22838.38
868.031	22727.38
868.275	22611.38
868.519	22422.38
868.764	22479.38
869.008	22523.38
869.252	22422.38
869.496	22412.38
869.739	22453.38
869.983	22389.38
870.227	22418.38
870.471	22408.38
870.715	22664.38
870.958	22500.38
871.202	22547.38
871.446	22654.38
871.689	22625.38
871.933	22730.38
872.176	22658.38
872.42	22590.38
872.663	22555.38
872.906	22527.38
873.15	22534.38
873.393	22581.38
873.636	22507.38
873.879	22220.38
874.122	21936.38
874.366	21597.38
874.609	21482.38
874.852	21267.38
875.095	21050.38
875.337	21105.38
875.58	20938.38
875.823	20838.38
876.066	20786.38
876.309	20721.38
876.551	20631.38
876.794	20403.38
877.037	20522.38
877.279	20405.38
877.522	20370.38
877.764	20311.38
878.007	20370.38
878.249	20387.38
878.491	20252.38
878.734	20298.38
878.976	20251.38
879.218	20009.38
879.46	19905.38
879.702	19771.38
879.945	19676.38
880.187	19522.38
880.429	19335.38
880.671	19358.38
880.912	19181.38
881.154	19135.38
881.396	19019.38
881.638	19098.38
881.88	19096.38
882.121	19061.38
882.363	19041.38
882.605	18996.38
882.846	18967.38
883.088	18889.38
883.329	19016.38
883.571	19065.38
883.812	19305.38
884.053	19720.38
884.295	20107.38
884.536	20468.38
884.777	20267.38
885.018	20095.38
885.259	19900.38
885.5	19774.38
885.742	20041.38
885.982	19676.38
886.223	19457.38
886.464	19305.38
886.705	19130.38
886.946	18949.38
887.187	18498.38
887.428	18383.38
887.668	18115.38
887.909	17845.38
888.15	17628.38
888.39	17536.38
888.631	17370.38
888.871	17275.38
889.111	17067.38
889.352	17016.38
889.592	16761.38
889.833	16691.38
890.073	16653.38
890.313	16582.38
890.553	16305.38
890.793	16227.38
891.033	16261.38
891.273	16115.38
891.513	16138.38
891.753	16052.38
891.993	16046.38
892.233	16067.38
892.473	16147.38
892.713	16076.38
892.952	16089.38
893.192	16142.38
893.432	16109.38
893.671	16015.38
893.911	15845.38
894.15	15775.38
894.39	15684.38
894.629	15642.38
894.869	15553.38
895.108	15416.38
895.347	15317.38
895.587	15302.38
895.826	15224.38
896.065	15258.38
896.304	15230.38
896.543	15301.38
896.782	15073.38
897.021	15124.38
897.26	15084.38
897.499	15109.38
897.738	14963.38
897.977	14854.38
898.216	14741.38
898.454	14533.38
898.693	14530.38
898.932	14564.38
899.17	14385.38
899.409	14389.38
899.647	14425.38
899.886	14353.38
900.124	14381.38
900.363	14350.38
900.601	14383.38
900.839	14439.38
901.078	14485.38
901.316	14390.38
901.554	14531.38
901.792	14674.38
902.03	14621.38
902.268	14626.38
902.506	14592.38
902.744	14488.38
902.982	14391.38
903.22	14177.38
903.458	14031.38
903.695	13769.38
903.933	13646.38
904.171	13361.38
904.409	13248.38
904.646	13049.38
904.884	12858.38
905.121	12717.38
905.359	12580.38
905.596	12523.38
905.833	12395.38
906.071	12353.38
906.308	12315.38
906.545	12354.38
906.783	12236.38
907.02	12227.38
907.257	12096.38
907.494	12144.38
907.731	12146.38
907.968	12070.38
908.205	11963.38
908.442	11873.38
908.679	11814.38
908.915	11721.38
909.152	11692.38
909.389	11488.38
909.626	11483.38
909.862	11417.38
910.099	11318.38
910.335	11317.38
910.572	11245.38
910.808	11212.38
911.045	11170.38
911.281	11046.38
911.518	11149.38
911.754	11039.38
911.99	10970.38
912.226	10816.38
912.463	10774.38
912.699	10743.38
912.935	10625.38
913.171	10532.38
913.407	10434.38
913.643	10429.38
913.879	10259.38
914.114	10191.38
914.35	10106.38
914.586	10005.38
914.822	9933.38
915.057	9941.38
915.293	9725.38
915.529	9766.38
915.764	9785.38
916	9686.38
916.235	9658.38
916.471	9677.38
916.706	9546.38
916.941	9659.38
917.177	9595.38
917.412	9653.38
917.647	9553.38
917.882	9496.38
918.117	9528.38
918.352	9508.38
918.588	9527.38
918.823	9358.38
919.057	9283.38
919.292	9085.38
919.527	9189.38
919.762	8998.38
919.997	9009.38
920.232	8835.38
920.466	8811.38
920.701	8663.38
920.935	8629.38
921.17	8587.38
921.405	8530.38
921.639	8524.38
921.873	8438.38
922.108	8479.38
922.342	8438.38
922.576	8412.38
922.811	8346.38
923.045	8358.38
923.279	8325.38
923.513	8157.38
923.747	8260.38
923.981	8143.38
924.215	8039.38
924.449	8041.38
924.683	7940.38
924.917	7949.38
925.151	7879.38
925.385	7935.38
925.618	7857.38
925.852	7824.38
926.086	7758.38
926.319	7817.38
926.553	7749.38
926.786	7786.38
927.02	7836.38
927.253	7749.38
927.486	7736.38
927.72	7659.38
927.953	7725.38
928.186	7624.38
928.42	7666.38
928.653	7559.38
928.886	7497.38
929.119	7643.38
929.352	7502.38
929.585	7473.38
929.818	7381.38
930.051	7396.38
930.284	7284.38
930.516	7156.38
930.749	7165.38
930.982	7172.38
931.215	7136.38
931.447	6961.38
931.68	7017.38
931.912	7050.38
932.145	6959.38
932.377	6997.38
932.61	7106.38
932.842	6967.38
933.074	6974.38
933.307	6938.38
933.539	7055.38
933.771	6967.38
934.003	6892.38
934.236	6993.38
934.468	6987.38
934.7	6916.38
934.932	6892.38
935.164	6847.38
935.395	6754.38
935.627	6780.38
935.859	6794.38
936.091	6786.38
936.323	6742.38
936.554	6771.38
936.786	6679.38
937.017	6611.38
937.249	6645.38
937.481	6547.38
937.712	6623.38
937.943	6565.38
938.175	6556.38
938.406	6619.38
938.637	6607.38
938.869	6497.38
939.1	6537.38
939.331	6452.38
939.562	6491.38
939.793	6428.38
940.024	6414.38
940.255	6412.38
940.486	6367.38
940.717	6379.38
940.948	6339.38
941.179	6260.38
941.409	6285.38
941.64	6173.38
941.871	6208.38
942.102	6200.38
942.332	6215.38
942.563	6315.38
942.793	6221.38
943.024	6132.38
943.254	6229.38
943.484	6238.38
943.715	6214.38
943.945	6238.38
944.175	6153.38
944.405	6082.38
944.636	6123.38
944.866	6116.38
945.096	6200.38
945.326	5988.38
945.556	6098.38
945.786	6105.38
946.016	6084.38
946.245	5932.38
946.475	5921.38
946.705	5899.38
946.935	5850.38
947.164	5861.38
947.394	5770.38
947.624	5804.38
947.853	5861.38
948.083	5748.38
948.312	5654.38
948.542	5624.38
948.771	5600.38
949	5598.38
949.23	5629.38
949.459	5655.38
949.688	5656.38
949.917	5596.38
950.146	5632.38
950.375	5630.38
950.604	5503.38
950.833	5595.38
951.062	5603.38
951.291	5584.38
951.52	5493.38
951.749	5495.38
951.978	5479.38
952.206	5436.38
952.435	5405.38
952.664	5438.38
952.892	5441.38
953.121	5409.38
953.349	5380.38
953.578	5425.38
953.806	5369.38
954.035	5245.38
954.263	5263.38
954.491	5186.38
954.719	5215.38
954.948	5182.38
955.176	5196.38
955.404	5105.38
955.632	5192.38
955.86	5130.38
956.088	5104.38
956.316	5112.38
956.544	5071.38
956.772	4983.38
956.999	4946.38
957.227	5091.38
957.455	4896.38
957.683	4943.38
957.91	4852.38
958.138	4864.38
958.365	4793.38
958.593	4810.38
958.82	4739.38
959.048	4835.38
959.275	4823.38
959.502	4674.38
959.73	4707.38
959.957	4773.38
960.184	4770.38
960.411	4681.38
960.638	4753.38
960.865	4698.38
961.092	4727.38
961.319	4631.38
961.546	4709.38
961.773	4709.38
962	4642.38
962.227	4700.38
962.454	4635.38
962.68	4615.38
962.907	4616.38
963.134	4536.38
963.36	4533.38
963.587	4532.38
963.813	4445.38
964.04	4438.38
964.266	4434.38
964.493	4444.38
964.719	4481.38
964.945	4451.38
965.171	4318.38
965.398	4341.38
965.624	4336.38
965.85	4232.38
966.076	4216.38
966.302	4277.38
966.528	4220.38
966.754	4237.38
966.98	4158.38
967.206	4196.38
967.431	4125.38
967.657	4183.38
967.883	4206.38
968.109	4172.38
968.334	4084.38
968.56	4045.38
968.785	4068.38
969.011	4082.38
969.236	4068.38
969.462	4025.38
969.687	4022.38
969.912	4018.38
970.138	4016.38
970.363	3986.38
970.588	3962.38
970.813	3918.38
971.038	3938.38
971.263	3916.38
971.488	3937.38
971.713	3950.38
971.938	3875.38
972.163	3833.38
972.388	3802.38
972.613	3844.38
972.838	3802.38
973.062	3733.38
973.287	3752.38
973.512	3704.38
973.736	3730.38
973.961	3656.38
974.185	3671.38
974.41	3647.38
974.634	3551.38
974.858	3580.38
975.083	3623.38
975.307	3609.38
975.531	3530.38
975.755	3499.38
975.98	3479.38
976.204	3411.38
976.428	3413.38
976.652	3406.38
976.876	3396.38
977.1	3389.38
977.324	3381.38
977.547	3444.38
977.771	3406.38
977.995	3365.38
978.219	3326.38
978.442	3364.38
978.666	3353.38
978.89	3335.38
979.113	3299.38
979.337	3304.38
979.56	3270.38
979.783	3342.38
980.007	3225.38
980.23	3243.38
980.453	3185.38
980.677	3232.38
980.9	3213.38
981.123	3074.38
981.346	3212.38
981.569	3149.38
981.792	3236.38
982.015	3141.38
982.238	3046.38
982.461	3117.38
982.684	3029.38
982.907	3030.38
983.129	3003.38
983.352	3028.38
983.575	3021.38
983.797	3022.38
984.02	2968.38
984.242	2943.38
984.465	2915.38
984.687	2974.38
984.91	2974.38
985.132	2929.38
985.354	2922.38
985.577	2934.38
985.799	2862.38
986.021	2799.38
986.243	2824.38
986.465	2818.38
986.687	2875.38
986.909	2893.38
987.131	2818.38
987.353	2787.38
987.575	2810.38
987.797	2780.38
988.019	2722.38
988.241	2769.38
988.462	2729.38
988.684	2761.38
988.906	2796.38
989.127	2798.38
989.349	2669.38
989.57	2696.38
989.792	2774.38
990.013	2764.38
990.234	2756.38
990.456	2775.38
990.677	2735.38
990.898	2649.38
991.119	2687.38
991.341	2689.38
991.562	2643.38
991.783	2630.38
992.004	2589.38
992.225	2544.38
992.446	2603.38
992.667	2523.38
992.887	2603.38
993.108	2452.38
993.329	2567.38
993.55	2520.38
993.77	2422.38
993.991	2467.38
994.212	2477.38
994.432	2419.38
994.653	2443.38
994.873	2461.38
995.093	2353.38
995.314	2389.38
995.534	2434.38
995.754	2432.38
995.975	2455.38
996.195	2367.38
996.415	2403.38
996.635	2365.38
996.855	2369.38
997.075	2355.38
997.295	2355.38
997.515	2331.38
997.735	2414.38
997.955	2349.38
998.174	2369.38
998.394	2289.38
998.614	2367.38
998.834	2346.38
999.053	2340.38
999.273	2310.38
999.492	2400.38
999.712	2316.38
999.931	2257.38
1000.151	2296.38
1000.37	2241.38
1000.589	2305.38
1000.809	2204.38
1001.028	2325.38
1001.247	2247.38
1001.466	2123.38
1001.685	2284.38
1001.904	2218.38
1002.123	2190.38
1002.342	2165.38
1002.561	2108.38
1002.78	2156.38
1002.999	2189.38
1003.218	2162.38
1003.436	2110.38
1003.655	2156.38
1003.874	2034.38
1004.092	2086.38
1004.311	2112.38
1004.53	2073.38
1004.748	2183.38
1004.966	2065.38
1005.185	2128.38
1005.403	2123.38
1005.622	2078.38
1005.84	2147.38
1006.058	2052.38
1006.276	2077.38
1006.494	2583.38
1006.712	2095.38
1006.931	2137.38
1007.149	2052.38
1007.367	2054.38
1007.584	2087.38
1007.802	2136.38
1008.02	2080.38
1008.238	2173.38
1008.456	2138.38
1008.673	2050.38
1008.891	2202.38
1009.109	2126.38
1009.326	2233.38
1009.544	2324.38
1009.761	2272.38
1009.979	2397.38
1010.196	2449.38
1010.413	2567.38
1010.631	2685.38
1010.848	2725.38
1011.065	2793.38
1011.282	2718.38
1011.5	2642.38
1011.717	2752.38
1011.934	2680.38
1012.151	2687.38
1012.368	2658.38
1012.585	2585.38
1012.801	2686.38
1013.018	2609.38
1013.235	2599.38
1013.452	2592.38
1013.669	2646.38
1013.885	2625.38
1014.102	2687.38
1014.318	2624.38
1014.535	2609.38
1014.751	2611.38
1014.968	2604.38
1015.184	2611.38
1015.401	2516.38
1015.617	2519.38
1015.833	2459.38
1016.049	2444.38
1016.266	2409.38
1016.482	2425.38
1016.698	2317.38
1016.914	2351.38
1017.13	2269.38
1017.346	2260.38
1017.562	2314.38
1017.778	2250.38
1017.993	2230.38
1018.209	2239.38
1018.425	2233.38
1018.641	2186.38
1018.856	2177.38
1019.072	2174.38
1019.288	2233.38
1019.503	2166.38
1019.719	2104.38
1019.934	2099.38
1020.149	2147.38
1020.365	2088.38
1020.58	2026.38
1020.795	2037.38
1021.011	1943.38
1021.226	1894.38
1021.441	1903.38
1021.656	1833.38
1021.871	1757.38
1022.086	1730.38
1022.301	1730.38
1022.516	1689.38
1022.731	1736.38
1022.946	1620.38
1023.16	1602.38
1023.375	1568.38
1023.59	1548.38
1023.804	1496.38
1024.019	1572.38
1024.234	1446.38
1024.448	1445.38
1024.663	1357.38
1024.877	1373.38
1025.092	1368.38
1025.306	1377.38
1025.52	1282.38
1025.734	1338.38
1025.949	1233.38
1026.163	1217.38
1026.377	1132.38
1026.591	1184.38
1026.805	1104.38
1027.019	1077.38
1027.233	1032.38
1027.447	990.38
1027.661	1086.38
1027.875	999.38
1028.088	1023.38
1028.302	953.38
1028.516	907.38
1028.73	892.38
1028.943	894.38
1029.157	835.38
1029.37	760.38
1029.584	0.38
1029.797	-1.62
1030.011	-2.62
1030.224	0.38
