Data from QEP037381__499__17-27-47-563.txt Node

Date: Fri Dec 16 17:27:47 EST 2022
User: dcclab
Spectrometer: QEP03738
Trigger mode: 4
Integration Time (sec): 1.000000E1
Scans to average: 1
Electric dark correction enabled: true
Nonlinearity correction enabled: false
Boxcar width: 0
XAxis mode: Wavelengths
Number of Pixels in Spectrum: 1044
>>>>>Begin Spectral Data<<<<<
784.041	17.62
784.3	0.62
784.558	0.62
784.817	-4.38
785.075	125606.62
785.334	22298.62
785.592	10570.62
785.851	7307.62
786.109	5489.62
786.368	4283.62
786.626	3438.62
786.884	2836.62
787.143	2382.62
787.401	1957.62
787.659	1765.62
787.917	1490.62
788.175	1350.62
788.433	1173.62
788.691	1016.62
788.949	939.62
789.207	879.62
789.465	762.62
789.723	738.62
789.98	667.62
790.238	726.62
790.496	661.62
790.753	627.62
791.011	669.62
791.268	601.62
791.526	577.62
791.783	590.62
792.041	585.62
792.298	489.62
792.556	562.62
792.813	527.62
793.07	509.62
793.327	495.62
793.584	561.62
793.841	478.62
794.099	499.62
794.356	565.62
794.613	451.62
794.869	510.62
795.126	472.62
795.383	442.62
795.64	470.62
795.897	418.62
796.153	488.62
796.41	461.62
796.667	443.62
796.923	473.62
797.18	461.62
797.436	492.62
797.693	459.62
797.949	498.62
798.206	535.62
798.462	455.62
798.718	522.62
798.974	486.62
799.231	536.62
799.487	522.62
799.743	533.62
799.999	562.62
800.255	561.62
800.511	551.62
800.767	596.62
801.023	592.62
801.279	642.62
801.534	699.62
801.79	741.62
802.046	791.62
802.302	968.62
802.557	1132.62
802.813	1415.62
803.068	1824.62
803.324	2552.62
803.579	3543.62
803.835	4872.62
804.09	6776.62
804.345	8938.62
804.601	11337.62
804.856	13848.62
805.111	15875.62
805.366	17533.62
805.621	18577.62
805.876	19461.62
806.131	19755.62
806.386	20268.62
806.641	20526.62
806.896	20889.62
807.151	21232.62
807.406	21544.62
807.661	21852.62
807.915	22231.62
808.17	22451.62
808.425	22698.62
808.679	22780.62
808.934	23111.62
809.188	23283.62
809.443	23446.62
809.697	23679.62
809.951	23795.62
810.206	24028.62
810.46	24255.62
810.714	24477.62
810.968	24595.62
811.223	24708.62
811.477	25008.62
811.731	25190.62
811.985	25310.62
812.239	25411.62
812.493	25418.62
812.747	25479.62
813	25635.62
813.254	25647.62
813.508	25779.62
813.762	25850.62
814.015	25964.62
814.269	26191.62
814.522	26271.62
814.776	26514.62
815.03	26850.62
815.283	27272.62
815.536	27590.62
815.79	27910.62
816.043	28422.62
816.296	28696.62
816.55	29093.62
816.803	29267.62
817.056	29697.62
817.309	29717.62
817.562	30054.62
817.815	30430.62
818.068	30631.62
818.321	30844.62
818.574	31112.62
818.827	31590.62
819.079	31791.62
819.332	32406.62
819.585	32754.62
819.838	33123.62
820.09	33218.62
820.343	33647.62
820.595	33645.62
820.848	33845.62
821.1	33860.62
821.353	33927.62
821.605	33994.62
821.857	34039.62
822.11	33599.62
822.362	33678.62
822.614	33788.62
822.866	33678.62
823.118	33593.62
823.37	33800.62
823.622	33943.62
823.874	33866.62
824.126	34014.62
824.378	34053.62
824.63	34091.62
824.882	34154.62
825.134	34138.62
825.385	34152.62
825.637	34056.62
825.888	33895.62
826.14	33771.62
826.392	33820.62
826.643	33545.62
826.895	33292.62
827.146	33277.62
827.397	33173.62
827.649	33178.62
827.9	33177.62
828.151	33211.62
828.402	33305.62
828.653	33481.62
828.905	33271.62
829.156	33606.62
829.407	33463.62
829.658	33313.62
829.909	33342.62
830.159	33300.62
830.41	33108.62
830.661	33014.62
830.912	32758.62
831.162	32733.62
831.413	32396.62
831.664	32626.62
831.914	32480.62
832.165	32413.62
832.415	32632.62
832.666	32542.62
832.916	32378.62
833.167	32311.62
833.417	32340.62
833.667	32180.62
833.917	32103.62
834.168	32046.62
834.418	31930.62
834.668	31793.62
834.918	31628.62
835.168	31587.62
835.418	31366.62
835.668	31392.62
835.918	31364.62
836.167	31121.62
836.417	31131.62
836.667	31108.62
836.917	30959.62
837.166	30927.62
837.416	30967.62
837.666	30964.62
837.915	30690.62
838.165	30810.62
838.414	30551.62
838.663	30392.62
838.913	30543.62
839.162	30152.62
839.411	30350.62
839.661	30036.62
839.91	30036.62
840.159	29912.62
840.408	29927.62
840.657	29923.62
840.906	29958.62
841.155	29970.62
841.404	29839.62
841.653	29819.62
841.902	29932.62
842.15	29874.62
842.399	29825.62
842.648	29749.62
842.897	29715.62
843.145	29522.62
843.394	29335.62
843.642	29171.62
843.891	29090.62
844.139	29029.62
844.388	28792.62
844.636	28567.62
844.884	28609.62
845.133	28560.62
845.381	28499.62
845.629	28344.62
845.877	28298.62
846.125	28374.62
846.373	28208.62
846.621	28100.62
846.869	28042.62
847.117	27888.62
847.365	27806.62
847.613	27656.62
847.861	27504.62
848.108	27474.62
848.356	27433.62
848.604	27332.62
848.851	27353.62
849.099	27401.62
849.346	27371.62
849.594	27441.62
849.841	27554.62
850.089	27599.62
850.336	27537.62
850.583	27583.62
850.831	27404.62
851.078	27328.62
851.325	27057.62
851.572	27049.62
851.819	26747.62
852.066	26384.62
852.313	26075.62
852.56	26001.62
852.807	25845.62
853.054	25733.62
853.301	25679.62
853.548	25775.62
853.794	25834.62
854.041	25785.62
854.288	25928.62
854.534	26143.62
854.781	26182.62
855.028	25884.62
855.274	25954.62
855.52	25653.62
855.767	25407.62
856.013	25658.62
856.26	25758.62
856.506	25264.62
856.752	25361.62
856.998	25332.62
857.244	25275.62
857.49	25255.62
857.736	25289.62
857.982	25367.62
858.228	25302.62
858.474	25219.62
858.72	24962.62
858.966	24699.62
859.212	24518.62
859.458	24460.62
859.703	24107.62
859.949	23830.62
860.195	23638.62
860.44	23580.62
860.686	23372.62
860.931	23311.62
861.177	23148.62
861.422	23208.62
861.667	23176.62
861.913	23121.62
862.158	23289.62
862.403	23131.62
862.648	23313.62
862.893	23339.62
863.138	23305.62
863.384	23226.62
863.629	23191.62
863.873	23206.62
864.118	22982.62
864.363	22809.62
864.608	22910.62
864.853	22732.62
865.098	22585.62
865.342	22585.62
865.587	22355.62
865.832	22418.62
866.076	22325.62
866.321	22224.62
866.565	22173.62
866.81	22054.62
867.054	21891.62
867.298	21882.62
867.543	21778.62
867.787	21822.62
868.031	21721.62
868.275	21562.62
868.519	21687.62
868.764	21550.62
869.008	21412.62
869.252	21399.62
869.496	21270.62
869.739	21231.62
869.983	21209.62
870.227	21034.62
870.471	21064.62
870.715	21124.62
870.958	21216.62
871.202	21104.62
871.446	21192.62
871.689	21164.62
871.933	21104.62
872.176	21157.62
872.42	21179.62
872.663	20943.62
872.906	21011.62
873.15	20768.62
873.393	20600.62
873.636	20701.62
873.879	20390.62
874.122	20261.62
874.366	19989.62
874.609	19864.62
874.852	19799.62
875.095	19591.62
875.337	19549.62
875.58	19525.62
875.823	19407.62
876.066	19487.62
876.309	19368.62
876.551	19091.62
876.794	19023.62
877.037	19180.62
877.279	19115.62
877.522	19083.62
877.764	19037.62
878.007	19027.62
878.249	19004.62
878.491	19002.62
878.734	18995.62
878.976	18927.62
879.218	18866.62
879.46	18671.62
879.702	18614.62
879.945	18463.62
880.187	18238.62
880.429	18109.62
880.671	18041.62
880.912	18005.62
881.154	17883.62
881.396	17790.62
881.638	17813.62
881.88	17738.62
882.121	17783.62
882.363	17794.62
882.605	17635.62
882.846	17690.62
883.088	17557.62
883.329	17539.62
883.571	17373.62
883.812	17366.62
884.053	17627.62
884.295	17652.62
884.536	17847.62
884.777	17622.62
885.018	17583.62
885.259	17523.62
885.5	17434.62
885.742	17557.62
885.982	17435.62
886.223	17286.62
886.464	17255.62
886.705	17075.62
886.946	17049.62
887.187	16920.62
887.428	16770.62
887.668	16601.62
887.909	16420.62
888.15	16252.62
888.39	16219.62
888.631	16179.62
888.871	16020.62
889.111	15905.62
889.352	15767.62
889.592	15674.62
889.833	15541.62
890.073	15440.62
890.313	15475.62
890.553	15222.62
890.793	15088.62
891.033	15089.62
891.273	15017.62
891.513	14989.62
891.753	14995.62
891.993	14851.62
892.233	14891.62
892.473	14999.62
892.713	14888.62
892.952	14942.62
893.192	14873.62
893.432	14845.62
893.671	14887.62
893.911	14816.62
894.15	14701.62
894.39	14458.62
894.629	14491.62
894.869	14413.62
895.108	14303.62
895.347	14253.62
895.587	14233.62
895.826	14186.62
896.065	14019.62
896.304	14099.62
896.543	14016.62
896.782	13884.62
897.021	13953.62
897.26	13892.62
897.499	13846.62
897.738	13776.62
897.977	13621.62
898.216	13527.62
898.454	13462.62
898.693	13399.62
898.932	13325.62
899.17	13167.62
899.409	13166.62
899.647	13090.62
899.886	13047.62
900.124	13048.62
900.363	13016.62
900.601	12994.62
900.839	13026.62
901.078	13068.62
901.316	12986.62
901.554	13093.62
901.792	13046.62
902.03	12949.62
902.268	13009.62
902.506	12933.62
902.744	12854.62
902.982	12854.62
903.22	12681.62
903.458	12608.62
903.695	12474.62
903.933	12306.62
904.171	12144.62
904.409	12051.62
904.646	12003.62
904.884	11718.62
905.121	11654.62
905.359	11637.62
905.596	11421.62
905.833	11360.62
906.071	11349.62
906.308	11352.62
906.545	11278.62
906.783	11239.62
907.02	11168.62
907.257	11113.62
907.494	11136.62
907.731	11117.62
907.968	11066.62
908.205	11007.62
908.442	10926.62
908.679	10860.62
908.915	10831.62
909.152	10634.62
909.389	10495.62
909.626	10499.62
909.862	10431.62
910.099	10392.62
910.335	10389.62
910.572	10299.62
910.808	10300.62
911.045	10271.62
911.281	10205.62
911.518	10222.62
911.754	10051.62
911.99	10001.62
912.226	9974.62
912.463	9854.62
912.699	9806.62
912.935	9828.62
913.171	9665.62
913.407	9594.62
913.643	9537.62
913.879	9473.62
914.114	9422.62
914.35	9218.62
914.586	9188.62
914.822	9117.62
915.057	9090.62
915.293	8935.62
915.529	8935.62
915.764	8955.62
916	8973.62
916.235	8916.62
916.471	8872.62
916.706	8842.62
916.941	8857.62
917.177	8748.62
917.412	8746.62
917.647	8748.62
917.882	8712.62
918.117	8788.62
918.352	8699.62
918.588	8684.62
918.823	8570.62
919.057	8531.62
919.292	8324.62
919.527	8395.62
919.762	8149.62
919.997	8169.62
920.232	8063.62
920.466	8088.62
920.701	7840.62
920.935	7833.62
921.17	7836.62
921.405	7801.62
921.639	7794.62
921.873	7694.62
922.108	7725.62
922.342	7676.62
922.576	7579.62
922.811	7613.62
923.045	7529.62
923.279	7566.62
923.513	7465.62
923.747	7541.62
923.981	7453.62
924.215	7347.62
924.449	7311.62
924.683	7301.62
924.917	7130.62
925.151	7194.62
925.385	7224.62
925.618	7162.62
925.852	7082.62
926.086	7030.62
926.319	7121.62
926.553	7059.62
926.786	7075.62
927.02	7011.62
927.253	7063.62
927.486	7019.62
927.72	6966.62
927.953	6973.62
928.186	6916.62
928.42	6890.62
928.653	6872.62
928.886	6815.62
929.119	6854.62
929.352	6813.62
929.585	6748.62
929.818	6639.62
930.051	6637.62
930.284	6633.62
930.516	6436.62
930.749	6418.62
930.982	6457.62
931.215	6404.62
931.447	6356.62
931.68	6357.62
931.912	6263.62
932.145	6303.62
932.377	6312.62
932.61	6444.62
932.842	6234.62
933.074	6293.62
933.307	6222.62
933.539	6332.62
933.771	6309.62
934.003	6270.62
934.236	6265.62
934.468	6337.62
934.7	6187.62
934.932	6223.62
935.164	6154.62
935.395	6126.62
935.627	6155.62
935.859	6114.62
936.091	6040.62
936.323	6102.62
936.554	6037.62
936.786	5976.62
937.017	5935.62
937.249	5989.62
937.481	5891.62
937.712	5955.62
937.943	5905.62
938.175	5928.62
938.406	5846.62
938.637	5935.62
938.869	5793.62
939.1	5929.62
939.331	5843.62
939.562	5816.62
939.793	5748.62
940.024	5801.62
940.255	5778.62
940.486	5731.62
940.717	5707.62
940.948	5663.62
941.179	5569.62
941.409	5600.62
941.64	5629.62
941.871	5613.62
942.102	5538.62
942.332	5556.62
942.563	5555.62
942.793	5609.62
943.024	5508.62
943.254	5580.62
943.484	5572.62
943.715	5606.62
943.945	5525.62
944.175	5472.62
944.405	5459.62
944.636	5404.62
944.866	5532.62
945.096	5521.62
945.326	5386.62
945.556	5444.62
945.786	5444.62
946.016	5403.62
946.245	5260.62
946.475	5257.62
946.705	5279.62
946.935	5224.62
947.164	5217.62
947.394	5095.62
947.624	5161.62
947.853	5159.62
948.083	5129.62
948.312	5072.62
948.542	4997.62
948.771	4972.62
949	5028.62
949.23	5013.62
949.459	4970.62
949.688	5061.62
949.917	4956.62
950.146	4976.62
950.375	5002.62
950.604	4921.62
950.833	5000.62
951.062	4954.62
951.291	4895.62
951.52	4891.62
951.749	4919.62
951.978	4829.62
952.206	4808.62
952.435	4809.62
952.664	4798.62
952.892	4836.62
953.121	4801.62
953.349	4805.62
953.578	4767.62
953.806	4699.62
954.035	4624.62
954.263	4649.62
954.491	4605.62
954.719	4602.62
954.948	4596.62
955.176	4589.62
955.404	4479.62
955.632	4482.62
955.86	4483.62
956.088	4490.62
956.316	4490.62
956.544	4496.62
956.772	4411.62
956.999	4379.62
957.227	4448.62
957.455	4333.62
957.683	4345.62
957.91	4304.62
958.138	4247.62
958.365	4262.62
958.593	4210.62
958.82	4127.62
959.048	4261.62
959.275	4204.62
959.502	4191.62
959.73	4104.62
959.957	4152.62
960.184	4211.62
960.411	4103.62
960.638	4189.62
960.865	4134.62
961.092	4103.62
961.319	4014.62
961.546	4118.62
961.773	4099.62
962	4077.62
962.227	4106.62
962.454	4017.62
962.68	4008.62
962.907	4070.62
963.134	3984.62
963.36	3982.62
963.587	3963.62
963.813	3880.62
964.04	3927.62
964.266	3835.62
964.493	3879.62
964.719	3856.62
964.945	3884.62
965.171	3794.62
965.398	3794.62
965.624	3787.62
965.85	3719.62
966.076	3688.62
966.302	3717.62
966.528	3648.62
966.754	3710.62
966.98	3702.62
967.206	3697.62
967.431	3607.62
967.657	3653.62
967.883	3636.62
968.109	3627.62
968.334	3583.62
968.56	3562.62
968.785	3586.62
969.011	3530.62
969.236	3570.62
969.462	3504.62
969.687	3504.62
969.912	3553.62
970.138	3540.62
970.363	3481.62
970.588	3496.62
970.813	3432.62
971.038	3433.62
971.263	3460.62
971.488	3444.62
971.713	3483.62
971.938	3419.62
972.163	3348.62
972.388	3355.62
972.613	3299.62
972.838	3344.62
973.062	3276.62
973.287	3290.62
973.512	3226.62
973.736	3262.62
973.961	3227.62
974.185	3158.62
974.41	3242.62
974.634	3134.62
974.858	3140.62
975.083	3126.62
975.307	3166.62
975.531	3109.62
975.755	3050.62
975.98	3065.62
976.204	2991.62
976.428	2972.62
976.652	2979.62
976.876	2938.62
977.1	2996.62
977.324	2898.62
977.547	2979.62
977.771	2947.62
977.995	2937.62
978.219	2858.62
978.442	2994.62
978.666	2914.62
978.89	2895.62
979.113	2914.62
979.337	2892.62
979.56	2884.62
979.783	2967.62
980.007	2816.62
980.23	2840.62
980.453	2798.62
980.677	2805.62
980.9	2822.62
981.123	2750.62
981.346	2816.62
981.569	2775.62
981.792	2798.62
982.015	2751.62
982.238	2664.62
982.461	2704.62
982.684	2646.62
982.907	2665.62
983.129	2623.62
983.352	2661.62
983.575	2669.62
983.797	2594.62
984.02	2545.62
984.242	2553.62
984.465	2581.62
984.687	2578.62
984.91	2598.62
985.132	2569.62
985.354	2591.62
985.577	2538.62
985.799	2510.62
986.021	2451.62
986.243	2459.62
986.465	2423.62
986.687	2469.62
986.909	2542.62
987.131	2466.62
987.353	2446.62
987.575	2454.62
987.797	2393.62
988.019	2387.62
988.241	2418.62
988.462	2380.62
988.684	2458.62
988.906	2481.62
989.127	2470.62
989.349	2348.62
989.57	2366.62
989.792	2395.62
990.013	2417.62
990.234	2413.62
990.456	2417.62
990.677	2385.62
990.898	2316.62
991.119	2334.62
991.341	2305.62
991.562	2278.62
991.783	2314.62
992.004	2227.62
992.225	2206.62
992.446	2246.62
992.667	2177.62
992.887	2256.62
993.108	2154.62
993.329	2266.62
993.55	2157.62
993.77	2137.62
993.991	2130.62
994.212	2150.62
994.432	2157.62
994.653	2162.62
994.873	2136.62
995.093	2013.62
995.314	2050.62
995.534	2125.62
995.754	2122.62
995.975	2125.62
996.195	2005.62
996.415	2066.62
996.635	2046.62
996.855	2058.62
997.075	2012.62
997.295	2037.62
997.515	1985.62
997.735	2049.62
997.955	2029.62
998.174	2005.62
998.394	1970.62
998.614	2004.62
998.834	1948.62
999.053	2042.62
999.273	2020.62
999.492	2048.62
999.712	1941.62
999.931	1942.62
1000.151	1974.62
1000.37	1953.62
1000.589	1984.62
1000.809	1932.62
1001.028	2035.62
1001.247	1964.62
1001.466	1847.62
1001.685	1993.62
1001.904	1920.62
1002.123	1887.62
1002.342	1931.62
1002.561	1843.62
1002.78	1870.62
1002.999	1914.62
1003.218	1867.62
1003.436	1833.62
1003.655	1883.62
1003.874	1805.62
1004.092	1829.62
1004.311	1870.62
1004.53	1828.62
1004.748	1858.62
1004.966	1807.62
1005.185	1868.62
1005.403	1859.62
1005.622	1844.62
1005.84	1896.62
1006.058	1780.62
1006.276	1808.62
1006.494	2265.62
1006.712	1793.62
1006.931	1864.62
1007.149	1771.62
1007.367	1762.62
1007.584	1823.62
1007.802	1817.62
1008.02	1775.62
1008.238	1864.62
1008.456	1840.62
1008.673	1717.62
1008.891	1830.62
1009.109	1772.62
1009.326	1836.62
1009.544	1876.62
1009.761	1776.62
1009.979	1904.62
1010.196	1904.62
1010.413	1983.62
1010.631	1997.62
1010.848	2034.62
1011.065	2010.62
1011.282	1962.62
1011.5	1930.62
1011.717	1962.62
1011.934	1951.62
1012.151	1974.62
1012.368	1920.62
1012.585	1890.62
1012.801	1943.62
1013.018	1906.62
1013.235	1869.62
1013.452	1874.62
1013.669	1914.62
1013.885	1853.62
1014.102	1904.62
1014.318	1846.62
1014.535	1840.62
1014.751	1843.62
1014.968	1866.62
1015.184	1886.62
1015.401	1798.62
1015.617	1819.62
1015.833	1728.62
1016.049	1762.62
1016.266	1742.62
1016.482	1737.62
1016.698	1618.62
1016.914	1675.62
1017.13	1663.62
1017.346	1672.62
1017.562	1700.62
1017.778	1628.62
1017.993	1590.62
1018.209	1683.62
1018.425	1616.62
1018.641	1593.62
1018.856	1568.62
1019.072	1609.62
1019.288	1630.62
1019.503	1582.62
1019.719	1513.62
1019.934	1492.62
1020.149	1562.62
1020.365	1536.62
1020.58	1454.62
1020.795	1528.62
1021.011	1463.62
1021.226	1436.62
1021.441	1458.62
1021.656	1397.62
1021.871	1333.62
1022.086	1306.62
1022.301	1320.62
1022.516	1312.62
1022.731	1337.62
1022.946	1258.62
1023.16	1246.62
1023.375	1216.62
1023.59	1216.62
1023.804	1163.62
1024.019	1277.62
1024.234	1141.62
1024.448	1137.62
1024.663	1084.62
1024.877	1110.62
1025.092	1109.62
1025.306	1113.62
1025.52	1040.62
1025.734	1115.62
1025.949	1021.62
1026.163	991.62
1026.377	936.62
1026.591	1001.62
1026.805	905.62
1027.019	900.62
1027.233	876.62
1027.447	835.62
1027.661	919.62
1027.875	838.62
1028.088	876.62
1028.302	805.62
1028.516	765.62
1028.73	782.62
1028.943	767.62
1029.157	715.62
1029.37	660.62
1029.584	-3.38
1029.797	-4.38
1030.011	-4.38
1030.224	-2.38
