Data from QEP037381__500__17-27-57-563.txt Node

Date: Fri Dec 16 17:27:57 EST 2022
User: dcclab
Spectrometer: QEP03738
Trigger mode: 4
Integration Time (sec): 1.000000E1
Scans to average: 1
Electric dark correction enabled: true
Nonlinearity correction enabled: false
Boxcar width: 0
XAxis mode: Wavelengths
Number of Pixels in Spectrum: 1044
>>>>>Begin Spectral Data<<<<<
784.041	15.12
784.3	-0.88
784.558	-3.88
784.817	-5.88
785.075	125512.12
785.334	21871.12
785.592	10280.12
785.851	7035.12
786.109	5347.12
786.368	4147.12
786.626	3318.12
786.884	2777.12
787.143	2312.12
787.401	1909.12
787.659	1708.12
787.917	1430.12
788.175	1295.12
788.433	1134.12
788.691	1022.12
788.949	932.12
789.207	871.12
789.465	773.12
789.723	743.12
789.98	687.12
790.238	705.12
790.496	674.12
790.753	635.12
791.011	671.12
791.268	615.12
791.526	588.12
791.783	602.12
792.041	582.12
792.298	500.12
792.556	563.12
792.813	528.12
793.07	514.12
793.327	498.12
793.584	592.12
793.841	501.12
794.099	514.12
794.356	584.12
794.613	475.12
794.869	517.12
795.126	472.12
795.383	457.12
795.64	464.12
795.897	443.12
796.153	489.12
796.41	495.12
796.667	459.12
796.923	465.12
797.18	485.12
797.436	492.12
797.693	462.12
797.949	519.12
798.206	537.12
798.462	466.12
798.718	523.12
798.974	499.12
799.231	542.12
799.487	534.12
799.743	542.12
799.999	570.12
800.255	563.12
800.511	570.12
800.767	622.12
801.023	624.12
801.279	659.12
801.534	713.12
801.79	769.12
802.046	847.12
802.302	1027.12
802.557	1181.12
802.813	1494.12
803.068	1929.12
803.324	2689.12
803.579	3736.12
803.835	5196.12
804.09	7281.12
804.345	9571.12
804.601	12286.12
804.856	14862.12
805.111	17211.12
805.366	18974.12
805.621	20222.12
805.876	21067.12
806.131	21470.12
806.386	21957.12
806.641	22342.12
806.896	22611.12
807.151	23112.12
807.406	23297.12
807.661	23757.12
807.915	24057.12
808.17	24489.12
808.425	24654.12
808.679	24806.12
808.934	25007.12
809.188	25238.12
809.443	25406.12
809.697	25785.12
809.951	25847.12
810.206	26152.12
810.46	26330.12
810.714	26470.12
810.968	26816.12
811.223	26889.12
811.477	27086.12
811.731	27290.12
811.985	27378.12
812.239	27640.12
812.493	27703.12
812.747	27746.12
813	27827.12
813.254	27941.12
813.508	28026.12
813.762	28035.12
814.015	28125.12
814.269	28271.12
814.522	28776.12
814.776	28919.12
815.03	29288.12
815.283	29637.12
815.536	30062.12
815.79	30514.12
816.043	30905.12
816.296	31239.12
816.55	31522.12
816.803	31771.12
817.056	32263.12
817.309	32433.12
817.562	32653.12
817.815	32926.12
818.068	33269.12
818.321	33424.12
818.574	33802.12
818.827	34299.12
819.079	34723.12
819.332	35132.12
819.585	35421.12
819.838	36034.12
820.09	36287.12
820.343	36351.12
820.595	36515.12
820.848	36807.12
821.1	36889.12
821.353	37028.12
821.605	37031.12
821.857	36696.12
822.11	36692.12
822.362	36621.12
822.614	36609.12
822.866	36653.12
823.118	36566.12
823.37	36844.12
823.622	36809.12
823.874	36987.12
824.126	36903.12
824.378	36990.12
824.63	37182.12
824.882	37218.12
825.134	37203.12
825.385	36987.12
825.637	36958.12
825.888	37057.12
826.14	36893.12
826.392	36576.12
826.643	36400.12
826.895	36389.12
827.146	36326.12
827.397	36252.12
827.649	36288.12
827.9	36135.12
828.151	36102.12
828.402	36277.12
828.653	36271.12
828.905	36359.12
829.156	36478.12
829.407	36472.12
829.658	36388.12
829.909	36191.12
830.159	36188.12
830.41	35825.12
830.661	35679.12
830.912	35604.12
831.162	35446.12
831.413	35313.12
831.664	35306.12
831.914	35289.12
832.165	35380.12
832.415	35410.12
832.666	35311.12
832.916	35247.12
833.167	35170.12
833.417	35121.12
833.667	35196.12
833.917	34878.12
834.168	34863.12
834.418	34721.12
834.668	34670.12
834.918	34452.12
835.168	34353.12
835.418	34165.12
835.668	34166.12
835.918	34168.12
836.167	33977.12
836.417	33853.12
836.667	33852.12
836.917	33653.12
837.166	33685.12
837.416	33611.12
837.666	33563.12
837.915	33485.12
838.165	33352.12
838.414	33407.12
838.663	33164.12
838.913	33147.12
839.162	32906.12
839.411	33122.12
839.661	32773.12
839.91	32743.12
840.159	32663.12
840.408	32640.12
840.657	32633.12
840.906	32562.12
841.155	32679.12
841.404	32509.12
841.653	32680.12
841.902	32492.12
842.15	32515.12
842.399	32603.12
842.648	32373.12
842.897	32266.12
843.145	32244.12
843.394	31914.12
843.642	31844.12
843.891	31737.12
844.139	31488.12
844.388	31203.12
844.636	31064.12
844.884	31134.12
845.133	31070.12
845.381	31056.12
845.629	30911.12
845.877	30821.12
846.125	30851.12
846.373	30641.12
846.621	30704.12
846.869	30631.12
847.117	30443.12
847.365	30098.12
847.613	30003.12
847.861	30048.12
848.108	29946.12
848.356	29707.12
848.604	29831.12
848.851	29825.12
849.099	29776.12
849.346	29857.12
849.594	30020.12
849.841	30131.12
850.089	30085.12
850.336	30127.12
850.583	30009.12
850.831	29790.12
851.078	29596.12
851.325	29457.12
851.572	29457.12
851.819	29079.12
852.066	28655.12
852.313	28513.12
852.56	28317.12
852.807	28156.12
853.054	28045.12
853.301	27885.12
853.548	27967.12
853.794	28161.12
854.041	28181.12
854.288	28307.12
854.534	28522.12
854.781	28304.12
855.028	28334.12
855.274	28417.12
855.52	28090.12
855.767	27809.12
856.013	27892.12
856.26	27982.12
856.506	27376.12
856.752	27499.12
856.998	27355.12
857.244	27569.12
857.49	27618.12
857.736	27620.12
857.982	27628.12
858.228	27554.12
858.474	27266.12
858.72	27362.12
858.966	27080.12
859.212	26815.12
859.458	26474.12
859.703	26328.12
859.949	25982.12
860.195	25944.12
860.44	25722.12
860.686	25429.12
860.931	25434.12
861.177	25412.12
861.422	25276.12
861.667	25143.12
861.913	25274.12
862.158	25305.12
862.403	25311.12
862.648	25409.12
862.893	25335.12
863.138	25373.12
863.384	25272.12
863.629	25260.12
863.873	25286.12
864.118	25116.12
864.363	24962.12
864.608	24854.12
864.853	24778.12
865.098	24655.12
865.342	24529.12
865.587	24430.12
865.832	24409.12
866.076	24298.12
866.321	24152.12
866.565	24155.12
866.81	24022.12
867.054	23896.12
867.298	23851.12
867.543	23735.12
867.787	23776.12
868.031	23655.12
868.275	23633.12
868.519	23627.12
868.764	23464.12
869.008	23307.12
869.252	23365.12
869.496	23232.12
869.739	23123.12
869.983	23190.12
870.227	23027.12
870.471	23001.12
870.715	22958.12
870.958	22847.12
871.202	23036.12
871.446	23061.12
871.689	23127.12
871.933	23009.12
872.176	23039.12
872.42	23014.12
872.663	22769.12
872.906	22841.12
873.15	22653.12
873.393	22514.12
873.636	22462.12
873.879	22146.12
874.122	22036.12
874.366	21722.12
874.609	21589.12
874.852	21474.12
875.095	21446.12
875.337	21334.12
875.58	21234.12
875.823	21262.12
876.066	21114.12
876.309	21006.12
876.551	20882.12
876.794	20806.12
877.037	20765.12
877.279	20814.12
877.522	20767.12
877.764	20713.12
878.007	20667.12
878.249	20784.12
878.491	20631.12
878.734	20719.12
878.976	20583.12
879.218	20441.12
879.46	20341.12
879.702	20317.12
879.945	19975.12
880.187	19898.12
880.429	19771.12
880.671	19599.12
880.912	19508.12
881.154	19527.12
881.396	19378.12
881.638	19458.12
881.88	19524.12
882.121	19442.12
882.363	19344.12
882.605	19298.12
882.846	19176.12
883.088	19101.12
883.329	18990.12
883.571	18936.12
883.812	18967.12
884.053	19080.12
884.295	19305.12
884.536	19366.12
884.777	19274.12
885.018	19113.12
885.259	19130.12
885.5	18988.12
885.742	19135.12
885.982	18948.12
886.223	18785.12
886.464	18803.12
886.705	18585.12
886.946	18587.12
887.187	18215.12
887.428	18343.12
887.668	18069.12
887.909	17890.12
888.15	17660.12
888.39	17769.12
888.631	17670.12
888.871	17443.12
889.111	17276.12
889.352	17264.12
889.592	17162.12
889.833	16933.12
890.073	16777.12
890.313	16879.12
890.553	16604.12
890.793	16483.12
891.033	16467.12
891.273	16397.12
891.513	16308.12
891.753	16255.12
891.993	16166.12
892.233	16252.12
892.473	16325.12
892.713	16252.12
892.952	16358.12
893.192	16364.12
893.432	16194.12
893.671	16224.12
893.911	16169.12
894.15	16000.12
894.39	15900.12
894.629	15850.12
894.869	15695.12
895.108	15593.12
895.347	15564.12
895.587	15386.12
895.826	15360.12
896.065	15269.12
896.304	15354.12
896.543	15254.12
896.782	15167.12
897.021	15189.12
897.26	15094.12
897.499	15038.12
897.738	14959.12
897.977	14852.12
898.216	14762.12
898.454	14675.12
898.693	14534.12
898.932	14513.12
899.17	14376.12
899.409	14342.12
899.647	14237.12
899.886	14240.12
900.124	14191.12
900.363	14140.12
900.601	14200.12
900.839	14141.12
901.078	14187.12
901.316	14203.12
901.554	14120.12
901.792	14164.12
902.03	14162.12
902.268	14095.12
902.506	14100.12
902.744	14015.12
902.982	13935.12
903.22	13769.12
903.458	13705.12
903.695	13607.12
903.933	13403.12
904.171	13175.12
904.409	13111.12
904.646	12972.12
904.884	12790.12
905.121	12708.12
905.359	12617.12
905.596	12460.12
905.833	12383.12
906.071	12216.12
906.308	12323.12
906.545	12265.12
906.783	12142.12
907.02	12173.12
907.257	12208.12
907.494	12116.12
907.731	12128.12
907.968	12033.12
908.205	11946.12
908.442	11875.12
908.679	11890.12
908.915	11738.12
909.152	11589.12
909.389	11451.12
909.626	11473.12
909.862	11396.12
910.099	11310.12
910.335	11305.12
910.572	11162.12
910.808	11228.12
911.045	11169.12
911.281	11023.12
911.518	11055.12
911.754	10977.12
911.99	10905.12
912.226	10913.12
912.463	10740.12
912.699	10715.12
912.935	10640.12
913.171	10500.12
913.407	10388.12
913.643	10426.12
913.879	10320.12
914.114	10157.12
914.35	10125.12
914.586	9992.12
914.822	9895.12
915.057	9855.12
915.293	9710.12
915.529	9681.12
915.764	9750.12
916	9671.12
916.235	9671.12
916.471	9638.12
916.706	9525.12
916.941	9565.12
917.177	9477.12
917.412	9573.12
917.647	9558.12
917.882	9464.12
918.117	9458.12
918.352	9477.12
918.588	9455.12
918.823	9326.12
919.057	9284.12
919.292	9055.12
919.527	9150.12
919.762	8932.12
919.997	8897.12
920.232	8634.12
920.466	8745.12
920.701	8564.12
920.935	8527.12
921.17	8460.12
921.405	8438.12
921.639	8440.12
921.873	8399.12
922.108	8364.12
922.342	8398.12
922.576	8309.12
922.811	8222.12
923.045	8211.12
923.279	8222.12
923.513	8154.12
923.747	8172.12
923.981	8118.12
924.215	8029.12
924.449	7939.12
924.683	7876.12
924.917	7817.12
925.151	7761.12
925.385	7871.12
925.618	7740.12
925.852	7765.12
926.086	7620.12
926.319	7723.12
926.553	7659.12
926.786	7717.12
927.02	7648.12
927.253	7693.12
927.486	7666.12
927.72	7624.12
927.953	7591.12
928.186	7519.12
928.42	7541.12
928.653	7419.12
928.886	7378.12
929.119	7431.12
929.352	7371.12
929.585	7280.12
929.818	7217.12
930.051	7231.12
930.284	7225.12
930.516	7025.12
930.749	6995.12
930.982	7053.12
931.215	6966.12
931.447	6822.12
931.68	6923.12
931.912	6832.12
932.145	6862.12
932.377	6840.12
932.61	6882.12
932.842	6825.12
933.074	6860.12
933.307	6789.12
933.539	6864.12
933.771	6875.12
934.003	6761.12
934.236	6892.12
934.468	6828.12
934.7	6757.12
934.932	6812.12
935.164	6666.12
935.395	6608.12
935.627	6606.12
935.859	6617.12
936.091	6564.12
936.323	6552.12
936.554	6580.12
936.786	6485.12
937.017	6412.12
937.249	6424.12
937.481	6357.12
937.712	6447.12
937.943	6354.12
938.175	6400.12
938.406	6364.12
938.637	6440.12
938.869	6323.12
939.1	6376.12
939.331	6296.12
939.562	6334.12
939.793	6274.12
940.024	6276.12
940.255	6267.12
940.486	6123.12
940.717	6152.12
940.948	6115.12
941.179	6103.12
941.409	6061.12
941.64	6082.12
941.871	6072.12
942.102	5990.12
942.332	6032.12
942.563	6074.12
942.793	6038.12
943.024	5970.12
943.254	6008.12
943.484	6043.12
943.715	6074.12
943.945	5958.12
944.175	5899.12
944.405	5911.12
944.636	5931.12
944.866	5905.12
945.096	5921.12
945.326	5809.12
945.556	5888.12
945.786	5864.12
946.016	5801.12
946.245	5736.12
946.475	5712.12
946.705	5674.12
946.935	5672.12
947.164	5684.12
947.394	5491.12
947.624	5525.12
947.853	5601.12
948.083	5554.12
948.312	5523.12
948.542	5403.12
948.771	5401.12
949	5427.12
949.23	5423.12
949.459	5355.12
949.688	5491.12
949.917	5354.12
950.146	5411.12
950.375	5488.12
950.604	5359.12
950.833	5412.12
951.062	5377.12
951.291	5323.12
951.52	5252.12
951.749	5295.12
951.978	5232.12
952.206	5170.12
952.435	5236.12
952.664	5220.12
952.892	5303.12
953.121	5153.12
953.349	5191.12
953.578	5135.12
953.806	5071.12
954.035	5053.12
954.263	5055.12
954.491	5003.12
954.719	5022.12
954.948	4976.12
955.176	4962.12
955.404	4874.12
955.632	4904.12
955.86	4925.12
956.088	4856.12
956.316	4868.12
956.544	4891.12
956.772	4783.12
956.999	4749.12
957.227	4799.12
957.455	4676.12
957.683	4720.12
957.91	4648.12
958.138	4636.12
958.365	4622.12
958.593	4615.12
958.82	4542.12
959.048	4619.12
959.275	4541.12
959.502	4492.12
959.73	4500.12
959.957	4533.12
960.184	4513.12
960.411	4449.12
960.638	4525.12
960.865	4443.12
961.092	4529.12
961.319	4359.12
961.546	4460.12
961.773	4451.12
962	4413.12
962.227	4443.12
962.454	4425.12
962.68	4357.12
962.907	4355.12
963.134	4302.12
963.36	4272.12
963.587	4369.12
963.813	4229.12
964.04	4256.12
964.266	4175.12
964.493	4244.12
964.719	4175.12
964.945	4160.12
965.171	4055.12
965.398	4092.12
965.624	4107.12
965.85	4061.12
966.076	3985.12
966.302	4005.12
966.528	3967.12
966.754	4006.12
966.98	4018.12
967.206	3993.12
967.431	3872.12
967.657	3976.12
967.883	3962.12
968.109	3979.12
968.334	3831.12
968.56	3847.12
968.785	3873.12
969.011	3810.12
969.236	3871.12
969.462	3772.12
969.687	3803.12
969.912	3811.12
970.138	3814.12
970.363	3750.12
970.588	3775.12
970.813	3732.12
971.038	3683.12
971.263	3722.12
971.488	3745.12
971.713	3717.12
971.938	3713.12
972.163	3594.12
972.388	3617.12
972.613	3587.12
972.838	3617.12
973.062	3573.12
973.287	3539.12
973.512	3520.12
973.736	3519.12
973.961	3481.12
974.185	3465.12
974.41	3508.12
974.634	3383.12
974.858	3386.12
975.083	3445.12
975.307	3403.12
975.531	3309.12
975.755	3252.12
975.98	3289.12
976.204	3217.12
976.428	3244.12
976.652	3222.12
976.876	3184.12
977.1	3179.12
977.324	3161.12
977.547	3201.12
977.771	3224.12
977.995	3145.12
978.219	3145.12
978.442	3222.12
978.666	3123.12
978.89	3160.12
979.113	3097.12
979.337	3100.12
979.56	3057.12
979.783	3154.12
980.007	3045.12
980.23	3053.12
980.453	3036.12
980.677	3072.12
980.9	3034.12
981.123	2973.12
981.346	3010.12
981.569	2961.12
981.792	2999.12
982.015	2975.12
982.238	2898.12
982.461	2921.12
982.684	2865.12
982.907	2859.12
983.129	2825.12
983.352	2864.12
983.575	2820.12
983.797	2842.12
984.02	2792.12
984.242	2761.12
984.465	2761.12
984.687	2817.12
984.91	2799.12
985.132	2751.12
985.354	2778.12
985.577	2704.12
985.799	2717.12
986.021	2637.12
986.243	2669.12
986.465	2638.12
986.687	2686.12
986.909	2733.12
987.131	2612.12
987.353	2594.12
987.575	2653.12
987.797	2630.12
988.019	2536.12
988.241	2608.12
988.462	2582.12
988.684	2593.12
988.906	2612.12
989.127	2618.12
989.349	2497.12
989.57	2505.12
989.792	2560.12
990.013	2552.12
990.234	2575.12
990.456	2597.12
990.677	2572.12
990.898	2490.12
991.119	2476.12
991.341	2510.12
991.562	2437.12
991.783	2447.12
992.004	2396.12
992.225	2394.12
992.446	2412.12
992.667	2311.12
992.887	2391.12
993.108	2315.12
993.329	2415.12
993.55	2371.12
993.77	2285.12
993.991	2269.12
994.212	2309.12
994.432	2264.12
994.653	2281.12
994.873	2287.12
995.093	2160.12
995.314	2204.12
995.534	2241.12
995.754	2254.12
995.975	2290.12
996.195	2181.12
996.415	2199.12
996.635	2194.12
996.855	2175.12
997.075	2162.12
997.295	2154.12
997.515	2171.12
997.735	2193.12
997.955	2140.12
998.174	2151.12
998.394	2121.12
998.614	2165.12
998.834	2122.12
999.053	2170.12
999.273	2133.12
999.492	2158.12
999.712	2116.12
999.931	2078.12
1000.151	2122.12
1000.37	2116.12
1000.589	2131.12
1000.809	2063.12
1001.028	2156.12
1001.247	2048.12
1001.466	1981.12
1001.685	2099.12
1001.904	2073.12
1002.123	2029.12
1002.342	2017.12
1002.561	1950.12
1002.78	1977.12
1002.999	2042.12
1003.218	1993.12
1003.436	1965.12
1003.655	1990.12
1003.874	1941.12
1004.092	1943.12
1004.311	1997.12
1004.53	1945.12
1004.748	1993.12
1004.966	1929.12
1005.185	1967.12
1005.403	1954.12
1005.622	1946.12
1005.84	1992.12
1006.058	1905.12
1006.276	1930.12
1006.494	2435.12
1006.712	1904.12
1006.931	1985.12
1007.149	1874.12
1007.367	1896.12
1007.584	1903.12
1007.802	1945.12
1008.02	1855.12
1008.238	1990.12
1008.456	1965.12
1008.673	1815.12
1008.891	1912.12
1009.109	1902.12
1009.326	1908.12
1009.544	2002.12
1009.761	1899.12
1009.979	1999.12
1010.196	1978.12
1010.413	2079.12
1010.631	2107.12
1010.848	2084.12
1011.065	2144.12
1011.282	2077.12
1011.5	2018.12
1011.717	2117.12
1011.934	2061.12
1012.151	2092.12
1012.368	2056.12
1012.585	2021.12
1012.801	2020.12
1013.018	1993.12
1013.235	1974.12
1013.452	1987.12
1013.669	2001.12
1013.885	1975.12
1014.102	2005.12
1014.318	1971.12
1014.535	1931.12
1014.751	1941.12
1014.968	1933.12
1015.184	1982.12
1015.401	1878.12
1015.617	1892.12
1015.833	1828.12
1016.049	1853.12
1016.266	1787.12
1016.482	1815.12
1016.698	1755.12
1016.914	1805.12
1017.13	1766.12
1017.346	1725.12
1017.562	1783.12
1017.778	1726.12
1017.993	1711.12
1018.209	1760.12
1018.425	1699.12
1018.641	1689.12
1018.856	1644.12
1019.072	1672.12
1019.288	1712.12
1019.503	1658.12
1019.719	1558.12
1019.934	1589.12
1020.149	1660.12
1020.365	1603.12
1020.58	1539.12
1020.795	1612.12
1021.011	1525.12
1021.226	1518.12
1021.441	1530.12
1021.656	1441.12
1021.871	1405.12
1022.086	1405.12
1022.301	1369.12
1022.516	1375.12
1022.731	1402.12
1022.946	1344.12
1023.16	1305.12
1023.375	1261.12
1023.59	1244.12
1023.804	1240.12
1024.019	1321.12
1024.234	1212.12
1024.448	1214.12
1024.663	1156.12
1024.877	1167.12
1025.092	1158.12
1025.306	1171.12
1025.52	1094.12
1025.734	1161.12
1025.949	1093.12
1026.163	1054.12
1026.377	1002.12
1026.591	1055.12
1026.805	973.12
1027.019	953.12
1027.233	918.12
1027.447	877.12
1027.661	941.12
1027.875	902.12
1028.088	902.12
1028.302	827.12
1028.516	807.12
1028.73	804.12
1028.943	807.12
1029.157	746.12
1029.37	696.12
1029.584	-4.88
1029.797	1.12
1030.011	-0.88
1030.224	0.12
