Data from QEP037381__510__17-29-37-564.txt Node

Date: Fri Dec 16 17:29:37 EST 2022
User: dcclab
Spectrometer: QEP03738
Trigger mode: 4
Integration Time (sec): 1.000000E1
Scans to average: 1
Electric dark correction enabled: true
Nonlinearity correction enabled: false
Boxcar width: 0
XAxis mode: Wavelengths
Number of Pixels in Spectrum: 1044
>>>>>Begin Spectral Data<<<<<
784.041	11.25
784.3	2.25
784.558	-3.75
784.817	-5.75
785.075	126365.25
785.334	21597.25
785.592	10107.25
785.851	6932.25
786.109	5223.25
786.368	4003.25
786.626	3226.25
786.884	2657.25
787.143	2246.25
787.401	1855.25
787.659	1664.25
787.917	1406.25
788.175	1278.25
788.433	1118.25
788.691	1013.25
788.949	930.25
789.207	876.25
789.465	757.25
789.723	734.25
789.98	647.25
790.238	696.25
790.496	663.25
790.753	612.25
791.011	662.25
791.268	601.25
791.526	570.25
791.783	596.25
792.041	580.25
792.298	491.25
792.556	535.25
792.813	531.25
793.07	522.25
793.327	492.25
793.584	580.25
793.841	503.25
794.099	516.25
794.356	562.25
794.613	482.25
794.869	510.25
795.126	466.25
795.383	446.25
795.64	473.25
795.897	425.25
796.153	491.25
796.41	472.25
796.667	453.25
796.923	459.25
797.18	466.25
797.436	488.25
797.693	456.25
797.949	504.25
798.206	532.25
798.462	448.25
798.718	513.25
798.974	493.25
799.231	519.25
799.487	517.25
799.743	533.25
799.999	565.25
800.255	566.25
800.511	554.25
800.767	598.25
801.023	603.25
801.279	629.25
801.534	668.25
801.79	730.25
802.046	796.25
802.302	968.25
802.557	1106.25
802.813	1383.25
803.068	1762.25
803.324	2478.25
803.579	3411.25
803.835	4785.25
804.09	6609.25
804.345	8748.25
804.601	11090.25
804.856	13431.25
805.111	15639.25
805.366	17238.25
805.621	18270.25
805.876	19232.25
806.131	19670.25
806.386	19984.25
806.641	20302.25
806.896	20617.25
807.151	20984.25
807.406	21253.25
807.661	21550.25
807.915	21919.25
808.17	22275.25
808.425	22546.25
808.679	22620.25
808.934	22729.25
809.188	22967.25
809.443	23212.25
809.697	23435.25
809.951	23581.25
810.206	23712.25
810.46	23999.25
810.714	24203.25
810.968	24342.25
811.223	24422.25
811.477	24692.25
811.731	24872.25
811.985	24900.25
812.239	25013.25
812.493	25315.25
812.747	25336.25
813	25394.25
813.254	25484.25
813.508	25488.25
813.762	25592.25
814.015	25749.25
814.269	25978.25
814.522	26101.25
814.776	26361.25
815.03	26667.25
815.283	27049.25
815.536	27510.25
815.79	27765.25
816.043	28070.25
816.296	28467.25
816.55	28738.25
816.803	29119.25
817.056	29391.25
817.309	29576.25
817.562	29836.25
817.815	30156.25
818.068	30284.25
818.321	30694.25
818.574	30860.25
818.827	31278.25
819.079	31601.25
819.332	32081.25
819.585	32565.25
819.838	32953.25
820.09	33025.25
820.343	33415.25
820.595	33525.25
820.848	33684.25
821.1	33765.25
821.353	33632.25
821.605	33810.25
821.857	33777.25
822.11	33610.25
822.362	33548.25
822.614	33577.25
822.866	33611.25
823.118	33552.25
823.37	33608.25
823.622	33537.25
823.874	33711.25
824.126	33789.25
824.378	33988.25
824.63	34008.25
824.882	34081.25
825.134	33942.25
825.385	33929.25
825.637	33888.25
825.888	33875.25
826.14	33820.25
826.392	33556.25
826.643	33415.25
826.895	33258.25
827.146	33217.25
827.397	33056.25
827.649	33095.25
827.9	33073.25
828.151	33110.25
828.402	33081.25
828.653	33232.25
828.905	33447.25
829.156	33332.25
829.407	33222.25
829.658	33203.25
829.909	33219.25
830.159	33227.25
830.41	32886.25
830.661	32738.25
830.912	32608.25
831.162	32382.25
831.413	32427.25
831.664	32352.25
831.914	32353.25
832.165	32399.25
832.415	32392.25
832.666	32328.25
832.916	32407.25
833.167	32219.25
833.417	32098.25
833.667	31993.25
833.917	31867.25
834.168	31978.25
834.418	31929.25
834.668	31635.25
834.918	31452.25
835.168	31322.25
835.418	31340.25
835.668	31209.25
835.918	31253.25
836.167	31185.25
836.417	30998.25
836.667	31022.25
836.917	31063.25
837.166	30874.25
837.416	30864.25
837.666	30837.25
837.915	30643.25
838.165	30607.25
838.414	30430.25
838.663	30348.25
838.913	30291.25
839.162	30174.25
839.411	30150.25
839.661	29993.25
839.91	29976.25
840.159	29802.25
840.408	29880.25
840.657	29835.25
840.906	29868.25
841.155	29882.25
841.404	29909.25
841.653	29916.25
841.902	29793.25
842.15	29824.25
842.399	29814.25
842.648	29766.25
842.897	29676.25
843.145	29471.25
843.394	29441.25
843.642	29098.25
843.891	28905.25
844.139	28745.25
844.388	28789.25
844.636	28601.25
844.884	28519.25
845.133	28380.25
845.381	28545.25
845.629	28381.25
845.877	28206.25
846.125	28162.25
846.373	28251.25
846.621	28094.25
846.869	28006.25
847.117	27829.25
847.365	27645.25
847.613	27682.25
847.861	27438.25
848.108	27465.25
848.356	27317.25
848.604	27374.25
848.851	27398.25
849.099	27345.25
849.346	27451.25
849.594	27499.25
849.841	27606.25
850.089	27656.25
850.336	27557.25
850.583	27542.25
850.831	27424.25
851.078	27244.25
851.325	27015.25
851.572	26904.25
851.819	26803.25
852.066	26340.25
852.313	26031.25
852.56	25879.25
852.807	25901.25
853.054	25716.25
853.301	25762.25
853.548	25608.25
853.794	25733.25
854.041	25783.25
854.288	25974.25
854.534	26059.25
854.781	26027.25
855.028	25925.25
855.274	25933.25
855.52	25727.25
855.767	25471.25
856.013	25538.25
856.26	25674.25
856.506	25261.25
856.752	25174.25
856.998	25184.25
857.244	25299.25
857.49	25445.25
857.736	25329.25
857.982	25410.25
858.228	25407.25
858.474	25150.25
858.72	25017.25
858.966	24857.25
859.212	24502.25
859.458	24298.25
859.703	24086.25
859.949	23833.25
860.195	23680.25
860.44	23578.25
860.686	23414.25
860.931	23301.25
861.177	23219.25
861.422	23211.25
861.667	23139.25
861.913	23153.25
862.158	23341.25
862.403	23253.25
862.648	23310.25
862.893	23312.25
863.138	23361.25
863.384	23136.25
863.629	23192.25
863.873	23102.25
864.118	23042.25
864.363	22879.25
864.608	22873.25
864.853	22834.25
865.098	22656.25
865.342	22595.25
865.587	22331.25
865.832	22478.25
866.076	22486.25
866.321	22286.25
866.565	22223.25
866.81	22076.25
867.054	21991.25
867.298	21889.25
867.543	21854.25
867.787	21869.25
868.031	21778.25
868.275	21627.25
868.519	21612.25
868.764	21692.25
869.008	21422.25
869.252	21507.25
869.496	21294.25
869.739	21229.25
869.983	21170.25
870.227	21198.25
870.471	21144.25
870.715	21142.25
870.958	21117.25
871.202	21197.25
871.446	21133.25
871.689	21313.25
871.933	21190.25
872.176	21134.25
872.42	21040.25
872.663	20954.25
872.906	20959.25
873.15	20925.25
873.393	20719.25
873.636	20617.25
873.879	20388.25
874.122	20310.25
874.366	20026.25
874.609	19809.25
874.852	19827.25
875.095	19659.25
875.337	19645.25
875.58	19395.25
875.823	19466.25
876.066	19381.25
876.309	19370.25
876.551	19117.25
876.794	19145.25
877.037	19087.25
877.279	19072.25
877.522	19103.25
877.764	19137.25
878.007	19014.25
878.249	19078.25
878.491	18993.25
878.734	18978.25
878.976	19004.25
879.218	18883.25
879.46	18692.25
879.702	18613.25
879.945	18459.25
880.187	18330.25
880.429	18230.25
880.671	18184.25
880.912	18048.25
881.154	17914.25
881.396	17847.25
881.638	17989.25
881.88	17813.25
882.121	17945.25
882.363	17768.25
882.605	17762.25
882.846	17712.25
883.088	17551.25
883.329	17513.25
883.571	17475.25
883.812	17504.25
884.053	17558.25
884.295	17695.25
884.536	17812.25
884.777	17628.25
885.018	17599.25
885.259	17520.25
885.5	17492.25
885.742	17635.25
885.982	17427.25
886.223	17343.25
886.464	17307.25
886.705	17136.25
886.946	17084.25
887.187	16916.25
887.428	16796.25
887.668	16729.25
887.909	16496.25
888.15	16313.25
888.39	16271.25
888.631	16188.25
888.871	16136.25
889.111	16003.25
889.352	15837.25
889.592	15779.25
889.833	15616.25
890.073	15548.25
890.313	15506.25
890.553	15324.25
890.793	15259.25
891.033	15249.25
891.273	14998.25
891.513	15080.25
891.753	15053.25
891.993	14975.25
892.233	15029.25
892.473	15134.25
892.713	14987.25
892.952	14953.25
893.192	14996.25
893.432	14986.25
893.671	14988.25
893.911	14902.25
894.15	14720.25
894.39	14608.25
894.629	14577.25
894.869	14443.25
895.108	14401.25
895.347	14265.25
895.587	14293.25
895.826	14249.25
896.065	14169.25
896.304	14145.25
896.543	14063.25
896.782	14000.25
897.021	14040.25
897.26	13893.25
897.499	13927.25
897.738	13848.25
897.977	13688.25
898.216	13624.25
898.454	13530.25
898.693	13381.25
898.932	13344.25
899.17	13288.25
899.409	13227.25
899.647	13153.25
899.886	13182.25
900.124	13126.25
900.363	13093.25
900.601	13194.25
900.839	13060.25
901.078	13106.25
901.316	13036.25
901.554	13086.25
901.792	13133.25
902.03	13078.25
902.268	13064.25
902.506	12955.25
902.744	12969.25
902.982	12887.25
903.22	12696.25
903.458	12630.25
903.695	12420.25
903.933	12336.25
904.171	12211.25
904.409	12082.25
904.646	11938.25
904.884	11836.25
905.121	11770.25
905.359	11565.25
905.596	11592.25
905.833	11365.25
906.071	11379.25
906.308	11451.25
906.545	11376.25
906.783	11296.25
907.02	11238.25
907.257	11237.25
907.494	11226.25
907.731	11162.25
907.968	11113.25
908.205	10919.25
908.442	10993.25
908.679	10976.25
908.915	10856.25
909.152	10722.25
909.389	10627.25
909.626	10613.25
909.862	10502.25
910.099	10488.25
910.335	10438.25
910.572	10375.25
910.808	10328.25
911.045	10277.25
911.281	10295.25
911.518	10247.25
911.754	10201.25
911.99	10092.25
912.226	10079.25
912.463	9939.25
912.699	9911.25
912.935	9845.25
913.171	9717.25
913.407	9586.25
913.643	9616.25
913.879	9520.25
914.114	9391.25
914.35	9345.25
914.586	9273.25
914.822	9169.25
915.057	9155.25
915.293	8961.25
915.529	8966.25
915.764	9024.25
916	8925.25
916.235	8934.25
916.471	8930.25
916.706	8878.25
916.941	8836.25
917.177	8876.25
917.412	8867.25
917.647	8799.25
917.882	8781.25
918.117	8810.25
918.352	8745.25
918.588	8785.25
918.823	8637.25
919.057	8548.25
919.292	8388.25
919.527	8423.25
919.762	8239.25
919.997	8264.25
920.232	8144.25
920.466	8158.25
920.701	7923.25
920.935	7951.25
921.17	7939.25
921.405	7838.25
921.639	7826.25
921.873	7786.25
922.108	7803.25
922.342	7741.25
922.576	7671.25
922.811	7716.25
923.045	7647.25
923.279	7637.25
923.513	7535.25
923.747	7561.25
923.981	7468.25
924.215	7412.25
924.449	7351.25
924.683	7288.25
924.917	7270.25
925.151	7237.25
925.385	7226.25
925.618	7145.25
925.852	7184.25
926.086	7117.25
926.319	7158.25
926.553	7146.25
926.786	7089.25
927.02	7055.25
927.253	7097.25
927.486	7103.25
927.72	7043.25
927.953	7025.25
928.186	7014.25
928.42	6959.25
928.653	6918.25
928.886	6818.25
929.119	6871.25
929.352	6807.25
929.585	6792.25
929.818	6662.25
930.051	6718.25
930.284	6685.25
930.516	6513.25
930.749	6493.25
930.982	6505.25
931.215	6495.25
931.447	6368.25
931.68	6365.25
931.912	6389.25
932.145	6323.25
932.377	6369.25
932.61	6403.25
932.842	6275.25
933.074	6355.25
933.307	6327.25
933.539	6373.25
933.771	6370.25
934.003	6228.25
934.236	6410.25
934.468	6415.25
934.7	6312.25
934.932	6393.25
935.164	6281.25
935.395	6293.25
935.627	6264.25
935.859	6232.25
936.091	6125.25
936.323	6160.25
936.554	6136.25
936.786	6071.25
937.017	6010.25
937.249	6043.25
937.481	5933.25
937.712	6025.25
937.943	5989.25
938.175	5934.25
938.406	5955.25
938.637	5944.25
938.869	5879.25
939.1	5942.25
939.331	5847.25
939.562	5897.25
939.793	5848.25
940.024	5849.25
940.255	5906.25
940.486	5946.25
940.717	6135.25
940.948	6205.25
941.179	6133.25
941.409	6061.25
941.64	5903.25
941.871	5785.25
942.102	5679.25
942.332	5665.25
942.563	5660.25
942.793	5661.25
943.024	5595.25
943.254	5659.25
943.484	5652.25
943.715	5633.25
943.945	5586.25
944.175	5542.25
944.405	5517.25
944.636	5522.25
944.866	5505.25
945.096	5551.25
945.326	5454.25
945.556	5451.25
945.786	5496.25
946.016	5456.25
946.245	5315.25
946.475	5344.25
946.705	5313.25
946.935	5287.25
947.164	5259.25
947.394	5177.25
947.624	5193.25
947.853	5186.25
948.083	5179.25
948.312	5102.25
948.542	5089.25
948.771	5048.25
949	5037.25
949.23	5053.25
949.459	5064.25
949.688	5100.25
949.917	5019.25
950.146	5052.25
950.375	5083.25
950.604	5007.25
950.833	5034.25
951.062	5034.25
951.291	4957.25
951.52	4932.25
951.749	4948.25
951.978	4890.25
952.206	4854.25
952.435	4867.25
952.664	4901.25
952.892	4842.25
953.121	4822.25
953.349	4844.25
953.578	4853.25
953.806	4794.25
954.035	4723.25
954.263	4747.25
954.491	4682.25
954.719	4704.25
954.948	4649.25
955.176	4644.25
955.404	4566.25
955.632	4553.25
955.86	4601.25
956.088	4535.25
956.316	4519.25
956.544	4524.25
956.772	4488.25
956.999	4420.25
957.227	4511.25
957.455	4365.25
957.683	4383.25
957.91	4298.25
958.138	4301.25
958.365	4328.25
958.593	4270.25
958.82	4216.25
959.048	4275.25
959.275	4270.25
959.502	4248.25
959.73	4187.25
959.957	4244.25
960.184	4261.25
960.411	4134.25
960.638	4202.25
960.865	4189.25
961.092	4190.25
961.319	4090.25
961.546	4189.25
961.773	4197.25
962	4146.25
962.227	4185.25
962.454	4124.25
962.68	4066.25
962.907	4058.25
963.134	4046.25
963.36	3994.25
963.587	4088.25
963.813	3959.25
964.04	4001.25
964.266	3896.25
964.493	3973.25
964.719	3940.25
964.945	3920.25
965.171	3808.25
965.398	3828.25
965.624	3845.25
965.85	3812.25
966.076	3784.25
966.302	3774.25
966.528	3743.25
966.754	3769.25
966.98	3775.25
967.206	3722.25
967.431	3650.25
967.657	3724.25
967.883	3697.25
968.109	3634.25
968.334	3625.25
968.56	3598.25
968.785	3608.25
969.011	3586.25
969.236	3593.25
969.462	3535.25
969.687	3568.25
969.912	3586.25
970.138	3625.25
970.363	3473.25
970.588	3551.25
970.813	3509.25
971.038	3436.25
971.263	3474.25
971.488	3471.25
971.713	3503.25
971.938	3470.25
972.163	3364.25
972.388	3423.25
972.613	3317.25
972.838	3390.25
973.062	3364.25
973.287	3303.25
973.512	3294.25
973.736	3283.25
973.961	3290.25
974.185	3231.25
974.41	3265.25
974.634	3135.25
974.858	3187.25
975.083	3186.25
975.307	3258.25
975.531	3112.25
975.755	3098.25
975.98	3072.25
976.204	2988.25
976.428	3031.25
976.652	3004.25
976.876	2977.25
977.1	3037.25
977.324	3005.25
977.547	3031.25
977.771	3010.25
977.995	3020.25
978.219	2953.25
978.442	3061.25
978.666	2937.25
978.89	2964.25
979.113	2928.25
979.337	2912.25
979.56	2883.25
979.783	2982.25
980.007	2804.25
980.23	2863.25
980.453	2859.25
980.677	2896.25
980.9	2832.25
981.123	2761.25
981.346	2831.25
981.569	2816.25
981.792	2747.25
982.015	2758.25
982.238	2707.25
982.461	2771.25
982.684	2683.25
982.907	2659.25
983.129	2623.25
983.352	2708.25
983.575	2633.25
983.797	2674.25
984.02	2634.25
984.242	2618.25
984.465	2609.25
984.687	2585.25
984.91	2603.25
985.132	2572.25
985.354	2587.25
985.577	2575.25
985.799	2592.25
986.021	2485.25
986.243	2508.25
986.465	2516.25
986.687	2564.25
986.909	2561.25
987.131	2515.25
987.353	2460.25
987.575	2476.25
987.797	2440.25
988.019	2403.25
988.241	2474.25
988.462	2366.25
988.684	2466.25
988.906	2473.25
989.127	2503.25
989.349	2368.25
989.57	2401.25
989.792	2398.25
990.013	2417.25
990.234	2414.25
990.456	2436.25
990.677	2404.25
990.898	2376.25
991.119	2349.25
991.341	2352.25
991.562	2304.25
991.783	2333.25
992.004	2269.25
992.225	2220.25
992.446	2292.25
992.667	2185.25
992.887	2302.25
993.108	2164.25
993.329	2294.25
993.55	2247.25
993.77	2183.25
993.991	2177.25
994.212	2181.25
994.432	2166.25
994.653	2180.25
994.873	2191.25
995.093	2050.25
995.314	2102.25
995.534	2131.25
995.754	2136.25
995.975	2162.25
996.195	2032.25
996.415	2087.25
996.635	2062.25
996.855	2075.25
997.075	2055.25
997.295	2015.25
997.515	2029.25
997.735	2090.25
997.955	2030.25
998.174	2025.25
998.394	2023.25
998.614	2035.25
998.834	1990.25
999.053	2046.25
999.273	2073.25
999.492	2084.25
999.712	1990.25
999.931	1980.25
1000.151	2008.25
1000.37	1969.25
1000.589	2001.25
1000.809	1928.25
1001.028	2059.25
1001.247	1970.25
1001.466	1883.25
1001.685	2023.25
1001.904	1927.25
1002.123	1919.25
1002.342	1931.25
1002.561	1848.25
1002.78	1885.25
1002.999	1950.25
1003.218	1905.25
1003.436	1864.25
1003.655	1905.25
1003.874	1821.25
1004.092	1889.25
1004.311	1905.25
1004.53	1850.25
1004.748	1928.25
1004.966	1815.25
1005.185	1897.25
1005.403	1882.25
1005.622	1862.25
1005.84	1921.25
1006.058	1821.25
1006.276	1829.25
1006.494	2316.25
1006.712	1809.25
1006.931	1862.25
1007.149	1795.25
1007.367	1808.25
1007.584	1823.25
1007.802	1861.25
1008.02	1793.25
1008.238	1860.25
1008.456	1865.25
1008.673	1758.25
1008.891	1849.25
1009.109	1785.25
1009.326	1807.25
1009.544	1891.25
1009.761	1817.25
1009.979	1888.25
1010.196	1871.25
1010.413	1963.25
1010.631	2007.25
1010.848	2032.25
1011.065	2013.25
1011.282	1967.25
1011.5	1906.25
1011.717	2004.25
1011.934	1973.25
1012.151	1963.25
1012.368	1901.25
1012.585	1910.25
1012.801	1893.25
1013.018	1891.25
1013.235	1840.25
1013.452	1861.25
1013.669	1913.25
1013.885	1841.25
1014.102	1868.25
1014.318	1850.25
1014.535	1801.25
1014.751	1857.25
1014.968	1854.25
1015.184	1845.25
1015.401	1763.25
1015.617	1803.25
1015.833	1744.25
1016.049	1725.25
1016.266	1711.25
1016.482	1729.25
1016.698	1680.25
1016.914	1703.25
1017.13	1650.25
1017.346	1640.25
1017.562	1695.25
1017.778	1634.25
1017.993	1608.25
1018.209	1649.25
1018.425	1628.25
1018.641	1597.25
1018.856	1545.25
1019.072	1581.25
1019.288	1609.25
1019.503	1588.25
1019.719	1482.25
1019.934	1513.25
1020.149	1583.25
1020.365	1534.25
1020.58	1476.25
1020.795	1542.25
1021.011	1500.25
1021.226	1450.25
1021.441	1472.25
1021.656	1367.25
1021.871	1310.25
1022.086	1296.25
1022.301	1323.25
1022.516	1284.25
1022.731	1357.25
1022.946	1273.25
1023.16	1249.25
1023.375	1237.25
1023.59	1202.25
1023.804	1164.25
1024.019	1257.25
1024.234	1123.25
1024.448	1153.25
1024.663	1114.25
1024.877	1124.25
1025.092	1128.25
1025.306	1134.25
1025.52	1018.25
1025.734	1119.25
1025.949	1047.25
1026.163	1023.25
1026.377	953.25
1026.591	984.25
1026.805	927.25
1027.019	930.25
1027.233	882.25
1027.447	811.25
1027.661	910.25
1027.875	867.25
1028.088	868.25
1028.302	791.25
1028.516	785.25
1028.73	792.25
1028.943	786.25
1029.157	720.25
1029.37	675.25
1029.584	1.25
1029.797	-0.75
1030.011	-1.75
1030.224	-2.75
