Data from QEP037381__506__17-28-57-564.txt Node

Date: Fri Dec 16 17:28:57 EST 2022
User: dcclab
Spectrometer: QEP03738
Trigger mode: 4
Integration Time (sec): 1.000000E1
Scans to average: 1
Electric dark correction enabled: true
Nonlinearity correction enabled: false
Boxcar width: 0
XAxis mode: Wavelengths
Number of Pixels in Spectrum: 1044
>>>>>Begin Spectral Data<<<<<
784.041	8.62
784.3	0.62
784.558	-1.38
784.817	-1.38
785.075	128297.62
785.334	22342.62
785.592	10422.62
785.851	7138.62
786.109	5364.62
786.368	4167.62
786.626	3298.62
786.884	2748.62
787.143	2327.62
787.401	1907.62
787.659	1726.62
787.917	1414.62
788.175	1317.62
788.433	1099.62
788.691	1007.62
788.949	913.62
789.207	885.62
789.465	764.62
789.723	742.62
789.98	684.62
790.238	697.62
790.496	653.62
790.753	611.62
791.011	672.62
791.268	594.62
791.526	580.62
791.783	575.62
792.041	573.62
792.298	482.62
792.556	547.62
792.813	533.62
793.07	499.62
793.327	499.62
793.584	572.62
793.841	469.62
794.099	512.62
794.356	567.62
794.613	475.62
794.869	498.62
795.126	464.62
795.383	443.62
795.64	457.62
795.897	422.62
796.153	487.62
796.41	463.62
796.667	465.62
796.923	458.62
797.18	451.62
797.436	485.62
797.693	435.62
797.949	486.62
798.206	523.62
798.462	428.62
798.718	506.62
798.974	510.62
799.231	528.62
799.487	514.62
799.743	526.62
799.999	561.62
800.255	558.62
800.511	549.62
800.767	586.62
801.023	573.62
801.279	625.62
801.534	663.62
801.79	732.62
802.046	773.62
802.302	936.62
802.557	1111.62
802.813	1398.62
803.068	1763.62
803.324	2412.62
803.579	3368.62
803.835	4674.62
804.09	6471.62
804.345	8551.62
804.601	10787.62
804.856	13028.62
805.111	15131.62
805.366	16628.62
805.621	17683.62
805.876	18622.62
806.131	18955.62
806.386	19239.62
806.641	19513.62
806.896	19877.62
807.151	20266.62
807.406	20418.62
807.661	20896.62
807.915	21160.62
808.17	21490.62
808.425	21585.62
808.679	21812.62
808.934	21985.62
809.188	22277.62
809.443	22472.62
809.697	22638.62
809.951	22759.62
810.206	22966.62
810.46	23045.62
810.714	23314.62
810.968	23585.62
811.223	23567.62
811.477	23745.62
811.731	24005.62
811.985	24183.62
812.239	24105.62
812.493	24336.62
812.747	24397.62
813	24455.62
813.254	24486.62
813.508	24735.62
813.762	24756.62
814.015	24841.62
814.269	24998.62
814.522	25245.62
814.776	25465.62
815.03	25800.62
815.283	25992.62
815.536	26350.62
815.79	26870.62
816.043	27048.62
816.296	27367.62
816.55	27803.62
816.803	28049.62
817.056	28380.62
817.309	28593.62
817.562	28809.62
817.815	29036.62
818.068	29167.62
818.321	29528.62
818.574	29871.62
818.827	30198.62
819.079	30622.62
819.332	31076.62
819.585	31325.62
819.838	31717.62
820.09	31953.62
820.343	32216.62
820.595	32164.62
820.848	32501.62
821.1	32561.62
821.353	32572.62
821.605	32494.62
821.857	32607.62
822.11	32403.62
822.362	32338.62
822.614	32205.62
822.866	32289.62
823.118	32272.62
823.37	32545.62
823.622	32455.62
823.874	32511.62
824.126	32729.62
824.378	32632.62
824.63	32880.62
824.882	32842.62
825.134	32769.62
825.385	32770.62
825.637	32684.62
825.888	32559.62
826.14	32593.62
826.392	32395.62
826.643	32148.62
826.895	32207.62
827.146	32087.62
827.397	31824.62
827.649	31943.62
827.9	31896.62
828.151	31873.62
828.402	32031.62
828.653	32169.62
828.905	32114.62
829.156	32292.62
829.407	32135.62
829.658	32016.62
829.909	32100.62
830.159	32001.62
830.41	31770.62
830.661	31683.62
830.912	31500.62
831.162	31230.62
831.413	31193.62
831.664	31229.62
831.914	31319.62
832.165	31183.62
832.415	31181.62
832.666	31150.62
832.916	31177.62
833.167	31143.62
833.417	31114.62
833.667	31106.62
833.917	30814.62
834.168	30838.62
834.418	30651.62
834.668	30509.62
834.918	30350.62
835.168	30534.62
835.418	30172.62
835.668	30269.62
835.918	30203.62
836.167	30001.62
836.417	29946.62
836.667	29910.62
836.917	29940.62
837.166	29881.62
837.416	29845.62
837.666	29721.62
837.915	29758.62
838.165	29712.62
838.414	29486.62
838.663	29200.62
838.913	29326.62
839.162	29173.62
839.411	29194.62
839.661	29029.62
839.91	28942.62
840.159	28914.62
840.408	28859.62
840.657	28858.62
840.906	28859.62
841.155	28850.62
841.404	28781.62
841.653	28800.62
841.902	28843.62
842.15	28817.62
842.399	28674.62
842.648	28723.62
842.897	28513.62
843.145	28448.62
843.394	28399.62
843.642	28122.62
843.891	28126.62
844.139	27991.62
844.388	27749.62
844.636	27601.62
844.884	27620.62
845.133	27441.62
845.381	27429.62
845.629	27529.62
845.877	27345.62
846.125	27360.62
846.373	27449.62
846.621	27194.62
846.869	26995.62
847.117	26891.62
847.365	26820.62
847.613	26692.62
847.861	26565.62
848.108	26508.62
848.356	26551.62
848.604	26401.62
848.851	26515.62
849.099	26409.62
849.346	26384.62
849.594	26630.62
849.841	26686.62
850.089	26647.62
850.336	26717.62
850.583	26682.62
850.831	26375.62
851.078	26363.62
851.325	26259.62
851.572	26058.62
851.819	25825.62
852.066	25573.62
852.313	25274.62
852.56	25099.62
852.807	24897.62
853.054	24864.62
853.301	24816.62
853.548	24878.62
853.794	24983.62
854.041	24958.62
854.288	25146.62
854.534	25372.62
854.781	25350.62
855.028	25040.62
855.274	25048.62
855.52	24878.62
855.767	24720.62
856.013	24659.62
856.26	24911.62
856.506	24403.62
856.752	24339.62
856.998	24443.62
857.244	24421.62
857.49	24497.62
857.736	24565.62
857.982	24559.62
858.228	24483.62
858.474	24266.62
858.72	24150.62
858.966	24025.62
859.212	23870.62
859.458	23528.62
859.703	23340.62
859.949	23137.62
860.195	23002.62
860.44	22774.62
860.686	22735.62
860.931	22665.62
861.177	22541.62
861.422	22534.62
861.667	22399.62
861.913	22494.62
862.158	22524.62
862.403	22539.62
862.648	22553.62
862.893	22618.62
863.138	22531.62
863.384	22532.62
863.629	22563.62
863.873	22357.62
864.118	22366.62
864.363	22203.62
864.608	22151.62
864.853	22049.62
865.098	21947.62
865.342	21769.62
865.587	21758.62
865.832	21723.62
866.076	21677.62
866.321	21552.62
866.565	21454.62
866.81	21351.62
867.054	21301.62
867.298	21295.62
867.543	21096.62
867.787	21114.62
868.031	21014.62
868.275	21011.62
868.519	20956.62
868.764	20897.62
869.008	20832.62
869.252	20676.62
869.496	20587.62
869.739	20630.62
869.983	20596.62
870.227	20402.62
870.471	20360.62
870.715	20497.62
870.958	20528.62
871.202	20483.62
871.446	20514.62
871.689	20476.62
871.933	20466.62
872.176	20528.62
872.42	20432.62
872.663	20391.62
872.906	20422.62
873.15	20207.62
873.393	20105.62
873.636	19968.62
873.879	19894.62
874.122	19710.62
874.366	19435.62
874.609	19385.62
874.852	19182.62
875.095	19111.62
875.337	19029.62
875.58	18946.62
875.823	18893.62
876.066	18893.62
876.309	18869.62
876.551	18644.62
876.794	18571.62
877.037	18459.62
877.279	18458.62
877.522	18605.62
877.764	18431.62
878.007	18469.62
878.249	18484.62
878.491	18487.62
878.734	18529.62
878.976	18359.62
879.218	18241.62
879.46	18203.62
879.702	18052.62
879.945	17947.62
880.187	17679.62
880.429	17607.62
880.671	17556.62
880.912	17525.62
881.154	17445.62
881.396	17248.62
881.638	17387.62
881.88	17351.62
882.121	17268.62
882.363	17287.62
882.605	17204.62
882.846	17201.62
883.088	17030.62
883.329	16930.62
883.571	16934.62
883.812	17007.62
884.053	17053.62
884.295	17119.62
884.536	17259.62
884.777	17148.62
885.018	17091.62
885.259	17065.62
885.5	16931.62
885.742	17117.62
885.982	16916.62
886.223	16792.62
886.464	16805.62
886.705	16662.62
886.946	16497.62
887.187	16423.62
887.428	16287.62
887.668	16139.62
887.909	15931.62
888.15	15859.62
888.39	15713.62
888.631	15675.62
888.871	15585.62
889.111	15499.62
889.352	15423.62
889.592	15218.62
889.833	15105.62
890.073	15093.62
890.313	15097.62
890.553	14844.62
890.793	14840.62
891.033	14678.62
891.273	14598.62
891.513	14576.62
891.753	14635.62
891.993	14527.62
892.233	14574.62
892.473	14589.62
892.713	14627.62
892.952	14544.62
893.192	14628.62
893.432	14467.62
893.671	14462.62
893.911	14386.62
894.15	14296.62
894.39	14220.62
894.629	14132.62
894.869	14078.62
895.108	13951.62
895.347	13857.62
895.587	13852.62
895.826	13764.62
896.065	13591.62
896.304	13673.62
896.543	13695.62
896.782	13583.62
897.021	13674.62
897.26	13474.62
897.499	13508.62
897.738	13430.62
897.977	13355.62
898.216	13210.62
898.454	13182.62
898.693	12906.62
898.932	13050.62
899.17	12870.62
899.409	12797.62
899.647	12821.62
899.886	12780.62
900.124	12753.62
900.363	12686.62
900.601	12676.62
900.839	12775.62
901.078	12777.62
901.316	12744.62
901.554	12726.62
901.792	12690.62
902.03	12719.62
902.268	12636.62
902.506	12681.62
902.744	12604.62
902.982	12546.62
903.22	12344.62
903.458	12251.62
903.695	12134.62
903.933	12050.62
904.171	11820.62
904.409	11722.62
904.646	11641.62
904.884	11472.62
905.121	11391.62
905.359	11226.62
905.596	11144.62
905.833	11144.62
906.071	11010.62
906.308	11105.62
906.545	11017.62
906.783	10869.62
907.02	10968.62
907.257	10901.62
907.494	10864.62
907.731	10847.62
907.968	10750.62
908.205	10719.62
908.442	10687.62
908.679	10611.62
908.915	10470.62
909.152	10518.62
909.389	10237.62
909.626	10198.62
909.862	10167.62
910.099	10160.62
910.335	10191.62
910.572	10069.62
910.808	10041.62
911.045	10025.62
911.281	9987.62
911.518	9967.62
911.754	9848.62
911.99	9827.62
912.226	9745.62
912.463	9638.62
912.699	9616.62
912.935	9566.62
913.171	9444.62
913.407	9359.62
913.643	9287.62
913.879	9220.62
914.114	9148.62
914.35	9058.62
914.586	8997.62
914.822	8898.62
915.057	8945.62
915.293	8704.62
915.529	8668.62
915.764	8726.62
916	8705.62
916.235	8687.62
916.471	8660.62
916.706	8586.62
916.941	8643.62
917.177	8541.62
917.412	8589.62
917.647	8626.62
917.882	8498.62
918.117	8528.62
918.352	8426.62
918.588	8491.62
918.823	8368.62
919.057	8293.62
919.292	8121.62
919.527	8236.62
919.762	8047.62
919.997	7971.62
920.232	7902.62
920.466	7851.62
920.701	7656.62
920.935	7768.62
921.17	7657.62
921.405	7653.62
921.639	7624.62
921.873	7567.62
922.108	7551.62
922.342	7554.62
922.576	7415.62
922.811	7446.62
923.045	7459.62
923.279	7441.62
923.513	7318.62
923.747	7303.62
923.981	7247.62
924.215	7205.62
924.449	7148.62
924.683	7072.62
924.917	7036.62
925.151	7009.62
925.385	7102.62
925.618	6991.62
925.852	7006.62
926.086	6902.62
926.319	6940.62
926.553	6890.62
926.786	6951.62
927.02	6852.62
927.253	6916.62
927.486	6912.62
927.72	6838.62
927.953	6829.62
928.186	6796.62
928.42	6781.62
928.653	6758.62
928.886	6708.62
929.119	6686.62
929.352	6648.62
929.585	6611.62
929.818	6489.62
930.051	6463.62
930.284	6475.62
930.516	6317.62
930.749	6342.62
930.982	6333.62
931.215	6332.62
931.447	6185.62
931.68	6215.62
931.912	6216.62
932.145	6196.62
932.377	6180.62
932.61	6334.62
932.842	6126.62
933.074	6193.62
933.307	6112.62
933.539	6180.62
933.771	6150.62
934.003	6154.62
934.236	6232.62
934.468	6205.62
934.7	6087.62
934.932	6126.62
935.164	6049.62
935.395	6025.62
935.627	6008.62
935.859	6027.62
936.091	5933.62
936.323	5995.62
936.554	5970.62
936.786	5891.62
937.017	5862.62
937.249	5880.62
937.481	5775.62
937.712	5860.62
937.943	5845.62
938.175	5765.62
938.406	5777.62
938.637	5795.62
938.869	5744.62
939.1	5708.62
939.331	5745.62
939.562	5701.62
939.793	5729.62
940.024	5739.62
940.255	5767.62
940.486	5718.62
940.717	5851.62
940.948	5847.62
941.179	5755.62
941.409	5658.62
941.64	5620.62
941.871	5593.62
942.102	5475.62
942.332	5550.62
942.563	5485.62
942.793	5457.62
943.024	5446.62
943.254	5476.62
943.484	5441.62
943.715	5464.62
943.945	5448.62
944.175	5386.62
944.405	5401.62
944.636	5365.62
944.866	5403.62
945.096	5369.62
945.326	5314.62
945.556	5353.62
945.786	5386.62
946.016	5263.62
946.245	5218.62
946.475	5217.62
946.705	5145.62
946.935	5132.62
947.164	5117.62
947.394	5070.62
947.624	5076.62
947.853	5089.62
948.083	5014.62
948.312	4986.62
948.542	4955.62
948.771	4876.62
949	4863.62
949.23	4905.62
949.459	4934.62
949.688	4944.62
949.917	4902.62
950.146	4879.62
950.375	4949.62
950.604	4855.62
950.833	4881.62
951.062	4869.62
951.291	4802.62
951.52	4811.62
951.749	4773.62
951.978	4752.62
952.206	4735.62
952.435	4782.62
952.664	4751.62
952.892	4723.62
953.121	4720.62
953.349	4734.62
953.578	4684.62
953.806	4646.62
954.035	4592.62
954.263	4598.62
954.491	4560.62
954.719	4535.62
954.948	4492.62
955.176	4475.62
955.404	4442.62
955.632	4445.62
955.86	4471.62
956.088	4464.62
956.316	4444.62
956.544	4413.62
956.772	4336.62
956.999	4339.62
957.227	4398.62
957.455	4261.62
957.683	4220.62
957.91	4283.62
958.138	4178.62
958.365	4205.62
958.593	4151.62
958.82	4133.62
959.048	4148.62
959.275	4163.62
959.502	4130.62
959.73	4111.62
959.957	4135.62
960.184	4147.62
960.411	4069.62
960.638	4119.62
960.865	4073.62
961.092	4095.62
961.319	3941.62
961.546	4053.62
961.773	4039.62
962	4029.62
962.227	4050.62
962.454	3992.62
962.68	4018.62
962.907	3980.62
963.134	3920.62
963.36	3922.62
963.587	3943.62
963.813	3852.62
964.04	3872.62
964.266	3767.62
964.493	3876.62
964.719	3831.62
964.945	3840.62
965.171	3683.62
965.398	3715.62
965.624	3747.62
965.85	3641.62
966.076	3684.62
966.302	3722.62
966.528	3611.62
966.754	3684.62
966.98	3672.62
967.206	3661.62
967.431	3554.62
967.657	3614.62
967.883	3599.62
968.109	3626.62
968.334	3520.62
968.56	3501.62
968.785	3508.62
969.011	3482.62
969.236	3510.62
969.462	3463.62
969.687	3462.62
969.912	3511.62
970.138	3520.62
970.363	3419.62
970.588	3412.62
970.813	3397.62
971.038	3351.62
971.263	3435.62
971.488	3393.62
971.713	3435.62
971.938	3395.62
972.163	3290.62
972.388	3307.62
972.613	3317.62
972.838	3286.62
973.062	3268.62
973.287	3245.62
973.512	3201.62
973.736	3234.62
973.961	3206.62
974.185	3181.62
974.41	3196.62
974.634	3079.62
974.858	3078.62
975.083	3143.62
975.307	3143.62
975.531	3046.62
975.755	3030.62
975.98	3028.62
976.204	2974.62
976.428	2944.62
976.652	2946.62
976.876	2930.62
977.1	2958.62
977.324	2905.62
977.547	2919.62
977.771	2917.62
977.995	2938.62
978.219	2853.62
978.442	2969.62
978.666	2887.62
978.89	2883.62
979.113	2861.62
979.337	2865.62
979.56	2794.62
979.783	2903.62
980.007	2768.62
980.23	2839.62
980.453	2794.62
980.677	2790.62
980.9	2771.62
981.123	2691.62
981.346	2734.62
981.569	2723.62
981.792	2744.62
982.015	2685.62
982.238	2641.62
982.461	2696.62
982.684	2630.62
982.907	2629.62
983.129	2592.62
983.352	2630.62
983.575	2606.62
983.797	2579.62
984.02	2585.62
984.242	2520.62
984.465	2542.62
984.687	2519.62
984.91	2559.62
985.132	2532.62
985.354	2578.62
985.577	2527.62
985.799	2520.62
986.021	2406.62
986.243	2438.62
986.465	2442.62
986.687	2480.62
986.909	2520.62
987.131	2441.62
987.353	2374.62
987.575	2450.62
987.797	2397.62
988.019	2360.62
988.241	2384.62
988.462	2375.62
988.684	2421.62
988.906	2430.62
989.127	2429.62
989.349	2280.62
989.57	2360.62
989.792	2379.62
990.013	2357.62
990.234	2383.62
990.456	2395.62
990.677	2393.62
990.898	2313.62
991.119	2307.62
991.341	2314.62
991.562	2262.62
991.783	2286.62
992.004	2208.62
992.225	2215.62
992.446	2224.62
992.667	2176.62
992.887	2232.62
993.108	2092.62
993.329	2216.62
993.55	2178.62
993.77	2087.62
993.991	2092.62
994.212	2119.62
994.432	2104.62
994.653	2105.62
994.873	2114.62
995.093	2002.62
995.314	2046.62
995.534	2088.62
995.754	2094.62
995.975	2113.62
996.195	2028.62
996.415	2055.62
996.635	2010.62
996.855	2051.62
997.075	2012.62
997.295	2029.62
997.515	1976.62
997.735	2043.62
997.955	2002.62
998.174	1973.62
998.394	1977.62
998.614	2000.62
998.834	1960.62
999.053	2025.62
999.273	1984.62
999.492	2023.62
999.712	1951.62
999.931	1905.62
1000.151	1974.62
1000.37	1930.62
1000.589	2026.62
1000.809	1904.62
1001.028	2028.62
1001.247	1944.62
1001.466	1840.62
1001.685	1970.62
1001.904	1913.62
1002.123	1869.62
1002.342	1891.62
1002.561	1847.62
1002.78	1895.62
1002.999	1886.62
1003.218	1847.62
1003.436	1830.62
1003.655	1856.62
1003.874	1804.62
1004.092	1868.62
1004.311	1820.62
1004.53	1822.62
1004.748	1876.62
1004.966	1785.62
1005.185	1878.62
1005.403	1862.62
1005.622	1809.62
1005.84	1891.62
1006.058	1769.62
1006.276	1818.62
1006.494	2294.62
1006.712	1786.62
1006.931	1846.62
1007.149	1753.62
1007.367	1753.62
1007.584	1771.62
1007.802	1800.62
1008.02	1754.62
1008.238	1829.62
1008.456	1848.62
1008.673	1726.62
1008.891	1774.62
1009.109	1749.62
1009.326	1807.62
1009.544	1863.62
1009.761	1760.62
1009.979	1835.62
1010.196	1842.62
1010.413	1902.62
1010.631	1943.62
1010.848	1953.62
1011.065	1949.62
1011.282	1924.62
1011.5	1865.62
1011.717	1947.62
1011.934	1899.62
1012.151	1930.62
1012.368	1906.62
1012.585	1828.62
1012.801	1901.62
1013.018	1846.62
1013.235	1833.62
1013.452	1826.62
1013.669	1838.62
1013.885	1823.62
1014.102	1871.62
1014.318	1823.62
1014.535	1758.62
1014.751	1809.62
1014.968	1816.62
1015.184	1819.62
1015.401	1727.62
1015.617	1745.62
1015.833	1677.62
1016.049	1692.62
1016.266	1671.62
1016.482	1668.62
1016.698	1622.62
1016.914	1653.62
1017.13	1616.62
1017.346	1595.62
1017.562	1636.62
1017.778	1583.62
1017.993	1562.62
1018.209	1606.62
1018.425	1556.62
1018.641	1520.62
1018.856	1536.62
1019.072	1532.62
1019.288	1578.62
1019.503	1527.62
1019.719	1466.62
1019.934	1463.62
1020.149	1537.62
1020.365	1486.62
1020.58	1448.62
1020.795	1473.62
1021.011	1419.62
1021.226	1393.62
1021.441	1425.62
1021.656	1334.62
1021.871	1296.62
1022.086	1319.62
1022.301	1282.62
1022.516	1255.62
1022.731	1299.62
1022.946	1255.62
1023.16	1217.62
1023.375	1198.62
1023.59	1173.62
1023.804	1150.62
1024.019	1260.62
1024.234	1095.62
1024.448	1140.62
1024.663	1073.62
1024.877	1075.62
1025.092	1086.62
1025.306	1118.62
1025.52	1010.62
1025.734	1103.62
1025.949	1011.62
1026.163	994.62
1026.377	914.62
1026.591	977.62
1026.805	897.62
1027.019	905.62
1027.233	861.62
1027.447	809.62
1027.661	916.62
1027.875	854.62
1028.088	866.62
1028.302	774.62
1028.516	749.62
1028.73	743.62
1028.943	730.62
1029.157	693.62
1029.37	650.62
1029.584	-5.38
1029.797	2.62
1030.011	-1.38
1030.224	-2.38
