Data from QEP037381__516__17-30-37-565.txt Node

Date: Fri Dec 16 17:30:37 EST 2022
User: dcclab
Spectrometer: QEP03738
Trigger mode: 4
Integration Time (sec): 1.000000E1
Scans to average: 1
Electric dark correction enabled: true
Nonlinearity correction enabled: false
Boxcar width: 0
XAxis mode: Wavelengths
Number of Pixels in Spectrum: 1044
>>>>>Begin Spectral Data<<<<<
784.041	13.62
784.3	-4.38
784.558	-1.38
784.817	-2.38
785.075	124568.62
785.334	22064.62
785.592	10486.62
785.851	7298.62
786.109	5467.62
786.368	4229.62
786.626	3395.62
786.884	2771.62
787.143	2302.62
787.401	1906.62
787.659	1694.62
787.917	1483.62
788.175	1331.62
788.433	1170.62
788.691	1028.62
788.949	958.62
789.207	907.62
789.465	770.62
789.723	747.62
789.98	680.62
790.238	721.62
790.496	670.62
790.753	638.62
791.011	664.62
791.268	579.62
791.526	586.62
791.783	593.62
792.041	573.62
792.298	494.62
792.556	561.62
792.813	526.62
793.07	515.62
793.327	480.62
793.584	562.62
793.841	501.62
794.099	519.62
794.356	555.62
794.613	485.62
794.869	518.62
795.126	476.62
795.383	449.62
795.64	463.62
795.897	418.62
796.153	481.62
796.41	463.62
796.667	451.62
796.923	466.62
797.18	445.62
797.436	530.62
797.693	608.62
797.949	515.62
798.206	533.62
798.462	453.62
798.718	529.62
798.974	491.62
799.231	535.62
799.487	513.62
799.743	532.62
799.999	566.62
800.255	565.62
800.511	552.62
800.767	598.62
801.023	593.62
801.279	635.62
801.534	693.62
801.79	743.62
802.046	791.62
802.302	954.62
802.557	1092.62
802.813	1385.62
803.068	1758.62
803.324	2454.62
803.579	3408.62
803.835	4734.62
804.09	6555.62
804.345	8662.62
804.601	11049.62
804.856	13487.62
805.111	15625.62
805.366	17181.62
805.621	18304.62
805.876	19097.62
806.131	19627.62
806.386	20054.62
806.641	20353.62
806.896	20686.62
807.151	20996.62
807.406	21373.62
807.661	21679.62
807.915	21956.62
808.17	22266.62
808.425	22520.62
808.679	22741.62
808.934	22943.62
809.188	23036.62
809.443	23363.62
809.697	23607.62
809.951	23682.62
810.206	23832.62
810.46	24035.62
810.714	24260.62
810.968	24508.62
811.223	24584.62
811.477	24856.62
811.731	25057.62
811.985	25059.62
812.239	25178.62
812.493	25355.62
812.747	25461.62
813	25538.62
813.254	25495.62
813.508	25800.62
813.762	25751.62
814.015	25862.62
814.269	26041.62
814.522	26155.62
814.776	26569.62
815.03	26783.62
815.283	27102.62
815.536	27477.62
815.79	28004.62
816.043	28311.62
816.296	28668.62
816.55	28996.62
816.803	29291.62
817.056	29672.62
817.309	29953.62
817.562	30116.62
817.815	30311.62
818.068	30591.62
818.321	30923.62
818.574	31124.62
818.827	31541.62
819.079	31761.62
819.332	32446.62
819.585	32729.62
819.838	33208.62
820.09	33252.62
820.343	33629.62
820.595	33638.62
820.848	33875.62
821.1	34008.62
821.353	34134.62
821.605	34056.62
821.857	33899.62
822.11	33846.62
822.362	33777.62
822.614	33687.62
822.866	33802.62
823.118	33703.62
823.37	33920.62
823.622	33879.62
823.874	34094.62
824.126	34211.62
824.378	34273.62
824.63	34160.62
824.882	34324.62
825.134	34370.62
825.385	34396.62
825.637	34286.62
825.888	34168.62
826.14	33938.62
826.392	33874.62
826.643	33697.62
826.895	33536.62
827.146	33552.62
827.397	33374.62
827.649	33402.62
827.9	33294.62
828.151	33444.62
828.402	33568.62
828.653	33639.62
828.905	33582.62
829.156	33649.62
829.407	33684.62
829.658	33674.62
829.909	33562.62
830.159	33497.62
830.41	33254.62
830.661	33160.62
830.912	33070.62
831.162	32866.62
831.413	32742.62
831.664	32739.62
831.914	32691.62
832.165	32655.62
832.415	32748.62
832.666	32733.62
832.916	32699.62
833.167	32728.62
833.417	32800.62
833.667	32360.62
833.917	32360.62
834.168	32365.62
834.418	32258.62
834.668	31971.62
834.918	31885.62
835.168	31868.62
835.418	31701.62
835.668	31683.62
835.918	31626.62
836.167	31636.62
836.417	31328.62
836.667	31388.62
836.917	31348.62
837.166	31162.62
837.416	31343.62
837.666	31038.62
837.915	31113.62
838.165	30921.62
838.414	30968.62
838.663	30690.62
838.913	30713.62
839.162	30590.62
839.411	30509.62
839.661	30352.62
839.91	30478.62
840.159	30265.62
840.408	30071.62
840.657	30118.62
840.906	30200.62
841.155	30194.62
841.404	30118.62
841.653	30248.62
841.902	30163.62
842.15	30184.62
842.399	30179.62
842.648	29970.62
842.897	29943.62
843.145	29762.62
843.394	29691.62
843.642	29565.62
843.891	29385.62
844.139	29212.62
844.388	29153.62
844.636	28994.62
844.884	28950.62
845.133	28920.62
845.381	28784.62
845.629	28792.62
845.877	28702.62
846.125	28681.62
846.373	28640.62
846.621	28425.62
846.869	28289.62
847.117	28269.62
847.365	28133.62
847.613	28023.62
847.861	27917.62
848.108	27941.62
848.356	27690.62
848.604	27574.62
848.851	27655.62
849.099	27721.62
849.346	27733.62
849.594	27961.62
849.841	28058.62
850.089	27956.62
850.336	28027.62
850.583	28022.62
850.831	27710.62
851.078	27479.62
851.325	27470.62
851.572	27270.62
851.819	27057.62
852.066	26740.62
852.313	26514.62
852.56	26277.62
852.807	26133.62
853.054	26037.62
853.301	26111.62
853.548	25995.62
853.794	26189.62
854.041	26147.62
854.288	26394.62
854.534	26505.62
854.781	26408.62
855.028	26341.62
855.274	26344.62
855.52	26156.62
855.767	25732.62
856.013	25787.62
856.26	26068.62
856.506	25620.62
856.752	25618.62
856.998	25619.62
857.244	25483.62
857.49	25593.62
857.736	25779.62
857.982	25808.62
858.228	25654.62
858.474	25606.62
858.72	25476.62
858.966	25222.62
859.212	24887.62
859.458	24806.62
859.703	24424.62
859.949	24225.62
860.195	23968.62
860.44	23795.62
860.686	23745.62
860.931	23718.62
861.177	23611.62
861.422	23552.62
861.667	23534.62
861.913	23518.62
862.158	23613.62
862.403	23671.62
862.648	23697.62
862.893	23707.62
863.138	23666.62
863.384	23648.62
863.629	23511.62
863.873	23513.62
864.118	23429.62
864.363	23323.62
864.608	23212.62
864.853	23148.62
865.098	22939.62
865.342	22971.62
865.587	22838.62
865.832	22715.62
866.076	22635.62
866.321	22534.62
866.565	22509.62
866.81	22350.62
867.054	22324.62
867.298	22306.62
867.543	22237.62
867.787	22176.62
868.031	22019.62
868.275	22102.62
868.519	21947.62
868.764	21905.62
869.008	21897.62
869.252	21778.62
869.496	21700.62
869.739	21506.62
869.983	21549.62
870.227	21502.62
870.471	21473.62
870.715	21544.62
870.958	21405.62
871.202	21482.62
871.446	21448.62
871.689	21388.62
871.933	21460.62
872.176	21507.62
872.42	21420.62
872.663	21384.62
872.906	21349.62
873.15	21158.62
873.393	21046.62
873.636	20948.62
873.879	20754.62
874.122	20660.62
874.366	20276.62
874.609	20231.62
874.852	20153.62
875.095	20127.62
875.337	19927.62
875.58	19756.62
875.823	19742.62
876.066	19766.62
876.309	19703.62
876.551	19492.62
876.794	19354.62
877.037	19429.62
877.279	19330.62
877.522	19397.62
877.764	19436.62
878.007	19443.62
878.249	19437.62
878.491	19373.62
878.734	19369.62
878.976	19348.62
879.218	19147.62
879.46	19061.62
879.702	18911.62
879.945	18754.62
880.187	18606.62
880.429	18517.62
880.671	18516.62
880.912	18394.62
881.154	18301.62
881.396	18119.62
881.638	18168.62
881.88	18183.62
882.121	18154.62
882.363	18111.62
882.605	18105.62
882.846	17868.62
883.088	17962.62
883.329	17826.62
883.571	17762.62
883.812	17682.62
884.053	17828.62
884.295	17906.62
884.536	18025.62
884.777	17934.62
885.018	17798.62
885.259	17806.62
885.5	17743.62
885.742	18030.62
885.982	17687.62
886.223	17505.62
886.464	17593.62
886.705	17488.62
886.946	17360.62
887.187	17117.62
887.428	17184.62
887.668	16842.62
887.909	16812.62
888.15	16642.62
888.39	16537.62
888.631	16527.62
888.871	16309.62
889.111	16264.62
889.352	16238.62
889.592	16056.62
889.833	15937.62
890.073	15838.62
890.313	15817.62
890.553	15524.62
890.793	15592.62
891.033	15489.62
891.273	15431.62
891.513	15291.62
891.753	15407.62
891.993	15194.62
892.233	15276.62
892.473	15414.62
892.713	15382.62
892.952	15398.62
893.192	15307.62
893.432	15272.62
893.671	15277.62
893.911	15109.62
894.15	15011.62
894.39	14936.62
894.629	14842.62
894.869	14794.62
895.108	14627.62
895.347	14550.62
895.587	14530.62
895.826	14481.62
896.065	14442.62
896.304	14377.62
896.543	14430.62
896.782	14250.62
897.021	14270.62
897.26	14228.62
897.499	14151.62
897.738	14129.62
897.977	13907.62
898.216	13900.62
898.454	13812.62
898.693	13603.62
898.932	13639.62
899.17	13585.62
899.409	13439.62
899.647	13489.62
899.886	13396.62
900.124	13398.62
900.363	13282.62
900.601	13374.62
900.839	13327.62
901.078	13307.62
901.316	13351.62
901.554	13380.62
901.792	13282.62
902.03	13309.62
902.268	13250.62
902.506	13283.62
902.744	13170.62
902.982	13149.62
903.22	12988.62
903.458	12949.62
903.695	12766.62
903.933	12693.62
904.171	12449.62
904.409	12321.62
904.646	12232.62
904.884	12133.62
905.121	11946.62
905.359	11876.62
905.596	11769.62
905.833	11620.62
906.071	11602.62
906.308	11666.62
906.545	11573.62
906.783	11522.62
907.02	11575.62
907.257	11508.62
907.494	11455.62
907.731	11387.62
907.968	11391.62
908.205	11221.62
908.442	11200.62
908.679	11108.62
908.915	11078.62
909.152	10968.62
909.389	10840.62
909.626	10838.62
909.862	10782.62
910.099	10688.62
910.335	10748.62
910.572	10545.62
910.808	10579.62
911.045	10546.62
911.281	10489.62
911.518	10559.62
911.754	10383.62
911.99	10413.62
912.226	10230.62
912.463	10124.62
912.699	10124.62
912.935	10041.62
913.171	9977.62
913.407	9885.62
913.643	9781.62
913.879	9664.62
914.114	9579.62
914.35	9557.62
914.586	9494.62
914.822	9360.62
915.057	9406.62
915.293	9248.62
915.529	9178.62
915.764	9251.62
916	9160.62
916.235	9111.62
916.471	9187.62
916.706	9052.62
916.941	9054.62
917.177	9030.62
917.412	9034.62
917.647	9042.62
917.882	8983.62
918.117	8965.62
918.352	8928.62
918.588	8868.62
918.823	8823.62
919.057	8720.62
919.292	8568.62
919.527	8605.62
919.762	8406.62
919.997	8369.62
920.232	8239.62
920.466	8233.62
920.701	8160.62
920.935	8085.62
921.17	8055.62
921.405	8009.62
921.639	8015.62
921.873	7939.62
922.108	7972.62
922.342	7927.62
922.576	7841.62
922.811	7798.62
923.045	7868.62
923.279	7744.62
923.513	7657.62
923.747	7789.62
923.981	7663.62
924.215	7552.62
924.449	7559.62
924.683	7394.62
924.917	7373.62
925.151	7371.62
925.385	7369.62
925.618	7330.62
925.852	7307.62
926.086	7190.62
926.319	7307.62
926.553	7243.62
926.786	7279.62
927.02	7205.62
927.253	7294.62
927.486	7221.62
927.72	7175.62
927.953	7206.62
928.186	7100.62
928.42	7174.62
928.653	7047.62
928.886	7018.62
929.119	7054.62
929.352	6971.62
929.585	7025.62
929.818	6858.62
930.051	6815.62
930.284	6809.62
930.516	6677.62
930.749	6638.62
930.982	6638.62
931.215	6628.62
931.447	6544.62
931.68	6535.62
931.912	6494.62
932.145	6497.62
932.377	6466.62
932.61	6618.62
932.842	6423.62
933.074	6529.62
933.307	6454.62
933.539	6558.62
933.771	6456.62
934.003	6401.62
934.236	6520.62
934.468	6512.62
934.7	6434.62
934.932	6399.62
935.164	6341.62
935.395	6352.62
935.627	6299.62
935.859	6350.62
936.091	6269.62
936.323	6244.62
936.554	6290.62
936.786	6199.62
937.017	6143.62
937.249	6175.62
937.481	6089.62
937.712	6139.62
937.943	6111.62
938.175	6087.62
938.406	6049.62
938.637	6105.62
938.869	5984.62
939.1	6084.62
939.331	5999.62
939.562	6001.62
939.793	5983.62
940.024	6013.62
940.255	5936.62
940.486	5890.62
940.717	5878.62
940.948	5798.62
941.179	5765.62
941.409	5801.62
941.64	5778.62
941.871	5789.62
942.102	5723.62
942.332	5760.62
942.563	5758.62
942.793	5760.62
943.024	5702.62
943.254	5687.62
943.484	5747.62
943.715	5756.62
943.945	5679.62
944.175	5635.62
944.405	5618.62
944.636	5630.62
944.866	5683.62
945.096	5681.62
945.326	5587.62
945.556	5642.62
945.786	5570.62
946.016	5556.62
946.245	5434.62
946.475	5434.62
946.705	5412.62
946.935	5398.62
947.164	5393.62
947.394	5283.62
947.624	5289.62
947.853	5301.62
948.083	5347.62
948.312	5248.62
948.542	5174.62
948.771	5188.62
949	5143.62
949.23	5167.62
949.459	5156.62
949.688	5186.62
949.917	5125.62
950.146	5135.62
950.375	5203.62
950.604	5058.62
950.833	5155.62
951.062	5137.62
951.291	5056.62
951.52	5074.62
951.749	5065.62
951.978	5001.62
952.206	4995.62
952.435	4970.62
952.664	4971.62
952.892	4962.62
953.121	4966.62
953.349	4922.62
953.578	4926.62
953.806	4881.62
954.035	4800.62
954.263	4830.62
954.491	4758.62
954.719	4845.62
954.948	4751.62
955.176	4691.62
955.404	4603.62
955.632	4720.62
955.86	4697.62
956.088	4619.62
956.316	4674.62
956.544	4670.62
956.772	4535.62
956.999	4522.62
957.227	4605.62
957.455	4501.62
957.683	4511.62
957.91	4429.62
958.138	4384.62
958.365	4418.62
958.593	4398.62
958.82	4339.62
959.048	4355.62
959.275	4324.62
959.502	4364.62
959.73	4268.62
959.957	4299.62
960.184	4358.62
960.411	4259.62
960.638	4336.62
960.865	4282.62
961.092	4325.62
961.319	4223.62
961.546	4303.62
961.773	4257.62
962	4211.62
962.227	4257.62
962.454	4218.62
962.68	4188.62
962.907	4176.62
963.134	4089.62
963.36	4159.62
963.587	4127.62
963.813	4054.62
964.04	4082.62
964.266	4002.62
964.493	4037.62
964.719	3991.62
964.945	4000.62
965.171	3935.62
965.398	3953.62
965.624	3940.62
965.85	3907.62
966.076	3824.62
966.302	3860.62
966.528	3864.62
966.754	3848.62
966.98	3819.62
967.206	3807.62
967.431	3733.62
967.657	3794.62
967.883	3807.62
968.109	3750.62
968.334	3743.62
968.56	3707.62
968.785	3689.62
969.011	3658.62
969.236	3705.62
969.462	3609.62
969.687	3620.62
969.912	3647.62
970.138	3662.62
970.363	3621.62
970.588	3587.62
970.813	3531.62
971.038	3512.62
971.263	3564.62
971.488	3593.62
971.713	3529.62
971.938	3562.62
972.163	3439.62
972.388	3488.62
972.613	3435.62
972.838	3451.62
973.062	3414.62
973.287	3405.62
973.512	3342.62
973.736	3378.62
973.961	3326.62
974.185	3325.62
974.41	3356.62
974.634	3260.62
974.858	3270.62
975.083	3265.62
975.307	3284.62
975.531	3190.62
975.755	3134.62
975.98	3162.62
976.204	3092.62
976.428	3073.62
976.652	3068.62
976.876	3009.62
977.1	3097.62
977.324	3046.62
977.547	3076.62
977.771	3095.62
977.995	3047.62
978.219	2994.62
978.442	3115.62
978.666	3030.62
978.89	3025.62
979.113	2972.62
979.337	2990.62
979.56	2945.62
979.783	3029.62
980.007	2888.62
980.23	2955.62
980.453	2907.62
980.677	2946.62
980.9	2890.62
981.123	2826.62
981.346	2907.62
981.569	2846.62
981.792	2872.62
982.015	2825.62
982.238	2806.62
982.461	2772.62
982.684	2759.62
982.907	2709.62
983.129	2715.62
983.352	2738.62
983.575	2734.62
983.797	2739.62
984.02	2683.62
984.242	2653.62
984.465	2664.62
984.687	2709.62
984.91	2710.62
985.132	2656.62
985.354	2671.62
985.577	2608.62
985.799	2575.62
986.021	2556.62
986.243	2556.62
986.465	2575.62
986.687	2568.62
986.909	2626.62
987.131	2548.62
987.353	2531.62
987.575	2535.62
987.797	2537.62
988.019	2435.62
988.241	2508.62
988.462	2462.62
988.684	2482.62
988.906	2534.62
989.127	2524.62
989.349	2408.62
989.57	2439.62
989.792	2447.62
990.013	2495.62
990.234	2467.62
990.456	2467.62
990.677	2461.62
990.898	2387.62
991.119	2387.62
991.341	2446.62
991.562	2344.62
991.783	2413.62
992.004	2292.62
992.225	2245.62
992.446	2342.62
992.667	2246.62
992.887	2317.62
993.108	2183.62
993.329	2361.62
993.55	2240.62
993.77	2192.62
993.991	2211.62
994.212	2233.62
994.432	2195.62
994.653	2192.62
994.873	2196.62
995.093	2088.62
995.314	2141.62
995.534	2184.62
995.754	2201.62
995.975	2220.62
996.195	2073.62
996.415	2147.62
996.635	2095.62
996.855	2116.62
997.075	2086.62
997.295	2105.62
997.515	2059.62
997.735	2092.62
997.955	2100.62
998.174	2033.62
998.394	2039.62
998.614	2080.62
998.834	2034.62
999.053	2052.62
999.273	2063.62
999.492	2109.62
999.712	2023.62
999.931	1985.62
1000.151	2043.62
1000.37	2032.62
1000.589	2051.62
1000.809	1983.62
1001.028	2085.62
1001.247	2008.62
1001.466	1901.62
1001.685	2057.62
1001.904	1985.62
1002.123	1975.62
1002.342	1916.62
1002.561	1908.62
1002.78	1894.62
1002.999	1987.62
1003.218	1919.62
1003.436	1888.62
1003.655	1931.62
1003.874	1881.62
1004.092	1897.62
1004.311	1922.62
1004.53	1916.62
1004.748	1947.62
1004.966	1867.62
1005.185	1906.62
1005.403	1884.62
1005.622	1878.62
1005.84	1944.62
1006.058	1820.62
1006.276	1850.62
1006.494	2226.62
1006.712	1840.62
1006.931	1918.62
1007.149	1844.62
1007.367	1815.62
1007.584	1850.62
1007.802	1873.62
1008.02	1825.62
1008.238	1899.62
1008.456	1860.62
1008.673	1745.62
1008.891	1860.62
1009.109	1810.62
1009.326	1821.62
1009.544	1946.62
1009.761	1844.62
1009.979	1903.62
1010.196	1878.62
1010.413	1967.62
1010.631	1987.62
1010.848	1989.62
1011.065	2012.62
1011.282	1958.62
1011.5	1870.62
1011.717	1991.62
1011.934	1926.62
1012.151	1956.62
1012.368	1937.62
1012.585	1853.62
1012.801	1893.62
1013.018	1915.62
1013.235	1853.62
1013.452	1886.62
1013.669	1851.62
1013.885	1819.62
1014.102	1888.62
1014.318	1847.62
1014.535	1772.62
1014.751	1860.62
1014.968	1814.62
1015.184	1830.62
1015.401	1766.62
1015.617	1789.62
1015.833	1726.62
1016.049	1744.62
1016.266	1705.62
1016.482	1703.62
1016.698	1633.62
1016.914	1677.62
1017.13	1634.62
1017.346	1639.62
1017.562	1658.62
1017.778	1608.62
1017.993	1592.62
1018.209	1641.62
1018.425	1610.62
1018.641	1577.62
1018.856	1556.62
1019.072	1584.62
1019.288	1600.62
1019.503	1576.62
1019.719	1478.62
1019.934	1500.62
1020.149	1598.62
1020.365	1541.62
1020.58	1462.62
1020.795	1509.62
1021.011	1459.62
1021.226	1437.62
1021.441	1441.62
1021.656	1379.62
1021.871	1330.62
1022.086	1298.62
1022.301	1312.62
1022.516	1300.62
1022.731	1337.62
1022.946	1260.62
1023.16	1256.62
1023.375	1221.62
1023.59	1200.62
1023.804	1164.62
1024.019	1264.62
1024.234	1140.62
1024.448	1173.62
1024.663	1101.62
1024.877	1107.62
1025.092	1122.62
1025.306	1121.62
1025.52	1022.62
1025.734	1116.62
1025.949	1036.62
1026.163	1019.62
1026.377	953.62
1026.591	1019.62
1026.805	918.62
1027.019	916.62
1027.233	873.62
1027.447	812.62
1027.661	946.62
1027.875	864.62
1028.088	865.62
1028.302	770.62
1028.516	776.62
1028.73	782.62
1028.943	766.62
1029.157	728.62
1029.37	693.62
1029.584	-4.38
1029.797	-2.38
1030.011	-0.38
1030.224	1.62
