Data from QEP037381__60__10-37-40-508.txt Node

Date: Fri Apr 28 10:37:40 EDT 2023
User: dcclab
Spectrometer: QEP03738
Trigger mode: 4
Integration Time (sec): 1.000000E1
Scans to average: 1
Electric dark correction enabled: true
Nonlinearity correction enabled: false
Boxcar width: 0
XAxis mode: Wavelengths
Number of Pixels in Spectrum: 1044
>>>>>Begin Spectral Data<<<<<
784.041	13.25
784.3	0.25
784.558	-2.75
784.817	-4.75
785.075	76369.25
785.334	15294.25
785.592	7868.25
785.851	5619.25
786.109	4247.25
786.368	3339.25
786.626	2755.25
786.884	2260.25
787.143	1942.25
787.401	1588.25
787.659	1444.25
787.917	1249.25
788.175	1163.25
788.433	1041.25
788.691	938.25
788.949	858.25
789.207	854.25
789.465	751.25
789.723	732.25
789.98	686.25
790.238	695.25
790.496	670.25
790.753	653.25
791.011	696.25
791.268	650.25
791.526	616.25
791.783	636.25
792.041	617.25
792.298	525.25
792.556	601.25
792.813	581.25
793.07	554.25
793.327	554.25
793.584	623.25
793.841	565.25
794.099	599.25
794.356	657.25
794.613	546.25
794.869	589.25
795.126	552.25
795.383	545.25
795.64	571.25
795.897	524.25
796.153	593.25
796.41	580.25
796.667	571.25
796.923	577.25
797.18	585.25
797.436	634.25
797.693	581.25
797.949	649.25
798.206	691.25
798.462	625.25
798.718	693.25
798.974	673.25
799.231	731.25
799.487	732.25
799.743	778.25
799.999	801.25
800.255	842.25
800.511	844.25
800.767	928.25
801.023	973.25
801.279	1072.25
801.534	1193.25
801.79	1352.25
802.046	1598.25
802.302	1994.25
802.557	2533.25
802.813	3423.25
803.068	4747.25
803.324	6933.25
803.579	10022.25
803.835	14269.25
804.09	19595.25
804.345	25113.25
804.601	30873.25
804.856	35647.25
805.111	39617.25
805.366	42351.25
805.621	44471.25
805.876	45771.25
806.131	46930.25
806.386	47883.25
806.641	48801.25
806.896	49779.25
807.151	50592.25
807.406	51391.25
807.661	52538.25
807.915	53500.25
808.17	54546.25
808.425	55420.25
808.679	55888.25
808.934	56744.25
809.188	57507.25
809.443	58192.25
809.697	59254.25
809.951	59773.25
810.206	60163.25
810.46	60694.25
810.714	61279.25
810.968	61809.25
811.223	62625.25
811.477	62883.25
811.731	63535.25
811.985	63952.25
812.239	64258.25
812.493	64942.25
812.747	65358.25
813	65547.25
813.254	65841.25
813.508	66417.25
813.762	66821.25
814.015	67383.25
814.269	67733.25
814.522	68280.25
814.776	69116.25
815.03	69992.25
815.283	71142.25
815.536	72428.25
815.79	73345.25
816.043	74711.25
816.296	75603.25
816.55	76782.25
816.803	77845.25
817.056	78805.25
817.309	79606.25
817.562	80849.25
817.815	81867.25
818.068	82798.25
818.321	84043.25
818.574	85314.25
818.827	86767.25
819.079	87839.25
819.332	89394.25
819.585	90796.25
819.838	91857.25
820.09	92819.25
820.343	93668.25
820.595	94334.25
820.848	95088.25
821.1	95131.25
821.353	95778.25
821.605	95577.25
821.857	95572.25
822.11	95011.25
822.362	94987.25
822.614	94913.25
822.866	95237.25
823.118	95367.25
823.37	95525.25
823.622	95948.25
823.874	96228.25
824.126	96564.25
824.378	96780.25
824.63	97232.25
824.882	97511.25
825.134	97655.25
825.385	97637.25
825.637	97557.25
825.888	97396.25
826.14	97105.25
826.392	97179.25
826.643	96718.25
826.895	96492.25
827.146	96202.25
827.397	96089.25
827.649	96299.25
827.9	96121.25
828.151	96360.25
828.402	96741.25
828.653	97044.25
828.905	97172.25
829.156	97508.25
829.407	97061.25
829.658	97248.25
829.909	97354.25
830.159	97379.25
830.41	96739.25
830.661	96332.25
830.912	95977.25
831.162	95596.25
831.413	95744.25
831.664	95397.25
831.914	95620.25
832.165	95576.25
832.415	95683.25
832.666	95766.25
832.916	95691.25
833.167	95664.25
833.417	95735.25
833.667	95253.25
833.917	95233.25
834.168	94929.25
834.418	94782.25
834.668	94511.25
834.918	94007.25
835.168	93528.25
835.418	93543.25
835.668	93277.25
835.918	93040.25
836.167	92771.25
836.417	92626.25
836.667	92624.25
836.917	92442.25
837.166	92403.25
837.416	92409.25
837.666	92392.25
837.915	92380.25
838.165	92207.25
838.414	91895.25
838.663	91660.25
838.913	91757.25
839.162	91449.25
839.411	91445.25
839.661	91156.25
839.91	90967.25
840.159	90936.25
840.408	90909.25
840.657	91048.25
840.906	91207.25
841.155	90961.25
841.404	91013.25
841.653	91271.25
841.902	91539.25
842.15	91528.25
842.399	91570.25
842.648	91299.25
842.897	91038.25
843.145	90473.25
843.394	90130.25
843.642	89527.25
843.891	89370.25
844.139	88990.25
844.388	88609.25
844.636	88241.25
844.884	88258.25
845.133	88005.25
845.381	88136.25
845.629	88260.25
845.877	88071.25
846.125	87945.25
846.373	87979.25
846.621	87848.25
846.869	87319.25
847.117	87122.25
847.365	86699.25
847.613	86020.25
847.861	85982.25
848.108	85908.25
848.356	85758.25
848.604	85974.25
848.851	85898.25
849.099	86118.25
849.346	86250.25
849.594	86506.25
849.841	86881.25
850.089	87076.25
850.336	87187.25
850.583	87038.25
850.831	86342.25
851.078	85943.25
851.325	85637.25
851.572	85230.25
851.819	84613.25
852.066	83214.25
852.313	82645.25
852.56	82040.25
852.807	81711.25
853.054	81428.25
853.301	81219.25
853.548	81589.25
853.794	81886.25
854.041	82260.25
854.288	82703.25
854.534	83200.25
854.781	83183.25
855.028	83213.25
855.274	82629.25
855.52	82182.25
855.767	81820.25
856.013	81469.25
856.26	81738.25
856.506	80879.25
856.752	80969.25
856.998	81180.25
857.244	81239.25
857.49	81682.25
857.736	81573.25
857.982	81706.25
858.228	81297.25
858.474	80968.25
858.72	80647.25
858.966	79715.25
859.212	79074.25
859.458	78379.25
859.703	77782.25
859.949	77121.25
860.195	76438.25
860.44	76347.25
860.686	75924.25
860.931	75836.25
861.177	75268.25
861.422	75406.25
861.667	75280.25
861.913	75333.25
862.158	75652.25
862.403	75688.25
862.648	75895.25
862.893	76012.25
863.138	75899.25
863.384	75766.25
863.629	75514.25
863.873	75553.25
864.118	75138.25
864.363	74674.25
864.608	74356.25
864.853	74121.25
865.098	73721.25
865.342	73571.25
865.587	73367.25
865.832	73198.25
866.076	72756.25
866.321	72761.25
866.565	72742.25
866.81	72545.25
867.054	72234.25
867.298	72105.25
867.543	71898.25
867.787	71999.25
868.031	71918.25
868.275	71536.25
868.519	71590.25
868.764	71694.25
869.008	71455.25
869.252	71116.25
869.496	70977.25
869.739	70817.25
869.983	70628.25
870.227	70758.25
870.471	70845.25
870.715	71116.25
870.958	71133.25
871.202	71207.25
871.446	71432.25
871.689	71203.25
871.933	71061.25
872.176	71276.25
872.42	70939.25
872.663	70522.25
872.906	70423.25
873.15	70135.25
873.393	69501.25
873.636	69165.25
873.879	68460.25
874.122	67924.25
874.366	67357.25
874.609	66758.25
874.852	66702.25
875.095	66534.25
875.337	66393.25
875.58	66028.25
875.823	66048.25
876.066	65827.25
876.309	65665.25
876.551	65257.25
876.794	64982.25
877.037	64902.25
877.279	64779.25
877.522	64694.25
877.764	64975.25
878.007	64712.25
878.249	64547.25
878.491	64619.25
878.734	64497.25
878.976	64182.25
879.218	64049.25
879.46	63573.25
879.702	63091.25
879.945	62678.25
880.187	62294.25
880.429	61837.25
880.671	61596.25
880.912	61663.25
881.154	61447.25
881.396	61383.25
881.638	61311.25
881.88	61266.25
882.121	60937.25
882.363	60865.25
882.605	61098.25
882.846	60586.25
883.088	60434.25
883.329	60028.25
883.571	60064.25
883.812	60276.25
884.053	60529.25
884.295	60891.25
884.536	61217.25
884.777	60957.25
885.018	60813.25
885.259	60745.25
885.5	60608.25
885.742	60940.25
885.982	60493.25
886.223	60125.25
886.464	59890.25
886.705	59366.25
886.946	59065.25
887.187	58499.25
887.428	57872.25
887.668	57287.25
887.909	56981.25
888.15	56276.25
888.39	55909.25
888.631	55565.25
888.871	55175.25
889.111	54893.25
889.352	54535.25
889.592	54047.25
889.833	53709.25
890.073	53405.25
890.313	53094.25
890.553	52601.25
890.793	52649.25
891.033	52250.25
891.273	52049.25
891.513	51773.25
891.753	51759.25
891.993	51716.25
892.233	51883.25
892.473	51922.25
892.713	51926.25
892.952	51809.25
893.192	51860.25
893.432	51640.25
893.671	51649.25
893.911	51378.25
894.15	51092.25
894.39	50607.25
894.629	50344.25
894.869	49807.25
895.108	49681.25
895.347	49615.25
895.587	49362.25
895.826	48983.25
896.065	49216.25
896.304	48951.25
896.543	48961.25
896.782	48567.25
897.021	48454.25
897.26	48269.25
897.499	48324.25
897.738	48035.25
897.977	47711.25
898.216	47424.25
898.454	47055.25
898.693	46668.25
898.932	46528.25
899.17	46451.25
899.409	46299.25
899.647	46170.25
899.886	46159.25
900.124	46215.25
900.363	46074.25
900.601	46108.25
900.839	46215.25
901.078	46302.25
901.316	46161.25
901.554	46322.25
901.792	46582.25
902.03	46521.25
902.268	46538.25
902.506	46262.25
902.744	45797.25
902.982	45432.25
903.22	44922.25
903.458	44625.25
903.695	44139.25
903.933	43551.25
904.171	42996.25
904.409	42586.25
904.646	42068.25
904.884	41355.25
905.121	41139.25
905.359	40755.25
905.596	40481.25
905.833	39871.25
906.071	39885.25
906.308	39907.25
906.545	39639.25
906.783	39649.25
907.02	39561.25
907.257	39495.25
907.494	39392.25
907.731	39230.25
907.968	39188.25
908.205	38716.25
908.442	38650.25
908.679	38509.25
908.915	38233.25
909.152	37958.25
909.389	37537.25
909.626	37417.25
909.862	37035.25
910.099	36966.25
910.335	36835.25
910.572	36621.25
910.808	36430.25
911.045	36358.25
911.281	36250.25
911.518	36057.25
911.754	35902.25
911.99	35539.25
912.226	35135.25
912.463	35106.25
912.699	34839.25
912.935	34415.25
913.171	34314.25
913.407	34094.25
913.643	33605.25
913.879	33555.25
914.114	33237.25
914.35	32883.25
914.586	32500.25
914.822	32415.25
915.057	32174.25
915.293	32019.25
915.529	31598.25
915.764	31780.25
916	31668.25
916.235	31538.25
916.471	31523.25
916.706	31340.25
916.941	31292.25
917.177	31325.25
917.412	31213.25
917.647	31246.25
917.882	31242.25
918.117	31055.25
918.352	30832.25
918.588	30829.25
918.823	30504.25
919.057	30166.25
919.292	29983.25
919.527	29653.25
919.762	29249.25
919.997	29078.25
920.232	28667.25
920.466	28452.25
920.701	28203.25
920.935	28004.25
921.17	27940.25
921.405	27760.25
921.639	27667.25
921.873	27422.25
922.108	27342.25
922.342	27388.25
922.576	27141.25
922.811	27068.25
923.045	26973.25
923.279	26913.25
923.513	26825.25
923.747	26612.25
923.981	26466.25
924.215	26266.25
924.449	26074.25
924.683	25883.25
924.917	25729.25
925.151	25594.25
925.385	25556.25
925.618	25554.25
925.852	25394.25
926.086	25317.25
926.319	25169.25
926.553	25315.25
926.786	25116.25
927.02	25226.25
927.253	25119.25
927.486	25112.25
927.72	24989.25
927.953	24981.25
928.186	24830.25
928.42	24812.25
928.653	24676.25
928.886	24395.25
929.119	24364.25
929.352	24255.25
929.585	24017.25
929.818	23781.25
930.051	23669.25
930.284	23503.25
930.516	23255.25
930.749	23004.25
930.982	22991.25
931.215	22883.25
931.447	22649.25
931.68	22729.25
931.912	22561.25
932.145	22586.25
932.377	22589.25
932.61	22796.25
932.842	22482.25
933.074	22453.25
933.307	22367.25
933.539	22419.25
933.771	22570.25
934.003	22465.25
934.236	22423.25
934.468	22408.25
934.7	22289.25
934.932	22203.25
935.164	22136.25
935.395	22099.25
935.627	22022.25
935.859	21942.25
936.091	21705.25
936.323	21706.25
936.554	21657.25
936.786	21373.25
937.017	21396.25
937.249	21451.25
937.481	21126.25
937.712	21251.25
937.943	21254.25
938.175	21046.25
938.406	21121.25
938.637	21152.25
938.869	21001.25
939.1	20949.25
939.331	20799.25
939.562	20757.25
939.793	20749.25
940.024	20695.25
940.255	20465.25
940.486	20439.25
940.717	20244.25
940.948	20255.25
941.179	20210.25
941.409	20139.25
941.64	20010.25
941.871	20023.25
942.102	20022.25
942.332	20054.25
942.563	19953.25
942.793	20086.25
943.024	19996.25
943.254	19974.25
943.484	19892.25
943.715	19791.25
943.945	19772.25
944.175	19746.25
944.405	19750.25
944.636	19780.25
944.866	19697.25
945.096	19710.25
945.326	19540.25
945.556	19518.25
945.786	19338.25
946.016	19271.25
946.245	19040.25
946.475	18848.25
946.705	18860.25
946.935	18651.25
947.164	18582.25
947.394	18455.25
947.624	18427.25
947.853	18504.25
948.083	18279.25
948.312	18221.25
948.542	18015.25
948.771	18043.25
949	18020.25
949.23	17974.25
949.459	17960.25
949.688	17984.25
949.917	18051.25
950.146	17973.25
950.375	18033.25
950.604	17795.25
950.833	17875.25
951.062	17803.25
951.291	17723.25
951.52	17590.25
951.749	17622.25
951.978	17584.25
952.206	17403.25
952.435	17312.25
952.664	17346.25
952.892	17373.25
953.121	17252.25
953.349	17158.25
953.578	17158.25
953.806	17024.25
954.035	16951.25
954.263	16777.25
954.491	16734.25
954.719	16685.25
954.948	16580.25
955.176	16471.25
955.404	16422.25
955.632	16312.25
955.86	16254.25
956.088	16171.25
956.316	16125.25
956.544	16107.25
956.772	15902.25
956.999	15783.25
957.227	15808.25
957.455	15614.25
957.683	15563.25
957.91	15366.25
958.138	15401.25
958.365	15320.25
958.593	15294.25
958.82	15146.25
959.048	15228.25
959.275	15107.25
959.502	15044.25
959.73	14982.25
959.957	14960.25
960.184	14984.25
960.411	14850.25
960.638	14863.25
960.865	14911.25
961.092	14798.25
961.319	14775.25
961.546	14744.25
961.773	14758.25
962	14554.25
962.227	14622.25
962.454	14629.25
962.68	14435.25
962.907	14305.25
963.134	14340.25
963.36	14245.25
963.587	14143.25
963.813	14051.25
964.04	13931.25
964.266	13790.25
964.493	13749.25
964.719	13751.25
964.945	13581.25
965.171	13481.25
965.398	13410.25
965.624	13323.25
965.85	13299.25
966.076	13206.25
966.302	13139.25
966.528	13023.25
966.754	13077.25
966.98	13021.25
967.206	12931.25
967.431	12778.25
967.657	12835.25
967.883	12803.25
968.109	12736.25
968.334	12669.25
968.56	12642.25
968.785	12635.25
969.011	12585.25
969.236	12539.25
969.462	12330.25
969.687	12414.25
969.912	12400.25
970.138	12429.25
970.363	12211.25
970.588	12269.25
970.813	12251.25
971.038	12136.25
971.263	12156.25
971.488	12092.25
971.713	12014.25
971.938	11911.25
972.163	11794.25
972.388	11751.25
972.613	11712.25
972.838	11674.25
973.062	11562.25
973.287	11570.25
973.512	11484.25
973.736	11412.25
973.961	11317.25
974.185	11244.25
974.41	11177.25
974.634	11047.25
974.858	11058.25
975.083	10932.25
975.307	10907.25
975.531	10800.25
975.755	10689.25
975.98	10644.25
976.204	10521.25
976.428	10549.25
976.652	10457.25
976.876	10406.25
977.1	10455.25
977.324	10338.25
977.547	10310.25
977.771	10331.25
977.995	10108.25
978.219	10180.25
978.442	10298.25
978.666	10178.25
978.89	10111.25
979.113	10036.25
979.337	9998.25
979.56	9962.25
979.783	9940.25
980.007	9807.25
980.23	9872.25
980.453	9816.25
980.677	9754.25
980.9	9677.25
981.123	9549.25
981.346	9569.25
981.569	9542.25
981.792	9514.25
982.015	9383.25
982.238	9212.25
982.461	9337.25
982.684	9198.25
982.907	9065.25
983.129	9060.25
983.352	9012.25
983.575	8955.25
983.797	8896.25
984.02	8866.25
984.242	8752.25
984.465	8791.25
984.687	8721.25
984.91	8688.25
985.132	8643.25
985.354	8638.25
985.577	8496.25
985.799	8441.25
986.021	8330.25
986.243	8363.25
986.465	8394.25
986.687	8375.25
986.909	8347.25
987.131	8325.25
987.353	8328.25
987.575	8195.25
987.797	8159.25
988.019	8093.25
988.241	8127.25
988.462	8048.25
988.684	8107.25
988.906	8012.25
989.127	8032.25
989.349	7893.25
989.57	7860.25
989.792	7924.25
990.013	7908.25
990.234	7873.25
990.456	7845.25
990.677	7741.25
990.898	7713.25
991.119	7620.25
991.341	7539.25
991.562	7484.25
991.783	7501.25
992.004	7397.25
992.225	7264.25
992.446	7348.25
992.667	7203.25
992.887	7269.25
993.108	7088.25
993.329	7209.25
993.55	7122.25
993.77	7020.25
993.991	6936.25
994.212	6888.25
994.432	6814.25
994.653	6840.25
994.873	6803.25
995.093	6609.25
995.314	6618.25
995.534	6719.25
995.754	6635.25
995.975	6640.25
996.195	6573.25
996.415	6612.25
996.635	6523.25
996.855	6492.25
997.075	6494.25
997.295	6450.25
997.515	6417.25
997.735	6476.25
997.955	6415.25
998.174	6409.25
998.394	6301.25
998.614	6338.25
998.834	6298.25
999.053	6313.25
999.273	6214.25
999.492	6269.25
999.712	6158.25
999.931	6030.25
1000.151	6128.25
1000.37	5995.25
1000.589	6070.25
1000.809	5928.25
1001.028	6005.25
1001.247	5876.25
1001.466	5762.25
1001.685	5891.25
1001.904	5725.25
1002.123	5732.25
1002.342	5660.25
1002.561	5544.25
1002.78	5594.25
1002.999	5601.25
1003.218	5504.25
1003.436	5463.25
1003.655	5523.25
1003.874	5411.25
1004.092	5391.25
1004.311	5395.25
1004.53	5320.25
1004.748	5348.25
1004.966	5232.25
1005.185	5304.25
1005.403	5282.25
1005.622	5253.25
1005.84	5295.25
1006.058	5149.25
1006.276	5189.25
1006.494	5449.25
1006.712	5144.25
1006.931	5165.25
1007.149	5103.25
1007.367	5100.25
1007.584	5088.25
1007.802	5137.25
1008.02	5038.25
1008.238	5135.25
1008.456	5146.25
1008.673	5067.25
1008.891	5094.25
1009.109	5105.25
1009.326	5178.25
1009.544	5241.25
1009.761	5217.25
1009.979	5326.25
1010.196	5341.25
1010.413	5539.25
1010.631	5646.25
1010.848	5691.25
1011.065	5704.25
1011.282	5713.25
1011.5	5564.25
1011.717	5685.25
1011.934	5604.25
1012.151	5613.25
1012.368	5609.25
1012.585	5518.25
1012.801	5566.25
1013.018	5463.25
1013.235	5478.25
1013.452	5485.25
1013.669	5571.25
1013.885	5520.25
1014.102	5516.25
1014.318	5477.25
1014.535	5421.25
1014.751	5451.25
1014.968	5382.25
1015.184	5340.25
1015.401	5219.25
1015.617	5241.25
1015.833	5126.25
1016.049	5116.25
1016.266	5066.25
1016.482	5070.25
1016.698	4930.25
1016.914	4985.25
1017.13	4870.25
1017.346	4918.25
1017.562	4951.25
1017.778	4826.25
1017.993	4882.25
1018.209	4906.25
1018.425	4853.25
1018.641	4797.25
1018.856	4782.25
1019.072	4768.25
1019.288	4840.25
1019.503	4759.25
1019.719	4606.25
1019.934	4603.25
1020.149	4689.25
1020.365	4572.25
1020.58	4473.25
1020.795	4492.25
1021.011	4348.25
1021.226	4300.25
1021.441	4227.25
1021.656	4109.25
1021.871	3967.25
1022.086	3919.25
1022.301	3870.25
1022.516	3828.25
1022.731	3793.25
1022.946	3663.25
1023.16	3612.25
1023.375	3555.25
1023.59	3504.25
1023.804	3430.25
1024.019	3472.25
1024.234	3323.25
1024.448	3312.25
1024.663	3137.25
1024.877	3202.25
1025.092	3167.25
1025.306	3108.25
1025.52	2926.25
1025.734	2959.25
1025.949	2874.25
1026.163	2738.25
1026.377	2707.25
1026.591	2689.25
1026.805	2573.25
1027.019	2504.25
1027.233	2464.25
1027.447	2423.25
1027.661	2473.25
1027.875	2364.25
1028.088	2370.25
1028.302	2219.25
1028.516	2183.25
1028.73	2103.25
1028.943	2025.25
1029.157	1946.25
1029.37	1818.25
1029.584	-2.75
1029.797	-0.75
1030.011	0.25
1030.224	-2.75
