Data from QEP037381__53__10-36-30-508.txt Node

Date: Fri Apr 28 10:36:30 EDT 2023
User: dcclab
Spectrometer: QEP03738
Trigger mode: 4
Integration Time (sec): 1.000000E1
Scans to average: 1
Electric dark correction enabled: true
Nonlinearity correction enabled: false
Boxcar width: 0
XAxis mode: Wavelengths
Number of Pixels in Spectrum: 1044
>>>>>Begin Spectral Data<<<<<
784.041	14.5
784.3	-2.5
784.558	-1.5
784.817	-2.5
785.075	79030.5
785.334	15797.5
785.592	8190.5
785.851	5776.5
786.109	4391.5
786.368	3502.5
786.626	2807.5
786.884	2338.5
787.143	1966.5
787.401	1641.5
787.659	1463.5
787.917	1273.5
788.175	1168.5
788.433	1030.5
788.691	937.5
788.949	853.5
789.207	836.5
789.465	739.5
789.723	695.5
789.98	672.5
790.238	679.5
790.496	644.5
790.753	636.5
791.011	651.5
791.268	616.5
791.526	591.5
791.783	610.5
792.041	594.5
792.298	509.5
792.556	565.5
792.813	541.5
793.07	537.5
793.327	522.5
793.584	600.5
793.841	525.5
794.099	550.5
794.356	605.5
794.613	523.5
794.869	546.5
795.126	516.5
795.383	490.5
795.64	517.5
795.897	483.5
796.153	534.5
796.41	530.5
796.667	523.5
796.923	520.5
797.18	524.5
797.436	561.5
797.693	531.5
797.949	592.5
798.206	598.5
798.462	527.5
798.718	589.5
798.974	576.5
799.231	632.5
799.487	631.5
799.743	638.5
799.999	693.5
800.255	684.5
800.511	707.5
800.767	763.5
801.023	792.5
801.279	846.5
801.534	928.5
801.79	1055.5
802.046	1182.5
802.302	1461.5
802.557	1803.5
802.813	2368.5
803.068	3267.5
803.324	4735.5
803.579	6814.5
803.835	9845.5
804.09	13536.5
804.345	17848.5
804.601	22043.5
804.856	25870.5
805.111	28859.5
805.366	30825.5
805.621	32280.5
805.876	33256.5
806.131	33936.5
806.386	34375.5
806.641	35306.5
806.896	35591.5
807.151	36388.5
807.406	36887.5
807.661	37710.5
807.915	38493.5
808.17	39130.5
808.425	39638.5
808.679	40134.5
808.934	40842.5
809.188	41283.5
809.443	42069.5
809.697	42638.5
809.951	42939.5
810.206	43399.5
810.46	43977.5
810.714	44338.5
810.968	44848.5
811.223	45031.5
811.477	45655.5
811.731	46102.5
811.985	46322.5
812.239	46819.5
812.493	47183.5
812.747	47399.5
813	47557.5
813.254	47842.5
813.508	48212.5
813.762	48645.5
814.015	48823.5
814.269	49284.5
814.522	49954.5
814.776	50330.5
815.03	51132.5
815.283	51851.5
815.536	52765.5
815.79	53517.5
816.043	54555.5
816.296	55382.5
816.55	55999.5
816.803	56818.5
817.056	57814.5
817.309	58327.5
817.562	59233.5
817.815	59824.5
818.068	60780.5
818.321	61839.5
818.574	62586.5
818.827	63442.5
819.079	64744.5
819.332	65782.5
819.585	66632.5
819.838	67643.5
820.09	68376.5
820.343	69036.5
820.595	69499.5
820.848	70139.5
821.1	70669.5
821.353	70855.5
821.605	70608.5
821.857	70581.5
822.11	70599.5
822.362	70574.5
822.614	70458.5
822.866	70640.5
823.118	70839.5
823.37	71079.5
823.622	71122.5
823.874	71526.5
824.126	71957.5
824.378	72177.5
824.63	72618.5
824.882	72807.5
825.134	72681.5
825.385	72920.5
825.637	73085.5
825.888	72839.5
826.14	72582.5
826.392	72292.5
826.643	72317.5
826.895	72073.5
827.146	72204.5
827.397	71965.5
827.649	72081.5
827.9	72196.5
828.151	72106.5
828.402	72469.5
828.653	72563.5
828.905	72912.5
829.156	73122.5
829.407	73228.5
829.658	73146.5
829.909	73235.5
830.159	73179.5
830.41	72783.5
830.661	72383.5
830.912	72304.5
831.162	72248.5
831.413	72213.5
831.664	72153.5
831.914	72295.5
832.165	72297.5
832.415	72428.5
832.666	72304.5
832.916	72283.5
833.167	72192.5
833.417	72332.5
833.667	72115.5
833.917	72153.5
834.168	71710.5
834.418	71828.5
834.668	71638.5
834.918	71206.5
835.168	70897.5
835.418	70825.5
835.668	70732.5
835.918	70598.5
836.167	70577.5
836.417	70480.5
836.667	70484.5
836.917	70259.5
837.166	70419.5
837.416	70416.5
837.666	70322.5
837.915	70401.5
838.165	70334.5
838.414	70022.5
838.663	70056.5
838.913	70046.5
839.162	69970.5
839.411	69904.5
839.661	69672.5
839.91	69603.5
840.159	69506.5
840.408	69801.5
840.657	69993.5
840.906	70083.5
841.155	69947.5
841.404	70151.5
841.653	70219.5
841.902	70506.5
842.15	70427.5
842.399	70398.5
842.648	70329.5
842.897	70138.5
843.145	69787.5
843.394	69403.5
843.642	69189.5
843.891	68731.5
844.139	68951.5
844.388	68507.5
844.636	68229.5
844.884	68310.5
845.133	68400.5
845.381	68181.5
845.629	68273.5
845.877	68365.5
846.125	68345.5
846.373	68166.5
846.621	67999.5
846.869	67937.5
847.117	67694.5
847.365	67191.5
847.613	67096.5
847.861	67031.5
848.108	67090.5
848.356	67078.5
848.604	66793.5
848.851	67026.5
849.099	67070.5
849.346	67231.5
849.594	67679.5
849.841	68021.5
850.089	67967.5
850.336	68186.5
850.583	68035.5
850.831	67633.5
851.078	67389.5
851.325	67334.5
851.572	67077.5
851.819	66295.5
852.066	65566.5
852.313	64722.5
852.56	64485.5
852.807	64339.5
853.054	64361.5
853.301	64123.5
853.548	64103.5
853.794	64483.5
854.041	64799.5
854.288	65218.5
854.534	65823.5
854.781	65760.5
855.028	65475.5
855.274	65439.5
855.52	65184.5
855.767	65075.5
856.013	64792.5
856.26	65034.5
856.506	64257.5
856.752	64440.5
856.998	64428.5
857.244	64469.5
857.49	64841.5
857.736	64882.5
857.982	65198.5
858.228	64838.5
858.474	64831.5
858.72	64272.5
858.966	63808.5
859.212	63125.5
859.458	62515.5
859.703	62098.5
859.949	61793.5
860.195	61364.5
860.44	61032.5
860.686	60929.5
860.931	60821.5
861.177	60577.5
861.422	60523.5
861.667	60191.5
861.913	60481.5
862.158	60839.5
862.403	60868.5
862.648	61284.5
862.893	61329.5
863.138	61271.5
863.384	60944.5
863.629	60956.5
863.873	61032.5
864.118	60636.5
864.363	60338.5
864.608	60097.5
864.853	59850.5
865.098	59636.5
865.342	59430.5
865.587	59230.5
865.832	59363.5
866.076	59169.5
866.321	59037.5
866.565	58986.5
866.81	58950.5
867.054	58882.5
867.298	58790.5
867.543	58551.5
867.787	58638.5
868.031	58468.5
868.275	58494.5
868.519	58610.5
868.764	58470.5
869.008	58288.5
869.252	58254.5
869.496	58045.5
869.739	58381.5
869.983	58188.5
870.227	58212.5
870.471	58222.5
870.715	58329.5
870.958	58582.5
871.202	58633.5
871.446	58623.5
871.689	58696.5
871.933	58622.5
872.176	58635.5
872.42	58421.5
872.663	58457.5
872.906	58140.5
873.15	57858.5
873.393	57663.5
873.636	57268.5
873.879	56768.5
874.122	56414.5
874.366	55836.5
874.609	55594.5
874.852	55387.5
875.095	55036.5
875.337	55022.5
875.58	54748.5
875.823	54693.5
876.066	54667.5
876.309	54691.5
876.551	54467.5
876.794	54210.5
877.037	54124.5
877.279	53984.5
877.522	54038.5
877.764	54144.5
878.007	54068.5
878.249	54079.5
878.491	54167.5
878.734	54237.5
878.976	53862.5
879.218	53495.5
879.46	53238.5
879.702	52834.5
879.945	52689.5
880.187	52234.5
880.429	51944.5
880.671	51640.5
880.912	51733.5
881.154	51480.5
881.396	51500.5
881.638	51652.5
881.88	51524.5
882.121	51627.5
882.363	51455.5
882.605	51464.5
882.846	51283.5
883.088	50967.5
883.329	50916.5
883.571	51041.5
883.812	51237.5
884.053	51499.5
884.295	51928.5
884.536	52135.5
884.777	51905.5
885.018	51946.5
885.259	51843.5
885.5	51732.5
885.742	51778.5
885.982	51652.5
886.223	51457.5
886.464	51079.5
886.705	50928.5
886.946	50581.5
887.187	49855.5
887.428	49733.5
887.668	49097.5
887.909	48711.5
888.15	48253.5
888.39	47942.5
888.631	47629.5
888.871	47347.5
889.111	46988.5
889.352	46742.5
889.592	46530.5
889.833	46128.5
890.073	45995.5
890.313	45939.5
890.553	45259.5
890.793	45437.5
891.033	45107.5
891.273	44904.5
891.513	44865.5
891.753	44760.5
891.993	44796.5
892.233	44784.5
892.473	44879.5
892.713	45032.5
892.952	44972.5
893.192	44847.5
893.432	44963.5
893.671	44795.5
893.911	44542.5
894.15	44372.5
894.39	44009.5
894.629	43620.5
894.869	43464.5
895.108	43352.5
895.347	43047.5
895.587	43011.5
895.826	42898.5
896.065	42789.5
896.304	42782.5
896.543	42571.5
896.782	42537.5
897.021	42195.5
897.26	42312.5
897.499	42267.5
897.738	42076.5
897.977	41905.5
898.216	41531.5
898.454	41286.5
898.693	41079.5
898.932	40958.5
899.17	40918.5
899.409	40810.5
899.647	40569.5
899.886	40736.5
900.124	40729.5
900.363	40808.5
900.601	40849.5
900.839	41028.5
901.078	40998.5
901.316	40981.5
901.554	41353.5
901.792	41452.5
902.03	41339.5
902.268	41370.5
902.506	41098.5
902.744	40815.5
902.982	40612.5
903.22	40079.5
903.458	39893.5
903.695	39274.5
903.933	39018.5
904.171	38248.5
904.409	37857.5
904.646	37419.5
904.884	37028.5
905.121	36892.5
905.359	36595.5
905.596	36184.5
905.833	35945.5
906.071	35790.5
906.308	35651.5
906.545	35629.5
906.783	35617.5
907.02	35433.5
907.257	35358.5
907.494	35508.5
907.731	35395.5
907.968	35154.5
908.205	35081.5
908.442	34874.5
908.679	34652.5
908.915	34620.5
909.152	34049.5
909.389	33952.5
909.626	33787.5
909.862	33683.5
910.099	33483.5
910.335	33431.5
910.572	33067.5
910.808	33207.5
911.045	33130.5
911.281	32981.5
911.518	32757.5
911.754	32580.5
911.99	32406.5
912.226	32220.5
912.463	32020.5
912.699	31683.5
912.935	31565.5
913.171	31322.5
913.407	31067.5
913.643	30892.5
913.879	30630.5
914.114	30415.5
914.35	30195.5
914.586	29922.5
914.822	29655.5
915.057	29544.5
915.293	29262.5
915.529	29225.5
915.764	29160.5
916	29155.5
916.235	29111.5
916.471	29132.5
916.706	29022.5
916.941	29013.5
917.177	28849.5
917.412	29099.5
917.647	28806.5
917.882	28728.5
918.117	28899.5
918.352	28749.5
918.588	28623.5
918.823	28245.5
919.057	28114.5
919.292	27808.5
919.527	27580.5
919.762	27156.5
919.997	27036.5
920.232	26806.5
920.466	26513.5
920.701	26152.5
920.935	26321.5
921.17	26041.5
921.405	25951.5
921.639	25880.5
921.873	25700.5
922.108	25654.5
922.342	25590.5
922.576	25607.5
922.811	25458.5
923.045	25459.5
923.279	25423.5
923.513	25043.5
923.747	24987.5
923.981	24915.5
924.215	24689.5
924.449	24693.5
924.683	24401.5
924.917	24307.5
925.151	24156.5
925.385	24341.5
925.618	24032.5
925.852	24075.5
926.086	23857.5
926.319	23888.5
926.553	23822.5
926.786	23951.5
927.02	23844.5
927.253	23919.5
927.486	23790.5
927.72	23842.5
927.953	23770.5
928.186	23799.5
928.42	23602.5
928.653	23403.5
928.886	23308.5
929.119	23344.5
929.352	23150.5
929.585	23024.5
929.818	22726.5
930.051	22653.5
930.284	22507.5
930.516	22196.5
930.749	22136.5
930.982	22068.5
931.215	21919.5
931.447	21831.5
931.68	21751.5
931.912	21686.5
932.145	21745.5
932.377	21720.5
932.61	21883.5
932.842	21725.5
933.074	21785.5
933.307	21538.5
933.539	21797.5
933.771	21815.5
934.003	21646.5
934.236	21825.5
934.468	21655.5
934.7	21592.5
934.932	21613.5
935.164	21476.5
935.395	21456.5
935.627	21414.5
935.859	21270.5
936.091	21191.5
936.323	21041.5
936.554	21017.5
936.786	20950.5
937.017	20911.5
937.249	20815.5
937.481	20729.5
937.712	20744.5
937.943	20675.5
938.175	20704.5
938.406	20606.5
938.637	20736.5
938.869	20591.5
939.1	20588.5
939.331	20376.5
939.562	20397.5
939.793	20351.5
940.024	20248.5
940.255	20221.5
940.486	20198.5
940.717	19966.5
940.948	19901.5
941.179	19771.5
941.409	19762.5
941.64	19864.5
941.871	19950.5
942.102	19777.5
942.332	19903.5
942.563	19832.5
942.793	20028.5
943.024	19911.5
943.254	19873.5
943.484	19754.5
943.715	19808.5
943.945	19742.5
944.175	19744.5
944.405	19697.5
944.636	19664.5
944.866	19662.5
945.096	19626.5
945.326	19406.5
945.556	19472.5
945.786	19322.5
946.016	19169.5
946.245	19064.5
946.475	18899.5
946.705	18899.5
946.935	18819.5
947.164	18723.5
947.394	18607.5
947.624	18489.5
947.853	18473.5
948.083	18377.5
948.312	18252.5
948.542	18180.5
948.771	18145.5
949	18166.5
949.23	18235.5
949.459	18131.5
949.688	18232.5
949.917	18148.5
950.146	18030.5
950.375	18111.5
950.604	18028.5
950.833	18008.5
951.062	18071.5
951.291	17955.5
951.52	17854.5
951.749	17831.5
951.978	17818.5
952.206	17866.5
952.435	17712.5
952.664	17652.5
952.892	17562.5
953.121	17589.5
953.349	17515.5
953.578	17339.5
953.806	17356.5
954.035	17224.5
954.263	17195.5
954.491	17080.5
954.719	17064.5
954.948	16971.5
955.176	16856.5
955.404	16733.5
955.632	16723.5
955.86	16659.5
956.088	16590.5
956.316	16648.5
956.544	16503.5
956.772	16313.5
956.999	16292.5
957.227	16279.5
957.455	16146.5
957.683	16060.5
957.91	16042.5
958.138	15891.5
958.365	15828.5
958.593	15725.5
958.82	15647.5
959.048	15688.5
959.275	15640.5
959.502	15571.5
959.73	15607.5
959.957	15578.5
960.184	15502.5
960.411	15481.5
960.638	15566.5
960.865	15397.5
961.092	15384.5
961.319	15284.5
961.546	15415.5
961.773	15390.5
962	15294.5
962.227	15399.5
962.454	15200.5
962.68	15145.5
962.907	15059.5
963.134	14898.5
963.36	14935.5
963.587	14878.5
963.813	14672.5
964.04	14661.5
964.266	14529.5
964.493	14631.5
964.719	14447.5
964.945	14357.5
965.171	14124.5
965.398	14098.5
965.624	14176.5
965.85	13969.5
966.076	13874.5
966.302	13880.5
966.528	13844.5
966.754	13846.5
966.98	13779.5
967.206	13666.5
967.431	13613.5
967.657	13652.5
967.883	13655.5
968.109	13528.5
968.334	13396.5
968.56	13536.5
968.785	13349.5
969.011	13346.5
969.236	13267.5
969.462	13298.5
969.687	13190.5
969.912	13180.5
970.138	13178.5
970.363	13086.5
970.588	13154.5
970.813	13045.5
971.038	13036.5
971.263	12904.5
971.488	12873.5
971.713	12906.5
971.938	12773.5
972.163	12547.5
972.388	12559.5
972.613	12510.5
972.838	12494.5
973.062	12434.5
973.287	12453.5
973.512	12337.5
973.736	12288.5
973.961	12190.5
974.185	12099.5
974.41	12124.5
974.634	11985.5
974.858	11883.5
975.083	11854.5
975.307	11829.5
975.531	11675.5
975.755	11619.5
975.98	11619.5
976.204	11454.5
976.428	11406.5
976.652	11353.5
976.876	11277.5
977.1	11324.5
977.324	11201.5
977.547	11239.5
977.771	11209.5
977.995	11179.5
978.219	11025.5
978.442	11128.5
978.666	11066.5
978.89	10939.5
979.113	11047.5
979.337	10909.5
979.56	10836.5
979.783	10903.5
980.007	10705.5
980.23	10710.5
980.453	10646.5
980.677	10707.5
980.9	10604.5
981.123	10359.5
981.346	10441.5
981.569	10417.5
981.792	10361.5
982.015	10254.5
982.238	10241.5
982.461	10121.5
982.684	10045.5
982.907	9953.5
983.129	9876.5
983.352	9883.5
983.575	9817.5
983.797	9764.5
984.02	9711.5
984.242	9629.5
984.465	9606.5
984.687	9623.5
984.91	9623.5
985.132	9542.5
985.354	9500.5
985.577	9467.5
985.799	9392.5
986.021	9294.5
986.243	9274.5
986.465	9304.5
986.687	9214.5
986.909	9288.5
987.131	9150.5
987.353	9155.5
987.575	9087.5
987.797	9052.5
988.019	8925.5
988.241	8959.5
988.462	8934.5
988.684	8972.5
988.906	8926.5
989.127	8897.5
989.349	8783.5
989.57	8768.5
989.792	8843.5
990.013	8773.5
990.234	8710.5
990.456	8742.5
990.677	8632.5
990.898	8581.5
991.119	8477.5
991.341	8539.5
991.562	8376.5
991.783	8356.5
992.004	8197.5
992.225	8162.5
992.446	8084.5
992.667	8090.5
992.887	8124.5
993.108	7915.5
993.329	8032.5
993.55	7905.5
993.77	7799.5
993.991	7751.5
994.212	7769.5
994.432	7740.5
994.653	7681.5
994.873	7649.5
995.093	7505.5
995.314	7507.5
995.534	7543.5
995.754	7543.5
995.975	7489.5
996.195	7368.5
996.415	7428.5
996.635	7356.5
996.855	7363.5
997.075	7323.5
997.295	7297.5
997.515	7302.5
997.735	7303.5
997.955	7201.5
998.174	7141.5
998.394	7135.5
998.614	7141.5
998.834	7104.5
999.053	7148.5
999.273	7057.5
999.492	7132.5
999.712	7038.5
999.931	6912.5
1000.151	6892.5
1000.37	6866.5
1000.589	6838.5
1000.809	6675.5
1001.028	6726.5
1001.247	6677.5
1001.466	6562.5
1001.685	6670.5
1001.904	6529.5
1002.123	6451.5
1002.342	6388.5
1002.561	6329.5
1002.78	6308.5
1002.999	6330.5
1003.218	6247.5
1003.436	6172.5
1003.655	6192.5
1003.874	6104.5
1004.092	6110.5
1004.311	6067.5
1004.53	6055.5
1004.748	6076.5
1004.966	5948.5
1005.185	6021.5
1005.403	6024.5
1005.622	5950.5
1005.84	5950.5
1006.058	5846.5
1006.276	5885.5
1006.494	6251.5
1006.712	5838.5
1006.931	5883.5
1007.149	5827.5
1007.367	5822.5
1007.584	5859.5
1007.802	5890.5
1008.02	5774.5
1008.238	5899.5
1008.456	5905.5
1008.673	5799.5
1008.891	5939.5
1009.109	5896.5
1009.326	5977.5
1009.544	6105.5
1009.761	6054.5
1009.979	6218.5
1010.196	6352.5
1010.413	6575.5
1010.631	6661.5
1010.848	6821.5
1011.065	6870.5
1011.282	6779.5
1011.5	6719.5
1011.717	6783.5
1011.934	6656.5
1012.151	6737.5
1012.368	6670.5
1012.585	6634.5
1012.801	6635.5
1013.018	6638.5
1013.235	6638.5
1013.452	6689.5
1013.669	6688.5
1013.885	6704.5
1014.102	6712.5
1014.318	6657.5
1014.535	6581.5
1014.751	6613.5
1014.968	6601.5
1015.184	6508.5
1015.401	6325.5
1015.617	6387.5
1015.833	6282.5
1016.049	6292.5
1016.266	6148.5
1016.482	6168.5
1016.698	6027.5
1016.914	6039.5
1017.13	5996.5
1017.346	5937.5
1017.562	5994.5
1017.778	5876.5
1017.993	5907.5
1018.209	5952.5
1018.425	5872.5
1018.641	5833.5
1018.856	5755.5
1019.072	5862.5
1019.288	5915.5
1019.503	5780.5
1019.719	5684.5
1019.934	5666.5
1020.149	5684.5
1020.365	5607.5
1020.58	5466.5
1020.795	5489.5
1021.011	5333.5
1021.226	5158.5
1021.441	5069.5
1021.656	4922.5
1021.871	4798.5
1022.086	4741.5
1022.301	4603.5
1022.516	4605.5
1022.731	4591.5
1022.946	4437.5
1023.16	4330.5
1023.375	4260.5
1023.59	4155.5
1023.804	4087.5
1024.019	4147.5
1024.234	3933.5
1024.448	3903.5
1024.663	3789.5
1024.877	3726.5
1025.092	3720.5
1025.306	3641.5
1025.52	3451.5
1025.734	3499.5
1025.949	3326.5
1026.163	3250.5
1026.377	3111.5
1026.591	3140.5
1026.805	3040.5
1027.019	2969.5
1027.233	2845.5
1027.447	2789.5
1027.661	2849.5
1027.875	2765.5
1028.088	2695.5
1028.302	2575.5
1028.516	2491.5
1028.73	2458.5
1028.943	2360.5
1029.157	2228.5
1029.37	2072.5
1029.584	-2.5
1029.797	-3.5
1030.011	-0.5
1030.224	-1.5
