Data from QEP037381__179__14-13-35-949.txt Node

Date: Fri Apr 28 14:13:35 EDT 2023
User: dcclab
Spectrometer: QEP03738
Trigger mode: 4
Integration Time (sec): 1.000000E1
Scans to average: 1
Electric dark correction enabled: true
Nonlinearity correction enabled: false
Boxcar width: 0
XAxis mode: Wavelengths
Number of Pixels in Spectrum: 1044
>>>>>Begin Spectral Data<<<<<
784.041	10.75
784.3	-0.25
784.558	-1.25
784.817	-2.25
785.075	71293.75
785.334	14494.75
785.592	7585.75
785.851	5418.75
786.109	4061.75
786.368	3199.75
786.626	2587.75
786.884	2178.75
787.143	1836.75
787.401	1521.75
787.659	1341.75
787.917	1172.75
788.175	1076.75
788.433	955.75
788.691	845.75
788.949	789.75
789.207	738.75
789.465	687.75
789.723	636.75
789.98	593.75
790.238	628.75
790.496	588.75
790.753	558.75
791.011	610.75
791.268	543.75
791.526	520.75
791.783	536.75
792.041	536.75
792.298	454.75
792.556	535.75
792.813	497.75
793.07	471.75
793.327	465.75
793.584	544.75
793.841	469.75
794.099	473.75
794.356	554.75
794.613	445.75
794.869	488.75
795.126	458.75
795.383	433.75
795.64	471.75
795.897	417.75
796.153	468.75
796.41	459.75
796.667	448.75
796.923	467.75
797.18	445.75
797.436	493.75
797.693	445.75
797.949	512.75
798.206	533.75
798.462	449.75
798.718	521.75
798.974	484.75
799.231	531.75
799.487	532.75
799.743	553.75
799.999	571.75
800.255	569.75
800.511	582.75
800.767	617.75
801.023	632.75
801.279	689.75
801.534	741.75
801.79	820.75
802.046	918.75
802.302	1135.75
802.557	1372.75
802.813	1786.75
803.068	2367.75
803.324	3389.75
803.579	4867.75
803.835	6752.75
804.09	9180.75
804.345	11735.75
804.601	14291.75
804.856	16564.75
805.111	18444.75
805.366	19534.75
805.621	20543.75
805.876	21234.75
806.131	21646.75
806.386	22139.75
806.641	22429.75
806.896	22791.75
807.151	23207.75
807.406	23515.75
807.661	24037.75
807.915	24546.75
808.17	24878.75
808.425	25217.75
808.679	25483.75
808.934	25875.75
809.188	26166.75
809.443	26560.75
809.697	26809.75
809.951	26889.75
810.206	27258.75
810.46	27463.75
810.714	27747.75
810.968	27962.75
811.223	28096.75
811.477	28402.75
811.731	28635.75
811.985	28778.75
812.239	28848.75
812.493	29095.75
812.747	29352.75
813	29380.75
813.254	29657.75
813.508	29651.75
813.762	29796.75
814.015	29825.75
814.269	30126.75
814.522	30452.75
814.776	30766.75
815.03	31246.75
815.283	31623.75
815.536	32097.75
815.79	32579.75
816.043	33113.75
816.296	33613.75
816.55	33951.75
816.803	34191.75
817.056	34896.75
817.309	35274.75
817.562	35652.75
817.815	36151.75
818.068	36390.75
818.321	36767.75
818.574	37337.75
818.827	37981.75
819.079	38440.75
819.332	39176.75
819.585	39706.75
819.838	40038.75
820.09	40472.75
820.343	40666.75
820.595	40947.75
820.848	41272.75
821.1	41365.75
821.353	41554.75
821.605	41293.75
821.857	41355.75
822.11	41215.75
822.362	41176.75
822.614	41127.75
822.866	41226.75
823.118	41144.75
823.37	41244.75
823.622	41290.75
823.874	41388.75
824.126	41501.75
824.378	41734.75
824.63	41915.75
824.882	41981.75
825.134	41953.75
825.385	41814.75
825.637	41786.75
825.888	41678.75
826.14	41639.75
826.392	41465.75
826.643	41181.75
826.895	41105.75
827.146	41005.75
827.397	40832.75
827.649	40787.75
827.9	40793.75
828.151	40952.75
828.402	41054.75
828.653	41103.75
828.905	41126.75
829.156	41253.75
829.407	41116.75
829.658	41130.75
829.909	41164.75
830.159	41079.75
830.41	40954.75
830.661	40617.75
830.912	40443.75
831.162	40274.75
831.413	40242.75
831.664	40229.75
831.914	40179.75
832.165	40059.75
832.415	40121.75
832.666	40137.75
832.916	40117.75
833.167	40019.75
833.417	40075.75
833.667	39764.75
833.917	39721.75
834.168	39575.75
834.418	39479.75
834.668	39476.75
834.918	39258.75
835.168	38896.75
835.418	38806.75
835.668	38792.75
835.918	38660.75
836.167	38515.75
836.417	38361.75
836.667	38497.75
836.917	38357.75
837.166	38350.75
837.416	38234.75
837.666	38275.75
837.915	38131.75
838.165	38026.75
838.414	37901.75
838.663	37761.75
838.913	37801.75
839.162	37646.75
839.411	37579.75
839.661	37455.75
839.91	37459.75
840.159	37285.75
840.408	37376.75
840.657	37324.75
840.906	37350.75
841.155	37439.75
841.404	37344.75
841.653	37448.75
841.902	37324.75
842.15	37516.75
842.399	37447.75
842.648	37236.75
842.897	37200.75
843.145	36788.75
843.394	36683.75
843.642	36391.75
843.891	36229.75
844.139	36016.75
844.388	35914.75
844.636	35759.75
844.884	35776.75
845.133	35610.75
845.381	35486.75
845.629	35634.75
845.877	35452.75
846.125	35413.75
846.373	35455.75
846.621	35254.75
846.869	35222.75
847.117	35146.75
847.365	34939.75
847.613	34702.75
847.861	34580.75
848.108	34514.75
848.356	34475.75
848.604	34390.75
848.851	34400.75
849.099	34486.75
849.346	34605.75
849.594	34700.75
849.841	34824.75
850.089	34903.75
850.336	34920.75
850.583	35002.75
850.831	34787.75
851.078	34490.75
851.325	34178.75
851.572	34229.75
851.819	33889.75
852.066	33375.75
852.313	32816.75
852.56	32663.75
852.807	32497.75
853.054	32343.75
853.301	32333.75
853.548	32297.75
853.794	32496.75
854.041	32610.75
854.288	32719.75
854.534	32978.75
854.781	32821.75
855.028	32828.75
855.274	32768.75
855.52	32571.75
855.767	32256.75
856.013	32329.75
856.26	32402.75
856.506	31911.75
856.752	31824.75
856.998	31949.75
857.244	32035.75
857.49	32074.75
857.736	32185.75
857.982	32181.75
858.228	32026.75
858.474	31873.75
858.72	31584.75
858.966	31297.75
859.212	31028.75
859.458	30600.75
859.703	30534.75
859.949	30166.75
860.195	29998.75
860.44	29660.75
860.686	29635.75
860.931	29488.75
861.177	29388.75
861.422	29321.75
861.667	29243.75
861.913	29322.75
862.158	29412.75
862.403	29481.75
862.648	29567.75
862.893	29520.75
863.138	29356.75
863.384	29306.75
863.629	29384.75
863.873	29155.75
864.118	28967.75
864.363	28720.75
864.608	28734.75
864.853	28592.75
865.098	28472.75
865.342	28318.75
865.587	28272.75
865.832	28315.75
866.076	28123.75
866.321	27953.75
866.565	27954.75
866.81	27700.75
867.054	27863.75
867.298	27605.75
867.543	27639.75
867.787	27570.75
868.031	27610.75
868.275	27514.75
868.519	27309.75
868.764	27390.75
869.008	27277.75
869.252	27245.75
869.496	27140.75
869.739	27299.75
869.983	27155.75
870.227	27212.75
870.471	27026.75
870.715	27081.75
870.958	27137.75
871.202	27224.75
871.446	27178.75
871.689	27087.75
871.933	27141.75
872.176	27046.75
872.42	26962.75
872.663	26916.75
872.906	26857.75
873.15	26750.75
873.393	26473.75
873.636	26297.75
873.879	26145.75
874.122	25830.75
874.366	25605.75
874.609	25441.75
874.852	25309.75
875.095	25240.75
875.337	25016.75
875.58	24866.75
875.823	24853.75
876.066	24862.75
876.309	24880.75
876.551	24599.75
876.794	24439.75
877.037	24418.75
877.279	24394.75
877.522	24466.75
877.764	24396.75
878.007	24468.75
878.249	24328.75
878.491	24211.75
878.734	24210.75
878.976	24167.75
879.218	23970.75
879.46	23859.75
879.702	23728.75
879.945	23565.75
880.187	23254.75
880.429	23113.75
880.671	23142.75
880.912	23050.75
881.154	22944.75
881.396	22790.75
881.638	22703.75
881.88	22830.75
882.121	22722.75
882.363	22703.75
882.605	22617.75
882.846	22634.75
883.088	22601.75
883.329	22517.75
883.571	22446.75
883.812	22594.75
884.053	22629.75
884.295	22903.75
884.536	23042.75
884.777	22942.75
885.018	22771.75
885.259	22767.75
885.5	22598.75
885.742	22840.75
885.982	22598.75
886.223	22361.75
886.464	22260.75
886.705	22099.75
886.946	21901.75
887.187	21641.75
887.428	21547.75
887.668	21278.75
887.909	20904.75
888.15	20743.75
888.39	20700.75
888.631	20594.75
888.871	20450.75
889.111	20325.75
889.352	20072.75
889.592	19972.75
889.833	19893.75
890.073	19616.75
890.313	19639.75
890.553	19453.75
890.793	19381.75
891.033	19353.75
891.273	19231.75
891.513	19149.75
891.753	19051.75
891.993	19013.75
892.233	19064.75
892.473	19162.75
892.713	19135.75
892.952	19040.75
893.192	19166.75
893.432	18989.75
893.671	18910.75
893.911	18820.75
894.15	18775.75
894.39	18559.75
894.629	18483.75
894.869	18326.75
895.108	18246.75
895.347	18167.75
895.587	18193.75
895.826	18064.75
896.065	17907.75
896.304	17968.75
896.543	17933.75
896.782	17817.75
897.021	17760.75
897.26	17678.75
897.499	17740.75
897.738	17560.75
897.977	17487.75
898.216	17310.75
898.454	17284.75
898.693	17107.75
898.932	17147.75
899.17	17029.75
899.409	16931.75
899.647	16990.75
899.886	16821.75
900.124	16961.75
900.363	16847.75
900.601	16946.75
900.839	16998.75
901.078	17055.75
901.316	17049.75
901.554	17011.75
901.792	17089.75
902.03	17084.75
902.268	17078.75
902.506	16935.75
902.744	16742.75
902.982	16775.75
903.22	16487.75
903.458	16227.75
903.695	16082.75
903.933	15898.75
904.171	15673.75
904.409	15449.75
904.646	15277.75
904.884	15088.75
905.121	14904.75
905.359	14761.75
905.596	14635.75
905.833	14537.75
906.071	14469.75
906.308	14510.75
906.545	14508.75
906.783	14379.75
907.02	14391.75
907.257	14245.75
907.494	14339.75
907.731	14223.75
907.968	14214.75
908.205	14158.75
908.442	13989.75
908.679	13922.75
908.915	13765.75
909.152	13739.75
909.389	13526.75
909.626	13438.75
909.862	13364.75
910.099	13344.75
910.335	13401.75
910.572	13157.75
910.808	13162.75
911.045	13150.75
911.281	13078.75
911.518	13096.75
911.754	12854.75
911.99	12933.75
912.226	12754.75
912.463	12634.75
912.699	12599.75
912.935	12461.75
913.171	12417.75
913.407	12197.75
913.643	12260.75
913.879	12168.75
914.114	11970.75
914.35	11848.75
914.586	11814.75
914.822	11678.75
915.057	11675.75
915.293	11458.75
915.529	11390.75
915.764	11522.75
916	11436.75
916.235	11398.75
916.471	11355.75
916.706	11333.75
916.941	11277.75
917.177	11316.75
917.412	11330.75
917.647	11269.75
917.882	11194.75
918.117	11174.75
918.352	11161.75
918.588	11127.75
918.823	10948.75
919.057	10875.75
919.292	10690.75
919.527	10707.75
919.762	10488.75
919.997	10513.75
920.232	10348.75
920.466	10278.75
920.701	10106.75
920.935	10109.75
921.17	10029.75
921.405	9993.75
921.639	9989.75
921.873	9826.75
922.108	9889.75
922.342	9875.75
922.576	9782.75
922.811	9747.75
923.045	9780.75
923.279	9785.75
923.513	9521.75
923.747	9577.75
923.981	9559.75
924.215	9408.75
924.449	9409.75
924.683	9348.75
924.917	9247.75
925.151	9206.75
925.385	9231.75
925.618	9228.75
925.852	9160.75
926.086	9026.75
926.319	9159.75
926.553	9120.75
926.786	9126.75
927.02	9090.75
927.253	9080.75
927.486	9057.75
927.72	9004.75
927.953	9024.75
928.186	8914.75
928.42	8984.75
928.653	8878.75
928.886	8819.75
929.119	8763.75
929.352	8728.75
929.585	8713.75
929.818	8505.75
930.051	8501.75
930.284	8439.75
930.516	8350.75
930.749	8292.75
930.982	8323.75
931.215	8272.75
931.447	8168.75
931.68	8176.75
931.912	8172.75
932.145	8171.75
932.377	8142.75
932.61	8265.75
932.842	8056.75
933.074	8232.75
933.307	8073.75
933.539	8248.75
933.771	8114.75
934.003	8138.75
934.236	8136.75
934.468	8223.75
934.7	8090.75
934.932	8076.75
935.164	7986.75
935.395	7926.75
935.627	7939.75
935.859	7955.75
936.091	7826.75
936.323	7877.75
936.554	7939.75
936.786	7832.75
937.017	7739.75
937.249	7756.75
937.481	7651.75
937.712	7696.75
937.943	7657.75
938.175	7662.75
938.406	7594.75
938.637	7674.75
938.869	7545.75
939.1	7616.75
939.331	7580.75
939.562	7498.75
939.793	7464.75
940.024	7514.75
940.255	7422.75
940.486	7394.75
940.717	7330.75
940.948	7300.75
941.179	7281.75
941.409	7249.75
941.64	7222.75
941.871	7271.75
942.102	7278.75
942.332	7274.75
942.563	7344.75
942.793	7251.75
943.024	7173.75
943.254	7208.75
943.484	7198.75
943.715	7247.75
943.945	7252.75
944.175	7140.75
944.405	7127.75
944.636	7114.75
944.866	7122.75
945.096	7111.75
945.326	7004.75
945.556	7088.75
945.786	7070.75
946.016	6939.75
946.245	6881.75
946.475	6866.75
946.705	6807.75
946.935	6779.75
947.164	6759.75
947.394	6698.75
947.624	6697.75
947.853	6717.75
948.083	6604.75
948.312	6570.75
948.542	6533.75
948.771	6536.75
949	6525.75
949.23	6509.75
949.459	6564.75
949.688	6599.75
949.917	6510.75
950.146	6497.75
950.375	6545.75
950.604	6430.75
950.833	6544.75
951.062	6515.75
951.291	6408.75
951.52	6432.75
951.749	6439.75
951.978	6342.75
952.206	6282.75
952.435	6312.75
952.664	6289.75
952.892	6293.75
953.121	6217.75
953.349	6285.75
953.578	6254.75
953.806	6217.75
954.035	6125.75
954.263	6109.75
954.491	6011.75
954.719	6077.75
954.948	6011.75
955.176	5975.75
955.404	5896.75
955.632	5976.75
955.86	5957.75
956.088	5918.75
956.316	5956.75
956.544	5917.75
956.772	5789.75
956.999	5787.75
957.227	5792.75
957.455	5724.75
957.683	5649.75
957.91	5655.75
958.138	5556.75
958.365	5596.75
958.593	5552.75
958.82	5508.75
959.048	5561.75
959.275	5533.75
959.502	5515.75
959.73	5441.75
959.957	5470.75
960.184	5493.75
960.411	5410.75
960.638	5483.75
960.865	5412.75
961.092	5424.75
961.319	5361.75
961.546	5464.75
961.773	5425.75
962	5406.75
962.227	5378.75
962.454	5316.75
962.68	5330.75
962.907	5297.75
963.134	5229.75
963.36	5195.75
963.587	5271.75
963.813	5109.75
964.04	5109.75
964.266	5059.75
964.493	5085.75
964.719	5093.75
964.945	5073.75
965.171	4950.75
965.398	5006.75
965.624	4976.75
965.85	4863.75
966.076	4878.75
966.302	4936.75
966.528	4860.75
966.754	4876.75
966.98	4842.75
967.206	4836.75
967.431	4743.75
967.657	4843.75
967.883	4754.75
968.109	4758.75
968.334	4694.75
968.56	4698.75
968.785	4697.75
969.011	4655.75
969.236	4677.75
969.462	4623.75
969.687	4622.75
969.912	4638.75
970.138	4656.75
970.363	4516.75
970.588	4585.75
970.813	4563.75
971.038	4489.75
971.263	4558.75
971.488	4511.75
971.713	4533.75
971.938	4452.75
972.163	4387.75
972.388	4379.75
972.613	4372.75
972.838	4368.75
973.062	4333.75
973.287	4355.75
973.512	4236.75
973.736	4332.75
973.961	4253.75
974.185	4214.75
974.41	4203.75
974.634	4071.75
974.858	4123.75
975.083	4159.75
975.307	4153.75
975.531	4050.75
975.755	4001.75
975.98	4012.75
976.204	3959.75
976.428	3915.75
976.652	3894.75
976.876	3893.75
977.1	3940.75
977.324	3857.75
977.547	3925.75
977.771	3937.75
977.995	3860.75
978.219	3797.75
978.442	3919.75
978.666	3843.75
978.89	3805.75
979.113	3825.75
979.337	3790.75
979.56	3747.75
979.783	3839.75
980.007	3689.75
980.23	3717.75
980.453	3648.75
980.677	3705.75
980.9	3673.75
981.123	3572.75
981.346	3602.75
981.569	3608.75
981.792	3628.75
982.015	3576.75
982.238	3504.75
982.461	3506.75
982.684	3514.75
982.907	3434.75
983.129	3391.75
983.352	3437.75
983.575	3448.75
983.797	3430.75
984.02	3333.75
984.242	3356.75
984.465	3382.75
984.687	3380.75
984.91	3416.75
985.132	3332.75
985.354	3347.75
985.577	3305.75
985.799	3263.75
986.021	3204.75
986.243	3225.75
986.465	3219.75
986.687	3237.75
986.909	3296.75
987.131	3196.75
987.353	3170.75
987.575	3245.75
987.797	3120.75
988.019	3072.75
988.241	3125.75
988.462	3112.75
988.684	3187.75
988.906	3179.75
989.127	3165.75
989.349	3039.75
989.57	3074.75
989.792	3108.75
990.013	3085.75
990.234	3100.75
990.456	3096.75
990.677	3079.75
990.898	3034.75
991.119	3014.75
991.341	3016.75
991.562	2939.75
991.783	3004.75
992.004	2916.75
992.225	2885.75
992.446	2891.75
992.667	2827.75
992.887	2935.75
993.108	2782.75
993.329	2894.75
993.55	2851.75
993.77	2743.75
993.991	2738.75
994.212	2804.75
994.432	2731.75
994.653	2773.75
994.873	2739.75
995.093	2616.75
995.314	2691.75
995.534	2728.75
995.754	2734.75
995.975	2726.75
996.195	2646.75
996.415	2700.75
996.635	2640.75
996.855	2638.75
997.075	2607.75
997.295	2613.75
997.515	2589.75
997.735	2643.75
997.955	2604.75
998.174	2585.75
998.394	2556.75
998.614	2631.75
998.834	2557.75
999.053	2626.75
999.273	2575.75
999.492	2601.75
999.712	2532.75
999.931	2516.75
1000.151	2545.75
1000.37	2539.75
1000.589	2561.75
1000.809	2484.75
1001.028	2537.75
1001.247	2497.75
1001.466	2398.75
1001.685	2509.75
1001.904	2465.75
1002.123	2408.75
1002.342	2391.75
1002.561	2374.75
1002.78	2361.75
1002.999	2442.75
1003.218	2406.75
1003.436	2364.75
1003.655	2372.75
1003.874	2309.75
1004.092	2294.75
1004.311	2357.75
1004.53	2326.75
1004.748	2380.75
1004.966	2302.75
1005.185	2312.75
1005.403	2313.75
1005.622	2297.75
1005.84	2353.75
1006.058	2248.75
1006.276	2260.75
1006.494	2657.75
1006.712	2262.75
1006.931	2329.75
1007.149	2264.75
1007.367	2233.75
1007.584	2280.75
1007.802	2311.75
1008.02	2267.75
1008.238	2348.75
1008.456	2343.75
1008.673	2191.75
1008.891	2291.75
1009.109	2259.75
1009.326	2287.75
1009.544	2392.75
1009.761	2299.75
1009.979	2375.75
1010.196	2442.75
1010.413	2507.75
1010.631	2535.75
1010.848	2570.75
1011.065	2597.75
1011.282	2556.75
1011.5	2453.75
1011.717	2561.75
1011.934	2519.75
1012.151	2537.75
1012.368	2496.75
1012.585	2428.75
1012.801	2498.75
1013.018	2459.75
1013.235	2419.75
1013.452	2446.75
1013.669	2455.75
1013.885	2468.75
1014.102	2477.75
1014.318	2446.75
1014.535	2407.75
1014.751	2432.75
1014.968	2416.75
1015.184	2396.75
1015.401	2337.75
1015.617	2383.75
1015.833	2314.75
1016.049	2290.75
1016.266	2254.75
1016.482	2282.75
1016.698	2189.75
1016.914	2251.75
1017.13	2210.75
1017.346	2170.75
1017.562	2232.75
1017.778	2179.75
1017.993	2155.75
1018.209	2217.75
1018.425	2153.75
1018.641	2142.75
1018.856	2135.75
1019.072	2152.75
1019.288	2189.75
1019.503	2130.75
1019.719	2058.75
1019.934	2054.75
1020.149	2147.75
1020.365	2057.75
1020.58	1973.75
1020.795	2031.75
1021.011	1996.75
1021.226	1952.75
1021.441	1927.75
1021.656	1867.75
1021.871	1763.75
1022.086	1752.75
1022.301	1735.75
1022.516	1737.75
1022.731	1793.75
1022.946	1692.75
1023.16	1669.75
1023.375	1596.75
1023.59	1611.75
1023.804	1553.75
1024.019	1630.75
1024.234	1502.75
1024.448	1504.75
1024.663	1442.75
1024.877	1443.75
1025.092	1446.75
1025.306	1455.75
1025.52	1341.75
1025.734	1421.75
1025.949	1323.75
1026.163	1305.75
1026.377	1245.75
1026.591	1293.75
1026.805	1219.75
1027.019	1184.75
1027.233	1151.75
1027.447	1126.75
1027.661	1190.75
1027.875	1132.75
1028.088	1143.75
1028.302	1055.75
1028.516	1025.75
1028.73	1006.75
1028.943	990.75
1029.157	922.75
1029.37	875.75
1029.584	-4.25
1029.797	-3.25
1030.011	-0.25
1030.224	0.75
