Data from QEP037381__178__14-13-25-948.txt Node

Date: Fri Apr 28 14:13:25 EDT 2023
User: dcclab
Spectrometer: QEP03738
Trigger mode: 4
Integration Time (sec): 1.000000E1
Scans to average: 1
Electric dark correction enabled: true
Nonlinearity correction enabled: false
Boxcar width: 0
XAxis mode: Wavelengths
Number of Pixels in Spectrum: 1044
>>>>>Begin Spectral Data<<<<<
784.041	11.12
784.3	1.12
784.558	-4.88
784.817	-2.88
785.075	71370.12
785.334	14652.12
785.592	7649.12
785.851	5413.12
786.109	4092.12
786.368	3231.12
786.626	2627.12
786.884	2175.12
787.143	1841.12
787.401	1518.12
787.659	1382.12
787.917	1187.12
788.175	1100.12
788.433	968.12
788.691	859.12
788.949	809.12
789.207	788.12
789.465	674.12
789.723	662.12
789.98	600.12
790.238	629.12
790.496	606.12
790.753	590.12
791.011	620.12
791.268	549.12
791.526	536.12
791.783	566.12
792.041	543.12
792.298	454.12
792.556	536.12
792.813	508.12
793.07	488.12
793.327	466.12
793.584	551.12
793.841	474.12
794.099	497.12
794.356	561.12
794.613	440.12
794.869	490.12
795.126	450.12
795.383	425.12
795.64	472.12
795.897	422.12
796.153	492.12
796.41	483.12
796.667	450.12
796.923	471.12
797.18	463.12
797.436	506.12
797.693	458.12
797.949	525.12
798.206	560.12
798.462	472.12
798.718	519.12
798.974	517.12
799.231	543.12
799.487	567.12
799.743	557.12
799.999	598.12
800.255	611.12
800.511	585.12
800.767	638.12
801.023	664.12
801.279	729.12
801.534	785.12
801.79	876.12
802.046	975.12
802.302	1227.12
802.557	1483.12
802.813	2004.12
803.068	2626.12
803.324	3811.12
803.579	5446.12
803.835	7618.12
804.09	10451.12
804.345	13421.12
804.601	16478.12
804.856	19226.12
805.111	21412.12
805.366	22786.12
805.621	23868.12
805.876	24693.12
806.131	25167.12
806.386	25756.12
806.641	26121.12
806.896	26482.12
807.151	26936.12
807.406	27378.12
807.661	27804.12
807.915	28439.12
808.17	28950.12
808.425	29223.12
808.679	29602.12
808.934	29960.12
809.188	30387.12
809.443	30699.12
809.697	31030.12
809.951	31356.12
810.206	31577.12
810.46	31815.12
810.714	32053.12
810.968	32336.12
811.223	32659.12
811.477	32838.12
811.731	33069.12
811.985	33235.12
812.239	33437.12
812.493	33782.12
812.747	33744.12
813	33921.12
813.254	34186.12
813.508	34293.12
813.762	34514.12
814.015	34662.12
814.269	34968.12
814.522	35203.12
814.776	35660.12
815.03	36052.12
815.283	36474.12
815.536	36918.12
815.79	37709.12
816.043	38271.12
816.296	38703.12
816.55	39242.12
816.803	39653.12
817.056	40355.12
817.309	40537.12
817.562	41030.12
817.815	41557.12
818.068	42085.12
818.321	42380.12
818.574	43136.12
818.827	43762.12
819.079	44331.12
819.332	45066.12
819.585	45620.12
819.838	46194.12
820.09	46379.12
820.343	46963.12
820.595	47186.12
820.848	47554.12
821.1	47648.12
821.353	47825.12
821.605	47691.12
821.857	47901.12
822.11	47631.12
822.362	47377.12
822.614	47291.12
822.866	47376.12
823.118	47306.12
823.37	47591.12
823.622	47637.12
823.874	47779.12
824.126	47892.12
824.378	47949.12
824.63	48152.12
824.882	48386.12
825.134	48333.12
825.385	48257.12
825.637	48039.12
825.888	47979.12
826.14	47915.12
826.392	47496.12
826.643	47249.12
826.895	47114.12
827.146	47135.12
827.397	46861.12
827.649	46858.12
827.9	46986.12
828.151	46885.12
828.402	47154.12
828.653	47192.12
828.905	47393.12
829.156	47422.12
829.407	47339.12
829.658	47253.12
829.909	47464.12
830.159	47164.12
830.41	46939.12
830.661	46611.12
830.912	46389.12
831.162	46280.12
831.413	46256.12
831.664	46188.12
831.914	46057.12
832.165	46058.12
832.415	45802.12
832.666	46000.12
832.916	46033.12
833.167	45911.12
833.417	45788.12
833.667	45412.12
833.917	45402.12
834.168	45366.12
834.418	45155.12
834.668	44924.12
834.918	44848.12
835.168	44630.12
835.418	44447.12
835.668	44412.12
835.918	44272.12
836.167	44011.12
836.417	43826.12
836.667	43955.12
836.917	43759.12
837.166	43869.12
837.416	43768.12
837.666	43566.12
837.915	43611.12
838.165	43400.12
838.414	43243.12
838.663	43151.12
838.913	43159.12
839.162	42949.12
839.411	43137.12
839.661	42823.12
839.91	42659.12
840.159	42604.12
840.408	42503.12
840.657	42661.12
840.906	42602.12
841.155	42621.12
841.404	42449.12
841.653	42450.12
841.902	42565.12
842.15	42575.12
842.399	42630.12
842.648	42444.12
842.897	42257.12
843.145	41977.12
843.394	41728.12
843.642	41433.12
843.891	41421.12
844.139	41019.12
844.388	40945.12
844.636	40734.12
844.884	40535.12
845.133	40527.12
845.381	40536.12
845.629	40438.12
845.877	40466.12
846.125	40147.12
846.373	40210.12
846.621	40212.12
846.869	40062.12
847.117	39856.12
847.365	39588.12
847.613	39258.12
847.861	39207.12
848.108	39175.12
848.356	39176.12
848.604	39148.12
848.851	39071.12
849.099	39146.12
849.346	39123.12
849.594	39375.12
849.841	39511.12
850.089	39426.12
850.336	39648.12
850.583	39652.12
850.831	39431.12
851.078	38894.12
851.325	38801.12
851.572	38761.12
851.819	38230.12
852.066	37544.12
852.313	37245.12
852.56	36944.12
852.807	36817.12
853.054	36642.12
853.301	36653.12
853.548	36604.12
853.794	36710.12
854.041	36842.12
854.288	37045.12
854.534	37252.12
854.781	37297.12
855.028	37092.12
855.274	36897.12
855.52	36712.12
855.767	36596.12
856.013	36452.12
856.26	36615.12
856.506	35961.12
856.752	35942.12
856.998	36128.12
857.244	36067.12
857.49	36322.12
857.736	36172.12
857.982	36257.12
858.228	36026.12
858.474	35799.12
858.72	35647.12
858.966	35335.12
859.212	34994.12
859.458	34671.12
859.703	34281.12
859.949	34028.12
860.195	33757.12
860.44	33564.12
860.686	33376.12
860.931	33351.12
861.177	33220.12
861.422	33129.12
861.667	32971.12
861.913	32953.12
862.158	33202.12
862.403	33199.12
862.648	33246.12
862.893	33417.12
863.138	33045.12
863.384	33075.12
863.629	32893.12
863.873	32890.12
864.118	32783.12
864.363	32412.12
864.608	32353.12
864.853	32166.12
865.098	31931.12
865.342	31775.12
865.587	31665.12
865.832	31679.12
866.076	31577.12
866.321	31372.12
866.565	31360.12
866.81	31136.12
867.054	31161.12
867.298	31028.12
867.543	30921.12
867.787	31006.12
868.031	30898.12
868.275	30787.12
868.519	30700.12
868.764	30746.12
869.008	30694.12
869.252	30659.12
869.496	30368.12
869.739	30365.12
869.983	30475.12
870.227	30250.12
870.471	30287.12
870.715	30294.12
870.958	30258.12
871.202	30298.12
871.446	30323.12
871.689	30292.12
871.933	30325.12
872.176	30219.12
872.42	30070.12
872.663	29958.12
872.906	29885.12
873.15	29801.12
873.393	29546.12
873.636	29344.12
873.879	29001.12
874.122	28865.12
874.366	28408.12
874.609	28405.12
874.852	28044.12
875.095	28124.12
875.337	27990.12
875.58	27788.12
875.823	27810.12
876.066	27745.12
876.309	27589.12
876.551	27416.12
876.794	27331.12
877.037	27294.12
877.279	27103.12
877.522	27243.12
877.764	27199.12
878.007	27196.12
878.249	27203.12
878.491	27078.12
878.734	27106.12
878.976	26840.12
879.218	26707.12
879.46	26609.12
879.702	26416.12
879.945	26147.12
880.187	25968.12
880.429	25817.12
880.671	25662.12
880.912	25624.12
881.154	25587.12
881.396	25372.12
881.638	25373.12
881.88	25294.12
882.121	25228.12
882.363	25193.12
882.605	25111.12
882.846	25092.12
883.088	25129.12
883.329	24963.12
883.571	24909.12
883.812	24901.12
884.053	25047.12
884.295	25280.12
884.536	25493.12
884.777	25322.12
885.018	25190.12
885.259	25065.12
885.5	25035.12
885.742	25125.12
885.982	24895.12
886.223	24725.12
886.464	24681.12
886.705	24436.12
886.946	24349.12
887.187	24057.12
887.428	23813.12
887.668	23385.12
887.909	23301.12
888.15	23099.12
888.39	23025.12
888.631	22816.12
888.871	22601.12
889.111	22512.12
889.352	22350.12
889.592	22055.12
889.833	21975.12
890.073	21808.12
890.313	21707.12
890.553	21419.12
890.793	21440.12
891.033	21405.12
891.273	21099.12
891.513	21253.12
891.753	21174.12
891.993	21049.12
892.233	21003.12
892.473	21071.12
892.713	21134.12
892.952	21011.12
893.192	21056.12
893.432	20962.12
893.671	20975.12
893.911	20680.12
894.15	20734.12
894.39	20463.12
894.629	20388.12
894.869	20238.12
895.108	20155.12
895.347	19994.12
895.587	20001.12
895.826	19873.12
896.065	19680.12
896.304	19745.12
896.543	19694.12
896.782	19622.12
897.021	19576.12
897.26	19486.12
897.499	19455.12
897.738	19395.12
897.977	19151.12
898.216	19100.12
898.454	19050.12
898.693	18767.12
898.932	18827.12
899.17	18734.12
899.409	18608.12
899.647	18546.12
899.886	18572.12
900.124	18494.12
900.363	18511.12
900.601	18494.12
900.839	18571.12
901.078	18553.12
901.316	18533.12
901.554	18596.12
901.792	18648.12
902.03	18535.12
902.268	18555.12
902.506	18475.12
902.744	18319.12
902.982	18190.12
903.22	17885.12
903.458	17792.12
903.695	17561.12
903.933	17350.12
904.171	17057.12
904.409	16868.12
904.646	16771.12
904.884	16558.12
905.121	16257.12
905.359	16165.12
905.596	15972.12
905.833	15907.12
906.071	15874.12
906.308	15862.12
906.545	15800.12
906.783	15680.12
907.02	15772.12
907.257	15647.12
907.494	15716.12
907.731	15590.12
907.968	15483.12
908.205	15395.12
908.442	15292.12
908.679	15192.12
908.915	15145.12
909.152	14997.12
909.389	14714.12
909.626	14654.12
909.862	14606.12
910.099	14538.12
910.335	14558.12
910.572	14378.12
910.808	14353.12
911.045	14407.12
911.281	14282.12
911.518	14210.12
911.754	14106.12
911.99	14055.12
912.226	13986.12
912.463	13765.12
912.699	13695.12
912.935	13537.12
913.171	13459.12
913.407	13339.12
913.643	13407.12
913.879	13155.12
914.114	13099.12
914.35	12981.12
914.586	12821.12
914.822	12668.12
915.057	12669.12
915.293	12470.12
915.529	12405.12
915.764	12501.12
916	12364.12
916.235	12444.12
916.471	12326.12
916.706	12238.12
916.941	12321.12
917.177	12268.12
917.412	12269.12
917.647	12190.12
917.882	12082.12
918.117	12223.12
918.352	12079.12
918.588	12135.12
918.823	11937.12
919.057	11917.12
919.292	11623.12
919.527	11626.12
919.762	11487.12
919.997	11457.12
920.232	11143.12
920.466	11239.12
920.701	10951.12
920.935	10894.12
921.17	10899.12
921.405	10795.12
921.639	10822.12
921.873	10716.12
922.108	10698.12
922.342	10691.12
922.576	10690.12
922.811	10601.12
923.045	10595.12
923.279	10553.12
923.513	10357.12
923.747	10422.12
923.981	10324.12
924.215	10261.12
924.449	10177.12
924.683	9990.12
924.917	9978.12
925.151	9913.12
925.385	10034.12
925.618	9945.12
925.852	9878.12
926.086	9893.12
926.319	9937.12
926.553	9815.12
926.786	9796.12
927.02	9766.12
927.253	9789.12
927.486	9778.12
927.72	9663.12
927.953	9778.12
928.186	9648.12
928.42	9666.12
928.653	9496.12
928.886	9525.12
929.119	9576.12
929.352	9452.12
929.585	9470.12
929.818	9238.12
930.051	9170.12
930.284	9131.12
930.516	9010.12
930.749	8971.12
930.982	8920.12
931.215	8881.12
931.447	8825.12
931.68	8832.12
931.912	8762.12
932.145	8787.12
932.377	8781.12
932.61	8872.12
932.842	8730.12
933.074	8748.12
933.307	8746.12
933.539	8873.12
933.771	8775.12
934.003	8744.12
934.236	8798.12
934.468	8838.12
934.7	8603.12
934.932	8691.12
935.164	8516.12
935.395	8484.12
935.627	8562.12
935.859	8584.12
936.091	8431.12
936.323	8524.12
936.554	8466.12
936.786	8424.12
937.017	8319.12
937.249	8355.12
937.481	8221.12
937.712	8250.12
937.943	8244.12
938.175	8239.12
938.406	8217.12
938.637	8197.12
938.869	8176.12
939.1	8179.12
939.331	8092.12
939.562	8166.12
939.793	8030.12
940.024	8095.12
940.255	8043.12
940.486	7896.12
940.717	7908.12
940.948	7847.12
941.179	7788.12
941.409	7857.12
941.64	7814.12
941.871	7786.12
942.102	7759.12
942.332	7788.12
942.563	7824.12
942.793	7773.12
943.024	7753.12
943.254	7739.12
943.484	7834.12
943.715	7795.12
943.945	7752.12
944.175	7690.12
944.405	7629.12
944.636	7663.12
944.866	7637.12
945.096	7699.12
945.326	7562.12
945.556	7579.12
945.786	7564.12
946.016	7521.12
946.245	7345.12
946.475	7337.12
946.705	7351.12
946.935	7309.12
947.164	7178.12
947.394	7180.12
947.624	7153.12
947.853	7230.12
948.083	7121.12
948.312	7099.12
948.542	7019.12
948.771	7006.12
949	7023.12
949.23	6951.12
949.459	6975.12
949.688	7078.12
949.917	7032.12
950.146	7004.12
950.375	7082.12
950.604	6918.12
950.833	7009.12
951.062	6911.12
951.291	6920.12
951.52	6860.12
951.749	6902.12
951.978	6748.12
952.206	6759.12
952.435	6695.12
952.664	6780.12
952.892	6776.12
953.121	6732.12
953.349	6702.12
953.578	6663.12
953.806	6680.12
954.035	6494.12
954.263	6595.12
954.491	6451.12
954.719	6480.12
954.948	6434.12
955.176	6410.12
955.404	6269.12
955.632	6358.12
955.86	6324.12
956.088	6280.12
956.316	6325.12
956.544	6282.12
956.772	6175.12
956.999	6108.12
957.227	6178.12
957.455	6126.12
957.683	6126.12
957.91	6008.12
958.138	5953.12
958.365	5987.12
958.593	6007.12
958.82	5899.12
959.048	5914.12
959.275	5945.12
959.502	5881.12
959.73	5877.12
959.957	5832.12
960.184	5839.12
960.411	5786.12
960.638	5880.12
960.865	5787.12
961.092	5826.12
961.319	5709.12
961.546	5788.12
961.773	5774.12
962	5743.12
962.227	5796.12
962.454	5691.12
962.68	5683.12
962.907	5664.12
963.134	5592.12
963.36	5604.12
963.587	5561.12
963.813	5498.12
964.04	5570.12
964.266	5442.12
964.493	5433.12
964.719	5429.12
964.945	5416.12
965.171	5268.12
965.398	5304.12
965.624	5267.12
965.85	5168.12
966.076	5162.12
966.302	5162.12
966.528	5199.12
966.754	5159.12
966.98	5166.12
967.206	5111.12
967.431	5100.12
967.657	5147.12
967.883	5099.12
968.109	5096.12
968.334	4983.12
968.56	4999.12
968.785	4975.12
969.011	4950.12
969.236	4992.12
969.462	4965.12
969.687	4930.12
969.912	4942.12
970.138	4931.12
970.363	4896.12
970.588	4916.12
970.813	4830.12
971.038	4796.12
971.263	4837.12
971.488	4847.12
971.713	4863.12
971.938	4749.12
972.163	4682.12
972.388	4681.12
972.613	4649.12
972.838	4658.12
973.062	4599.12
973.287	4606.12
973.512	4520.12
973.736	4528.12
973.961	4490.12
974.185	4425.12
974.41	4498.12
974.634	4402.12
974.858	4373.12
975.083	4398.12
975.307	4393.12
975.531	4325.12
975.755	4278.12
975.98	4221.12
976.204	4225.12
976.428	4182.12
976.652	4190.12
976.876	4126.12
977.1	4187.12
977.324	4123.12
977.547	4117.12
977.771	4140.12
977.995	4121.12
978.219	4060.12
978.442	4142.12
978.666	4086.12
978.89	4047.12
979.113	4040.12
979.337	4026.12
979.56	3982.12
979.783	4018.12
980.007	3915.12
980.23	3932.12
980.453	3918.12
980.677	3911.12
980.9	3887.12
981.123	3761.12
981.346	3820.12
981.569	3831.12
981.792	3854.12
982.015	3775.12
982.238	3732.12
982.461	3763.12
982.684	3688.12
982.907	3648.12
983.129	3632.12
983.352	3689.12
983.575	3684.12
983.797	3627.12
984.02	3539.12
984.242	3563.12
984.465	3570.12
984.687	3587.12
984.91	3571.12
985.132	3584.12
985.354	3557.12
985.577	3516.12
985.799	3467.12
986.021	3412.12
986.243	3446.12
986.465	3412.12
986.687	3447.12
986.909	3438.12
987.131	3417.12
987.353	3348.12
987.575	3413.12
987.797	3366.12
988.019	3319.12
988.241	3336.12
988.462	3311.12
988.684	3322.12
988.906	3387.12
989.127	3361.12
989.349	3258.12
989.57	3247.12
989.792	3332.12
990.013	3314.12
990.234	3299.12
990.456	3256.12
990.677	3254.12
990.898	3185.12
991.119	3181.12
991.341	3201.12
991.562	3091.12
991.783	3156.12
992.004	3091.12
992.225	3050.12
992.446	3084.12
992.667	3017.12
992.887	3097.12
993.108	2941.12
993.329	3093.12
993.55	2978.12
993.77	2946.12
993.991	2913.12
994.212	2951.12
994.432	2935.12
994.653	2906.12
994.873	2886.12
995.093	2779.12
995.314	2769.12
995.534	2869.12
995.754	2861.12
995.975	2897.12
996.195	2778.12
996.415	2836.12
996.635	2841.12
996.855	2831.12
997.075	2768.12
997.295	2769.12
997.515	2714.12
997.735	2783.12
997.955	2757.12
998.174	2741.12
998.394	2713.12
998.614	2720.12
998.834	2695.12
999.053	2760.12
999.273	2760.12
999.492	2742.12
999.712	2701.12
999.931	2648.12
1000.151	2691.12
1000.37	2659.12
1000.589	2673.12
1000.809	2645.12
1001.028	2703.12
1001.247	2678.12
1001.466	2845.12
1001.685	2697.12
1001.904	2572.12
1002.123	2522.12
1002.342	2524.12
1002.561	2508.12
1002.78	2496.12
1002.999	2551.12
1003.218	2469.12
1003.436	2458.12
1003.655	2477.12
1003.874	2445.12
1004.092	2437.12
1004.311	2496.12
1004.53	2413.12
1004.748	2453.12
1004.966	2412.12
1005.185	2459.12
1005.403	2455.12
1005.622	2409.12
1005.84	2454.12
1006.058	2350.12
1006.276	2364.12
1006.494	2760.12
1006.712	2383.12
1006.931	2436.12
1007.149	2378.12
1007.367	2353.12
1007.584	2392.12
1007.802	2449.12
1008.02	2348.12
1008.238	2468.12
1008.456	2460.12
1008.673	2303.12
1008.891	2419.12
1009.109	2403.12
1009.326	2420.12
1009.544	2523.12
1009.761	2409.12
1009.979	2498.12
1010.196	2524.12
1010.413	2634.12
1010.631	2687.12
1010.848	2751.12
1011.065	2727.12
1011.282	2649.12
1011.5	2578.12
1011.717	2688.12
1011.934	2667.12
1012.151	2671.12
1012.368	2629.12
1012.585	2616.12
1012.801	2619.12
1013.018	2585.12
1013.235	2571.12
1013.452	2625.12
1013.669	2603.12
1013.885	2566.12
1014.102	2595.12
1014.318	2554.12
1014.535	2543.12
1014.751	2584.12
1014.968	2513.12
1015.184	2547.12
1015.401	2458.12
1015.617	2494.12
1015.833	2417.12
1016.049	2426.12
1016.266	2407.12
1016.482	2379.12
1016.698	2321.12
1016.914	2360.12
1017.13	2306.12
1017.346	2287.12
1017.562	2353.12
1017.778	2289.12
1017.993	2263.12
1018.209	2296.12
1018.425	2267.12
1018.641	2239.12
1018.856	2248.12
1019.072	2252.12
1019.288	2262.12
1019.503	2255.12
1019.719	2167.12
1019.934	2153.12
1020.149	2217.12
1020.365	2132.12
1020.58	2082.12
1020.795	2155.12
1021.011	2047.12
1021.226	2019.12
1021.441	2034.12
1021.656	1954.12
1021.871	1860.12
1022.086	1845.12
1022.301	1833.12
1022.516	1804.12
1022.731	1848.12
1022.946	1750.12
1023.16	1730.12
1023.375	1669.12
1023.59	1681.12
1023.804	1623.12
1024.019	1705.12
1024.234	1558.12
1024.448	1618.12
1024.663	1517.12
1024.877	1532.12
1025.092	1508.12
1025.306	1538.12
1025.52	1409.12
1025.734	1489.12
1025.949	1398.12
1026.163	1338.12
1026.377	1310.12
1026.591	1345.12
1026.805	1245.12
1027.019	1258.12
1027.233	1208.12
1027.447	1152.12
1027.661	1245.12
1027.875	1165.12
1028.088	1187.12
1028.302	1101.12
1028.516	1083.12
1028.73	1057.12
1028.943	1054.12
1029.157	985.12
1029.37	910.12
1029.584	-1.88
1029.797	-1.88
1030.011	1.12
1030.224	-1.88
