Data from QEP037381__174__14-12-45-948.txt Node

Date: Fri Apr 28 14:12:45 EDT 2023
User: dcclab
Spectrometer: QEP03738
Trigger mode: 4
Integration Time (sec): 1.000000E1
Scans to average: 1
Electric dark correction enabled: true
Nonlinearity correction enabled: false
Boxcar width: 0
XAxis mode: Wavelengths
Number of Pixels in Spectrum: 1044
>>>>>Begin Spectral Data<<<<<
784.041	11.25
784.3	1.25
784.558	-1.75
784.817	-1.75
785.075	82261.25
785.334	16203.25
785.592	8405.25
785.851	5869.25
786.109	4454.25
786.368	3499.25
786.626	2789.25
786.884	2304.25
787.143	1949.25
787.401	1605.25
787.659	1434.25
787.917	1238.25
788.175	1139.25
788.433	984.25
788.691	864.25
788.949	800.25
789.207	760.25
789.465	668.25
789.723	627.25
789.98	582.25
790.238	612.25
790.496	583.25
790.753	571.25
791.011	589.25
791.268	525.25
791.526	528.25
791.783	532.25
792.041	510.25
792.298	411.25
792.556	490.25
792.813	481.25
793.07	452.25
793.327	429.25
793.584	499.25
793.841	425.25
794.099	450.25
794.356	512.25
794.613	418.25
794.869	451.25
795.126	413.25
795.383	401.25
795.64	402.25
795.897	357.25
796.153	428.25
796.41	409.25
796.667	393.25
796.923	392.25
797.18	395.25
797.436	434.25
797.693	382.25
797.949	444.25
798.206	459.25
798.462	383.25
798.718	446.25
798.974	411.25
799.231	448.25
799.487	436.25
799.743	442.25
799.999	468.25
800.255	445.25
800.511	438.25
800.767	485.25
801.023	471.25
801.279	486.25
801.534	499.25
801.79	544.25
802.046	574.25
802.302	679.25
802.557	760.25
802.813	944.25
803.068	1115.25
803.324	1555.25
803.579	2056.25
803.835	2806.25
804.09	3785.25
804.345	4748.25
804.601	5702.25
804.856	6644.25
805.111	7401.25
805.366	7824.25
805.621	8144.25
805.876	8443.25
806.131	8523.25
806.386	8655.25
806.641	8773.25
806.896	8869.25
807.151	9080.25
807.406	9114.25
807.661	9260.25
807.915	9419.25
808.17	9515.25
808.425	9537.25
808.679	9672.25
808.934	9808.25
809.188	9784.25
809.443	9986.25
809.697	10118.25
809.951	10101.25
810.206	10153.25
810.46	10289.25
810.714	10270.25
810.968	10491.25
811.223	10491.25
811.477	10610.25
811.731	10657.25
811.985	10632.25
812.239	10619.25
812.493	10724.25
812.747	10701.25
813	10722.25
813.254	10835.25
813.508	10850.25
813.762	10865.25
814.015	10867.25
814.269	10989.25
814.522	11021.25
814.776	11127.25
815.03	11256.25
815.283	11260.25
815.536	11487.25
815.79	11695.25
816.043	11768.25
816.296	11966.25
816.55	12134.25
816.803	12199.25
817.056	12415.25
817.309	12449.25
817.562	12475.25
817.815	12705.25
818.068	12762.25
818.321	12848.25
818.574	12988.25
818.827	13160.25
819.079	13374.25
819.332	13602.25
819.585	13816.25
819.838	14016.25
820.09	13999.25
820.343	14021.25
820.595	14086.25
820.848	14196.25
821.1	14278.25
821.353	14154.25
821.605	14160.25
821.857	14171.25
822.11	14001.25
822.362	14101.25
822.614	14048.25
822.866	14160.25
823.118	14085.25
823.37	14254.25
823.622	14301.25
823.874	14340.25
824.126	14418.25
824.378	14252.25
824.63	14261.25
824.882	14262.25
825.134	14306.25
825.385	14279.25
825.637	14170.25
825.888	14126.25
826.14	14146.25
826.392	14007.25
826.643	13984.25
826.895	13938.25
827.146	13793.25
827.397	13711.25
827.649	13767.25
827.9	13659.25
828.151	13703.25
828.402	13754.25
828.653	13804.25
828.905	13842.25
829.156	13900.25
829.407	13885.25
829.658	13924.25
829.909	14139.25
830.159	14134.25
830.41	14059.25
830.661	13839.25
830.912	13687.25
831.162	13625.25
831.413	13642.25
831.664	13696.25
831.914	13602.25
832.165	13615.25
832.415	13603.25
832.666	13584.25
832.916	13639.25
833.167	13588.25
833.417	13583.25
833.667	13460.25
833.917	13534.25
834.168	13426.25
834.418	13441.25
834.668	13356.25
834.918	13265.25
835.168	13262.25
835.418	13084.25
835.668	13169.25
835.918	13125.25
836.167	13082.25
836.417	12983.25
836.667	13005.25
836.917	13048.25
837.166	12984.25
837.416	13052.25
837.666	13034.25
837.915	13035.25
838.165	12976.25
838.414	12826.25
838.663	12789.25
838.913	12942.25
839.162	12815.25
839.411	12894.25
839.661	12882.25
839.91	12883.25
840.159	12822.25
840.408	12816.25
840.657	12814.25
840.906	12784.25
841.155	12752.25
841.404	12745.25
841.653	12772.25
841.902	12803.25
842.15	12798.25
842.399	12898.25
842.648	12877.25
842.897	12831.25
843.145	12767.25
843.394	12534.25
843.642	12509.25
843.891	12462.25
844.139	12322.25
844.388	12232.25
844.636	12145.25
844.884	12155.25
845.133	12167.25
845.381	12234.25
845.629	12199.25
845.877	12221.25
846.125	12226.25
846.373	12116.25
846.621	12033.25
846.869	12058.25
847.117	11971.25
847.365	11928.25
847.613	11857.25
847.861	11857.25
848.108	11918.25
848.356	11885.25
848.604	11815.25
848.851	11867.25
849.099	11829.25
849.346	11845.25
849.594	11946.25
849.841	11970.25
850.089	11942.25
850.336	11891.25
850.583	11895.25
850.831	11871.25
851.078	11798.25
851.325	11854.25
851.572	11897.25
851.819	11703.25
852.066	11468.25
852.313	11280.25
852.56	11268.25
852.807	11183.25
853.054	11154.25
853.301	11113.25
853.548	11101.25
853.794	11306.25
854.041	11348.25
854.288	11389.25
854.534	11520.25
854.781	11534.25
855.028	11410.25
855.274	11578.25
855.52	11476.25
855.767	11514.25
856.013	11736.25
856.26	11844.25
856.506	11337.25
856.752	11281.25
856.998	11276.25
857.244	11306.25
857.49	11413.25
857.736	11452.25
857.982	11445.25
858.228	11278.25
858.474	11127.25
858.72	11031.25
858.966	10899.25
859.212	10779.25
859.458	10807.25
859.703	10597.25
859.949	10514.25
860.195	10451.25
860.44	10457.25
860.686	10448.25
860.931	10476.25
861.177	10381.25
861.422	10249.25
861.667	10193.25
861.913	10066.25
862.158	10083.25
862.403	10152.25
862.648	10131.25
862.893	10089.25
863.138	10049.25
863.384	10055.25
863.629	10129.25
863.873	10143.25
864.118	10005.25
864.363	9995.25
864.608	9934.25
864.853	9818.25
865.098	9732.25
865.342	9745.25
865.587	9676.25
865.832	9672.25
866.076	9705.25
866.321	9630.25
866.565	9626.25
866.81	9483.25
867.054	9584.25
867.298	9503.25
867.543	9459.25
867.787	9506.25
868.031	9520.25
868.275	9488.25
868.519	9520.25
868.764	9474.25
869.008	9444.25
869.252	9558.25
869.496	9486.25
869.739	9506.25
869.983	9516.25
870.227	9551.25
870.471	9528.25
870.715	9586.25
870.958	9634.25
871.202	9661.25
871.446	9576.25
871.689	9658.25
871.933	9679.25
872.176	9649.25
872.42	9584.25
872.663	9609.25
872.906	9713.25
873.15	9761.25
873.393	9812.25
873.636	9862.25
873.879	9726.25
874.122	9605.25
874.366	9230.25
874.609	9160.25
874.852	9083.25
875.095	9008.25
875.337	8924.25
875.58	8804.25
875.823	8860.25
876.066	8818.25
876.309	8832.25
876.551	8676.25
876.794	8616.25
877.037	8704.25
877.279	8600.25
877.522	8579.25
877.764	8576.25
878.007	8509.25
878.249	8527.25
878.491	8505.25
878.734	8475.25
878.976	8463.25
879.218	8294.25
879.46	8402.25
879.702	8281.25
879.945	8158.25
880.187	8074.25
880.429	8038.25
880.671	7989.25
880.912	7897.25
881.154	7888.25
881.396	7824.25
881.638	7933.25
881.88	7874.25
882.121	7902.25
882.363	7907.25
882.605	7972.25
882.846	7964.25
883.088	7983.25
883.329	8079.25
883.571	8205.25
883.812	8527.25
884.053	8821.25
884.295	9240.25
884.536	9426.25
884.777	9264.25
885.018	9115.25
885.259	8975.25
885.5	8805.25
885.742	8982.25
885.982	8729.25
886.223	8664.25
886.464	8478.25
886.705	8357.25
886.946	8186.25
887.187	7920.25
887.428	7791.25
887.668	7518.25
887.909	7402.25
888.15	7232.25
888.39	7232.25
888.631	7202.25
888.871	7050.25
889.111	7036.25
889.352	6929.25
889.592	6871.25
889.833	6828.25
890.073	6761.25
890.313	6791.25
890.553	6623.25
890.793	6616.25
891.033	6561.25
891.273	6481.25
891.513	6560.25
891.753	6548.25
891.993	6491.25
892.233	6492.25
892.473	6631.25
892.713	6591.25
892.952	6518.25
893.192	6519.25
893.432	6481.25
893.671	6487.25
893.911	6446.25
894.15	6396.25
894.39	6272.25
894.629	6316.25
894.869	6224.25
895.108	6241.25
895.347	6223.25
895.587	6208.25
895.826	6186.25
896.065	6152.25
896.304	6157.25
896.543	6177.25
896.782	6038.25
897.021	6119.25
897.26	6125.25
897.499	6173.25
897.738	6114.25
897.977	6057.25
898.216	5993.25
898.454	5986.25
898.693	5890.25
898.932	5948.25
899.17	5874.25
899.409	5824.25
899.647	5916.25
899.886	5861.25
900.124	5921.25
900.363	5867.25
900.601	5910.25
900.839	5940.25
901.078	6015.25
901.316	6054.25
901.554	6069.25
901.792	6116.25
902.03	6130.25
902.268	6117.25
902.506	6144.25
902.744	6121.25
902.982	6022.25
903.22	5856.25
903.458	5745.25
903.695	5672.25
903.933	5607.25
904.171	5439.25
904.409	5352.25
904.646	5328.25
904.884	5219.25
905.121	5256.25
905.359	5172.25
905.596	5095.25
905.833	5017.25
906.071	5002.25
906.308	4998.25
906.545	4958.25
906.783	4892.25
907.02	4977.25
907.257	4924.25
907.494	4883.25
907.731	4960.25
907.968	4929.25
908.205	4903.25
908.442	4860.25
908.679	4811.25
908.915	4792.25
909.152	4721.25
909.389	4649.25
909.626	4648.25
909.862	4566.25
910.099	4661.25
910.335	4633.25
910.572	4524.25
910.808	4573.25
911.045	4533.25
911.281	4470.25
911.518	4517.25
911.754	4375.25
911.99	4428.25
912.226	4384.25
912.463	4348.25
912.699	4328.25
912.935	4303.25
913.171	4254.25
913.407	4239.25
913.643	4316.25
913.879	4160.25
914.114	4148.25
914.35	4061.25
914.586	4101.25
914.822	4012.25
915.057	4061.25
915.293	3922.25
915.529	3945.25
915.764	4042.25
916	3998.25
916.235	3955.25
916.471	3984.25
916.706	3885.25
916.941	3897.25
917.177	3898.25
917.412	3927.25
917.647	3926.25
917.882	3848.25
918.117	3917.25
918.352	3886.25
918.588	3897.25
918.823	3831.25
919.057	3805.25
919.292	3700.25
919.527	3782.25
919.762	3651.25
919.997	3727.25
920.232	3601.25
920.466	3634.25
920.701	3510.25
920.935	3617.25
921.17	3499.25
921.405	3477.25
921.639	3533.25
921.873	3441.25
922.108	3522.25
922.342	3512.25
922.576	3416.25
922.811	3383.25
923.045	3497.25
923.279	3477.25
923.513	3349.25
923.747	3451.25
923.981	3358.25
924.215	3322.25
924.449	3340.25
924.683	3242.25
924.917	3288.25
925.151	3261.25
925.385	3321.25
925.618	3232.25
925.852	3255.25
926.086	3199.25
926.319	3254.25
926.553	3193.25
926.786	3223.25
927.02	3243.25
927.253	3223.25
927.486	3234.25
927.72	3137.25
927.953	3201.25
928.186	3175.25
928.42	3167.25
928.653	3116.25
928.886	3116.25
929.119	3123.25
929.352	3115.25
929.585	3080.25
929.818	3053.25
930.051	3053.25
930.284	3056.25
930.516	2931.25
930.749	2971.25
930.982	2986.25
931.215	2971.25
931.447	2913.25
931.68	2939.25
931.912	2904.25
932.145	2913.25
932.377	2929.25
932.61	3018.25
932.842	2849.25
933.074	2916.25
933.307	2888.25
933.539	3000.25
933.771	2959.25
934.003	2880.25
934.236	2950.25
934.468	2990.25
934.7	2867.25
934.932	2924.25
935.164	2865.25
935.395	2827.25
935.627	2861.25
935.859	2840.25
936.091	2794.25
936.323	2856.25
936.554	2887.25
936.786	2810.25
937.017	2749.25
937.249	2801.25
937.481	2723.25
937.712	2757.25
937.943	2770.25
938.175	2717.25
938.406	2789.25
938.637	2831.25
938.869	2713.25
939.1	2778.25
939.331	2699.25
939.562	2737.25
939.793	2737.25
940.024	2776.25
940.255	2736.25
940.486	2687.25
940.717	2664.25
940.948	2667.25
941.179	2606.25
941.409	2637.25
941.64	2641.25
941.871	2647.25
942.102	2665.25
942.332	2611.25
942.563	2661.25
942.793	2588.25
943.024	2565.25
943.254	2616.25
943.484	2641.25
943.715	2655.25
943.945	2591.25
944.175	2546.25
944.405	2542.25
944.636	2537.25
944.866	2604.25
945.096	2583.25
945.326	2514.25
945.556	2590.25
945.786	2582.25
946.016	2553.25
946.245	2490.25
946.475	2510.25
946.705	2515.25
946.935	2494.25
947.164	2475.25
947.394	2480.25
947.624	2515.25
947.853	2510.25
948.083	2439.25
948.312	2441.25
948.542	2395.25
948.771	2377.25
949	2387.25
949.23	2397.25
949.459	2393.25
949.688	2470.25
949.917	2413.25
950.146	2416.25
950.375	2443.25
950.604	2330.25
950.833	2422.25
951.062	2413.25
951.291	2406.25
951.52	2352.25
951.749	2369.25
951.978	2355.25
952.206	2314.25
952.435	2310.25
952.664	2384.25
952.892	2352.25
953.121	2345.25
953.349	2359.25
953.578	2326.25
953.806	2324.25
954.035	2263.25
954.263	2274.25
954.491	2203.25
954.719	2294.25
954.948	2191.25
955.176	2225.25
955.404	2136.25
955.632	2219.25
955.86	2228.25
956.088	2208.25
956.316	2231.25
956.544	2260.25
956.772	2177.25
956.999	2166.25
957.227	2217.25
957.455	2154.25
957.683	2155.25
957.91	2097.25
958.138	2096.25
958.365	2132.25
958.593	2107.25
958.82	2071.25
959.048	2105.25
959.275	2106.25
959.502	2096.25
959.73	2053.25
959.957	2116.25
960.184	2082.25
960.411	2022.25
960.638	2136.25
960.865	2054.25
961.092	2128.25
961.319	2004.25
961.546	2077.25
961.773	2097.25
962	2023.25
962.227	2077.25
962.454	2050.25
962.68	2008.25
962.907	2033.25
963.134	1975.25
963.36	2003.25
963.587	2034.25
963.813	1985.25
964.04	1993.25
964.266	1962.25
964.493	2015.25
964.719	2013.25
964.945	1985.25
965.171	1899.25
965.398	1973.25
965.624	1981.25
965.85	1892.25
966.076	1891.25
966.302	1941.25
966.528	1910.25
966.754	1921.25
966.98	1932.25
967.206	1915.25
967.431	1835.25
967.657	1925.25
967.883	1899.25
968.109	1905.25
968.334	1842.25
968.56	1816.25
968.785	1861.25
969.011	1788.25
969.236	1870.25
969.462	1793.25
969.687	1800.25
969.912	1860.25
970.138	1896.25
970.363	1787.25
970.588	1813.25
970.813	1812.25
971.038	1785.25
971.263	1822.25
971.488	1833.25
971.713	1836.25
971.938	1834.25
972.163	1697.25
972.388	1757.25
972.613	1761.25
972.838	1753.25
973.062	1734.25
973.287	1737.25
973.512	1673.25
973.736	1709.25
973.961	1718.25
974.185	1683.25
974.41	1724.25
974.634	1641.25
974.858	1652.25
975.083	1688.25
975.307	1733.25
975.531	1656.25
975.755	1605.25
975.98	1603.25
976.204	1571.25
976.428	1560.25
976.652	1586.25
976.876	1562.25
977.1	1560.25
977.324	1556.25
977.547	1597.25
977.771	1606.25
977.995	1564.25
978.219	1508.25
978.442	1643.25
978.666	1565.25
978.89	1566.25
979.113	1608.25
979.337	1537.25
979.56	1531.25
979.783	1624.25
980.007	1522.25
980.23	1543.25
980.453	1518.25
980.677	1544.25
980.9	1544.25
981.123	1438.25
981.346	1518.25
981.569	1499.25
981.792	1516.25
982.015	1493.25
982.238	1472.25
982.461	1485.25
982.684	1473.25
982.907	1430.25
983.129	1434.25
983.352	1506.25
983.575	1477.25
983.797	1489.25
984.02	1416.25
984.242	1427.25
984.465	1447.25
984.687	1465.25
984.91	1490.25
985.132	1476.25
985.354	1473.25
985.577	1438.25
985.799	1459.25
986.021	1344.25
986.243	1394.25
986.465	1405.25
986.687	1450.25
986.909	1514.25
987.131	1401.25
987.353	1390.25
987.575	1444.25
987.797	1388.25
988.019	1341.25
988.241	1387.25
988.462	1344.25
988.684	1450.25
988.906	1426.25
989.127	1451.25
989.349	1335.25
989.57	1385.25
989.792	1401.25
990.013	1427.25
990.234	1452.25
990.456	1458.25
990.677	1438.25
990.898	1373.25
991.119	1370.25
991.341	1419.25
991.562	1349.25
991.783	1383.25
992.004	1331.25
992.225	1275.25
992.446	1374.25
992.667	1278.25
992.887	1371.25
993.108	1259.25
993.329	1404.25
993.55	1329.25
993.77	1285.25
993.991	1300.25
994.212	1311.25
994.432	1323.25
994.653	1304.25
994.873	1316.25
995.093	1215.25
995.314	1273.25
995.534	1331.25
995.754	1351.25
995.975	1375.25
996.195	1286.25
996.415	1332.25
996.635	1307.25
996.855	1342.25
997.075	1309.25
997.295	1316.25
997.515	1296.25
997.735	1354.25
997.955	1287.25
998.174	1316.25
998.394	1285.25
998.614	1321.25
998.834	1271.25
999.053	1371.25
999.273	1320.25
999.492	1367.25
999.712	1290.25
999.931	1241.25
1000.151	1319.25
1000.37	1292.25
1000.589	1346.25
1000.809	1237.25
1001.028	1366.25
1001.247	1313.25
1001.466	1209.25
1001.685	1343.25
1001.904	1265.25
1002.123	1271.25
1002.342	1269.25
1002.561	1223.25
1002.78	1244.25
1002.999	1330.25
1003.218	1274.25
1003.436	1255.25
1003.655	1302.25
1003.874	1231.25
1004.092	1251.25
1004.311	1327.25
1004.53	1297.25
1004.748	1333.25
1004.966	1260.25
1005.185	1327.25
1005.403	1288.25
1005.622	1273.25
1005.84	1354.25
1006.058	1250.25
1006.276	1280.25
1006.494	1653.25
1006.712	1311.25
1006.931	1368.25
1007.149	1288.25
1007.367	1294.25
1007.584	1347.25
1007.802	1367.25
1008.02	1336.25
1008.238	1422.25
1008.456	1447.25
1008.673	1344.25
1008.891	1440.25
1009.109	1411.25
1009.326	1529.25
1009.544	1633.25
1009.761	1566.25
1009.979	1707.25
1010.196	1763.25
1010.413	1896.25
1010.631	2011.25
1010.848	2069.25
1011.065	2059.25
1011.282	2009.25
1011.5	1917.25
1011.717	2031.25
1011.934	1968.25
1012.151	1983.25
1012.368	1942.25
1012.585	1927.25
1012.801	1969.25
1013.018	1962.25
1013.235	1910.25
1013.452	1962.25
1013.669	1972.25
1013.885	2006.25
1014.102	2071.25
1014.318	2060.25
1014.535	1985.25
1014.751	2017.25
1014.968	2002.25
1015.184	1996.25
1015.401	1878.25
1015.617	1919.25
1015.833	1844.25
1016.049	1836.25
1016.266	1831.25
1016.482	1790.25
1016.698	1704.25
1016.914	1740.25
1017.13	1702.25
1017.346	1692.25
1017.562	1725.25
1017.778	1670.25
1017.993	1643.25
1018.209	1666.25
1018.425	1649.25
1018.641	1608.25
1018.856	1603.25
1019.072	1608.25
1019.288	1656.25
1019.503	1631.25
1019.719	1541.25
1019.934	1534.25
1020.149	1624.25
1020.365	1550.25
1020.58	1484.25
1020.795	1528.25
1021.011	1407.25
1021.226	1389.25
1021.441	1410.25
1021.656	1296.25
1021.871	1222.25
1022.086	1207.25
1022.301	1219.25
1022.516	1198.25
1022.731	1263.25
1022.946	1151.25
1023.16	1133.25
1023.375	1089.25
1023.59	1063.25
1023.804	1022.25
1024.019	1105.25
1024.234	955.25
1024.448	1007.25
1024.663	954.25
1024.877	939.25
1025.092	954.25
1025.306	958.25
1025.52	846.25
1025.734	941.25
1025.949	884.25
1026.163	830.25
1026.377	771.25
1026.591	818.25
1026.805	755.25
1027.019	748.25
1027.233	712.25
1027.447	667.25
1027.661	784.25
1027.875	708.25
1028.088	727.25
1028.302	666.25
1028.516	642.25
1028.73	635.25
1028.943	614.25
1029.157	574.25
1029.37	541.25
1029.584	0.25
1029.797	-4.75
1030.011	-1.75
1030.224	-2.75
