Data from QEP037381__558__17-47-46-379.txt Node

Date: Fri Dec 16 17:47:46 EST 2022
User: dcclab
Spectrometer: QEP03738
Trigger mode: 4
Integration Time (sec): 1.000000E1
Scans to average: 1
Electric dark correction enabled: true
Nonlinearity correction enabled: false
Boxcar width: 0
XAxis mode: Wavelengths
Number of Pixels in Spectrum: 1044
>>>>>Begin Spectral Data<<<<<
784.041	12.75
784.3	-0.25
784.558	-2.25
784.817	-3.25
785.075	121463.75
785.334	20748.75
785.592	9653.75
785.851	6636.75
786.109	4969.75
786.368	3868.75
786.626	3126.75
786.884	2573.75
787.143	2155.75
787.401	1774.75
787.659	1635.75
787.917	1368.75
788.175	1265.75
788.433	1076.75
788.691	973.75
788.949	911.75
789.207	853.75
789.465	726.75
789.723	706.75
789.98	647.75
790.238	672.75
790.496	642.75
790.753	609.75
791.011	670.75
791.268	577.75
791.526	559.75
791.783	562.75
792.041	553.75
792.298	460.75
792.556	531.75
792.813	507.75
793.07	471.75
793.327	473.75
793.584	558.75
793.841	465.75
794.099	490.75
794.356	538.75
794.613	460.75
794.869	494.75
795.126	453.75
795.383	421.75
795.64	453.75
795.897	408.75
796.153	479.75
796.41	438.75
796.667	433.75
796.923	446.75
797.18	447.75
797.436	456.75
797.693	423.75
797.949	482.75
798.206	523.75
798.462	431.75
798.718	485.75
798.974	482.75
799.231	505.75
799.487	506.75
799.743	501.75
799.999	544.75
800.255	535.75
800.511	530.75
800.767	566.75
801.023	563.75
801.279	615.75
801.534	645.75
801.79	702.75
802.046	737.75
802.302	913.75
802.557	1028.75
802.813	1279.75
803.068	1593.75
803.324	2223.75
803.579	3049.75
803.835	4258.75
804.09	5871.75
804.345	7797.75
804.601	9884.75
804.856	11998.75
805.111	13804.75
805.366	15376.75
805.621	16401.75
805.876	17115.75
806.131	17624.75
806.386	17976.75
806.641	18319.75
806.896	18489.75
807.151	18888.75
807.406	19167.75
807.661	19538.75
807.915	19737.75
808.17	20074.75
808.425	20385.75
808.679	20323.75
808.934	20638.75
809.188	20905.75
809.443	21149.75
809.697	21375.75
809.951	21457.75
810.206	21667.75
810.46	21907.75
810.714	22079.75
810.968	22204.75
811.223	22428.75
811.477	22487.75
811.731	22807.75
811.985	22761.75
812.239	22897.75
812.493	22965.75
812.747	23105.75
813	23046.75
813.254	23214.75
813.508	23293.75
813.762	23375.75
814.015	23407.75
814.269	23621.75
814.522	23885.75
814.776	24121.75
815.03	24368.75
815.283	24683.75
815.536	25102.75
815.79	25466.75
816.043	25766.75
816.296	26093.75
816.55	26359.75
816.803	26648.75
817.056	26952.75
817.309	27290.75
817.562	27480.75
817.815	27736.75
818.068	27966.75
818.321	28150.75
818.574	28583.75
818.827	28833.75
819.079	29196.75
819.332	29638.75
819.585	29948.75
819.838	30460.75
820.09	30576.75
820.343	30735.75
820.595	31004.75
820.848	31140.75
821.1	31208.75
821.353	31213.75
821.605	31176.75
821.857	31167.75
822.11	31102.75
822.362	30951.75
822.614	30832.75
822.866	30978.75
823.118	30915.75
823.37	30993.75
823.622	31058.75
823.874	31254.75
824.126	31257.75
824.378	31191.75
824.63	31272.75
824.882	31435.75
825.134	31314.75
825.385	31371.75
825.637	31109.75
825.888	31242.75
826.14	31105.75
826.392	30896.75
826.643	30637.75
826.895	30691.75
827.146	30593.75
827.397	30499.75
827.649	30493.75
827.9	30422.75
828.151	30472.75
828.402	30550.75
828.653	30485.75
828.905	30577.75
829.156	30641.75
829.407	30558.75
829.658	30565.75
829.909	30585.75
830.159	30479.75
830.41	30403.75
830.661	30229.75
830.912	29945.75
831.162	29886.75
831.413	29861.75
831.664	29911.75
831.914	29761.75
832.165	29753.75
832.415	29732.75
832.666	29752.75
832.916	29648.75
833.167	29567.75
833.417	29807.75
833.667	29385.75
833.917	29382.75
834.168	29351.75
834.418	29222.75
834.668	29107.75
834.918	28939.75
835.168	28929.75
835.418	28782.75
835.668	28800.75
835.918	28628.75
836.167	28540.75
836.417	28375.75
836.667	28437.75
836.917	28353.75
837.166	28348.75
837.416	28329.75
837.666	28370.75
837.915	28168.75
838.165	28125.75
838.414	27925.75
838.663	27910.75
838.913	27981.75
839.162	27808.75
839.411	27843.75
839.661	27709.75
839.91	27690.75
840.159	27481.75
840.408	27480.75
840.657	27549.75
840.906	27478.75
841.155	27341.75
841.404	27395.75
841.653	27286.75
841.902	27500.75
842.15	27554.75
842.399	27384.75
842.648	27446.75
842.897	27336.75
843.145	26990.75
843.394	26951.75
843.642	26888.75
843.891	26687.75
844.139	26583.75
844.388	26246.75
844.636	26298.75
844.884	26180.75
845.133	26120.75
845.381	26120.75
845.629	26231.75
845.877	26069.75
846.125	26066.75
846.373	26033.75
846.621	25827.75
846.869	25892.75
847.117	25660.75
847.365	25549.75
847.613	25397.75
847.861	25334.75
848.108	25265.75
848.356	25138.75
848.604	25100.75
848.851	25155.75
849.099	25124.75
849.346	25215.75
849.594	25224.75
849.841	25458.75
850.089	25454.75
850.336	25325.75
850.583	25287.75
850.831	25150.75
851.078	25060.75
851.325	24974.75
851.572	24925.75
851.819	24674.75
852.066	24439.75
852.313	24112.75
852.56	23938.75
852.807	23871.75
853.054	23831.75
853.301	23709.75
853.548	23736.75
853.794	23800.75
854.041	23814.75
854.288	23976.75
854.534	24141.75
854.781	24052.75
855.028	23971.75
855.274	23928.75
855.52	23749.75
855.767	23616.75
856.013	23609.75
856.26	23741.75
856.506	23366.75
856.752	23263.75
856.998	23410.75
857.244	23319.75
857.49	23555.75
857.736	23494.75
857.982	23514.75
858.228	23502.75
858.474	23243.75
858.72	23122.75
858.966	22894.75
859.212	22809.75
859.458	22461.75
859.703	22328.75
859.949	22020.75
860.195	21957.75
860.44	21700.75
860.686	21663.75
860.931	21635.75
861.177	21513.75
861.422	21499.75
861.667	21342.75
861.913	21401.75
862.158	21416.75
862.403	21471.75
862.648	21531.75
862.893	21441.75
863.138	21523.75
863.384	21455.75
863.629	21501.75
863.873	21450.75
864.118	21292.75
864.363	21166.75
864.608	21180.75
864.853	20980.75
865.098	20904.75
865.342	20902.75
865.587	20692.75
865.832	20696.75
866.076	20627.75
866.321	20511.75
866.565	20593.75
866.81	20285.75
867.054	20305.75
867.298	20312.75
867.543	20217.75
867.787	20289.75
868.031	20135.75
868.275	20062.75
868.519	20017.75
868.764	19927.75
869.008	19928.75
869.252	19800.75
869.496	19703.75
869.739	19749.75
869.983	19734.75
870.227	19615.75
870.471	19554.75
870.715	19590.75
870.958	19754.75
871.202	19630.75
871.446	19771.75
871.689	19750.75
871.933	19760.75
872.176	19671.75
872.42	19656.75
872.663	19613.75
872.906	19475.75
873.15	19448.75
873.393	19362.75
873.636	19238.75
873.879	19130.75
874.122	19025.75
874.366	18722.75
874.609	18527.75
874.852	18485.75
875.095	18422.75
875.337	18278.75
875.58	18245.75
875.823	18136.75
876.066	18095.75
876.309	18028.75
876.551	17908.75
876.794	17789.75
877.037	17754.75
877.279	17613.75
877.522	17732.75
877.764	17799.75
878.007	17696.75
878.249	17729.75
878.491	17767.75
878.734	17739.75
878.976	17631.75
879.218	17457.75
879.46	17470.75
879.702	17295.75
879.945	17225.75
880.187	16973.75
880.429	16912.75
880.671	16791.75
880.912	16850.75
881.154	16656.75
881.396	16565.75
881.638	16635.75
881.88	16635.75
882.121	16548.75
882.363	16484.75
882.605	16438.75
882.846	16410.75
883.088	16375.75
883.329	16325.75
883.571	16325.75
883.812	16373.75
884.053	16533.75
884.295	16644.75
884.536	16765.75
884.777	16624.75
885.018	16547.75
885.259	16591.75
885.5	16432.75
885.742	16695.75
885.982	16354.75
886.223	16309.75
886.464	16161.75
886.705	15999.75
886.946	16016.75
887.187	15806.75
887.428	15648.75
887.668	15409.75
887.909	15295.75
888.15	15259.75
888.39	15082.75
888.631	15006.75
888.871	14838.75
889.111	14817.75
889.352	14766.75
889.592	14659.75
889.833	14481.75
890.073	14406.75
890.313	14326.75
890.553	14169.75
890.793	14144.75
891.033	14170.75
891.273	13959.75
891.513	13879.75
891.753	13950.75
891.993	13882.75
892.233	13923.75
892.473	14025.75
892.713	13964.75
892.952	13847.75
893.192	13901.75
893.432	13864.75
893.671	13964.75
893.911	13788.75
894.15	13684.75
894.39	13475.75
894.629	13486.75
894.869	13496.75
895.108	13365.75
895.347	13262.75
895.587	13188.75
895.826	13201.75
896.065	13133.75
896.304	13128.75
896.543	13102.75
896.782	13035.75
897.021	13079.75
897.26	12945.75
897.499	12986.75
897.738	12967.75
897.977	12797.75
898.216	12746.75
898.454	12570.75
898.693	12488.75
898.932	12455.75
899.17	12404.75
899.409	12342.75
899.647	12360.75
899.886	12278.75
900.124	12270.75
900.363	12208.75
900.601	12279.75
900.839	12224.75
901.078	12298.75
901.316	12293.75
901.554	12361.75
901.792	12335.75
902.03	12265.75
902.268	12313.75
902.506	12234.75
902.744	12195.75
902.982	12139.75
903.22	11956.75
903.458	11774.75
903.695	11706.75
903.933	11591.75
904.171	11371.75
904.409	11212.75
904.646	11179.75
904.884	11024.75
905.121	10920.75
905.359	10801.75
905.596	10756.75
905.833	10640.75
906.071	10563.75
906.308	10603.75
906.545	10533.75
906.783	10448.75
907.02	10466.75
907.257	10336.75
907.494	10495.75
907.731	10338.75
907.968	10309.75
908.205	10251.75
908.442	10140.75
908.679	10181.75
908.915	10048.75
909.152	10017.75
909.389	9772.75
909.626	9789.75
909.862	9761.75
910.099	9711.75
910.335	9686.75
910.572	9579.75
910.808	9592.75
911.045	9510.75
911.281	9473.75
911.518	9556.75
911.754	9467.75
911.99	9414.75
912.226	9302.75
912.463	9237.75
912.699	9153.75
912.935	9054.75
913.171	8921.75
913.407	8902.75
913.643	8947.75
913.879	8856.75
914.114	8801.75
914.35	8619.75
914.586	8602.75
914.822	8473.75
915.057	8540.75
915.293	8326.75
915.529	8289.75
915.764	8350.75
916	8370.75
916.235	8270.75
916.471	8260.75
916.706	8189.75
916.941	8207.75
917.177	8191.75
917.412	8171.75
917.647	8217.75
917.882	8079.75
918.117	8161.75
918.352	8119.75
918.588	8091.75
918.823	7967.75
919.057	7918.75
919.292	7804.75
919.527	7834.75
919.762	7665.75
919.997	7672.75
920.232	7571.75
920.466	7512.75
920.701	7385.75
920.935	7366.75
921.17	7286.75
921.405	7263.75
921.639	7228.75
921.873	7252.75
922.108	7199.75
922.342	7232.75
922.576	7121.75
922.811	7121.75
923.045	7154.75
923.279	7101.75
923.513	6973.75
923.747	6996.75
923.981	6943.75
924.215	6869.75
924.449	6813.75
924.683	6727.75
924.917	6705.75
925.151	6677.75
925.385	6778.75
925.618	6618.75
925.852	6630.75
926.086	6559.75
926.319	6636.75
926.553	6585.75
926.786	6577.75
927.02	6595.75
927.253	6582.75
927.486	6575.75
927.72	6504.75
927.953	6531.75
928.186	6492.75
928.42	6548.75
928.653	6424.75
928.886	6387.75
929.119	6410.75
929.352	6368.75
929.585	6325.75
929.818	6218.75
930.051	6212.75
930.284	6191.75
930.516	6065.75
930.749	6012.75
930.982	6081.75
931.215	6015.75
931.447	5930.75
931.68	5984.75
931.912	5912.75
932.145	5972.75
932.377	5931.75
932.61	6052.75
932.842	5834.75
933.074	5930.75
933.307	5838.75
933.539	5930.75
933.771	5931.75
934.003	5922.75
934.236	5935.75
934.468	5953.75
934.7	5814.75
934.932	5949.75
935.164	5773.75
935.395	5801.75
935.627	5814.75
935.859	5750.75
936.091	5718.75
936.323	5708.75
936.554	5733.75
936.786	5633.75
937.017	5647.75
937.249	5651.75
937.481	5514.75
937.712	5628.75
937.943	5520.75
938.175	5464.75
938.406	5489.75
938.637	5554.75
938.869	5504.75
939.1	5494.75
939.331	5468.75
939.562	5454.75
939.793	5449.75
940.024	5488.75
940.255	5501.75
940.486	5529.75
940.717	5602.75
940.948	5594.75
941.179	5505.75
941.409	5446.75
941.64	5392.75
941.871	5329.75
942.102	5252.75
942.332	5289.75
942.563	5295.75
942.793	5253.75
943.024	5200.75
943.254	5222.75
943.484	5249.75
943.715	5206.75
943.945	5212.75
944.175	5157.75
944.405	5148.75
944.636	5144.75
944.866	5201.75
945.096	5170.75
945.326	5106.75
945.556	5116.75
945.786	5074.75
946.016	5034.75
946.245	4961.75
946.475	4943.75
946.705	4924.75
946.935	4992.75
947.164	4879.75
947.394	4832.75
947.624	4879.75
947.853	4842.75
948.083	4813.75
948.312	4784.75
948.542	4714.75
948.771	4696.75
949	4694.75
949.23	4715.75
949.459	4722.75
949.688	4744.75
949.917	4700.75
950.146	4672.75
950.375	4743.75
950.604	4650.75
950.833	4693.75
951.062	4709.75
951.291	4648.75
951.52	4608.75
951.749	4561.75
951.978	4559.75
952.206	4590.75
952.435	4556.75
952.664	4560.75
952.892	4560.75
953.121	4520.75
953.349	4478.75
953.578	4469.75
953.806	4456.75
954.035	4394.75
954.263	4359.75
954.491	4336.75
954.719	4392.75
954.948	4324.75
955.176	4303.75
955.404	4215.75
955.632	4265.75
955.86	4292.75
956.088	4268.75
956.316	4261.75
956.544	4280.75
956.772	4163.75
956.999	4092.75
957.227	4191.75
957.455	4114.75
957.683	4129.75
957.91	4081.75
958.138	4048.75
958.365	4021.75
958.593	3994.75
958.82	3960.75
959.048	4035.75
959.275	3946.75
959.502	3975.75
959.73	3892.75
959.957	3973.75
960.184	3964.75
960.411	3881.75
960.638	3929.75
960.865	3888.75
961.092	3937.75
961.319	3811.75
961.546	3942.75
961.773	3901.75
962	3848.75
962.227	3882.75
962.454	3858.75
962.68	3818.75
962.907	3825.75
963.134	3782.75
963.36	3775.75
963.587	3787.75
963.813	3696.75
964.04	3727.75
964.266	3640.75
964.493	3728.75
964.719	3672.75
964.945	3708.75
965.171	3583.75
965.398	3634.75
965.624	3615.75
965.85	3537.75
966.076	3529.75
966.302	3574.75
966.528	3522.75
966.754	3556.75
966.98	3455.75
967.206	3495.75
967.431	3434.75
967.657	3536.75
967.883	3455.75
968.109	3435.75
968.334	3397.75
968.56	3357.75
968.785	3363.75
969.011	3322.75
969.236	3384.75
969.462	3307.75
969.687	3364.75
969.912	3387.75
970.138	3357.75
970.363	3323.75
970.588	3325.75
970.813	3260.75
971.038	3242.75
971.263	3264.75
971.488	3269.75
971.713	3284.75
971.938	3269.75
972.163	3167.75
972.388	3151.75
972.613	3134.75
972.838	3199.75
973.062	3128.75
973.287	3133.75
973.512	3030.75
973.736	3120.75
973.961	3126.75
974.185	3053.75
974.41	3085.75
974.634	2987.75
974.858	2955.75
975.083	3025.75
975.307	3030.75
975.531	2951.75
975.755	2865.75
975.98	2896.75
976.204	2866.75
976.428	2847.75
976.652	2860.75
976.876	2807.75
977.1	2847.75
977.324	2791.75
977.547	2841.75
977.771	2844.75
977.995	2794.75
978.219	2731.75
978.442	2876.75
978.666	2800.75
978.89	2807.75
979.113	2757.75
979.337	2759.75
979.56	2712.75
979.783	2790.75
980.007	2682.75
980.23	2723.75
980.453	2678.75
980.677	2714.75
980.9	2681.75
981.123	2611.75
981.346	2659.75
981.569	2624.75
981.792	2667.75
982.015	2640.75
982.238	2556.75
982.461	2599.75
982.684	2536.75
982.907	2518.75
983.129	2478.75
983.352	2538.75
983.575	2501.75
983.797	2486.75
984.02	2478.75
984.242	2483.75
984.465	2464.75
984.687	2475.75
984.91	2508.75
985.132	2459.75
985.354	2474.75
985.577	2431.75
985.799	2374.75
986.021	2327.75
986.243	2362.75
986.465	2391.75
986.687	2421.75
986.909	2437.75
987.131	2365.75
987.353	2368.75
987.575	2365.75
987.797	2329.75
988.019	2266.75
988.241	2323.75
988.462	2289.75
988.684	2332.75
988.906	2366.75
989.127	2366.75
989.349	2239.75
989.57	2269.75
989.792	2314.75
990.013	2337.75
990.234	2318.75
990.456	2330.75
990.677	2307.75
990.898	2217.75
991.119	2232.75
991.341	2248.75
991.562	2218.75
991.783	2224.75
992.004	2140.75
992.225	2124.75
992.446	2184.75
992.667	2123.75
992.887	2171.75
993.108	2054.75
993.329	2209.75
993.55	2095.75
993.77	2056.75
993.991	2078.75
994.212	2103.75
994.432	2040.75
994.653	2113.75
994.873	2057.75
995.093	1944.75
995.314	1999.75
995.534	2073.75
995.754	2061.75
995.975	2084.75
996.195	1994.75
996.415	1997.75
996.635	1969.75
996.855	2007.75
997.075	1994.75
997.295	1968.75
997.515	1945.75
997.735	2010.75
997.955	1983.75
998.174	1945.75
998.394	1901.75
998.614	1974.75
998.834	1942.75
999.053	1992.75
999.273	1959.75
999.492	2016.75
999.712	1929.75
999.931	1882.75
1000.151	1925.75
1000.37	1898.75
1000.589	1959.75
1000.809	1886.75
1001.028	1990.75
1001.247	1908.75
1001.466	1843.75
1001.685	1945.75
1001.904	1892.75
1002.123	1826.75
1002.342	1851.75
1002.561	1806.75
1002.78	1811.75
1002.999	1888.75
1003.218	1846.75
1003.436	1815.75
1003.655	1848.75
1003.874	1772.75
1004.092	1800.75
1004.311	1808.75
1004.53	1811.75
1004.748	1862.75
1004.966	1785.75
1005.185	1841.75
1005.403	1807.75
1005.622	1790.75
1005.84	1869.75
1006.058	1752.75
1006.276	1785.75
1006.494	2168.75
1006.712	1777.75
1006.931	1836.75
1007.149	1719.75
1007.367	1727.75
1007.584	1768.75
1007.802	1801.75
1008.02	1729.75
1008.238	1835.75
1008.456	1865.75
1008.673	1693.75
1008.891	1754.75
1009.109	1745.75
1009.326	1823.75
1009.544	1893.75
1009.761	1781.75
1009.979	1890.75
1010.196	1866.75
1010.413	1948.75
1010.631	2008.75
1010.848	2006.75
1011.065	2047.75
1011.282	1974.75
1011.5	1958.75
1011.717	2017.75
1011.934	1956.75
1012.151	1992.75
1012.368	1964.75
1012.585	1910.75
1012.801	1954.75
1013.018	1943.75
1013.235	1924.75
1013.452	1901.75
1013.669	1946.75
1013.885	1907.75
1014.102	1960.75
1014.318	1938.75
1014.535	1845.75
1014.751	1888.75
1014.968	1862.75
1015.184	1922.75
1015.401	1812.75
1015.617	1848.75
1015.833	1786.75
1016.049	1790.75
1016.266	1780.75
1016.482	1773.75
1016.698	1711.75
1016.914	1736.75
1017.13	1687.75
1017.346	1684.75
1017.562	1743.75
1017.778	1669.75
1017.993	1627.75
1018.209	1720.75
1018.425	1680.75
1018.641	1638.75
1018.856	1597.75
1019.072	1646.75
1019.288	1719.75
1019.503	1655.75
1019.719	1533.75
1019.934	1574.75
1020.149	1638.75
1020.365	1576.75
1020.58	1525.75
1020.795	1580.75
1021.011	1509.75
1021.226	1480.75
1021.441	1499.75
1021.656	1422.75
1021.871	1349.75
1022.086	1351.75
1022.301	1351.75
1022.516	1343.75
1022.731	1357.75
1022.946	1303.75
1023.16	1294.75
1023.375	1249.75
1023.59	1207.75
1023.804	1206.75
1024.019	1281.75
1024.234	1148.75
1024.448	1186.75
1024.663	1107.75
1024.877	1128.75
1025.092	1147.75
1025.306	1127.75
1025.52	1032.75
1025.734	1105.75
1025.949	1041.75
1026.163	1007.75
1026.377	959.75
1026.591	1015.75
1026.805	922.75
1027.019	929.75
1027.233	886.75
1027.447	844.75
1027.661	945.75
1027.875	856.75
1028.088	861.75
1028.302	785.75
1028.516	776.75
1028.73	786.75
1028.943	775.75
1029.157	729.75
1029.37	672.75
1029.584	-2.25
1029.797	-3.25
1030.011	-0.25
1030.224	-1.25
