Data from QEP037381__571__17-49-56-382.txt Node

Date: Fri Dec 16 17:49:56 EST 2022
User: dcclab
Spectrometer: QEP03738
Trigger mode: 4
Integration Time (sec): 1.000000E1
Scans to average: 1
Electric dark correction enabled: true
Nonlinearity correction enabled: false
Boxcar width: 0
XAxis mode: Wavelengths
Number of Pixels in Spectrum: 1044
>>>>>Begin Spectral Data<<<<<
784.041	13.38
784.3	5.38
784.558	-6.62
784.817	-1.62
785.075	121841.38
785.334	20539.38
785.592	9381.38
785.851	6447.38
786.109	4901.38
786.368	3791.38
786.626	3063.38
786.884	2495.38
787.143	2109.38
787.401	1733.38
787.659	1541.38
787.917	1325.38
788.175	1233.38
788.433	1065.38
788.691	967.38
788.949	892.38
789.207	844.38
789.465	738.38
789.723	689.38
789.98	656.38
790.238	657.38
790.496	632.38
790.753	609.38
791.011	667.38
791.268	590.38
791.526	577.38
791.783	584.38
792.041	562.38
792.298	476.38
792.556	528.38
792.813	533.38
793.07	505.38
793.327	487.38
793.584	560.38
793.841	492.38
794.099	497.38
794.356	558.38
794.613	459.38
794.869	499.38
795.126	463.38
795.383	442.38
795.64	461.38
795.897	414.38
796.153	465.38
796.41	461.38
796.667	431.38
796.923	456.38
797.18	455.38
797.436	478.38
797.693	448.38
797.949	482.38
798.206	523.38
798.462	431.38
798.718	500.38
798.974	492.38
799.231	514.38
799.487	509.38
799.743	532.38
799.999	550.38
800.255	554.38
800.511	529.38
800.767	570.38
801.023	580.38
801.279	619.38
801.534	664.38
801.79	711.38
802.046	776.38
802.302	911.38
802.557	1055.38
802.813	1308.38
803.068	1633.38
803.324	2292.38
803.579	3195.38
803.835	4522.38
804.09	6303.38
804.345	8345.38
804.601	10715.38
804.856	13015.38
805.111	15116.38
805.366	16617.38
805.621	17744.38
805.876	18516.38
806.131	18986.38
806.386	19232.38
806.641	19565.38
806.896	19886.38
807.151	20231.38
807.406	20597.38
807.661	20892.38
807.915	21263.38
808.17	21531.38
808.425	21883.38
808.679	21896.38
808.934	22187.38
809.188	22412.38
809.443	22622.38
809.697	22903.38
809.951	23054.38
810.206	23126.38
810.46	23346.38
810.714	23580.38
810.968	23852.38
811.223	23962.38
811.477	24209.38
811.731	24313.38
811.985	24468.38
812.239	24583.38
812.493	24778.38
812.747	24737.38
813	24880.38
813.254	24939.38
813.508	25046.38
813.762	25108.38
814.015	25194.38
814.269	25260.38
814.522	25723.38
814.776	25829.38
815.03	26157.38
815.283	26487.38
815.536	26902.38
815.79	27276.38
816.043	27657.38
816.296	28062.38
816.55	28350.38
816.803	28651.38
817.056	28945.38
817.309	29219.38
817.562	29388.38
817.815	29776.38
818.068	29960.38
818.321	30226.38
818.574	30513.38
818.827	31033.38
819.079	31404.38
819.332	31928.38
819.585	32338.38
819.838	32627.38
820.09	32853.38
820.343	33161.38
820.595	33130.38
820.848	33523.38
821.1	33590.38
821.353	33498.38
821.605	33580.38
821.857	33595.38
822.11	33413.38
822.362	33308.38
822.614	33151.38
822.866	33253.38
823.118	33313.38
823.37	33415.38
823.622	33399.38
823.874	33554.38
824.126	33542.38
824.378	33621.38
824.63	33734.38
824.882	33871.38
825.134	33671.38
825.385	33565.38
825.637	33561.38
825.888	33386.38
826.14	33302.38
826.392	33139.38
826.643	33085.38
826.895	32850.38
827.146	32701.38
827.397	32745.38
827.649	32726.38
827.9	32665.38
828.151	32655.38
828.402	32735.38
828.653	32850.38
828.905	32902.38
829.156	32945.38
829.407	32737.38
829.658	32754.38
829.909	32709.38
830.159	32776.38
830.41	32528.38
830.661	32229.38
830.912	32089.38
831.162	31951.38
831.413	31808.38
831.664	32004.38
831.914	31782.38
832.165	31891.38
832.415	31811.38
832.666	31826.38
832.916	31710.38
833.167	31638.38
833.417	31664.38
833.667	31504.38
833.917	31340.38
834.168	31210.38
834.418	31207.38
834.668	31014.38
834.918	30914.38
835.168	30812.38
835.418	30757.38
835.668	30636.38
835.918	30602.38
836.167	30444.38
836.417	30274.38
836.667	30250.38
836.917	30314.38
837.166	30087.38
837.416	30255.38
837.666	30086.38
837.915	29931.38
838.165	29843.38
838.414	29660.38
838.663	29547.38
838.913	29566.38
839.162	29526.38
839.411	29514.38
839.661	29359.38
839.91	29282.38
840.159	29280.38
840.408	29164.38
840.657	29063.38
840.906	29107.38
841.155	29216.38
841.404	29137.38
841.653	29107.38
841.902	29059.38
842.15	29146.38
842.399	29133.38
842.648	29039.38
842.897	28852.38
843.145	28672.38
843.394	28525.38
843.642	28393.38
843.891	28323.38
844.139	28143.38
844.388	27939.38
844.636	27895.38
844.884	27841.38
845.133	27790.38
845.381	27637.38
845.629	27708.38
845.877	27615.38
846.125	27464.38
846.373	27487.38
846.621	27427.38
846.869	27108.38
847.117	27120.38
847.365	27005.38
847.613	26933.38
847.861	26815.38
848.108	26712.38
848.356	26575.38
848.604	26499.38
848.851	26599.38
849.099	26546.38
849.346	26673.38
849.594	26737.38
849.841	26772.38
850.089	26842.38
850.336	26808.38
850.583	26682.38
850.831	26452.38
851.078	26365.38
851.325	26273.38
851.572	26252.38
851.819	26011.38
852.066	25590.38
852.313	25430.38
852.56	25126.38
852.807	25026.38
853.054	24889.38
853.301	25082.38
853.548	24855.38
853.794	25025.38
854.041	25079.38
854.288	25129.38
854.534	25347.38
854.781	25354.38
855.028	25128.38
855.274	25115.38
855.52	24863.38
855.767	24726.38
856.013	24764.38
856.26	24996.38
856.506	24533.38
856.752	24528.38
856.998	24546.38
857.244	24572.38
857.49	24621.38
857.736	24681.38
857.982	24653.38
858.228	24648.38
858.474	24332.38
858.72	24240.38
858.966	24031.38
859.212	23801.38
859.458	23544.38
859.703	23341.38
859.949	23115.38
860.195	22980.38
860.44	22814.38
860.686	22715.38
860.931	22643.38
861.177	22523.38
861.422	22412.38
861.667	22419.38
861.913	22408.38
862.158	22472.38
862.403	22502.38
862.648	22572.38
862.893	22544.38
863.138	22599.38
863.384	22393.38
863.629	22440.38
863.873	22415.38
864.118	22180.38
864.363	22139.38
864.608	22027.38
864.853	21974.38
865.098	21792.38
865.342	21848.38
865.587	21671.38
865.832	21584.38
866.076	21625.38
866.321	21458.38
866.565	21284.38
866.81	21235.38
867.054	21159.38
867.298	21183.38
867.543	21247.38
867.787	21164.38
868.031	21052.38
868.275	20872.38
868.519	20856.38
868.764	20841.38
869.008	20753.38
869.252	20858.38
869.496	20676.38
869.739	20580.38
869.983	20542.38
870.227	20522.38
870.471	20386.38
870.715	20412.38
870.958	20454.38
871.202	20526.38
871.446	20607.38
871.689	20523.38
871.933	20540.38
872.176	20642.38
872.42	20348.38
872.663	20371.38
872.906	20275.38
873.15	20162.38
873.393	20035.38
873.636	20143.38
873.879	19805.38
874.122	19655.38
874.366	19383.38
874.609	19332.38
874.852	19258.38
875.095	19147.38
875.337	19029.38
875.58	18849.38
875.823	18848.38
876.066	18796.38
876.309	18681.38
876.551	18466.38
876.794	18458.38
877.037	18481.38
877.279	18394.38
877.522	18435.38
877.764	18470.38
878.007	18377.38
878.249	18405.38
878.491	18323.38
878.734	18338.38
878.976	18389.38
879.218	18169.38
879.46	18131.38
879.702	17908.38
879.945	17878.38
880.187	17722.38
880.429	17588.38
880.671	17506.38
880.912	17356.38
881.154	17338.38
881.396	17194.38
881.638	17233.38
881.88	17251.38
882.121	17156.38
882.363	17080.38
882.605	17245.38
882.846	17062.38
883.088	17027.38
883.329	16880.38
883.571	16873.38
883.812	16963.38
884.053	17040.38
884.295	17166.38
884.536	17355.38
884.777	17207.38
885.018	17124.38
885.259	17064.38
885.5	16964.38
885.742	17161.38
885.982	17058.38
886.223	16848.38
886.464	16672.38
886.705	16603.38
886.946	16505.38
887.187	16392.38
887.428	16324.38
887.668	15967.38
887.909	15850.38
888.15	15671.38
888.39	15561.38
888.631	15541.38
888.871	15519.38
889.111	15361.38
889.352	15289.38
889.592	15017.38
889.833	15025.38
890.073	14823.38
890.313	14856.38
890.553	14663.38
890.793	14582.38
891.033	14486.38
891.273	14466.38
891.513	14412.38
891.753	14437.38
891.993	14336.38
892.233	14449.38
892.473	14405.38
892.713	14397.38
892.952	14336.38
893.192	14417.38
893.432	14386.38
893.671	14338.38
893.911	14360.38
894.15	14083.38
894.39	13982.38
894.629	13936.38
894.869	13906.38
895.108	13799.38
895.347	13675.38
895.587	13629.38
895.826	13610.38
896.065	13594.38
896.304	13582.38
896.543	13496.38
896.782	13491.38
897.021	13414.38
897.26	13379.38
897.499	13296.38
897.738	13240.38
897.977	13196.38
898.216	13123.38
898.454	13040.38
898.693	12918.38
898.932	12787.38
899.17	12776.38
899.409	12769.38
899.647	12696.38
899.886	12552.38
900.124	12484.38
900.363	12496.38
900.601	12618.38
900.839	12588.38
901.078	12606.38
901.316	12652.38
901.554	12650.38
901.792	12697.38
902.03	12696.38
902.268	12585.38
902.506	12574.38
902.744	12573.38
902.982	12491.38
903.22	12271.38
903.458	12143.38
903.695	12033.38
903.933	11818.38
904.171	11667.38
904.409	11585.38
904.646	11409.38
904.884	11294.38
905.121	11226.38
905.359	11048.38
905.596	11018.38
905.833	10850.38
906.071	10950.38
906.308	10888.38
906.545	10812.38
906.783	10732.38
907.02	10802.38
907.257	10635.38
907.494	10700.38
907.731	10658.38
907.968	10647.38
908.205	10530.38
908.442	10434.38
908.679	10380.38
908.915	10303.38
909.152	10242.38
909.389	10092.38
909.626	10078.38
909.862	9992.38
910.099	9985.38
910.335	9952.38
910.572	9790.38
910.808	9819.38
911.045	9790.38
911.281	9775.38
911.518	9789.38
911.754	9617.38
911.99	9606.38
912.226	9533.38
912.463	9497.38
912.699	9403.38
912.935	9352.38
913.171	9301.38
913.407	9137.38
913.643	9140.38
913.879	9043.38
914.114	8898.38
914.35	8814.38
914.586	8807.38
914.822	8625.38
915.057	8593.38
915.293	8508.38
915.529	8496.38
915.764	8584.38
916	8448.38
916.235	8447.38
916.471	8415.38
916.706	8373.38
916.941	8347.38
917.177	8304.38
917.412	8383.38
917.647	8407.38
917.882	8323.38
918.117	8313.38
918.352	8242.38
918.588	8296.38
918.823	8164.38
919.057	8154.38
919.292	7993.38
919.527	7954.38
919.762	7791.38
919.997	7862.38
920.232	7680.38
920.466	7652.38
920.701	7532.38
920.935	7515.38
921.17	7373.38
921.405	7358.38
921.639	7406.38
921.873	7358.38
922.108	7350.38
922.342	7332.38
922.576	7280.38
922.811	7277.38
923.045	7247.38
923.279	7264.38
923.513	7098.38
923.747	7105.38
923.981	7049.38
924.215	6928.38
924.449	7016.38
924.683	6834.38
924.917	6836.38
925.151	6811.38
925.385	6876.38
925.618	6802.38
925.852	6807.38
926.086	6665.38
926.319	6720.38
926.553	6724.38
926.786	6734.38
927.02	6714.38
927.253	6731.38
927.486	6678.38
927.72	6605.38
927.953	6733.38
928.186	6680.38
928.42	6631.38
928.653	6568.38
928.886	6553.38
929.119	6529.38
929.352	6470.38
929.585	6471.38
929.818	6353.38
930.051	6364.38
930.284	6264.38
930.516	6116.38
930.749	6139.38
930.982	6121.38
931.215	6122.38
931.447	6022.38
931.68	5980.38
931.912	6005.38
932.145	5987.38
932.377	6030.38
932.61	6131.38
932.842	5903.38
933.074	6000.38
933.307	5983.38
933.539	6072.38
933.771	6066.38
934.003	5916.38
934.236	6038.38
934.468	6006.38
934.7	5889.38
934.932	5940.38
935.164	5895.38
935.395	5810.38
935.627	5835.38
935.859	5860.38
936.091	5739.38
936.323	5886.38
936.554	5755.38
936.786	5690.38
937.017	5644.38
937.249	5691.38
937.481	5613.38
937.712	5682.38
937.943	5642.38
938.175	5645.38
938.406	5560.38
938.637	5651.38
938.869	5526.38
939.1	5613.38
939.331	5555.38
939.562	5526.38
939.793	5527.38
940.024	5532.38
940.255	5542.38
940.486	5464.38
940.717	5416.38
940.948	5395.38
941.179	5326.38
941.409	5343.38
941.64	5352.38
941.871	5358.38
942.102	5316.38
942.332	5346.38
942.563	5366.38
942.793	5334.38
943.024	5252.38
943.254	5287.38
943.484	5359.38
943.715	5343.38
943.945	5294.38
944.175	5210.38
944.405	5232.38
944.636	5251.38
944.866	5225.38
945.096	5296.38
945.326	5152.38
945.556	5228.38
945.786	5212.38
946.016	5140.38
946.245	5060.38
946.475	5063.38
946.705	5048.38
946.935	4942.38
947.164	5010.38
947.394	4879.38
947.624	4948.38
947.853	4916.38
948.083	4901.38
948.312	4884.38
948.542	4789.38
948.771	4789.38
949	4764.38
949.23	4742.38
949.459	4788.38
949.688	4863.38
949.917	4760.38
950.146	4791.38
950.375	4823.38
950.604	4758.38
950.833	4783.38
951.062	4761.38
951.291	4711.38
951.52	4673.38
951.749	4682.38
951.978	4643.38
952.206	4613.38
952.435	4637.38
952.664	4637.38
952.892	4626.38
953.121	4618.38
953.349	4588.38
953.578	4565.38
953.806	4517.38
954.035	4457.38
954.263	4475.38
954.491	4427.38
954.719	4477.38
954.948	4377.38
955.176	4389.38
955.404	4288.38
955.632	4353.38
955.86	4315.38
956.088	4293.38
956.316	4312.38
956.544	4296.38
956.772	4222.38
956.999	4211.38
957.227	4262.38
957.455	4200.38
957.683	4096.38
957.91	4096.38
958.138	4060.38
958.365	4048.38
958.593	4081.38
958.82	4023.38
959.048	4035.38
959.275	4037.38
959.502	4016.38
959.73	3971.38
959.957	4041.38
960.184	4027.38
960.411	3943.38
960.638	4027.38
960.865	3952.38
961.092	3992.38
961.319	3871.38
961.546	3975.38
961.773	3958.38
962	3934.38
962.227	3978.38
962.454	3914.38
962.68	3909.38
962.907	3924.38
963.134	3824.38
963.36	3826.38
963.587	3797.38
963.813	3725.38
964.04	3783.38
964.266	3682.38
964.493	3749.38
964.719	3744.38
964.945	3684.38
965.171	3632.38
965.398	3686.38
965.624	3635.38
965.85	3611.38
966.076	3580.38
966.302	3599.38
966.528	3553.38
966.754	3548.38
966.98	3535.38
967.206	3551.38
967.431	3448.38
967.657	3555.38
967.883	3522.38
968.109	3528.38
968.334	3423.38
968.56	3450.38
968.785	3465.38
969.011	3374.38
969.236	3440.38
969.462	3364.38
969.687	3393.38
969.912	3427.38
970.138	3415.38
970.363	3346.38
970.588	3369.38
970.813	3362.38
971.038	3319.38
971.263	3383.38
971.488	3311.38
971.713	3359.38
971.938	3315.38
972.163	3231.38
972.388	3265.38
972.613	3220.38
972.838	3206.38
973.062	3172.38
973.287	3181.38
973.512	3146.38
973.736	3145.38
973.961	3104.38
974.185	3090.38
974.41	3112.38
974.634	2989.38
974.858	3023.38
975.083	3054.38
975.307	3065.38
975.531	2990.38
975.755	2962.38
975.98	2952.38
976.204	2881.38
976.428	2893.38
976.652	2875.38
976.876	2873.38
977.1	2856.38
977.324	2872.38
977.547	2872.38
977.771	2868.38
977.995	2870.38
978.219	2796.38
978.442	2940.38
978.666	2813.38
978.89	2816.38
979.113	2825.38
979.337	2796.38
979.56	2722.38
979.783	2841.38
980.007	2703.38
980.23	2743.38
980.453	2690.38
980.677	2759.38
980.9	2686.38
981.123	2619.38
981.346	2722.38
981.569	2691.38
981.792	2712.38
982.015	2621.38
982.238	2584.38
982.461	2611.38
982.684	2587.38
982.907	2568.38
983.129	2538.38
983.352	2572.38
983.575	2568.38
983.797	2572.38
984.02	2488.38
984.242	2499.38
984.465	2486.38
984.687	2525.38
984.91	2544.38
985.132	2498.38
985.354	2508.38
985.577	2455.38
985.799	2455.38
986.021	2354.38
986.243	2360.38
986.465	2411.38
986.687	2481.38
986.909	2470.38
987.131	2399.38
987.353	2389.38
987.575	2400.38
987.797	2370.38
988.019	2314.38
988.241	2343.38
988.462	2307.38
988.684	2359.38
988.906	2364.38
989.127	2385.38
989.349	2266.38
989.57	2285.38
989.792	2342.38
990.013	2324.38
990.234	2347.38
990.456	2362.38
990.677	2313.38
990.898	2284.38
991.119	2283.38
991.341	2301.38
991.562	2216.38
991.783	2257.38
992.004	2201.38
992.225	2149.38
992.446	2207.38
992.667	2130.38
992.887	2184.38
993.108	2081.38
993.329	2236.38
993.55	2148.38
993.77	2090.38
993.991	2065.38
994.212	2141.38
994.432	2095.38
994.653	2111.38
994.873	2066.38
995.093	1980.38
995.314	2015.38
995.534	2069.38
995.754	2092.38
995.975	2105.38
996.195	1975.38
996.415	2047.38
996.635	2044.38
996.855	2024.38
997.075	1983.38
997.295	1990.38
997.515	1931.38
997.735	1994.38
997.955	2023.38
998.174	1975.38
998.394	1937.38
998.614	2000.38
998.834	1930.38
999.053	1979.38
999.273	1966.38
999.492	2009.38
999.712	1984.38
999.931	1921.38
1000.151	1939.38
1000.37	1876.38
1000.589	1991.38
1000.809	1875.38
1001.028	1998.38
1001.247	1923.38
1001.466	1800.38
1001.685	1953.38
1001.904	1886.38
1002.123	1892.38
1002.342	1888.38
1002.561	1851.38
1002.78	1852.38
1002.999	1921.38
1003.218	1870.38
1003.436	1822.38
1003.655	1846.38
1003.874	1816.38
1004.092	1819.38
1004.311	1835.38
1004.53	1798.38
1004.748	1871.38
1004.966	1791.38
1005.185	1864.38
1005.403	1802.38
1005.622	1816.38
1005.84	1871.38
1006.058	1803.38
1006.276	1798.38
1006.494	2159.38
1006.712	1788.38
1006.931	1844.38
1007.149	1759.38
1007.367	1759.38
1007.584	1826.38
1007.802	1835.38
1008.02	1756.38
1008.238	1841.38
1008.456	1850.38
1008.673	1731.38
1008.891	1801.38
1009.109	1772.38
1009.326	1845.38
1009.544	1925.38
1009.761	1800.38
1009.979	1891.38
1010.196	1899.38
1010.413	2010.38
1010.631	2047.38
1010.848	2072.38
1011.065	2052.38
1011.282	2041.38
1011.5	1947.38
1011.717	2062.38
1011.934	2012.38
1012.151	2033.38
1012.368	1978.38
1012.585	1926.38
1012.801	1972.38
1013.018	1947.38
1013.235	1925.38
1013.452	1926.38
1013.669	1962.38
1013.885	1934.38
1014.102	1966.38
1014.318	1929.38
1014.535	1894.38
1014.751	1896.38
1014.968	1926.38
1015.184	1951.38
1015.401	1837.38
1015.617	1864.38
1015.833	1829.38
1016.049	1818.38
1016.266	1780.38
1016.482	1788.38
1016.698	1723.38
1016.914	1781.38
1017.13	1710.38
1017.346	1705.38
1017.562	1758.38
1017.778	1666.38
1017.993	1650.38
1018.209	1697.38
1018.425	1693.38
1018.641	1632.38
1018.856	1639.38
1019.072	1645.38
1019.288	1689.38
1019.503	1642.38
1019.719	1586.38
1019.934	1580.38
1020.149	1623.38
1020.365	1592.38
1020.58	1537.38
1020.795	1579.38
1021.011	1520.38
1021.226	1507.38
1021.441	1511.38
1021.656	1429.38
1021.871	1357.38
1022.086	1363.38
1022.301	1364.38
1022.516	1327.38
1022.731	1385.38
1022.946	1288.38
1023.16	1261.38
1023.375	1257.38
1023.59	1235.38
1023.804	1182.38
1024.019	1298.38
1024.234	1145.38
1024.448	1208.38
1024.663	1119.38
1024.877	1130.38
1025.092	1146.38
1025.306	1137.38
1025.52	1051.38
1025.734	1134.38
1025.949	1042.38
1026.163	1027.38
1026.377	955.38
1026.591	1013.38
1026.805	938.38
1027.019	931.38
1027.233	881.38
1027.447	839.38
1027.661	917.38
1027.875	869.38
1028.088	870.38
1028.302	802.38
1028.516	815.38
1028.73	783.38
1028.943	779.38
1029.157	740.38
1029.37	658.38
1029.584	-4.62
1029.797	-1.62
1030.011	-4.62
1030.224	0.38
