Data from QEP037381__553__17-46-56-378.txt Node

Date: Fri Dec 16 17:46:56 EST 2022
User: dcclab
Spectrometer: QEP03738
Trigger mode: 4
Integration Time (sec): 1.000000E1
Scans to average: 1
Electric dark correction enabled: true
Nonlinearity correction enabled: false
Boxcar width: 0
XAxis mode: Wavelengths
Number of Pixels in Spectrum: 1044
>>>>>Begin Spectral Data<<<<<
784.041	12.75
784.3	-2.25
784.558	-3.25
784.817	-6.25
785.075	119275.75
785.334	20575.75
785.592	9582.75
785.851	6639.75
786.109	4974.75
786.368	3854.75
786.626	3047.75
786.884	2556.75
787.143	2151.75
787.401	1757.75
787.659	1605.75
787.917	1349.75
788.175	1261.75
788.433	1080.75
788.691	960.75
788.949	866.75
789.207	854.75
789.465	741.75
789.723	692.75
789.98	630.75
790.238	675.75
790.496	630.75
790.753	602.75
791.011	656.75
791.268	590.75
791.526	558.75
791.783	573.75
792.041	561.75
792.298	476.75
792.556	529.75
792.813	506.75
793.07	477.75
793.327	478.75
793.584	552.75
793.841	467.75
794.099	498.75
794.356	542.75
794.613	460.75
794.869	499.75
795.126	439.75
795.383	435.75
795.64	436.75
795.897	410.75
796.153	480.75
796.41	441.75
796.667	432.75
796.923	437.75
797.18	440.75
797.436	474.75
797.693	443.75
797.949	481.75
798.206	521.75
798.462	432.75
798.718	467.75
798.974	454.75
799.231	500.75
799.487	478.75
799.743	495.75
799.999	526.75
800.255	525.75
800.511	504.75
800.767	554.75
801.023	558.75
801.279	587.75
801.534	611.75
801.79	689.75
802.046	708.75
802.302	836.75
802.557	950.75
802.813	1179.75
803.068	1454.75
803.324	2060.75
803.579	2776.75
803.835	3894.75
804.09	5372.75
804.345	7045.75
804.601	9066.75
804.856	10992.75
805.111	12766.75
805.366	14061.75
805.621	14970.75
805.876	15515.75
806.131	15884.75
806.386	16274.75
806.641	16539.75
806.896	16721.75
807.151	17063.75
807.406	17302.75
807.661	17626.75
807.915	17872.75
808.17	18056.75
808.425	18247.75
808.679	18353.75
808.934	18600.75
809.188	18668.75
809.443	18930.75
809.697	19183.75
809.951	19274.75
810.206	19362.75
810.46	19632.75
810.714	19729.75
810.968	19930.75
811.223	20089.75
811.477	20185.75
811.731	20415.75
811.985	20478.75
812.239	20441.75
812.493	20589.75
812.747	20622.75
813	20552.75
813.254	20805.75
813.508	20767.75
813.762	20823.75
814.015	20871.75
814.269	21176.75
814.522	21309.75
814.776	21441.75
815.03	21717.75
815.283	22066.75
815.536	22355.75
815.79	22718.75
816.043	22972.75
816.296	23341.75
816.55	23462.75
816.803	23754.75
817.056	23955.75
817.309	24244.75
817.562	24314.75
817.815	24641.75
818.068	24762.75
818.321	25080.75
818.574	25262.75
818.827	25708.75
819.079	25976.75
819.332	26434.75
819.585	26617.75
819.838	27054.75
820.09	27133.75
820.343	27396.75
820.595	27432.75
820.848	27590.75
821.1	27655.75
821.353	27618.75
821.605	27524.75
821.857	27653.75
822.11	27453.75
822.362	27391.75
822.614	27248.75
822.866	27312.75
823.118	27297.75
823.37	27505.75
823.622	27436.75
823.874	27527.75
824.126	27643.75
824.378	27633.75
824.63	27689.75
824.882	27672.75
825.134	27697.75
825.385	27690.75
825.637	27550.75
825.888	27489.75
826.14	27361.75
826.392	27280.75
826.643	26997.75
826.895	27032.75
827.146	26874.75
827.397	26767.75
827.649	26819.75
827.9	26695.75
828.151	26717.75
828.402	26832.75
828.653	26990.75
828.905	26955.75
829.156	26933.75
829.407	26927.75
829.658	26987.75
829.909	26790.75
830.159	26714.75
830.41	26721.75
830.661	26424.75
830.912	26267.75
831.162	26278.75
831.413	26197.75
831.664	26092.75
831.914	26192.75
832.165	26037.75
832.415	26074.75
832.666	26207.75
832.916	26136.75
833.167	26045.75
833.417	26005.75
833.667	25918.75
833.917	25809.75
834.168	25849.75
834.418	25699.75
834.668	25513.75
834.918	25420.75
835.168	25438.75
835.418	25196.75
835.668	25195.75
835.918	24973.75
836.167	24936.75
836.417	24939.75
836.667	24924.75
836.917	24856.75
837.166	24795.75
837.416	24867.75
837.666	24709.75
837.915	24681.75
838.165	24563.75
838.414	24465.75
838.663	24435.75
838.913	24426.75
839.162	24266.75
839.411	24365.75
839.661	24075.75
839.91	24123.75
840.159	23965.75
840.408	24003.75
840.657	24028.75
840.906	24000.75
841.155	24053.75
841.404	23947.75
841.653	23949.75
841.902	23908.75
842.15	23976.75
842.399	23981.75
842.648	23935.75
842.897	23879.75
843.145	23679.75
843.394	23535.75
843.642	23478.75
843.891	23425.75
844.139	23225.75
844.388	23150.75
844.636	22940.75
844.884	22812.75
845.133	22875.75
845.381	22776.75
845.629	22864.75
845.877	22736.75
846.125	22713.75
846.373	22740.75
846.621	22594.75
846.869	22502.75
847.117	22430.75
847.365	22303.75
847.613	22143.75
847.861	21974.75
848.108	22011.75
848.356	22054.75
848.604	21895.75
848.851	21978.75
849.099	21949.75
849.346	22041.75
849.594	22128.75
849.841	22256.75
850.089	22111.75
850.336	22013.75
850.583	22087.75
850.831	21983.75
851.078	21708.75
851.325	21760.75
851.572	21768.75
851.819	21607.75
852.066	21181.75
852.313	20983.75
852.56	20769.75
852.807	20712.75
853.054	20619.75
853.301	20514.75
853.548	20615.75
853.794	20673.75
854.041	20709.75
854.288	20813.75
854.534	21018.75
854.781	20922.75
855.028	20821.75
855.274	20838.75
855.52	20731.75
855.767	20625.75
856.013	20601.75
856.26	20854.75
856.506	20273.75
856.752	20367.75
856.998	20293.75
857.244	20363.75
857.49	20418.75
857.736	20409.75
857.982	20459.75
858.228	20413.75
858.474	20196.75
858.72	20104.75
858.966	19840.75
859.212	19792.75
859.458	19410.75
859.703	19317.75
859.949	19040.75
860.195	19016.75
860.44	18892.75
860.686	18727.75
860.931	18779.75
861.177	18640.75
861.422	18629.75
861.667	18553.75
861.913	18571.75
862.158	18448.75
862.403	18649.75
862.648	18751.75
862.893	18672.75
863.138	18722.75
863.384	18572.75
863.629	18553.75
863.873	18589.75
864.118	18589.75
864.363	18278.75
864.608	18331.75
864.853	18205.75
865.098	18051.75
865.342	18074.75
865.587	17915.75
865.832	17942.75
866.076	17917.75
866.321	17848.75
866.565	17752.75
866.81	17603.75
867.054	17699.75
867.298	17558.75
867.543	17455.75
867.787	17577.75
868.031	17410.75
868.275	17351.75
868.519	17320.75
868.764	17260.75
869.008	17195.75
869.252	17316.75
869.496	17126.75
869.739	17111.75
869.983	17129.75
870.227	16956.75
870.471	17013.75
870.715	17070.75
870.958	17044.75
871.202	17145.75
871.446	17072.75
871.689	17049.75
871.933	17100.75
872.176	17079.75
872.42	16950.75
872.663	17055.75
872.906	16953.75
873.15	16848.75
873.393	16797.75
873.636	16759.75
873.879	16644.75
874.122	16518.75
874.366	16210.75
874.609	16148.75
874.852	16024.75
875.095	15991.75
875.337	15796.75
875.58	15676.75
875.823	15729.75
876.066	15674.75
876.309	15591.75
876.551	15438.75
876.794	15436.75
877.037	15389.75
877.279	15360.75
877.522	15390.75
877.764	15415.75
878.007	15332.75
878.249	15401.75
878.491	15296.75
878.734	15249.75
878.976	15242.75
879.218	15146.75
879.46	15003.75
879.702	14941.75
879.945	14799.75
880.187	14652.75
880.429	14628.75
880.671	14508.75
880.912	14484.75
881.154	14393.75
881.396	14248.75
881.638	14320.75
881.88	14331.75
882.121	14322.75
882.363	14252.75
882.605	14277.75
882.846	14195.75
883.088	14166.75
883.329	14071.75
883.571	14107.75
883.812	14202.75
884.053	14290.75
884.295	14555.75
884.536	14718.75
884.777	14529.75
885.018	14445.75
885.259	14466.75
885.5	14303.75
885.742	14529.75
885.982	14252.75
886.223	14200.75
886.464	14089.75
886.705	13947.75
886.946	13849.75
887.187	13602.75
887.428	13532.75
887.668	13412.75
887.909	13176.75
888.15	12993.75
888.39	12975.75
888.631	12887.75
888.871	12772.75
889.111	12745.75
889.352	12635.75
889.592	12519.75
889.833	12409.75
890.073	12371.75
890.313	12338.75
890.553	12211.75
890.793	12213.75
891.033	12150.75
891.273	12005.75
891.513	12013.75
891.753	11952.75
891.993	11938.75
892.233	11977.75
892.473	12146.75
892.713	12032.75
892.952	11961.75
893.192	12029.75
893.432	11933.75
893.671	12003.75
893.911	11844.75
894.15	11818.75
894.39	11592.75
894.629	11582.75
894.869	11542.75
895.108	11519.75
895.347	11334.75
895.587	11358.75
895.826	11384.75
896.065	11334.75
896.304	11369.75
896.543	11356.75
896.782	11147.75
897.021	11211.75
897.26	11225.75
897.499	11151.75
897.738	11107.75
897.977	11013.75
898.216	10928.75
898.454	10784.75
898.693	10751.75
898.932	10730.75
899.17	10637.75
899.409	10591.75
899.647	10690.75
899.886	10523.75
900.124	10650.75
900.363	10538.75
900.601	10584.75
900.839	10573.75
901.078	10571.75
901.316	10599.75
901.554	10628.75
901.792	10640.75
902.03	10638.75
902.268	10661.75
902.506	10612.75
902.744	10554.75
902.982	10612.75
903.22	10288.75
903.458	10235.75
903.695	10220.75
903.933	9981.75
904.171	9811.75
904.409	9662.75
904.646	9559.75
904.884	9446.75
905.121	9414.75
905.359	9235.75
905.596	9266.75
905.833	9066.75
906.071	9049.75
906.308	9082.75
906.545	9087.75
906.783	8977.75
907.02	8942.75
907.257	8941.75
907.494	8902.75
907.731	8970.75
907.968	8882.75
908.205	8776.75
908.442	8725.75
908.679	8715.75
908.915	8662.75
909.152	8570.75
909.389	8392.75
909.626	8366.75
909.862	8385.75
910.099	8395.75
910.335	8394.75
910.572	8290.75
910.808	8282.75
911.045	8166.75
911.281	8116.75
911.518	8171.75
911.754	8119.75
911.99	8037.75
912.226	8075.75
912.463	7887.75
912.699	7854.75
912.935	7817.75
913.171	7797.75
913.407	7662.75
913.643	7653.75
913.879	7633.75
914.114	7495.75
914.35	7373.75
914.586	7351.75
914.822	7248.75
915.057	7263.75
915.293	7150.75
915.529	7091.75
915.764	7145.75
916	7107.75
916.235	7057.75
916.471	7088.75
916.706	7004.75
916.941	6995.75
917.177	7020.75
917.412	7008.75
917.647	6973.75
917.882	6969.75
918.117	7002.75
918.352	7028.75
918.588	6930.75
918.823	6850.75
919.057	6804.75
919.292	6651.75
919.527	6711.75
919.762	6599.75
919.997	6618.75
920.232	6448.75
920.466	6417.75
920.701	6210.75
920.935	6336.75
921.17	6246.75
921.405	6196.75
921.639	6282.75
921.873	6231.75
922.108	6102.75
922.342	6115.75
922.576	6039.75
922.811	6045.75
923.045	6091.75
923.279	6133.75
923.513	5960.75
923.747	6022.75
923.981	5986.75
924.215	5902.75
924.449	5863.75
924.683	5735.75
924.917	5776.75
925.151	5747.75
925.385	5837.75
925.618	5729.75
925.852	5708.75
926.086	5623.75
926.319	5663.75
926.553	5681.75
926.786	5639.75
927.02	5669.75
927.253	5656.75
927.486	5708.75
927.72	5545.75
927.953	5634.75
928.186	5501.75
928.42	5530.75
928.653	5521.75
928.886	5424.75
929.119	5464.75
929.352	5466.75
929.585	5426.75
929.818	5348.75
930.051	5337.75
930.284	5309.75
930.516	5158.75
930.749	5209.75
930.982	5193.75
931.215	5178.75
931.447	5106.75
931.68	5082.75
931.912	5100.75
932.145	5048.75
932.377	5089.75
932.61	5212.75
932.842	4973.75
933.074	5049.75
933.307	5022.75
933.539	5108.75
933.771	5074.75
934.003	5019.75
934.236	5054.75
934.468	5099.75
934.7	5040.75
934.932	5015.75
935.164	4959.75
935.395	4951.75
935.627	4940.75
935.859	4917.75
936.091	4812.75
936.323	4892.75
936.554	4878.75
936.786	4832.75
937.017	4809.75
937.249	4790.75
937.481	4760.75
937.712	4837.75
937.943	4769.75
938.175	4733.75
938.406	4784.75
938.637	4796.75
938.869	4705.75
939.1	4751.75
939.331	4691.75
939.562	4690.75
939.793	4697.75
940.024	4735.75
940.255	4701.75
940.486	4594.75
940.717	4596.75
940.948	4590.75
941.179	4487.75
941.409	4513.75
941.64	4495.75
941.871	4534.75
942.102	4508.75
942.332	4444.75
942.563	4483.75
942.793	4532.75
943.024	4403.75
943.254	4479.75
943.484	4503.75
943.715	4481.75
943.945	4454.75
944.175	4399.75
944.405	4397.75
944.636	4434.75
944.866	4463.75
945.096	4474.75
945.326	4343.75
945.556	4439.75
945.786	4429.75
946.016	4324.75
946.245	4267.75
946.475	4278.75
946.705	4228.75
946.935	4275.75
947.164	4190.75
947.394	4163.75
947.624	4156.75
947.853	4176.75
948.083	4141.75
948.312	4092.75
948.542	4016.75
948.771	4018.75
949	4062.75
949.23	4065.75
949.459	4047.75
949.688	4091.75
949.917	4004.75
950.146	4043.75
950.375	4080.75
950.604	3923.75
950.833	4061.75
951.062	4040.75
951.291	4016.75
951.52	3938.75
951.749	3978.75
951.978	3917.75
952.206	3933.75
952.435	3894.75
952.664	3887.75
952.892	3895.75
953.121	3842.75
953.349	3951.75
953.578	3860.75
953.806	3822.75
954.035	3773.75
954.263	3824.75
954.491	3745.75
954.719	3806.75
954.948	3727.75
955.176	3695.75
955.404	3625.75
955.632	3667.75
955.86	3634.75
956.088	3705.75
956.316	3693.75
956.544	3648.75
956.772	3593.75
956.999	3578.75
957.227	3612.75
957.455	3504.75
957.683	3524.75
957.91	3492.75
958.138	3485.75
958.365	3446.75
958.593	3481.75
958.82	3380.75
959.048	3448.75
959.275	3388.75
959.502	3401.75
959.73	3348.75
959.957	3389.75
960.184	3398.75
960.411	3320.75
960.638	3410.75
960.865	3355.75
961.092	3390.75
961.319	3279.75
961.546	3384.75
961.773	3417.75
962	3312.75
962.227	3392.75
962.454	3329.75
962.68	3255.75
962.907	3295.75
963.134	3257.75
963.36	3246.75
963.587	3280.75
963.813	3189.75
964.04	3170.75
964.266	3137.75
964.493	3235.75
964.719	3185.75
964.945	3192.75
965.171	3060.75
965.398	3116.75
965.624	3135.75
965.85	3050.75
966.076	3044.75
966.302	3074.75
966.528	2995.75
966.754	3068.75
966.98	3067.75
967.206	3047.75
967.431	2954.75
967.657	2994.75
967.883	3018.75
968.109	3032.75
968.334	2917.75
968.56	2939.75
968.785	2945.75
969.011	2883.75
969.236	2962.75
969.462	2848.75
969.687	2916.75
969.912	2931.75
970.138	2954.75
970.363	2849.75
970.588	2863.75
970.813	2827.75
971.038	2809.75
971.263	2841.75
971.488	2812.75
971.713	2865.75
971.938	2797.75
972.163	2738.75
972.388	2742.75
972.613	2757.75
972.838	2724.75
973.062	2735.75
973.287	2728.75
973.512	2663.75
973.736	2697.75
973.961	2656.75
974.185	2676.75
974.41	2659.75
974.634	2599.75
974.858	2567.75
975.083	2620.75
975.307	2627.75
975.531	2574.75
975.755	2478.75
975.98	2570.75
976.204	2460.75
976.428	2435.75
976.652	2495.75
976.876	2464.75
977.1	2484.75
977.324	2455.75
977.547	2477.75
977.771	2461.75
977.995	2465.75
978.219	2385.75
978.442	2500.75
978.666	2402.75
978.89	2441.75
979.113	2395.75
979.337	2347.75
979.56	2336.75
979.783	2441.75
980.007	2288.75
980.23	2318.75
980.453	2330.75
980.677	2326.75
980.9	2340.75
981.123	2243.75
981.346	2363.75
981.569	2327.75
981.792	2314.75
982.015	2261.75
982.238	2249.75
982.461	2237.75
982.684	2235.75
982.907	2176.75
983.129	2169.75
983.352	2212.75
983.575	2192.75
983.797	2178.75
984.02	2145.75
984.242	2151.75
984.465	2160.75
984.687	2187.75
984.91	2190.75
985.132	2150.75
985.354	2193.75
985.577	2131.75
985.799	2128.75
986.021	2041.75
986.243	2075.75
986.465	2077.75
986.687	2161.75
986.909	2153.75
987.131	2087.75
987.353	2026.75
987.575	2056.75
987.797	2017.75
988.019	1983.75
988.241	2045.75
988.462	1989.75
988.684	2047.75
988.906	2059.75
989.127	2096.75
989.349	1960.75
989.57	1993.75
989.792	2052.75
990.013	2065.75
990.234	2056.75
990.456	2075.75
990.677	2023.75
990.898	1973.75
991.119	1964.75
991.341	1989.75
991.562	1927.75
991.783	1945.75
992.004	1918.75
992.225	1872.75
992.446	1901.75
992.667	1825.75
992.887	1923.75
993.108	1820.75
993.329	1935.75
993.55	1869.75
993.77	1823.75
993.991	1819.75
994.212	1859.75
994.432	1846.75
994.653	1841.75
994.873	1823.75
995.093	1693.75
995.314	1788.75
995.534	1810.75
995.754	1849.75
995.975	1852.75
996.195	1749.75
996.415	1792.75
996.635	1749.75
996.855	1797.75
997.075	1766.75
997.295	1738.75
997.515	1745.75
997.735	1763.75
997.955	1737.75
998.174	1740.75
998.394	1713.75
998.614	1773.75
998.834	1714.75
999.053	1754.75
999.273	1764.75
999.492	1778.75
999.712	1746.75
999.931	1682.75
1000.151	1723.75
1000.37	1700.75
1000.589	1753.75
1000.809	1705.75
1001.028	1811.75
1001.247	1741.75
1001.466	1637.75
1001.685	1780.75
1001.904	1720.75
1002.123	1669.75
1002.342	1672.75
1002.561	1613.75
1002.78	1656.75
1002.999	1711.75
1003.218	1648.75
1003.436	1602.75
1003.655	1672.75
1003.874	1597.75
1004.092	1626.75
1004.311	1652.75
1004.53	1623.75
1004.748	1675.75
1004.966	1613.75
1005.185	1680.75
1005.403	1665.75
1005.622	1648.75
1005.84	1687.75
1006.058	1596.75
1006.276	1607.75
1006.494	1994.75
1006.712	1583.75
1006.931	1684.75
1007.149	1588.75
1007.367	1592.75
1007.584	1609.75
1007.802	1645.75
1008.02	1631.75
1008.238	1707.75
1008.456	1689.75
1008.673	1566.75
1008.891	1661.75
1009.109	1656.75
1009.326	1695.75
1009.544	1750.75
1009.761	1643.75
1009.979	1753.75
1010.196	1777.75
1010.413	1834.75
1010.631	1890.75
1010.848	1923.75
1011.065	1928.75
1011.282	1898.75
1011.5	1845.75
1011.717	1932.75
1011.934	1860.75
1012.151	1893.75
1012.368	1862.75
1012.585	1800.75
1012.801	1868.75
1013.018	1841.75
1013.235	1796.75
1013.452	1812.75
1013.669	1837.75
1013.885	1785.75
1014.102	1877.75
1014.318	1800.75
1014.535	1783.75
1014.751	1800.75
1014.968	1788.75
1015.184	1834.75
1015.401	1740.75
1015.617	1765.75
1015.833	1710.75
1016.049	1699.75
1016.266	1725.75
1016.482	1703.75
1016.698	1596.75
1016.914	1703.75
1017.13	1586.75
1017.346	1592.75
1017.562	1688.75
1017.778	1572.75
1017.993	1581.75
1018.209	1589.75
1018.425	1590.75
1018.641	1538.75
1018.856	1537.75
1019.072	1589.75
1019.288	1615.75
1019.503	1551.75
1019.719	1441.75
1019.934	1481.75
1020.149	1553.75
1020.365	1466.75
1020.58	1443.75
1020.795	1503.75
1021.011	1428.75
1021.226	1392.75
1021.441	1432.75
1021.656	1325.75
1021.871	1289.75
1022.086	1278.75
1022.301	1259.75
1022.516	1253.75
1022.731	1277.75
1022.946	1205.75
1023.16	1184.75
1023.375	1174.75
1023.59	1137.75
1023.804	1122.75
1024.019	1198.75
1024.234	1077.75
1024.448	1123.75
1024.663	1022.75
1024.877	1059.75
1025.092	1060.75
1025.306	1072.75
1025.52	973.75
1025.734	1062.75
1025.949	977.75
1026.163	961.75
1026.377	876.75
1026.591	968.75
1026.805	850.75
1027.019	874.75
1027.233	813.75
1027.447	784.75
1027.661	877.75
1027.875	819.75
1028.088	804.75
1028.302	746.75
1028.516	735.75
1028.73	741.75
1028.943	727.75
1029.157	668.75
1029.37	644.75
1029.584	-2.25
1029.797	0.75
1030.011	0.75
1030.224	-0.25
