Data from QEP037381__559__17-47-56-379.txt Node

Date: Fri Dec 16 17:47:56 EST 2022
User: dcclab
Spectrometer: QEP03738
Trigger mode: 4
Integration Time (sec): 1.000000E1
Scans to average: 1
Electric dark correction enabled: true
Nonlinearity correction enabled: false
Boxcar width: 0
XAxis mode: Wavelengths
Number of Pixels in Spectrum: 1044
>>>>>Begin Spectral Data<<<<<
784.041	15.62
784.3	-1.38
784.558	-1.38
784.817	-2.38
785.075	113739.62
785.334	19173.62
785.592	8783.62
785.851	6006.62
786.109	4535.62
786.368	3512.62
786.626	2817.62
786.884	2380.62
787.143	1990.62
787.401	1651.62
787.659	1489.62
787.917	1249.62
788.175	1182.62
788.433	1026.62
788.691	928.62
788.949	845.62
789.207	798.62
789.465	708.62
789.723	690.62
789.98	627.62
790.238	651.62
790.496	646.62
790.753	570.62
791.011	638.62
791.268	566.62
791.526	555.62
791.783	557.62
792.041	550.62
792.298	470.62
792.556	520.62
792.813	514.62
793.07	485.62
793.327	460.62
793.584	543.62
793.841	455.62
794.099	485.62
794.356	523.62
794.613	432.62
794.869	470.62
795.126	435.62
795.383	407.62
795.64	432.62
795.897	391.62
796.153	457.62
796.41	450.62
796.667	404.62
796.923	426.62
797.18	433.62
797.436	461.62
797.693	418.62
797.949	487.62
798.206	504.62
798.462	417.62
798.718	462.62
798.974	455.62
799.231	497.62
799.487	479.62
799.743	489.62
799.999	523.62
800.255	515.62
800.511	502.62
800.767	546.62
801.023	539.62
801.279	565.62
801.534	608.62
801.79	643.62
802.046	671.62
802.302	809.62
802.557	911.62
802.813	1105.62
803.068	1398.62
803.324	1920.62
803.579	2590.62
803.835	3559.62
804.09	4883.62
804.345	6440.62
804.601	8235.62
804.856	9960.62
805.111	11530.62
805.366	12700.62
805.621	13629.62
805.876	14197.62
806.131	14481.62
806.386	14863.62
806.641	15009.62
806.896	15282.62
807.151	15495.62
807.406	15763.62
807.661	16086.62
807.915	16276.62
808.17	16475.62
808.425	16638.62
808.679	16741.62
808.934	16986.62
809.188	17080.62
809.443	17231.62
809.697	17334.62
809.951	17548.62
810.206	17636.62
810.46	17869.62
810.714	17893.62
810.968	18234.62
811.223	18168.62
811.477	18389.62
811.731	18524.62
811.985	18509.62
812.239	18541.62
812.493	18797.62
812.747	18782.62
813	18798.62
813.254	18832.62
813.508	19026.62
813.762	18990.62
814.015	19018.62
814.269	19229.62
814.522	19385.62
814.776	19575.62
815.03	19734.62
815.283	20087.62
815.536	20295.62
815.79	20644.62
816.043	20889.62
816.296	21173.62
816.55	21382.62
816.803	21571.62
817.056	21875.62
817.309	22039.62
817.562	22139.62
817.815	22438.62
818.068	22563.62
818.321	22595.62
818.574	22963.62
818.827	23329.62
819.079	23514.62
819.332	23946.62
819.585	24178.62
819.838	24533.62
820.09	24657.62
820.343	24773.62
820.595	24744.62
820.848	24973.62
821.1	24996.62
821.353	25023.62
821.605	25109.62
821.857	25088.62
822.11	24901.62
822.362	24959.62
822.614	24798.62
822.866	24866.62
823.118	24795.62
823.37	25033.62
823.622	24964.62
823.874	25080.62
824.126	25122.62
824.378	24995.62
824.63	25196.62
824.882	25199.62
825.134	25184.62
825.385	25135.62
825.637	25161.62
825.888	24992.62
826.14	24859.62
826.392	24753.62
826.643	24717.62
826.895	24565.62
827.146	24473.62
827.397	24354.62
827.649	24407.62
827.9	24311.62
828.151	24391.62
828.402	24498.62
828.653	24473.62
828.905	24575.62
829.156	24638.62
829.407	24442.62
829.658	24452.62
829.909	24602.62
830.159	24390.62
830.41	24470.62
830.661	24181.62
830.912	24007.62
831.162	23942.62
831.413	24001.62
831.664	23963.62
831.914	23926.62
832.165	23780.62
832.415	23782.62
832.666	23865.62
832.916	23872.62
833.167	23708.62
833.417	23804.62
833.667	23672.62
833.917	23676.62
834.168	23647.62
834.418	23425.62
834.668	23323.62
834.918	23137.62
835.168	23290.62
835.418	23063.62
835.668	23089.62
835.918	22990.62
836.167	22905.62
836.417	22774.62
836.667	22782.62
836.917	22857.62
837.166	22692.62
837.416	22823.62
837.666	22678.62
837.915	22620.62
838.165	22437.62
838.414	22400.62
838.663	22438.62
838.913	22392.62
839.162	22222.62
839.411	22388.62
839.661	22185.62
839.91	22173.62
840.159	22098.62
840.408	22065.62
840.657	21982.62
840.906	22025.62
841.155	22080.62
841.404	22082.62
841.653	21874.62
841.902	22035.62
842.15	22023.62
842.399	21997.62
842.648	21979.62
842.897	21963.62
843.145	21817.62
843.394	21731.62
843.642	21503.62
843.891	21502.62
844.139	21372.62
844.388	21215.62
844.636	21117.62
844.884	21060.62
845.133	21035.62
845.381	20972.62
845.629	21095.62
845.877	20919.62
846.125	20938.62
846.373	20903.62
846.621	20868.62
846.869	20700.62
847.117	20646.62
847.365	20426.62
847.613	20358.62
847.861	20370.62
848.108	20346.62
848.356	20274.62
848.604	20266.62
848.851	20206.62
849.099	20205.62
849.346	20286.62
849.594	20282.62
849.841	20376.62
850.089	20465.62
850.336	20369.62
850.583	20282.62
850.831	20241.62
851.078	20170.62
851.325	20054.62
851.572	20056.62
851.819	19922.62
852.066	19564.62
852.313	19329.62
852.56	19196.62
852.807	19121.62
853.054	19035.62
853.301	19093.62
853.548	19046.62
853.794	19102.62
854.041	19085.62
854.288	19243.62
854.534	19479.62
854.781	19437.62
855.028	19282.62
855.274	19196.62
855.52	19166.62
855.767	19123.62
856.013	19036.62
856.26	19305.62
856.506	18854.62
856.752	18846.62
856.998	18834.62
857.244	18879.62
857.49	18906.62
857.736	18959.62
857.982	18960.62
858.228	18894.62
858.474	18716.62
858.72	18586.62
858.966	18547.62
859.212	18379.62
859.458	18055.62
859.703	17901.62
859.949	17822.62
860.195	17703.62
860.44	17555.62
860.686	17479.62
860.931	17457.62
861.177	17266.62
861.422	17296.62
861.667	17179.62
861.913	17196.62
862.158	17202.62
862.403	17217.62
862.648	17411.62
862.893	17359.62
863.138	17394.62
863.384	17231.62
863.629	17212.62
863.873	17233.62
864.118	17143.62
864.363	17002.62
864.608	17005.62
864.853	16881.62
865.098	16828.62
865.342	16727.62
865.587	16680.62
865.832	16656.62
866.076	16567.62
866.321	16580.62
866.565	16551.62
866.81	16405.62
867.054	16363.62
867.298	16328.62
867.543	16305.62
867.787	16275.62
868.031	16278.62
868.275	16070.62
868.519	16071.62
868.764	16059.62
869.008	16064.62
869.252	16022.62
869.496	15874.62
869.739	15898.62
869.983	15825.62
870.227	15854.62
870.471	15852.62
870.715	15873.62
870.958	15963.62
871.202	15884.62
871.446	15884.62
871.689	15943.62
871.933	15912.62
872.176	15952.62
872.42	15934.62
872.663	15825.62
872.906	15837.62
873.15	15823.62
873.393	15713.62
873.636	15717.62
873.879	15551.62
874.122	15436.62
874.366	15179.62
874.609	15101.62
874.852	14936.62
875.095	14893.62
875.337	14788.62
875.58	14645.62
875.823	14657.62
876.066	14676.62
876.309	14686.62
876.551	14437.62
876.794	14387.62
877.037	14329.62
877.279	14304.62
877.522	14290.62
877.764	14391.62
878.007	14226.62
878.249	14261.62
878.491	14281.62
878.734	14269.62
878.976	14276.62
879.218	14112.62
879.46	14013.62
879.702	13958.62
879.945	13817.62
880.187	13688.62
880.429	13589.62
880.671	13484.62
880.912	13431.62
881.154	13461.62
881.396	13383.62
881.638	13421.62
881.88	13432.62
882.121	13271.62
882.363	13331.62
882.605	13320.62
882.846	13276.62
883.088	13291.62
883.329	13287.62
883.571	13255.62
883.812	13291.62
884.053	13450.62
884.295	13772.62
884.536	13929.62
884.777	13817.62
885.018	13661.62
885.259	13610.62
885.5	13485.62
885.742	13772.62
885.982	13440.62
886.223	13304.62
886.464	13320.62
886.705	13115.62
886.946	13118.62
887.187	12756.62
887.428	12758.62
887.668	12460.62
887.909	12349.62
888.15	12185.62
888.39	12225.62
888.631	12131.62
888.871	12058.62
889.111	12001.62
889.352	11943.62
889.592	11836.62
889.833	11735.62
890.073	11624.62
890.313	11566.62
890.553	11330.62
890.793	11362.62
891.033	11376.62
891.273	11309.62
891.513	11234.62
891.753	11271.62
891.993	11233.62
892.233	11178.62
892.473	11315.62
892.713	11296.62
892.952	11212.62
893.192	11233.62
893.432	11106.62
893.671	11135.62
893.911	11147.62
894.15	11051.62
894.39	10921.62
894.629	10910.62
894.869	10812.62
895.108	10804.62
895.347	10772.62
895.587	10653.62
895.826	10647.62
896.065	10590.62
896.304	10627.62
896.543	10654.62
896.782	10470.62
897.021	10499.62
897.26	10486.62
897.499	10484.62
897.738	10524.62
897.977	10340.62
898.216	10299.62
898.454	10191.62
898.693	10182.62
898.932	10107.62
899.17	10026.62
899.409	9994.62
899.647	10014.62
899.886	9962.62
900.124	9975.62
900.363	9894.62
900.601	9934.62
900.839	10006.62
901.078	9993.62
901.316	9962.62
901.554	9987.62
901.792	10040.62
902.03	10014.62
902.268	9994.62
902.506	10070.62
902.744	9910.62
902.982	9902.62
903.22	9768.62
903.458	9660.62
903.695	9441.62
903.933	9449.62
904.171	9207.62
904.409	9177.62
904.646	9064.62
904.884	8905.62
905.121	8915.62
905.359	8837.62
905.596	8678.62
905.833	8722.62
906.071	8568.62
906.308	8545.62
906.545	8558.62
906.783	8436.62
907.02	8476.62
907.257	8408.62
907.494	8414.62
907.731	8365.62
907.968	8414.62
908.205	8224.62
908.442	8210.62
908.679	8209.62
908.915	8180.62
909.152	8094.62
909.389	7966.62
909.626	7897.62
909.862	7885.62
910.099	7866.62
910.335	7901.62
910.572	7754.62
910.808	7815.62
911.045	7744.62
911.281	7674.62
911.518	7728.62
911.754	7596.62
911.99	7594.62
912.226	7479.62
912.463	7404.62
912.699	7446.62
912.935	7356.62
913.171	7320.62
913.407	7168.62
913.643	7191.62
913.879	7111.62
914.114	7032.62
914.35	7035.62
914.586	6909.62
914.822	6860.62
915.057	6971.62
915.293	6736.62
915.529	6769.62
915.764	6858.62
916	6761.62
916.235	6724.62
916.471	6711.62
916.706	6601.62
916.941	6716.62
917.177	6673.62
917.412	6621.62
917.647	6676.62
917.882	6571.62
918.117	6587.62
918.352	6561.62
918.588	6592.62
918.823	6485.62
919.057	6379.62
919.292	6288.62
919.527	6367.62
919.762	6244.62
919.997	6156.62
920.232	6137.62
920.466	6137.62
920.701	5962.62
920.935	6000.62
921.17	5924.62
921.405	5903.62
921.639	5876.62
921.873	5866.62
922.108	5878.62
922.342	5881.62
922.576	5770.62
922.811	5753.62
923.045	5817.62
923.279	5805.62
923.513	5620.62
923.747	5685.62
923.981	5620.62
924.215	5553.62
924.449	5534.62
924.683	5497.62
924.917	5509.62
925.151	5487.62
925.385	5467.62
925.618	5456.62
925.852	5423.62
926.086	5346.62
926.319	5385.62
926.553	5371.62
926.786	5412.62
927.02	5367.62
927.253	5413.62
927.486	5389.62
927.72	5341.62
927.953	5376.62
928.186	5290.62
928.42	5332.62
928.653	5218.62
928.886	5162.62
929.119	5245.62
929.352	5186.62
929.585	5144.62
929.818	5140.62
930.051	5085.62
930.284	5085.62
930.516	4938.62
930.749	4928.62
930.982	4977.62
931.215	4931.62
931.447	4839.62
931.68	4787.62
931.912	4867.62
932.145	4802.62
932.377	4842.62
932.61	4974.62
932.842	4772.62
933.074	4803.62
933.307	4838.62
933.539	4841.62
933.771	4853.62
934.003	4766.62
934.236	4820.62
934.468	4858.62
934.7	4772.62
934.932	4763.62
935.164	4742.62
935.395	4631.62
935.627	4731.62
935.859	4723.62
936.091	4636.62
936.323	4666.62
936.554	4685.62
936.786	4633.62
937.017	4561.62
937.249	4592.62
937.481	4552.62
937.712	4594.62
937.943	4597.62
938.175	4499.62
938.406	4526.62
938.637	4579.62
938.869	4479.62
939.1	4541.62
939.331	4474.62
939.562	4509.62
939.793	4459.62
940.024	4453.62
940.255	4456.62
940.486	4397.62
940.717	4359.62
940.948	4337.62
941.179	4271.62
941.409	4305.62
941.64	4304.62
941.871	4319.62
942.102	4327.62
942.332	4278.62
942.563	4341.62
942.793	4287.62
943.024	4203.62
943.254	4338.62
943.484	4318.62
943.715	4275.62
943.945	4301.62
944.175	4260.62
944.405	4146.62
944.636	4241.62
944.866	4236.62
945.096	4285.62
945.326	4138.62
945.556	4197.62
945.786	4257.62
946.016	4170.62
946.245	4116.62
946.475	4097.62
946.705	4042.62
946.935	4051.62
947.164	4053.62
947.394	3940.62
947.624	3973.62
947.853	3974.62
948.083	3948.62
948.312	3901.62
948.542	3908.62
948.771	3847.62
949	3889.62
949.23	3867.62
949.459	3884.62
949.688	3977.62
949.917	3882.62
950.146	3835.62
950.375	3872.62
950.604	3811.62
950.833	3890.62
951.062	3864.62
951.291	3781.62
951.52	3755.62
951.749	3765.62
951.978	3795.62
952.206	3759.62
952.435	3690.62
952.664	3744.62
952.892	3749.62
953.121	3738.62
953.349	3759.62
953.578	3674.62
953.806	3651.62
954.035	3611.62
954.263	3639.62
954.491	3571.62
954.719	3608.62
954.948	3550.62
955.176	3560.62
955.404	3509.62
955.632	3579.62
955.86	3557.62
956.088	3522.62
956.316	3541.62
956.544	3531.62
956.772	3454.62
956.999	3413.62
957.227	3525.62
957.455	3378.62
957.683	3366.62
957.91	3346.62
958.138	3328.62
958.365	3356.62
958.593	3314.62
958.82	3265.62
959.048	3305.62
959.275	3262.62
959.502	3286.62
959.73	3210.62
959.957	3265.62
960.184	3286.62
960.411	3223.62
960.638	3314.62
960.865	3233.62
961.092	3316.62
961.319	3141.62
961.546	3249.62
961.773	3223.62
962	3192.62
962.227	3216.62
962.454	3166.62
962.68	3163.62
962.907	3199.62
963.134	3123.62
963.36	3109.62
963.587	3117.62
963.813	3058.62
964.04	3091.62
964.266	2991.62
964.493	3107.62
964.719	3047.62
964.945	3051.62
965.171	2955.62
965.398	3027.62
965.624	3002.62
965.85	2962.62
966.076	2940.62
966.302	2946.62
966.528	2896.62
966.754	2913.62
966.98	2960.62
967.206	2908.62
967.431	2855.62
967.657	2936.62
967.883	2884.62
968.109	2889.62
968.334	2836.62
968.56	2821.62
968.785	2816.62
969.011	2738.62
969.236	2842.62
969.462	2810.62
969.687	2810.62
969.912	2825.62
970.138	2814.62
970.363	2722.62
970.588	2778.62
970.813	2735.62
971.038	2733.62
971.263	2730.62
971.488	2732.62
971.713	2777.62
971.938	2721.62
972.163	2624.62
972.388	2639.62
972.613	2637.62
972.838	2664.62
973.062	2669.62
973.287	2647.62
973.512	2574.62
973.736	2604.62
973.961	2603.62
974.185	2560.62
974.41	2578.62
974.634	2494.62
974.858	2520.62
975.083	2520.62
975.307	2533.62
975.531	2479.62
975.755	2408.62
975.98	2464.62
976.204	2358.62
976.428	2357.62
976.652	2345.62
976.876	2314.62
977.1	2397.62
977.324	2352.62
977.547	2421.62
977.771	2404.62
977.995	2361.62
978.219	2284.62
978.442	2415.62
978.666	2352.62
978.89	2341.62
979.113	2323.62
979.337	2295.62
979.56	2281.62
979.783	2377.62
980.007	2255.62
980.23	2271.62
980.453	2253.62
980.677	2271.62
980.9	2275.62
981.123	2161.62
981.346	2241.62
981.569	2222.62
981.792	2233.62
982.015	2177.62
982.238	2163.62
982.461	2179.62
982.684	2152.62
982.907	2101.62
983.129	2111.62
983.352	2158.62
983.575	2147.62
983.797	2131.62
984.02	2094.62
984.242	2089.62
984.465	2069.62
984.687	2121.62
984.91	2147.62
985.132	2124.62
985.354	2123.62
985.577	2054.62
985.799	2061.62
986.021	1974.62
986.243	2019.62
986.465	2022.62
986.687	2074.62
986.909	2096.62
987.131	2032.62
987.353	1982.62
987.575	2036.62
987.797	2001.62
988.019	1940.62
988.241	1964.62
988.462	1959.62
988.684	1985.62
988.906	2015.62
989.127	2030.62
989.349	1919.62
989.57	1956.62
989.792	1977.62
990.013	2007.62
990.234	1965.62
990.456	2021.62
990.677	1960.62
990.898	1951.62
991.119	1913.62
991.341	1943.62
991.562	1876.62
991.783	1927.62
992.004	1865.62
992.225	1838.62
992.446	1877.62
992.667	1769.62
992.887	1893.62
993.108	1748.62
993.329	1892.62
993.55	1851.62
993.77	1772.62
993.991	1765.62
994.212	1779.62
994.432	1784.62
994.653	1779.62
994.873	1775.62
995.093	1680.62
995.314	1741.62
995.534	1773.62
995.754	1806.62
995.975	1827.62
996.195	1703.62
996.415	1763.62
996.635	1743.62
996.855	1744.62
997.075	1724.62
997.295	1703.62
997.515	1697.62
997.735	1748.62
997.955	1710.62
998.174	1734.62
998.394	1670.62
998.614	1723.62
998.834	1685.62
999.053	1757.62
999.273	1700.62
999.492	1744.62
999.712	1676.62
999.931	1647.62
1000.151	1672.62
1000.37	1658.62
1000.589	1723.62
1000.809	1642.62
1001.028	1731.62
1001.247	1664.62
1001.466	1584.62
1001.685	1704.62
1001.904	1659.62
1002.123	1646.62
1002.342	1630.62
1002.561	1599.62
1002.78	1594.62
1002.999	1710.62
1003.218	1656.62
1003.436	1587.62
1003.655	1616.62
1003.874	1562.62
1004.092	1602.62
1004.311	1627.62
1004.53	1561.62
1004.748	1682.62
1004.966	1556.62
1005.185	1609.62
1005.403	1621.62
1005.622	1603.62
1005.84	1655.62
1006.058	1566.62
1006.276	1591.62
1006.494	1952.62
1006.712	1608.62
1006.931	1669.62
1007.149	1581.62
1007.367	1566.62
1007.584	1595.62
1007.802	1588.62
1008.02	1591.62
1008.238	1663.62
1008.456	1647.62
1008.673	1535.62
1008.891	1650.62
1009.109	1633.62
1009.326	1672.62
1009.544	1756.62
1009.761	1624.62
1009.979	1754.62
1010.196	1770.62
1010.413	1879.62
1010.631	1909.62
1010.848	1927.62
1011.065	1953.62
1011.282	1881.62
1011.5	1825.62
1011.717	1931.62
1011.934	1878.62
1012.151	1894.62
1012.368	1873.62
1012.585	1797.62
1012.801	1860.62
1013.018	1845.62
1013.235	1808.62
1013.452	1830.62
1013.669	1846.62
1013.885	1807.62
1014.102	1857.62
1014.318	1811.62
1014.535	1782.62
1014.751	1818.62
1014.968	1798.62
1015.184	1807.62
1015.401	1738.62
1015.617	1753.62
1015.833	1718.62
1016.049	1723.62
1016.266	1687.62
1016.482	1669.62
1016.698	1629.62
1016.914	1673.62
1017.13	1601.62
1017.346	1597.62
1017.562	1678.62
1017.778	1608.62
1017.993	1561.62
1018.209	1610.62
1018.425	1589.62
1018.641	1553.62
1018.856	1510.62
1019.072	1596.62
1019.288	1594.62
1019.503	1573.62
1019.719	1470.62
1019.934	1469.62
1020.149	1567.62
1020.365	1516.62
1020.58	1434.62
1020.795	1473.62
1021.011	1399.62
1021.226	1412.62
1021.441	1426.62
1021.656	1315.62
1021.871	1254.62
1022.086	1272.62
1022.301	1270.62
1022.516	1235.62
1022.731	1282.62
1022.946	1193.62
1023.16	1191.62
1023.375	1155.62
1023.59	1168.62
1023.804	1118.62
1024.019	1200.62
1024.234	1081.62
1024.448	1108.62
1024.663	994.62
1024.877	1018.62
1025.092	1043.62
1025.306	1056.62
1025.52	956.62
1025.734	1062.62
1025.949	979.62
1026.163	926.62
1026.377	890.62
1026.591	942.62
1026.805	856.62
1027.019	859.62
1027.233	796.62
1027.447	765.62
1027.661	872.62
1027.875	814.62
1028.088	804.62
1028.302	728.62
1028.516	701.62
1028.73	718.62
1028.943	701.62
1029.157	654.62
1029.37	617.62
1029.584	-1.38
1029.797	-2.38
1030.011	-4.38
1030.224	-2.38
