Data from QEP037381__547__17-45-56-377.txt Node

Date: Fri Dec 16 17:45:56 EST 2022
User: dcclab
Spectrometer: QEP03738
Trigger mode: 4
Integration Time (sec): 1.000000E1
Scans to average: 1
Electric dark correction enabled: true
Nonlinearity correction enabled: false
Boxcar width: 0
XAxis mode: Wavelengths
Number of Pixels in Spectrum: 1044
>>>>>Begin Spectral Data<<<<<
784.041	11.12
784.3	1.12
784.558	-1.88
784.817	-4.88
785.075	118656.12
785.334	20195.12
785.592	9294.12
785.851	6464.12
786.109	4864.12
786.368	3726.12
786.626	2991.12
786.884	2490.12
787.143	2050.12
787.401	1726.12
787.659	1534.12
787.917	1301.12
788.175	1196.12
788.433	1066.12
788.691	962.12
788.949	885.12
789.207	822.12
789.465	715.12
789.723	685.12
789.98	638.12
790.238	684.12
790.496	629.12
790.753	598.12
791.011	646.12
791.268	571.12
791.526	564.12
791.783	573.12
792.041	576.12
792.298	467.12
792.556	544.12
792.813	496.12
793.07	498.12
793.327	472.12
793.584	555.12
793.841	468.12
794.099	490.12
794.356	573.12
794.613	458.12
794.869	497.12
795.126	448.12
795.383	443.12
795.64	470.12
795.897	414.12
796.153	472.12
796.41	467.12
796.667	457.12
796.923	457.12
797.18	460.12
797.436	488.12
797.693	439.12
797.949	491.12
798.206	526.12
798.462	450.12
798.718	501.12
798.974	482.12
799.231	527.12
799.487	510.12
799.743	498.12
799.999	554.12
800.255	562.12
800.511	554.12
800.767	596.12
801.023	568.12
801.279	614.12
801.534	682.12
801.79	710.12
802.046	776.12
802.302	919.12
802.557	1082.12
802.813	1335.12
803.068	1714.12
803.324	2357.12
803.579	3263.12
803.835	4539.12
804.09	6289.12
804.345	8300.12
804.601	10558.12
804.856	12756.12
805.111	14807.12
805.366	16326.12
805.621	17576.12
805.876	18446.12
806.131	18851.12
806.386	19284.12
806.641	19641.12
806.896	19905.12
807.151	20289.12
807.406	20486.12
807.661	20840.12
807.915	21316.12
808.17	21549.12
808.425	21814.12
808.679	22035.12
808.934	22220.12
809.188	22474.12
809.443	22665.12
809.697	22968.12
809.951	23066.12
810.206	23229.12
810.46	23430.12
810.714	23641.12
810.968	23829.12
811.223	23924.12
811.477	24189.12
811.731	24336.12
811.985	24438.12
812.239	24497.12
812.493	24840.12
812.747	24788.12
813	24877.12
813.254	24978.12
813.508	25123.12
813.762	25201.12
814.015	25213.12
814.269	25347.12
814.522	25553.12
814.776	25886.12
815.03	26204.12
815.283	26559.12
815.536	26867.12
815.79	27218.12
816.043	27618.12
816.296	28072.12
816.55	28345.12
816.803	28710.12
817.056	29009.12
817.309	29238.12
817.562	29463.12
817.815	29786.12
818.068	30045.12
818.321	30338.12
818.574	30565.12
818.827	31177.12
819.079	31342.12
819.332	31847.12
819.585	32225.12
819.838	32701.12
820.09	32830.12
820.343	33067.12
820.595	33187.12
820.848	33446.12
821.1	33527.12
821.353	33460.12
821.605	33519.12
821.857	33584.12
822.11	33457.12
822.362	33313.12
822.614	33118.12
822.866	33318.12
823.118	33286.12
823.37	33298.12
823.622	33465.12
823.874	33545.12
824.126	33612.12
824.378	33659.12
824.63	33715.12
824.882	33850.12
825.134	33772.12
825.385	33740.12
825.637	33603.12
825.888	33484.12
826.14	33421.12
826.392	33353.12
826.643	33215.12
826.895	33059.12
827.146	32909.12
827.397	32884.12
827.649	32896.12
827.9	32832.12
828.151	32739.12
828.402	32945.12
828.653	32901.12
828.905	32943.12
829.156	33073.12
829.407	32956.12
829.658	32964.12
829.909	32996.12
830.159	33043.12
830.41	32910.12
830.661	32488.12
830.912	32360.12
831.162	32315.12
831.413	32200.12
831.664	32211.12
831.914	32061.12
832.165	32096.12
832.415	32070.12
832.666	32029.12
832.916	32078.12
833.167	32050.12
833.417	32019.12
833.667	32019.12
833.917	31953.12
834.168	31636.12
834.418	31654.12
834.668	31451.12
834.918	31366.12
835.168	31165.12
835.418	31080.12
835.668	31143.12
835.918	30931.12
836.167	30759.12
836.417	30658.12
836.667	30744.12
836.917	30602.12
837.166	30640.12
837.416	30653.12
837.666	30601.12
837.915	30361.12
838.165	30503.12
838.414	30385.12
838.663	30254.12
838.913	30135.12
839.162	30044.12
839.411	30187.12
839.661	29919.12
839.91	29831.12
840.159	29765.12
840.408	29624.12
840.657	29728.12
840.906	29653.12
841.155	29633.12
841.404	29520.12
841.653	29653.12
841.902	29569.12
842.15	29691.12
842.399	29658.12
842.648	29579.12
842.897	29576.12
843.145	29316.12
843.394	29072.12
843.642	29011.12
843.891	28915.12
844.139	28794.12
844.388	28603.12
844.636	28359.12
844.884	28452.12
845.133	28279.12
845.381	28359.12
845.629	28386.12
845.877	28289.12
846.125	28203.12
846.373	28175.12
846.621	27934.12
846.869	27956.12
847.117	27767.12
847.365	27588.12
847.613	27505.12
847.861	27393.12
848.108	27344.12
848.356	27332.12
848.604	27198.12
848.851	27168.12
849.099	27151.12
849.346	27254.12
849.594	27422.12
849.841	27489.12
850.089	27515.12
850.336	27473.12
850.583	27398.12
850.831	27341.12
851.078	27028.12
851.325	26991.12
851.572	26993.12
851.819	26770.12
852.066	26328.12
852.313	25954.12
852.56	25808.12
852.807	25828.12
853.054	25751.12
853.301	25715.12
853.548	25759.12
853.794	25665.12
854.041	25748.12
854.288	25974.12
854.534	26093.12
854.781	25982.12
855.028	25976.12
855.274	25890.12
855.52	25681.12
855.767	25625.12
856.013	25536.12
856.26	25843.12
856.506	25322.12
856.752	25383.12
856.998	25335.12
857.244	25258.12
857.49	25502.12
857.736	25590.12
857.982	25516.12
858.228	25375.12
858.474	25206.12
858.72	25102.12
858.966	24816.12
859.212	24719.12
859.458	24463.12
859.703	24144.12
859.949	23946.12
860.195	23799.12
860.44	23612.12
860.686	23530.12
860.931	23442.12
861.177	23264.12
861.422	23212.12
861.667	23302.12
861.913	23331.12
862.158	23363.12
862.403	23444.12
862.648	23490.12
862.893	23435.12
863.138	23364.12
863.384	23289.12
863.629	23264.12
863.873	23209.12
864.118	23177.12
864.363	23055.12
864.608	22915.12
864.853	22887.12
865.098	22754.12
865.342	22691.12
865.587	22512.12
865.832	22402.12
866.076	22409.12
866.321	22379.12
866.565	22210.12
866.81	22000.12
867.054	22081.12
867.298	22001.12
867.543	21873.12
867.787	21961.12
868.031	21851.12
868.275	21749.12
868.519	21749.12
868.764	21660.12
869.008	21558.12
869.252	21578.12
869.496	21474.12
869.739	21460.12
869.983	21320.12
870.227	21324.12
870.471	21280.12
870.715	21297.12
870.958	21396.12
871.202	21322.12
871.446	21371.12
871.689	21354.12
871.933	21461.12
872.176	21451.12
872.42	21237.12
872.663	21221.12
872.906	21269.12
873.15	21145.12
873.393	20918.12
873.636	20908.12
873.879	20632.12
874.122	20521.12
874.366	20333.12
874.609	20154.12
874.852	20105.12
875.095	19891.12
875.337	19831.12
875.58	19693.12
875.823	19674.12
876.066	19615.12
876.309	19678.12
876.551	19434.12
876.794	19317.12
877.037	19362.12
877.279	19277.12
877.522	19271.12
877.764	19291.12
878.007	19236.12
878.249	19242.12
878.491	19128.12
878.734	19191.12
878.976	19218.12
879.218	18953.12
879.46	19051.12
879.702	18920.12
879.945	18733.12
880.187	18468.12
880.429	18424.12
880.671	18241.12
880.912	18204.12
881.154	18238.12
881.396	18096.12
881.638	18113.12
881.88	18135.12
882.121	18016.12
882.363	17962.12
882.605	17920.12
882.846	17820.12
883.088	17785.12
883.329	17795.12
883.571	17752.12
883.812	17800.12
884.053	17997.12
884.295	18103.12
884.536	18272.12
884.777	18075.12
885.018	18005.12
885.259	18035.12
885.5	17902.12
885.742	18037.12
885.982	17916.12
886.223	17756.12
886.464	17656.12
886.705	17436.12
886.946	17418.12
887.187	17219.12
887.428	17136.12
887.668	16867.12
887.909	16644.12
888.15	16473.12
888.39	16423.12
888.631	16293.12
888.871	16226.12
889.111	16142.12
889.352	15994.12
889.592	15841.12
889.833	15741.12
890.073	15689.12
890.313	15619.12
890.553	15535.12
890.793	15433.12
891.033	15390.12
891.273	15132.12
891.513	15134.12
891.753	15190.12
891.993	15183.12
892.233	15149.12
892.473	15243.12
892.713	15207.12
892.952	15198.12
893.192	15058.12
893.432	15040.12
893.671	15078.12
893.911	14980.12
894.15	15009.12
894.39	14748.12
894.629	14731.12
894.869	14580.12
895.108	14559.12
895.347	14465.12
895.587	14480.12
895.826	14309.12
896.065	14334.12
896.304	14378.12
896.543	14263.12
896.782	14094.12
897.021	14259.12
897.26	14094.12
897.499	14103.12
897.738	14067.12
897.977	13926.12
898.216	13832.12
898.454	13752.12
898.693	13565.12
898.932	13634.12
899.17	13433.12
899.409	13510.12
899.647	13359.12
899.886	13293.12
900.124	13389.12
900.363	13292.12
900.601	13446.12
900.839	13349.12
901.078	13378.12
901.316	13410.12
901.554	13328.12
901.792	13345.12
902.03	13303.12
902.268	13354.12
902.506	13384.12
902.744	13241.12
902.982	13228.12
903.22	12994.12
903.458	12841.12
903.695	12785.12
903.933	12638.12
904.171	12464.12
904.409	12296.12
904.646	12192.12
904.884	12008.12
905.121	11866.12
905.359	11757.12
905.596	11593.12
905.833	11614.12
906.071	11525.12
906.308	11536.12
906.545	11538.12
906.783	11411.12
907.02	11369.12
907.257	11333.12
907.494	11358.12
907.731	11297.12
907.968	11228.12
908.205	11206.12
908.442	11114.12
908.679	11031.12
908.915	10981.12
909.152	10831.12
909.389	10708.12
909.626	10684.12
909.862	10621.12
910.099	10586.12
910.335	10569.12
910.572	10489.12
910.808	10491.12
911.045	10416.12
911.281	10321.12
911.518	10417.12
911.754	10306.12
911.99	10256.12
912.226	10102.12
912.463	10084.12
912.699	10038.12
912.935	9925.12
913.171	9814.12
913.407	9751.12
913.643	9692.12
913.879	9602.12
914.114	9487.12
914.35	9441.12
914.586	9334.12
914.822	9247.12
915.057	9352.12
915.293	9079.12
915.529	9044.12
915.764	9111.12
916	9086.12
916.235	9057.12
916.471	9021.12
916.706	8949.12
916.941	8931.12
917.177	8859.12
917.412	8910.12
917.647	8914.12
917.882	8923.12
918.117	8891.12
918.352	8893.12
918.588	8870.12
918.823	8734.12
919.057	8634.12
919.292	8511.12
919.527	8516.12
919.762	8303.12
919.997	8342.12
920.232	8225.12
920.466	8192.12
920.701	7965.12
920.935	8064.12
921.17	7960.12
921.405	7844.12
921.639	7925.12
921.873	7865.12
922.108	7874.12
922.342	7818.12
922.576	7700.12
922.811	7696.12
923.045	7731.12
923.279	7630.12
923.513	7544.12
923.747	7599.12
923.981	7553.12
924.215	7505.12
924.449	7403.12
924.683	7324.12
924.917	7361.12
925.151	7307.12
925.385	7331.12
925.618	7248.12
925.852	7272.12
926.086	7176.12
926.319	7247.12
926.553	7174.12
926.786	7190.12
927.02	7156.12
927.253	7185.12
927.486	7118.12
927.72	7075.12
927.953	7095.12
928.186	7014.12
928.42	7098.12
928.653	7025.12
928.886	6949.12
929.119	6951.12
929.352	6894.12
929.585	6882.12
929.818	6781.12
930.051	6747.12
930.284	6742.12
930.516	6578.12
930.749	6512.12
930.982	6627.12
931.215	6579.12
931.447	6440.12
931.68	6453.12
931.912	6445.12
932.145	6406.12
932.377	6431.12
932.61	6562.12
932.842	6395.12
933.074	6400.12
933.307	6390.12
933.539	6428.12
933.771	6427.12
934.003	6400.12
934.236	6412.12
934.468	6435.12
934.7	6305.12
934.932	6413.12
935.164	6295.12
935.395	6204.12
935.627	6260.12
935.859	6244.12
936.091	6160.12
936.323	6275.12
936.554	6230.12
936.786	6151.12
937.017	6114.12
937.249	6060.12
937.481	6040.12
937.712	6106.12
937.943	6049.12
938.175	5984.12
938.406	5960.12
938.637	6065.12
938.869	5963.12
939.1	5985.12
939.331	5919.12
939.562	5895.12
939.793	5870.12
940.024	5913.12
940.255	5912.12
940.486	5804.12
940.717	5795.12
940.948	5758.12
941.179	5709.12
941.409	5719.12
941.64	5724.12
941.871	5694.12
942.102	5642.12
942.332	5641.12
942.563	5714.12
942.793	5742.12
943.024	5648.12
943.254	5722.12
943.484	5716.12
943.715	5695.12
943.945	5675.12
944.175	5632.12
944.405	5577.12
944.636	5602.12
944.866	5623.12
945.096	5590.12
945.326	5526.12
945.556	5547.12
945.786	5586.12
946.016	5473.12
946.245	5414.12
946.475	5374.12
946.705	5397.12
946.935	5287.12
947.164	5275.12
947.394	5249.12
947.624	5268.12
947.853	5275.12
948.083	5206.12
948.312	5180.12
948.542	5125.12
948.771	5083.12
949	5065.12
949.23	5071.12
949.459	5110.12
949.688	5176.12
949.917	5138.12
950.146	5068.12
950.375	5170.12
950.604	5024.12
950.833	5155.12
951.062	5119.12
951.291	5080.12
951.52	4957.12
951.749	5028.12
951.978	4943.12
952.206	4956.12
952.435	4895.12
952.664	4958.12
952.892	4879.12
953.121	4877.12
953.349	4969.12
953.578	4912.12
953.806	4858.12
954.035	4765.12
954.263	4749.12
954.491	4743.12
954.719	4829.12
954.948	4680.12
955.176	4630.12
955.404	4617.12
955.632	4622.12
955.86	4629.12
956.088	4577.12
956.316	4602.12
956.544	4594.12
956.772	4532.12
956.999	4512.12
957.227	4586.12
957.455	4430.12
957.683	4476.12
957.91	4393.12
958.138	4350.12
958.365	4360.12
958.593	4294.12
958.82	4267.12
959.048	4336.12
959.275	4275.12
959.502	4256.12
959.73	4257.12
959.957	4270.12
960.184	4303.12
960.411	4231.12
960.638	4274.12
960.865	4226.12
961.092	4255.12
961.319	4126.12
961.546	4269.12
961.773	4268.12
962	4164.12
962.227	4245.12
962.454	4183.12
962.68	4138.12
962.907	4089.12
963.134	4094.12
963.36	4082.12
963.587	4131.12
963.813	4031.12
964.04	4056.12
964.266	3963.12
964.493	4059.12
964.719	3997.12
964.945	3948.12
965.171	3843.12
965.398	3913.12
965.624	3929.12
965.85	3818.12
966.076	3812.12
966.302	3811.12
966.528	3801.12
966.754	3820.12
966.98	3789.12
967.206	3811.12
967.431	3658.12
967.657	3774.12
967.883	3767.12
968.109	3722.12
968.334	3659.12
968.56	3618.12
968.785	3630.12
969.011	3584.12
969.236	3685.12
969.462	3624.12
969.687	3617.12
969.912	3660.12
970.138	3676.12
970.363	3553.12
970.588	3618.12
970.813	3559.12
971.038	3510.12
971.263	3555.12
971.488	3497.12
971.713	3536.12
971.938	3537.12
972.163	3426.12
972.388	3434.12
972.613	3405.12
972.838	3402.12
973.062	3392.12
973.287	3404.12
973.512	3295.12
973.736	3363.12
973.961	3335.12
974.185	3300.12
974.41	3338.12
974.634	3235.12
974.858	3212.12
975.083	3256.12
975.307	3264.12
975.531	3201.12
975.755	3127.12
975.98	3132.12
976.204	3061.12
976.428	3082.12
976.652	3050.12
976.876	3038.12
977.1	3055.12
977.324	3052.12
977.547	3067.12
977.771	3078.12
977.995	3010.12
978.219	2932.12
978.442	3079.12
978.666	2994.12
978.89	3005.12
979.113	2996.12
979.337	2970.12
979.56	2915.12
979.783	3009.12
980.007	2884.12
980.23	2912.12
980.453	2901.12
980.677	2914.12
980.9	2907.12
981.123	2804.12
981.346	2845.12
981.569	2843.12
981.792	2847.12
982.015	2795.12
982.238	2792.12
982.461	2793.12
982.684	2756.12
982.907	2729.12
983.129	2700.12
983.352	2731.12
983.575	2678.12
983.797	2694.12
984.02	2631.12
984.242	2641.12
984.465	2647.12
984.687	2677.12
984.91	2671.12
985.132	2618.12
985.354	2656.12
985.577	2605.12
985.799	2603.12
986.021	2520.12
986.243	2510.12
986.465	2546.12
986.687	2580.12
986.909	2591.12
987.131	2553.12
987.353	2485.12
987.575	2507.12
987.797	2505.12
988.019	2431.12
988.241	2454.12
988.462	2449.12
988.684	2485.12
988.906	2536.12
989.127	2545.12
989.349	2427.12
989.57	2442.12
989.792	2492.12
990.013	2487.12
990.234	2489.12
990.456	2465.12
990.677	2465.12
990.898	2390.12
991.119	2395.12
991.341	2396.12
991.562	2318.12
991.783	2351.12
992.004	2311.12
992.225	2271.12
992.446	2323.12
992.667	2236.12
992.887	2285.12
993.108	2198.12
993.329	2353.12
993.55	2264.12
993.77	2187.12
993.991	2200.12
994.212	2190.12
994.432	2235.12
994.653	2220.12
994.873	2182.12
995.093	2100.12
995.314	2108.12
995.534	2169.12
995.754	2174.12
995.975	2205.12
996.195	2078.12
996.415	2154.12
996.635	2108.12
996.855	2137.12
997.075	2102.12
997.295	2069.12
997.515	2092.12
997.735	2119.12
997.955	2074.12
998.174	2059.12
998.394	2064.12
998.614	2073.12
998.834	2072.12
999.053	2104.12
999.273	2063.12
999.492	2103.12
999.712	2032.12
999.931	2011.12
1000.151	2048.12
1000.37	2021.12
1000.589	2050.12
1000.809	1978.12
1001.028	2081.12
1001.247	2043.12
1001.466	1894.12
1001.685	2061.12
1001.904	1978.12
1002.123	1957.12
1002.342	1982.12
1002.561	1947.12
1002.78	1941.12
1002.999	2006.12
1003.218	1946.12
1003.436	1892.12
1003.655	1966.12
1003.874	1867.12
1004.092	1893.12
1004.311	1934.12
1004.53	1893.12
1004.748	1933.12
1004.966	1849.12
1005.185	1952.12
1005.403	1915.12
1005.622	1876.12
1005.84	1958.12
1006.058	1852.12
1006.276	1873.12
1006.494	2246.12
1006.712	1889.12
1006.931	1913.12
1007.149	1825.12
1007.367	1840.12
1007.584	1860.12
1007.802	1906.12
1008.02	1821.12
1008.238	1950.12
1008.456	1907.12
1008.673	1783.12
1008.891	1888.12
1009.109	1861.12
1009.326	1893.12
1009.544	2012.12
1009.761	1904.12
1009.979	1983.12
1010.196	2000.12
1010.413	2093.12
1010.631	2144.12
1010.848	2174.12
1011.065	2191.12
1011.282	2096.12
1011.5	2076.12
1011.717	2152.12
1011.934	2121.12
1012.151	2130.12
1012.368	2099.12
1012.585	2051.12
1012.801	2104.12
1013.018	2072.12
1013.235	2008.12
1013.452	2089.12
1013.669	2066.12
1013.885	2049.12
1014.102	2086.12
1014.318	2036.12
1014.535	2029.12
1014.751	2009.12
1014.968	2030.12
1015.184	2028.12
1015.401	1918.12
1015.617	1976.12
1015.833	1949.12
1016.049	1890.12
1016.266	1877.12
1016.482	1870.12
1016.698	1798.12
1016.914	1857.12
1017.13	1805.12
1017.346	1758.12
1017.562	1829.12
1017.778	1765.12
1017.993	1748.12
1018.209	1788.12
1018.425	1769.12
1018.641	1728.12
1018.856	1699.12
1019.072	1702.12
1019.288	1770.12
1019.503	1724.12
1019.719	1638.12
1019.934	1624.12
1020.149	1713.12
1020.365	1639.12
1020.58	1617.12
1020.795	1667.12
1021.011	1585.12
1021.226	1576.12
1021.441	1590.12
1021.656	1486.12
1021.871	1454.12
1022.086	1420.12
1022.301	1398.12
1022.516	1408.12
1022.731	1434.12
1022.946	1349.12
1023.16	1337.12
1023.375	1295.12
1023.59	1267.12
1023.804	1249.12
1024.019	1323.12
1024.234	1217.12
1024.448	1247.12
1024.663	1163.12
1024.877	1151.12
1025.092	1199.12
1025.306	1192.12
1025.52	1086.12
1025.734	1166.12
1025.949	1085.12
1026.163	1060.12
1026.377	995.12
1026.591	1042.12
1026.805	941.12
1027.019	973.12
1027.233	938.12
1027.447	867.12
1027.661	982.12
1027.875	909.12
1028.088	921.12
1028.302	838.12
1028.516	834.12
1028.73	833.12
1028.943	818.12
1029.157	749.12
1029.37	709.12
1029.584	-1.88
1029.797	1.12
1030.011	-1.88
1030.224	-2.88
