Data from QEP037381__548__17-46-06-376.txt Node

Date: Fri Dec 16 17:46:06 EST 2022
User: dcclab
Spectrometer: QEP03738
Trigger mode: 4
Integration Time (sec): 1.000000E1
Scans to average: 1
Electric dark correction enabled: true
Nonlinearity correction enabled: false
Boxcar width: 0
XAxis mode: Wavelengths
Number of Pixels in Spectrum: 1044
>>>>>Begin Spectral Data<<<<<
784.041	12.12
784.3	1.12
784.558	-1.88
784.817	-4.88
785.075	113659.12
785.334	19303.12
785.592	8942.12
785.851	6095.12
786.109	4586.12
786.368	3574.12
786.626	2841.12
786.884	2398.12
787.143	1978.12
787.401	1639.12
787.659	1468.12
787.917	1284.12
788.175	1178.12
788.433	1016.12
788.691	932.12
788.949	872.12
789.207	799.12
789.465	701.12
789.723	671.12
789.98	625.12
790.238	653.12
790.496	610.12
790.753	597.12
791.011	638.12
791.268	582.12
791.526	548.12
791.783	584.12
792.041	557.12
792.298	486.12
792.556	545.12
792.813	529.12
793.07	483.12
793.327	485.12
793.584	550.12
793.841	481.12
794.099	499.12
794.356	563.12
794.613	458.12
794.869	498.12
795.126	464.12
795.383	443.12
795.64	467.12
795.897	415.12
796.153	460.12
796.41	451.12
796.667	448.12
796.923	455.12
797.18	449.12
797.436	475.12
797.693	445.12
797.949	505.12
798.206	533.12
798.462	436.12
798.718	481.12
798.974	495.12
799.231	522.12
799.487	525.12
799.743	544.12
799.999	559.12
800.255	556.12
800.511	549.12
800.767	608.12
801.023	594.12
801.279	636.12
801.534	668.12
801.79	735.12
802.046	787.12
802.302	976.12
802.557	1101.12
802.813	1390.12
803.068	1747.12
803.324	2440.12
803.579	3341.12
803.835	4692.12
804.09	6547.12
804.345	8678.12
804.601	10978.12
804.856	13529.12
805.111	15691.12
805.366	17402.12
805.621	18702.12
805.876	19477.12
806.131	19997.12
806.386	20475.12
806.641	20836.12
806.896	21085.12
807.151	21568.12
807.406	21783.12
807.661	22258.12
807.915	22628.12
808.17	22882.12
808.425	23146.12
808.679	23349.12
808.934	23635.12
809.188	23560.12
809.443	24029.12
809.697	24282.12
809.951	24408.12
810.206	24745.12
810.46	24904.12
810.714	25051.12
810.968	25321.12
811.223	25330.12
811.477	25554.12
811.731	25918.12
811.985	25851.12
812.239	25937.12
812.493	26180.12
812.747	26224.12
813	26230.12
813.254	26393.12
813.508	26454.12
813.762	26451.12
814.015	26623.12
814.269	26795.12
814.522	27154.12
814.776	27444.12
815.03	27690.12
815.283	28134.12
815.536	28614.12
815.79	28915.12
816.043	29269.12
816.296	29784.12
816.55	30090.12
816.803	30293.12
817.056	30782.12
817.309	30994.12
817.562	31229.12
817.815	31580.12
818.068	31669.12
818.321	31937.12
818.574	32222.12
818.827	32776.12
819.079	33175.12
819.332	33730.12
819.585	34044.12
819.838	34420.12
820.09	34674.12
820.343	35034.12
820.595	35136.12
820.848	35392.12
821.1	35292.12
821.353	35532.12
821.605	35262.12
821.857	35321.12
822.11	35151.12
822.362	35090.12
822.614	35093.12
822.866	35073.12
823.118	34843.12
823.37	35131.12
823.622	35191.12
823.874	35157.12
824.126	35242.12
824.378	35462.12
824.63	35481.12
824.882	35471.12
825.134	35430.12
825.385	35286.12
825.637	35334.12
825.888	35191.12
826.14	35159.12
826.392	35030.12
826.643	34838.12
826.895	34685.12
827.146	34494.12
827.397	34333.12
827.649	34567.12
827.9	34354.12
828.151	34265.12
828.402	34360.12
828.653	34500.12
828.905	34552.12
829.156	34648.12
829.407	34518.12
829.658	34498.12
829.909	34484.12
830.159	34551.12
830.41	34264.12
830.661	34036.12
830.912	33876.12
831.162	33621.12
831.413	33659.12
831.664	33682.12
831.914	33562.12
832.165	33517.12
832.415	33459.12
832.666	33465.12
832.916	33584.12
833.167	33415.12
833.417	33339.12
833.667	33212.12
833.917	33097.12
834.168	32994.12
834.418	32990.12
834.668	32844.12
834.918	32545.12
835.168	32619.12
835.418	32388.12
835.668	32348.12
835.918	32270.12
836.167	32106.12
836.417	31956.12
836.667	32015.12
836.917	31958.12
837.166	31940.12
837.416	31862.12
837.666	31789.12
837.915	31624.12
838.165	31565.12
838.414	31450.12
838.663	31371.12
838.913	31403.12
839.162	31287.12
839.411	31316.12
839.661	30970.12
839.91	31030.12
840.159	30955.12
840.408	30860.12
840.657	30966.12
840.906	30917.12
841.155	30931.12
841.404	30805.12
841.653	30879.12
841.902	30871.12
842.15	30833.12
842.399	30882.12
842.648	30709.12
842.897	30597.12
843.145	30353.12
843.394	30244.12
843.642	30079.12
843.891	29937.12
844.139	29812.12
844.388	29486.12
844.636	29538.12
844.884	29513.12
845.133	29231.12
845.381	29337.12
845.629	29265.12
845.877	29195.12
846.125	29220.12
846.373	29117.12
846.621	29038.12
846.869	29030.12
847.117	28771.12
847.365	28616.12
847.613	28460.12
847.861	28434.12
848.108	28292.12
848.356	28261.12
848.604	28109.12
848.851	28236.12
849.099	28178.12
849.346	28224.12
849.594	28312.12
849.841	28394.12
850.089	28338.12
850.336	28358.12
850.583	28404.12
850.831	28100.12
851.078	27981.12
851.325	27973.12
851.572	28030.12
851.819	27590.12
852.066	27223.12
852.313	27073.12
852.56	26631.12
852.807	26608.12
853.054	26429.12
853.301	26413.12
853.548	26394.12
853.794	26444.12
854.041	26663.12
854.288	26766.12
854.534	26948.12
854.781	26844.12
855.028	26797.12
855.274	26711.12
855.52	26449.12
855.767	26425.12
856.013	26482.12
856.26	26636.12
856.506	26123.12
856.752	26123.12
856.998	26007.12
857.244	26138.12
857.49	26235.12
857.736	26227.12
857.982	26239.12
858.228	26138.12
858.474	25892.12
858.72	25771.12
858.966	25662.12
859.212	25291.12
859.458	25085.12
859.703	24917.12
859.949	24541.12
860.195	24420.12
860.44	24302.12
860.686	24081.12
860.931	24124.12
861.177	23908.12
861.422	23939.12
861.667	23865.12
861.913	23767.12
862.158	23763.12
862.403	23942.12
862.648	24041.12
862.893	23922.12
863.138	23993.12
863.384	23959.12
863.629	23884.12
863.873	23824.12
864.118	23789.12
864.363	23516.12
864.608	23534.12
864.853	23379.12
865.098	23217.12
865.342	23183.12
865.587	23139.12
865.832	23009.12
866.076	22985.12
866.321	22866.12
866.565	22733.12
866.81	22665.12
867.054	22721.12
867.298	22560.12
867.543	22466.12
867.787	22517.12
868.031	22485.12
868.275	22349.12
868.519	22295.12
868.764	22347.12
869.008	22159.12
869.252	22087.12
869.496	21949.12
869.739	21948.12
869.983	21901.12
870.227	21913.12
870.471	21833.12
870.715	21936.12
870.958	21913.12
871.202	21817.12
871.446	21934.12
871.689	21964.12
871.933	21864.12
872.176	21995.12
872.42	21926.12
872.663	21790.12
872.906	21751.12
873.15	21577.12
873.393	21466.12
873.636	21528.12
873.879	21181.12
874.122	21077.12
874.366	20894.12
874.609	20631.12
874.852	20474.12
875.095	20442.12
875.337	20345.12
875.58	20186.12
875.823	20113.12
876.066	20053.12
876.309	20191.12
876.551	19862.12
876.794	19823.12
877.037	19760.12
877.279	19703.12
877.522	19643.12
877.764	19739.12
878.007	19641.12
878.249	19636.12
878.491	19615.12
878.734	19687.12
878.976	19533.12
879.218	19360.12
879.46	19330.12
879.702	19207.12
879.945	18987.12
880.187	18769.12
880.429	18747.12
880.671	18711.12
880.912	18535.12
881.154	18483.12
881.396	18347.12
881.638	18494.12
881.88	18430.12
882.121	18356.12
882.363	18349.12
882.605	18323.12
882.846	18266.12
883.088	18194.12
883.329	18207.12
883.571	18137.12
883.812	18080.12
884.053	18279.12
884.295	18463.12
884.536	18659.12
884.777	18420.12
885.018	18355.12
885.259	18377.12
885.5	18190.12
885.742	18497.12
885.982	18124.12
886.223	18086.12
886.464	18022.12
886.705	17818.12
886.946	17830.12
887.187	17404.12
887.428	17478.12
887.668	17214.12
887.909	16984.12
888.15	16741.12
888.39	16747.12
888.631	16664.12
888.871	16618.12
889.111	16382.12
889.352	16302.12
889.592	16152.12
889.833	16065.12
890.073	15906.12
890.313	15868.12
890.553	15627.12
890.793	15586.12
891.033	15552.12
891.273	15441.12
891.513	15367.12
891.753	15409.12
891.993	15393.12
892.233	15339.12
892.473	15463.12
892.713	15483.12
892.952	15417.12
893.192	15488.12
893.432	15395.12
893.671	15376.12
893.911	15238.12
894.15	15115.12
894.39	14965.12
894.629	14918.12
894.869	14876.12
895.108	14725.12
895.347	14676.12
895.587	14611.12
895.826	14618.12
896.065	14485.12
896.304	14550.12
896.543	14524.12
896.782	14470.12
897.021	14434.12
897.26	14328.12
897.499	14338.12
897.738	14349.12
897.977	14132.12
898.216	14034.12
898.454	13885.12
898.693	13812.12
898.932	13822.12
899.17	13673.12
899.409	13647.12
899.647	13596.12
899.886	13473.12
900.124	13584.12
900.363	13510.12
900.601	13582.12
900.839	13458.12
901.078	13560.12
901.316	13556.12
901.554	13669.12
901.792	13652.12
902.03	13616.12
902.268	13534.12
902.506	13578.12
902.744	13526.12
902.982	13418.12
903.22	13177.12
903.458	13143.12
903.695	12931.12
903.933	12779.12
904.171	12511.12
904.409	12398.12
904.646	12281.12
904.884	12103.12
905.121	12078.12
905.359	11910.12
905.596	11764.12
905.833	11749.12
906.071	11708.12
906.308	11621.12
906.545	11580.12
906.783	11563.12
907.02	11490.12
907.257	11426.12
907.494	11530.12
907.731	11504.12
907.968	11403.12
908.205	11300.12
908.442	11189.12
908.679	11203.12
908.915	11074.12
909.152	11104.12
909.389	10774.12
909.626	10810.12
909.862	10808.12
910.099	10681.12
910.335	10658.12
910.572	10555.12
910.808	10606.12
911.045	10601.12
911.281	10479.12
911.518	10486.12
911.754	10410.12
911.99	10310.12
912.226	10255.12
912.463	10137.12
912.699	10141.12
912.935	10074.12
913.171	9965.12
913.407	9888.12
913.643	9850.12
913.879	9704.12
914.114	9626.12
914.35	9552.12
914.586	9439.12
914.822	9337.12
915.057	9343.12
915.293	9209.12
915.529	9108.12
915.764	9155.12
916	9148.12
916.235	9082.12
916.471	9137.12
916.706	9035.12
916.941	9071.12
917.177	8912.12
917.412	9064.12
917.647	8997.12
917.882	8981.12
918.117	9013.12
918.352	8831.12
918.588	8931.12
918.823	8753.12
919.057	8667.12
919.292	8544.12
919.527	8595.12
919.762	8374.12
919.997	8411.12
920.232	8218.12
920.466	8227.12
920.701	8117.12
920.935	8106.12
921.17	7976.12
921.405	7954.12
921.639	8007.12
921.873	7918.12
922.108	7941.12
922.342	7872.12
922.576	7824.12
922.811	7790.12
923.045	7764.12
923.279	7810.12
923.513	7622.12
923.747	7705.12
923.981	7550.12
924.215	7514.12
924.449	7488.12
924.683	7459.12
924.917	7426.12
925.151	7382.12
925.385	7417.12
925.618	7342.12
925.852	7320.12
926.086	7221.12
926.319	7254.12
926.553	7215.12
926.786	7266.12
927.02	7187.12
927.253	7253.12
927.486	7239.12
927.72	7126.12
927.953	7153.12
928.186	7086.12
928.42	7131.12
928.653	7108.12
928.886	6998.12
929.119	6992.12
929.352	7014.12
929.585	6954.12
929.818	6880.12
930.051	6821.12
930.284	6811.12
930.516	6624.12
930.749	6594.12
930.982	6654.12
931.215	6573.12
931.447	6496.12
931.68	6474.12
931.912	6507.12
932.145	6489.12
932.377	6469.12
932.61	6612.12
932.842	6441.12
933.074	6535.12
933.307	6396.12
933.539	6534.12
933.771	6497.12
934.003	6358.12
934.236	6497.12
934.468	6493.12
934.7	6369.12
934.932	6378.12
935.164	6368.12
935.395	6272.12
935.627	6294.12
935.859	6296.12
936.091	6175.12
936.323	6203.12
936.554	6278.12
936.786	6196.12
937.017	6075.12
937.249	6145.12
937.481	6074.12
937.712	6067.12
937.943	6102.12
938.175	6025.12
938.406	6072.12
938.637	6072.12
938.869	5961.12
939.1	5982.12
939.331	5990.12
939.562	6014.12
939.793	5989.12
940.024	5953.12
940.255	5909.12
940.486	5841.12
940.717	5864.12
940.948	5804.12
941.179	5705.12
941.409	5749.12
941.64	5762.12
941.871	5737.12
942.102	5691.12
942.332	5704.12
942.563	5765.12
942.793	5718.12
943.024	5636.12
943.254	5672.12
943.484	5799.12
943.715	5709.12
943.945	5705.12
944.175	5643.12
944.405	5608.12
944.636	5637.12
944.866	5711.12
945.096	5635.12
945.326	5485.12
945.556	5626.12
945.786	5600.12
946.016	5530.12
946.245	5460.12
946.475	5427.12
946.705	5377.12
946.935	5359.12
947.164	5374.12
947.394	5296.12
947.624	5303.12
947.853	5295.12
948.083	5232.12
948.312	5214.12
948.542	5168.12
948.771	5124.12
949	5180.12
949.23	5171.12
949.459	5149.12
949.688	5207.12
949.917	5095.12
950.146	5120.12
950.375	5163.12
950.604	4988.12
950.833	5142.12
951.062	5157.12
951.291	5093.12
951.52	5045.12
951.749	5020.12
951.978	4984.12
952.206	4923.12
952.435	4927.12
952.664	4957.12
952.892	4981.12
953.121	4920.12
953.349	4890.12
953.578	4879.12
953.806	4849.12
954.035	4759.12
954.263	4847.12
954.491	4721.12
954.719	4744.12
954.948	4720.12
955.176	4713.12
955.404	4654.12
955.632	4687.12
955.86	4668.12
956.088	4602.12
956.316	4635.12
956.544	4601.12
956.772	4517.12
956.999	4493.12
957.227	4541.12
957.455	4483.12
957.683	4452.12
957.91	4433.12
958.138	4397.12
958.365	4370.12
958.593	4367.12
958.82	4323.12
959.048	4332.12
959.275	4303.12
959.502	4284.12
959.73	4246.12
959.957	4263.12
960.184	4295.12
960.411	4221.12
960.638	4276.12
960.865	4236.12
961.092	4262.12
961.319	4156.12
961.546	4231.12
961.773	4253.12
962	4219.12
962.227	4233.12
962.454	4169.12
962.68	4185.12
962.907	4154.12
963.134	4104.12
963.36	4127.12
963.587	4101.12
963.813	4028.12
964.04	4036.12
964.266	3923.12
964.493	4052.12
964.719	3964.12
964.945	4005.12
965.171	3870.12
965.398	3929.12
965.624	3896.12
965.85	3855.12
966.076	3802.12
966.302	3861.12
966.528	3790.12
966.754	3836.12
966.98	3772.12
967.206	3782.12
967.431	3740.12
967.657	3779.12
967.883	3749.12
968.109	3735.12
968.334	3680.12
968.56	3675.12
968.785	3677.12
969.011	3652.12
969.236	3660.12
969.462	3609.12
969.687	3626.12
969.912	3676.12
970.138	3647.12
970.363	3549.12
970.588	3609.12
970.813	3577.12
971.038	3533.12
971.263	3553.12
971.488	3545.12
971.713	3548.12
971.938	3552.12
972.163	3430.12
972.388	3473.12
972.613	3420.12
972.838	3480.12
973.062	3415.12
973.287	3409.12
973.512	3323.12
973.736	3336.12
973.961	3330.12
974.185	3339.12
974.41	3307.12
974.634	3191.12
974.858	3234.12
975.083	3292.12
975.307	3298.12
975.531	3202.12
975.755	3142.12
975.98	3137.12
976.204	3102.12
976.428	3087.12
976.652	3049.12
976.876	3045.12
977.1	3076.12
977.324	3054.12
977.547	3085.12
977.771	3035.12
977.995	3046.12
978.219	2972.12
978.442	3074.12
978.666	3051.12
978.89	2995.12
979.113	2998.12
979.337	2989.12
979.56	2931.12
979.783	3019.12
980.007	2917.12
980.23	2935.12
980.453	2891.12
980.677	2894.12
980.9	2952.12
981.123	2780.12
981.346	2873.12
981.569	2862.12
981.792	2870.12
982.015	2811.12
982.238	2779.12
982.461	2812.12
982.684	2761.12
982.907	2711.12
983.129	2671.12
983.352	2752.12
983.575	2738.12
983.797	2719.12
984.02	2665.12
984.242	2633.12
984.465	2635.12
984.687	2678.12
984.91	2674.12
985.132	2663.12
985.354	2668.12
985.577	2609.12
985.799	2587.12
986.021	2507.12
986.243	2545.12
986.465	2579.12
986.687	2596.12
986.909	2631.12
987.131	2566.12
987.353	2521.12
987.575	2541.12
987.797	2503.12
988.019	2425.12
988.241	2498.12
988.462	2466.12
988.684	2489.12
988.906	2516.12
989.127	2543.12
989.349	2424.12
989.57	2435.12
989.792	2492.12
990.013	2485.12
990.234	2480.12
990.456	2493.12
990.677	2471.12
990.898	2422.12
991.119	2395.12
991.341	2440.12
991.562	2362.12
991.783	2392.12
992.004	2325.12
992.225	2266.12
992.446	2350.12
992.667	2263.12
992.887	2331.12
993.108	2186.12
993.329	2307.12
993.55	2246.12
993.77	2241.12
993.991	2255.12
994.212	2270.12
994.432	2190.12
994.653	2200.12
994.873	2212.12
995.093	2104.12
995.314	2167.12
995.534	2170.12
995.754	2206.12
995.975	2234.12
996.195	2113.12
996.415	2141.12
996.635	2117.12
996.855	2136.12
997.075	2107.12
997.295	2113.12
997.515	2106.12
997.735	2128.12
997.955	2132.12
998.174	2099.12
998.394	2055.12
998.614	2118.12
998.834	2035.12
999.053	2125.12
999.273	2064.12
999.492	2135.12
999.712	2021.12
999.931	2027.12
1000.151	2044.12
1000.37	2018.12
1000.589	2077.12
1000.809	2022.12
1001.028	2107.12
1001.247	2027.12
1001.466	1932.12
1001.685	2040.12
1001.904	1993.12
1002.123	1975.12
1002.342	1975.12
1002.561	1931.12
1002.78	1932.12
1002.999	1991.12
1003.218	1937.12
1003.436	1917.12
1003.655	1945.12
1003.874	1865.12
1004.092	1890.12
1004.311	1948.12
1004.53	1916.12
1004.748	1966.12
1004.966	1875.12
1005.185	1935.12
1005.403	1939.12
1005.622	1895.12
1005.84	1962.12
1006.058	1861.12
1006.276	1864.12
1006.494	2261.12
1006.712	1883.12
1006.931	1924.12
1007.149	1851.12
1007.367	1853.12
1007.584	1863.12
1007.802	1941.12
1008.02	1864.12
1008.238	1943.12
1008.456	1926.12
1008.673	1825.12
1008.891	1914.12
1009.109	1850.12
1009.326	1920.12
1009.544	1988.12
1009.761	1921.12
1009.979	1974.12
1010.196	2006.12
1010.413	2067.12
1010.631	2143.12
1010.848	2196.12
1011.065	2202.12
1011.282	2158.12
1011.5	2069.12
1011.717	2188.12
1011.934	2110.12
1012.151	2137.12
1012.368	2089.12
1012.585	2014.12
1012.801	2140.12
1013.018	2056.12
1013.235	2037.12
1013.452	2066.12
1013.669	2039.12
1013.885	2053.12
1014.102	2098.12
1014.318	2042.12
1014.535	2008.12
1014.751	2038.12
1014.968	2049.12
1015.184	2054.12
1015.401	1961.12
1015.617	2009.12
1015.833	1926.12
1016.049	1905.12
1016.266	1916.12
1016.482	1912.12
1016.698	1806.12
1016.914	1876.12
1017.13	1822.12
1017.346	1830.12
1017.562	1881.12
1017.778	1805.12
1017.993	1758.12
1018.209	1808.12
1018.425	1756.12
1018.641	1764.12
1018.856	1748.12
1019.072	1764.12
1019.288	1766.12
1019.503	1763.12
1019.719	1678.12
1019.934	1664.12
1020.149	1758.12
1020.365	1692.12
1020.58	1654.12
1020.795	1645.12
1021.011	1594.12
1021.226	1611.12
1021.441	1616.12
1021.656	1497.12
1021.871	1447.12
1022.086	1460.12
1022.301	1440.12
1022.516	1422.12
1022.731	1455.12
1022.946	1376.12
1023.16	1384.12
1023.375	1331.12
1023.59	1322.12
1023.804	1283.12
1024.019	1335.12
1024.234	1231.12
1024.448	1279.12
1024.663	1177.12
1024.877	1196.12
1025.092	1234.12
1025.306	1192.12
1025.52	1095.12
1025.734	1181.12
1025.949	1101.12
1026.163	1049.12
1026.377	1006.12
1026.591	1081.12
1026.805	989.12
1027.019	979.12
1027.233	940.12
1027.447	863.12
1027.661	997.12
1027.875	925.12
1028.088	915.12
1028.302	830.12
1028.516	833.12
1028.73	837.12
1028.943	811.12
1029.157	756.12
1029.37	705.12
1029.584	1.12
1029.797	-4.88
1030.011	-0.88
1030.224	-1.88
