Data from QEP037381__555__17-47-16-377.txt Node

Date: Fri Dec 16 17:47:16 EST 2022
User: dcclab
Spectrometer: QEP03738
Trigger mode: 4
Integration Time (sec): 1.000000E1
Scans to average: 1
Electric dark correction enabled: true
Nonlinearity correction enabled: false
Boxcar width: 0
XAxis mode: Wavelengths
Number of Pixels in Spectrum: 1044
>>>>>Begin Spectral Data<<<<<
784.041	15.38
784.3	-0.62
784.558	-4.62
784.817	-2.62
785.075	115947.38
785.334	20093.38
785.592	9440.38
785.851	6513.38
786.109	4973.38
786.368	3850.38
786.626	3104.38
786.884	2593.38
787.143	2122.38
787.401	1725.38
787.659	1569.38
787.917	1328.38
788.175	1205.38
788.433	1074.38
788.691	961.38
788.949	860.38
789.207	826.38
789.465	726.38
789.723	685.38
789.98	626.38
790.238	671.38
790.496	648.38
790.753	600.38
791.011	631.38
791.268	565.38
791.526	549.38
791.783	576.38
792.041	551.38
792.298	477.38
792.556	547.38
792.813	502.38
793.07	482.38
793.327	480.38
793.584	542.38
793.841	466.38
794.099	495.38
794.356	539.38
794.613	453.38
794.869	490.38
795.126	449.38
795.383	436.38
795.64	454.38
795.897	402.38
796.153	456.38
796.41	450.38
796.667	430.38
796.923	451.38
797.18	454.38
797.436	479.38
797.693	446.38
797.949	463.38
798.206	508.38
798.462	439.38
798.718	492.38
798.974	469.38
799.231	510.38
799.487	516.38
799.743	504.38
799.999	538.38
800.255	538.38
800.511	536.38
800.767	579.38
801.023	559.38
801.279	604.38
801.534	659.38
801.79	693.38
802.046	752.38
802.302	901.38
802.557	1039.38
802.813	1302.38
803.068	1652.38
803.324	2281.38
803.579	3179.38
803.835	4427.38
804.09	6107.38
804.345	8072.38
804.601	10198.38
804.856	12349.38
805.111	14257.38
805.366	15617.38
805.621	16672.38
805.876	17422.38
806.131	17885.38
806.386	18293.38
806.641	18486.38
806.896	18736.38
807.151	19085.38
807.406	19399.38
807.661	19812.38
807.915	20056.38
808.17	20341.38
808.425	20572.38
808.679	20644.38
808.934	20932.38
809.188	21080.38
809.443	21327.38
809.697	21551.38
809.951	21624.38
810.206	21751.38
810.46	22019.38
810.714	22230.38
810.968	22429.38
811.223	22454.38
811.477	22676.38
811.731	22945.38
811.985	22923.38
812.239	22997.38
812.493	23200.38
812.747	23386.38
813	23250.38
813.254	23272.38
813.508	23435.38
813.762	23647.38
814.015	23692.38
814.269	23838.38
814.522	24105.38
814.776	24299.38
815.03	24687.38
815.283	24862.38
815.536	25270.38
815.79	25664.38
816.043	25855.38
816.296	26246.38
816.55	26571.38
816.803	26825.38
817.056	27184.38
817.309	27461.38
817.562	27530.38
817.815	27939.38
818.068	28160.38
818.321	28464.38
818.574	28760.38
818.827	28983.38
819.079	29399.38
819.332	29925.38
819.585	30172.38
819.838	30525.38
820.09	30698.38
820.343	30996.38
820.595	31036.38
820.848	31188.38
821.1	31397.38
821.353	31382.38
821.605	31388.38
821.857	31357.38
822.11	31038.38
822.362	31124.38
822.614	30952.38
822.866	31080.38
823.118	30970.38
823.37	31201.38
823.622	31166.38
823.874	31245.38
824.126	31308.38
824.378	31216.38
824.63	31549.38
824.882	31449.38
825.134	31429.38
825.385	31456.38
825.637	31346.38
825.888	31185.38
826.14	31044.38
826.392	31103.38
826.643	30942.38
826.895	30681.38
827.146	30648.38
827.397	30518.38
827.649	30544.38
827.9	30516.38
828.151	30470.38
828.402	30507.38
828.653	30656.38
828.905	30766.38
829.156	30752.38
829.407	30706.38
829.658	30712.38
829.909	30656.38
830.159	30533.38
830.41	30522.38
830.661	30199.38
830.912	30083.38
831.162	29927.38
831.413	29854.38
831.664	29921.38
831.914	29707.38
832.165	29747.38
832.415	29697.38
832.666	29793.38
832.916	29782.38
833.167	29735.38
833.417	29619.38
833.667	29578.38
833.917	29454.38
834.168	29380.38
834.418	29412.38
834.668	29183.38
834.918	28930.38
835.168	28826.38
835.418	28735.38
835.668	28790.38
835.918	28605.38
836.167	28568.38
836.417	28463.38
836.667	28317.38
836.917	28307.38
837.166	28350.38
837.416	28212.38
837.666	28330.38
837.915	28314.38
838.165	28016.38
838.414	27946.38
838.663	27928.38
838.913	27847.38
839.162	27691.38
839.411	27698.38
839.661	27603.38
839.91	27564.38
840.159	27472.38
840.408	27455.38
840.657	27437.38
840.906	27476.38
841.155	27423.38
841.404	27337.38
841.653	27283.38
841.902	27356.38
842.15	27360.38
842.399	27339.38
842.648	27442.38
842.897	27216.38
843.145	27110.38
843.394	26905.38
843.642	26744.38
843.891	26725.38
844.139	26522.38
844.388	26249.38
844.636	26238.38
844.884	26116.38
845.133	26012.38
845.381	26096.38
845.629	26023.38
845.877	25997.38
846.125	25951.38
846.373	25819.38
846.621	25872.38
846.869	25817.38
847.117	25579.38
847.365	25462.38
847.613	25372.38
847.861	25256.38
848.108	25276.38
848.356	25131.38
848.604	25096.38
848.851	25085.38
849.099	25144.38
849.346	25108.38
849.594	25254.38
849.841	25188.38
850.089	25279.38
850.336	25241.38
850.583	25232.38
850.831	25037.38
851.078	24961.38
851.325	24888.38
851.572	24796.38
851.819	24602.38
852.066	24303.38
852.313	23996.38
852.56	23711.38
852.807	23696.38
853.054	23431.38
853.301	23522.38
853.548	23588.38
853.794	23697.38
854.041	23722.38
854.288	23741.38
854.534	24060.38
854.781	24024.38
855.028	23814.38
855.274	23758.38
855.52	23682.38
855.767	23450.38
856.013	23522.38
856.26	23872.38
856.506	23210.38
856.752	23202.38
856.998	23294.38
857.244	23341.38
857.49	23356.38
857.736	23366.38
857.982	23392.38
858.228	23213.38
858.474	23202.38
858.72	22986.38
858.966	22874.38
859.212	22537.38
859.458	22365.38
859.703	22143.38
859.949	21908.38
860.195	21781.38
860.44	21664.38
860.686	21511.38
860.931	21592.38
861.177	21383.38
861.422	21333.38
861.667	21296.38
861.913	21314.38
862.158	21293.38
862.403	21358.38
862.648	21396.38
862.893	21411.38
863.138	21353.38
863.384	21200.38
863.629	21316.38
863.873	21297.38
864.118	21309.38
864.363	21012.38
864.608	20977.38
864.853	20948.38
865.098	20779.38
865.342	20666.38
865.587	20553.38
865.832	20621.38
866.076	20543.38
866.321	20400.38
866.565	20366.38
866.81	20242.38
867.054	20335.38
867.298	20205.38
867.543	20025.38
867.787	20064.38
868.031	19949.38
868.275	19919.38
868.519	19917.38
868.764	19833.38
869.008	19796.38
869.252	19741.38
869.496	19627.38
869.739	19635.38
869.983	19568.38
870.227	19587.38
870.471	19394.38
870.715	19550.38
870.958	19535.38
871.202	19484.38
871.446	19669.38
871.689	19608.38
871.933	19627.38
872.176	19632.38
872.42	19509.38
872.663	19503.38
872.906	19399.38
873.15	19365.38
873.393	19199.38
873.636	19155.38
873.879	18950.38
874.122	18793.38
874.366	18663.38
874.609	18450.38
874.852	18403.38
875.095	18319.38
875.337	18204.38
875.58	18023.38
875.823	18026.38
876.066	17971.38
876.309	17985.38
876.551	17753.38
876.794	17653.38
877.037	17613.38
877.279	17624.38
877.522	17711.38
877.764	17622.38
878.007	17585.38
878.249	17579.38
878.491	17454.38
878.734	17583.38
878.976	17525.38
879.218	17383.38
879.46	17322.38
879.702	17182.38
879.945	17013.38
880.187	16920.38
880.429	16847.38
880.671	16703.38
880.912	16645.38
881.154	16527.38
881.396	16515.38
881.638	16529.38
881.88	16497.38
882.121	16504.38
882.363	16329.38
882.605	16339.38
882.846	16293.38
883.088	16388.38
883.329	16214.38
883.571	16090.38
883.812	16323.38
884.053	16350.38
884.295	16587.38
884.536	16730.38
884.777	16625.38
885.018	16493.38
885.259	16465.38
885.5	16330.38
885.742	16580.38
885.982	16357.38
886.223	16176.38
886.464	16073.38
886.705	15957.38
886.946	15834.38
887.187	15601.38
887.428	15660.38
887.668	15436.38
887.909	15251.38
888.15	15052.38
888.39	14874.38
888.631	14920.38
888.871	14787.38
889.111	14764.38
889.352	14594.38
889.592	14419.38
889.833	14402.38
890.073	14292.38
890.313	14277.38
890.553	14063.38
890.793	14063.38
891.033	13891.38
891.273	13793.38
891.513	13799.38
891.753	13836.38
891.993	13782.38
892.233	13808.38
892.473	13898.38
892.713	13874.38
892.952	13781.38
893.192	13879.38
893.432	13788.38
893.671	13693.38
893.911	13727.38
894.15	13652.38
894.39	13424.38
894.629	13433.38
894.869	13370.38
895.108	13245.38
895.347	13165.38
895.587	13121.38
895.826	13098.38
896.065	13039.38
896.304	13103.38
896.543	12983.38
896.782	12967.38
897.021	12900.38
897.26	12852.38
897.499	12882.38
897.738	12856.38
897.977	12680.38
898.216	12587.38
898.454	12416.38
898.693	12425.38
898.932	12418.38
899.17	12219.38
899.409	12202.38
899.647	12191.38
899.886	12135.38
900.124	12188.38
900.363	12147.38
900.601	12142.38
900.839	12148.38
901.078	12182.38
901.316	12141.38
901.554	12157.38
901.792	12278.38
902.03	12082.38
902.268	12181.38
902.506	12176.38
902.744	12074.38
902.982	12070.38
903.22	11792.38
903.458	11790.38
903.695	11635.38
903.933	11426.38
904.171	11324.38
904.409	11173.38
904.646	11110.38
904.884	10890.38
905.121	10850.38
905.359	10680.38
905.596	10605.38
905.833	10448.38
906.071	10514.38
906.308	10531.38
906.545	10421.38
906.783	10303.38
907.02	10341.38
907.257	10283.38
907.494	10326.38
907.731	10270.38
907.968	10228.38
908.205	10190.38
908.442	10054.38
908.679	10070.38
908.915	9932.38
909.152	9927.38
909.389	9719.38
909.626	9726.38
909.862	9647.38
910.099	9586.38
910.335	9662.38
910.572	9427.38
910.808	9545.38
911.045	9437.38
911.281	9375.38
911.518	9425.38
911.754	9341.38
911.99	9287.38
912.226	9278.38
912.463	9233.38
912.699	9093.38
912.935	9071.38
913.171	8935.38
913.407	8844.38
913.643	8807.38
913.879	8709.38
914.114	8662.38
914.35	8501.38
914.586	8502.38
914.822	8366.38
915.057	8430.38
915.293	8222.38
915.529	8151.38
915.764	8241.38
916	8231.38
916.235	8210.38
916.471	8215.38
916.706	8035.38
916.941	8104.38
917.177	8074.38
917.412	8102.38
917.647	8137.38
917.882	8019.38
918.117	8043.38
918.352	7935.38
918.588	7980.38
918.823	7958.38
919.057	7863.38
919.292	7703.38
919.527	7771.38
919.762	7595.38
919.997	7585.38
920.232	7410.38
920.466	7418.38
920.701	7253.38
920.935	7226.38
921.17	7199.38
921.405	7155.38
921.639	7164.38
921.873	7083.38
922.108	7128.38
922.342	7133.38
922.576	7029.38
922.811	7026.38
923.045	7022.38
923.279	7000.38
923.513	6906.38
923.747	6917.38
923.981	6839.38
924.215	6749.38
924.449	6721.38
924.683	6691.38
924.917	6685.38
925.151	6618.38
925.385	6710.38
925.618	6551.38
925.852	6543.38
926.086	6443.38
926.319	6519.38
926.553	6468.38
926.786	6513.38
927.02	6438.38
927.253	6453.38
927.486	6481.38
927.72	6439.38
927.953	6486.38
928.186	6362.38
928.42	6404.38
928.653	6383.38
928.886	6333.38
929.119	6297.38
929.352	6273.38
929.585	6223.38
929.818	6113.38
930.051	6170.38
930.284	6103.38
930.516	6015.38
930.749	5951.38
930.982	5984.38
931.215	5923.38
931.447	5861.38
931.68	5921.38
931.912	5807.38
932.145	5866.38
932.377	5850.38
932.61	5950.38
932.842	5794.38
933.074	5812.38
933.307	5784.38
933.539	5812.38
933.771	5842.38
934.003	5789.38
934.236	5850.38
934.468	5837.38
934.7	5735.38
934.932	5751.38
935.164	5710.38
935.395	5690.38
935.627	5664.38
935.859	5698.38
936.091	5644.38
936.323	5623.38
936.554	5625.38
936.786	5575.38
937.017	5543.38
937.249	5545.38
937.481	5491.38
937.712	5504.38
937.943	5464.38
938.175	5473.38
938.406	5405.38
938.637	5479.38
938.869	5399.38
939.1	5454.38
939.331	5373.38
939.562	5389.38
939.793	5417.38
940.024	5337.38
940.255	5378.38
940.486	5274.38
940.717	5264.38
940.948	5275.38
941.179	5167.38
941.409	5186.38
941.64	5178.38
941.871	5177.38
942.102	5135.38
942.332	5150.38
942.563	5183.38
942.793	5176.38
943.024	5121.38
943.254	5110.38
943.484	5196.38
943.715	5242.38
943.945	5105.38
944.175	5003.38
944.405	5051.38
944.636	5063.38
944.866	5094.38
945.096	5074.38
945.326	4976.38
945.556	5030.38
945.786	5087.38
946.016	4959.38
946.245	4889.38
946.475	4878.38
946.705	4863.38
946.935	4818.38
947.164	4842.38
947.394	4762.38
947.624	4746.38
947.853	4780.38
948.083	4766.38
948.312	4720.38
948.542	4610.38
948.771	4601.38
949	4621.38
949.23	4609.38
949.459	4594.38
949.688	4670.38
949.917	4600.38
950.146	4607.38
950.375	4645.38
950.604	4507.38
950.833	4646.38
951.062	4621.38
951.291	4579.38
951.52	4538.38
951.749	4521.38
951.978	4434.38
952.206	4481.38
952.435	4474.38
952.664	4493.38
952.892	4479.38
953.121	4437.38
953.349	4415.38
953.578	4431.38
953.806	4355.38
954.035	4333.38
954.263	4321.38
954.491	4277.38
954.719	4320.38
954.948	4182.38
955.176	4169.38
955.404	4183.38
955.632	4223.38
955.86	4238.38
956.088	4150.38
956.316	4205.38
956.544	4143.38
956.772	4116.38
956.999	4092.38
957.227	4166.38
957.455	4021.38
957.683	4021.38
957.91	3995.38
958.138	3969.38
958.365	3957.38
958.593	3943.38
958.82	3891.38
959.048	3934.38
959.275	3943.38
959.502	3873.38
959.73	3852.38
959.957	3909.38
960.184	3929.38
960.411	3789.38
960.638	3891.38
960.865	3804.38
961.092	3880.38
961.319	3780.38
961.546	3867.38
961.773	3856.38
962	3806.38
962.227	3852.38
962.454	3788.38
962.68	3735.38
962.907	3761.38
963.134	3725.38
963.36	3729.38
963.587	3696.38
963.813	3644.38
964.04	3699.38
964.266	3563.38
964.493	3670.38
964.719	3604.38
964.945	3591.38
965.171	3502.38
965.398	3589.38
965.624	3526.38
965.85	3466.38
966.076	3488.38
966.302	3508.38
966.528	3428.38
966.754	3478.38
966.98	3450.38
967.206	3461.38
967.431	3389.38
967.657	3443.38
967.883	3413.38
968.109	3365.38
968.334	3325.38
968.56	3313.38
968.785	3347.38
969.011	3292.38
969.236	3317.38
969.462	3272.38
969.687	3283.38
969.912	3308.38
970.138	3309.38
970.363	3224.38
970.588	3270.38
970.813	3251.38
971.038	3193.38
971.263	3246.38
971.488	3223.38
971.713	3240.38
971.938	3207.38
972.163	3096.38
972.388	3143.38
972.613	3110.38
972.838	3143.38
973.062	3113.38
973.287	3075.38
973.512	2985.38
973.736	3047.38
973.961	3017.38
974.185	2988.38
974.41	3052.38
974.634	2921.38
974.858	2920.38
975.083	2986.38
975.307	2989.38
975.531	2882.38
975.755	2834.38
975.98	2892.38
976.204	2798.38
976.428	2773.38
976.652	2784.38
976.876	2759.38
977.1	2794.38
977.324	2748.38
977.547	2768.38
977.771	2775.38
977.995	2782.38
978.219	2667.38
978.442	2793.38
978.666	2764.38
978.89	2747.38
979.113	2714.38
979.337	2694.38
979.56	2687.38
979.783	2751.38
980.007	2646.38
980.23	2665.38
980.453	2600.38
980.677	2653.38
980.9	2625.38
981.123	2537.38
981.346	2658.38
981.569	2577.38
981.792	2582.38
982.015	2555.38
982.238	2481.38
982.461	2561.38
982.684	2499.38
982.907	2458.38
983.129	2450.38
983.352	2514.38
983.575	2491.38
983.797	2459.38
984.02	2449.38
984.242	2405.38
984.465	2415.38
984.687	2436.38
984.91	2448.38
985.132	2404.38
985.354	2422.38
985.577	2375.38
985.799	2399.38
986.021	2310.38
986.243	2356.38
986.465	2326.38
986.687	2375.38
986.909	2437.38
987.131	2337.38
987.353	2267.38
987.575	2326.38
987.797	2282.38
988.019	2222.38
988.241	2284.38
988.462	2259.38
988.684	2294.38
988.906	2316.38
989.127	2335.38
989.349	2214.38
989.57	2244.38
989.792	2291.38
990.013	2297.38
990.234	2268.38
990.456	2286.38
990.677	2278.38
990.898	2205.38
991.119	2203.38
991.341	2225.38
991.562	2148.38
991.783	2178.38
992.004	2109.38
992.225	2086.38
992.446	2157.38
992.667	2060.38
992.887	2126.38
993.108	2013.38
993.329	2149.38
993.55	2080.38
993.77	2020.38
993.991	2013.38
994.212	2080.38
994.432	2035.38
994.653	2013.38
994.873	2000.38
995.093	1914.38
995.314	1954.38
995.534	2036.38
995.754	2003.38
995.975	2040.38
996.195	1925.38
996.415	1971.38
996.635	1967.38
996.855	1955.38
997.075	1926.38
997.295	1945.38
997.515	1911.38
997.735	1973.38
997.955	1928.38
998.174	1908.38
998.394	1892.38
998.614	1962.38
998.834	1873.38
999.053	1929.38
999.273	1951.38
999.492	1964.38
999.712	1919.38
999.931	1869.38
1000.151	1882.38
1000.37	1890.38
1000.589	1924.38
1000.809	1847.38
1001.028	1955.38
1001.247	1878.38
1001.466	1779.38
1001.685	1937.38
1001.904	1845.38
1002.123	1851.38
1002.342	1836.38
1002.561	1806.38
1002.78	1813.38
1002.999	1860.38
1003.218	1798.38
1003.436	1794.38
1003.655	1809.38
1003.874	1745.38
1004.092	1774.38
1004.311	1820.38
1004.53	1788.38
1004.748	1832.38
1004.966	1755.38
1005.185	1814.38
1005.403	1767.38
1005.622	1772.38
1005.84	1856.38
1006.058	1723.38
1006.276	1768.38
1006.494	2123.38
1006.712	1752.38
1006.931	1814.38
1007.149	1703.38
1007.367	1718.38
1007.584	1743.38
1007.802	1775.38
1008.02	1726.38
1008.238	1828.38
1008.456	1788.38
1008.673	1695.38
1008.891	1814.38
1009.109	1740.38
1009.326	1793.38
1009.544	1884.38
1009.761	1778.38
1009.979	1854.38
1010.196	1857.38
1010.413	1961.38
1010.631	2005.38
1010.848	2023.38
1011.065	2034.38
1011.282	1972.38
1011.5	1935.38
1011.717	2023.38
1011.934	1936.38
1012.151	1991.38
1012.368	1979.38
1012.585	1914.38
1012.801	1943.38
1013.018	1929.38
1013.235	1876.38
1013.452	1888.38
1013.669	1923.38
1013.885	1908.38
1014.102	1945.38
1014.318	1887.38
1014.535	1861.38
1014.751	1914.38
1014.968	1901.38
1015.184	1899.38
1015.401	1840.38
1015.617	1850.38
1015.833	1809.38
1016.049	1765.38
1016.266	1779.38
1016.482	1770.38
1016.698	1697.38
1016.914	1750.38
1017.13	1729.38
1017.346	1684.38
1017.562	1719.38
1017.778	1673.38
1017.993	1623.38
1018.209	1713.38
1018.425	1660.38
1018.641	1637.38
1018.856	1604.38
1019.072	1619.38
1019.288	1673.38
1019.503	1639.38
1019.719	1535.38
1019.934	1558.38
1020.149	1626.38
1020.365	1581.38
1020.58	1513.38
1020.795	1571.38
1021.011	1498.38
1021.226	1470.38
1021.441	1503.38
1021.656	1415.38
1021.871	1368.38
1022.086	1341.38
1022.301	1343.38
1022.516	1333.38
1022.731	1362.38
1022.946	1296.38
1023.16	1263.38
1023.375	1249.38
1023.59	1225.38
1023.804	1178.38
1024.019	1272.38
1024.234	1150.38
1024.448	1173.38
1024.663	1105.38
1024.877	1107.38
1025.092	1129.38
1025.306	1127.38
1025.52	1040.38
1025.734	1134.38
1025.949	1023.38
1026.163	1003.38
1026.377	939.38
1026.591	982.38
1026.805	938.38
1027.019	920.38
1027.233	870.38
1027.447	826.38
1027.661	929.38
1027.875	847.38
1028.088	860.38
1028.302	784.38
1028.516	775.38
1028.73	795.38
1028.943	773.38
1029.157	695.38
1029.37	680.38
1029.584	-3.62
1029.797	-1.62
1030.011	1.38
1030.224	-3.62
