Data from QEP037381__560__17-48-06-379.txt Node

Date: Fri Dec 16 17:48:06 EST 2022
User: dcclab
Spectrometer: QEP03738
Trigger mode: 4
Integration Time (sec): 1.000000E1
Scans to average: 1
Electric dark correction enabled: true
Nonlinearity correction enabled: false
Boxcar width: 0
XAxis mode: Wavelengths
Number of Pixels in Spectrum: 1044
>>>>>Begin Spectral Data<<<<<
784.041	9.38
784.3	-0.62
784.558	-4.62
784.817	0.38
785.075	119048.38
785.334	20343.38
785.592	9425.38
785.851	6482.38
786.109	4842.38
786.368	3739.38
786.626	3021.38
786.884	2476.38
787.143	2068.38
787.401	1732.38
787.659	1533.38
787.917	1309.38
788.175	1191.38
788.433	1066.38
788.691	947.38
788.949	882.38
789.207	819.38
789.465	736.38
789.723	695.38
789.98	644.38
790.238	678.38
790.496	630.38
790.753	601.38
791.011	645.38
791.268	578.38
791.526	570.38
791.783	563.38
792.041	537.38
792.298	445.38
792.556	514.38
792.813	505.38
793.07	469.38
793.327	460.38
793.584	544.38
793.841	452.38
794.099	476.38
794.356	531.38
794.613	445.38
794.869	484.38
795.126	440.38
795.383	423.38
795.64	434.38
795.897	398.38
796.153	454.38
796.41	438.38
796.667	414.38
796.923	428.38
797.18	422.38
797.436	466.38
797.693	399.38
797.949	480.38
798.206	491.38
798.462	409.38
798.718	472.38
798.974	433.38
799.231	480.38
799.487	478.38
799.743	479.38
799.999	494.38
800.255	502.38
800.511	504.38
800.767	530.38
801.023	506.38
801.279	564.38
801.534	578.38
801.79	628.38
802.046	628.38
802.302	761.38
802.557	876.38
802.813	1058.38
803.068	1296.38
803.324	1775.38
803.579	2418.38
803.835	3308.38
804.09	4581.38
804.345	5886.38
804.601	7375.38
804.856	8965.38
805.111	10350.38
805.366	11435.38
805.621	12112.38
805.876	12706.38
806.131	13008.38
806.386	13191.38
806.641	13447.38
806.896	13573.38
807.151	13959.38
807.406	14012.38
807.661	14301.38
807.915	14522.38
808.17	14746.38
808.425	14868.38
808.679	14938.38
808.934	15134.38
809.188	15278.38
809.443	15392.38
809.697	15539.38
809.951	15620.38
810.206	15694.38
810.46	15919.38
810.714	16015.38
810.968	16225.38
811.223	16182.38
811.477	16408.38
811.731	16568.38
811.985	16550.38
812.239	16548.38
812.493	16665.38
812.747	16739.38
813	16799.38
813.254	16838.38
813.508	17015.38
813.762	16991.38
814.015	17023.38
814.269	17195.38
814.522	17350.38
814.776	17542.38
815.03	17700.38
815.283	17908.38
815.536	18132.38
815.79	18401.38
816.043	18674.38
816.296	18863.38
816.55	19137.38
816.803	19170.38
817.056	19556.38
817.309	19616.38
817.562	19861.38
817.815	20041.38
818.068	20069.38
818.321	20278.38
818.574	20576.38
818.827	20807.38
819.079	21031.38
819.332	21373.38
819.585	21494.38
819.838	21798.38
820.09	21873.38
820.343	22008.38
820.595	22195.38
820.848	22323.38
821.1	22487.38
821.353	22231.38
821.605	22375.38
821.857	22327.38
822.11	22151.38
822.362	22224.38
822.614	22058.38
822.866	22122.38
823.118	22095.38
823.37	22266.38
823.622	22322.38
823.874	22354.38
824.126	22474.38
824.378	22397.38
824.63	22457.38
824.882	22560.38
825.134	22460.38
825.385	22483.38
825.637	22366.38
825.888	22231.38
826.14	22246.38
826.392	22084.38
826.643	21971.38
826.895	21892.38
827.146	21776.38
827.397	21711.38
827.649	21906.38
827.9	21730.38
828.151	21785.38
828.402	21770.38
828.653	21842.38
828.905	21798.38
829.156	21934.38
829.407	21770.38
829.658	21877.38
829.909	21894.38
830.159	21890.38
830.41	21767.38
830.661	21629.38
830.912	21496.38
831.162	21441.38
831.413	21387.38
831.664	21356.38
831.914	21227.38
832.165	21249.38
832.415	21171.38
832.666	21228.38
832.916	21352.38
833.167	21234.38
833.417	21298.38
833.667	21206.38
833.917	20949.38
834.168	20999.38
834.418	20965.38
834.668	20851.38
834.918	20748.38
835.168	20724.38
835.418	20634.38
835.668	20738.38
835.918	20613.38
836.167	20497.38
836.417	20390.38
836.667	20295.38
836.917	20372.38
837.166	20276.38
837.416	20235.38
837.666	20301.38
837.915	20186.38
838.165	20085.38
838.414	20116.38
838.663	20014.38
838.913	19991.38
839.162	19957.38
839.411	20051.38
839.661	19717.38
839.91	19760.38
840.159	19700.38
840.408	19796.38
840.657	19656.38
840.906	19751.38
841.155	19722.38
841.404	19716.38
841.653	19567.38
841.902	19729.38
842.15	19767.38
842.399	19803.38
842.648	19658.38
842.897	19504.38
843.145	19399.38
843.394	19304.38
843.642	19216.38
843.891	19179.38
844.139	19050.38
844.388	18925.38
844.636	18708.38
844.884	18853.38
845.133	18776.38
845.381	18697.38
845.629	18720.38
845.877	18603.38
846.125	18680.38
846.373	18677.38
846.621	18577.38
846.869	18499.38
847.117	18472.38
847.365	18274.38
847.613	18215.38
847.861	18120.38
848.108	18146.38
848.356	18153.38
848.604	17969.38
848.851	17993.38
849.099	18081.38
849.346	18146.38
849.594	18125.38
849.841	18179.38
850.089	18215.38
850.336	18136.38
850.583	18141.38
850.831	18104.38
851.078	17981.38
851.325	17946.38
851.572	17970.38
851.819	17843.38
852.066	17465.38
852.313	17209.38
852.56	17160.38
852.807	17170.38
853.054	17009.38
853.301	16938.38
853.548	16973.38
853.794	17109.38
854.041	17102.38
854.288	17126.38
854.534	17389.38
854.781	17375.38
855.028	17275.38
855.274	17220.38
855.52	17149.38
855.767	16996.38
856.013	17069.38
856.26	17416.38
856.506	16832.38
856.752	16771.38
856.998	16775.38
857.244	16849.38
857.49	16903.38
857.736	17013.38
857.982	16851.38
858.228	16900.38
858.474	16745.38
858.72	16677.38
858.966	16552.38
859.212	16401.38
859.458	16153.38
859.703	16109.38
859.949	15856.38
860.195	15823.38
860.44	15658.38
860.686	15566.38
860.931	15607.38
861.177	15507.38
861.422	15428.38
861.667	15429.38
861.913	15390.38
862.158	15469.38
862.403	15427.38
862.648	15565.38
862.893	15491.38
863.138	15466.38
863.384	15403.38
863.629	15469.38
863.873	15479.38
864.118	15308.38
864.363	15256.38
864.608	15261.38
864.853	15133.38
865.098	15114.38
865.342	14984.38
865.587	14897.38
865.832	14947.38
866.076	14900.38
866.321	14829.38
866.565	14748.38
866.81	14536.38
867.054	14613.38
867.298	14607.38
867.543	14480.38
867.787	14618.38
868.031	14405.38
868.275	14492.38
868.519	14417.38
868.764	14429.38
869.008	14317.38
869.252	14356.38
869.496	14280.38
869.739	14226.38
869.983	14317.38
870.227	14197.38
870.471	14178.38
870.715	14297.38
870.958	14291.38
871.202	14230.38
871.446	14371.38
871.689	14239.38
871.933	14262.38
872.176	14265.38
872.42	14258.38
872.663	14181.38
872.906	14225.38
873.15	14169.38
873.393	14040.38
873.636	14119.38
873.879	13908.38
874.122	13810.38
874.366	13642.38
874.609	13479.38
874.852	13374.38
875.095	13348.38
875.337	13314.38
875.58	13079.38
875.823	13198.38
876.066	13146.38
876.309	13067.38
876.551	12935.38
876.794	12874.38
877.037	12934.38
877.279	12798.38
877.522	12884.38
877.764	12845.38
878.007	12767.38
878.249	12835.38
878.491	12731.38
878.734	12811.38
878.976	12679.38
879.218	12559.38
879.46	12634.38
879.702	12464.38
879.945	12398.38
880.187	12267.38
880.429	12259.38
880.671	12225.38
880.912	12174.38
881.154	11995.38
881.396	11999.38
881.638	12000.38
881.88	11914.38
882.121	11951.38
882.363	11926.38
882.605	11930.38
882.846	11869.38
883.088	11915.38
883.329	11890.38
883.571	11827.38
883.812	12011.38
884.053	12067.38
884.295	12334.38
884.536	12467.38
884.777	12331.38
885.018	12244.38
885.259	12282.38
885.5	12064.38
885.742	12322.38
885.982	12135.38
886.223	11927.38
886.464	11925.38
886.705	11755.38
886.946	11680.38
887.187	11543.38
887.428	11412.38
887.668	11239.38
887.909	11170.38
888.15	10959.38
888.39	10995.38
888.631	10934.38
888.871	10785.38
889.111	10712.38
889.352	10675.38
889.592	10508.38
889.833	10523.38
890.073	10389.38
890.313	10402.38
890.553	10252.38
890.793	10232.38
891.033	10217.38
891.273	10105.38
891.513	10128.38
891.753	10101.38
891.993	10059.38
892.233	10095.38
892.473	10179.38
892.713	10092.38
892.952	10110.38
893.192	10126.38
893.432	9992.38
893.671	9994.38
893.911	9986.38
894.15	9911.38
894.39	9825.38
894.629	9801.38
894.869	9707.38
895.108	9685.38
895.347	9657.38
895.587	9607.38
895.826	9566.38
896.065	9552.38
896.304	9663.38
896.543	9531.38
896.782	9417.38
897.021	9427.38
897.26	9486.38
897.499	9460.38
897.738	9415.38
897.977	9341.38
898.216	9301.38
898.454	9161.38
898.693	9124.38
898.932	9123.38
899.17	9018.38
899.409	8941.38
899.647	8951.38
899.886	8941.38
900.124	8994.38
900.363	8843.38
900.601	9042.38
900.839	8939.38
901.078	9011.38
901.316	8992.38
901.554	9012.38
901.792	9012.38
902.03	9093.38
902.268	9000.38
902.506	9124.38
902.744	8918.38
902.982	8955.38
903.22	8777.38
903.458	8633.38
903.695	8641.38
903.933	8382.38
904.171	8333.38
904.409	8257.38
904.646	8159.38
904.884	7967.38
905.121	7996.38
905.359	7875.38
905.596	7807.38
905.833	7724.38
906.071	7743.38
906.308	7678.38
906.545	7644.38
906.783	7596.38
907.02	7633.38
907.257	7569.38
907.494	7534.38
907.731	7550.38
907.968	7563.38
908.205	7425.38
908.442	7402.38
908.679	7329.38
908.915	7284.38
909.152	7275.38
909.389	7110.38
909.626	7160.38
909.862	7082.38
910.099	7073.38
910.335	7051.38
910.572	6937.38
910.808	6985.38
911.045	6910.38
911.281	6962.38
911.518	6864.38
911.754	6845.38
911.99	6830.38
912.226	6795.38
912.463	6724.38
912.699	6673.38
912.935	6693.38
913.171	6557.38
913.407	6474.38
913.643	6530.38
913.879	6466.38
914.114	6370.38
914.35	6329.38
914.586	6248.38
914.822	6184.38
915.057	6231.38
915.293	5987.38
915.529	6029.38
915.764	6096.38
916	6076.38
916.235	6075.38
916.471	6053.38
916.706	5944.38
916.941	5950.38
917.177	5937.38
917.412	5990.38
917.647	5967.38
917.882	5920.38
918.117	5978.38
918.352	5938.38
918.588	5937.38
918.823	5828.38
919.057	5778.38
919.292	5652.38
919.527	5741.38
919.762	5617.38
919.997	5625.38
920.232	5522.38
920.466	5536.38
920.701	5367.38
920.935	5390.38
921.17	5329.38
921.405	5381.38
921.639	5323.38
921.873	5272.38
922.108	5288.38
922.342	5287.38
922.576	5195.38
922.811	5231.38
923.045	5207.38
923.279	5202.38
923.513	5077.38
923.747	5122.38
923.981	5082.38
924.215	5011.38
924.449	4999.38
924.683	4958.38
924.917	4907.38
925.151	4902.38
925.385	4964.38
925.618	4916.38
925.852	4895.38
926.086	4846.38
926.319	4843.38
926.553	4859.38
926.786	4832.38
927.02	4837.38
927.253	4865.38
927.486	4885.38
927.72	4814.38
927.953	4812.38
928.186	4764.38
928.42	4778.38
928.653	4694.38
928.886	4709.38
929.119	4683.38
929.352	4663.38
929.585	4654.38
929.818	4585.38
930.051	4592.38
930.284	4606.38
930.516	4439.38
930.749	4450.38
930.982	4502.38
931.215	4472.38
931.447	4380.38
931.68	4396.38
931.912	4340.38
932.145	4391.38
932.377	4332.38
932.61	4500.38
932.842	4240.38
933.074	4351.38
933.307	4287.38
933.539	4373.38
933.771	4365.38
934.003	4322.38
934.236	4383.38
934.468	4397.38
934.7	4304.38
934.932	4291.38
935.164	4283.38
935.395	4265.38
935.627	4198.38
935.859	4225.38
936.091	4177.38
936.323	4280.38
936.554	4203.38
936.786	4174.38
937.017	4094.38
937.249	4186.38
937.481	4057.38
937.712	4109.38
937.943	4125.38
938.175	4101.38
938.406	4104.38
938.637	4112.38
938.869	4041.38
939.1	4099.38
939.331	4048.38
939.562	4080.38
939.793	3988.38
940.024	4037.38
940.255	4033.38
940.486	3934.38
940.717	3991.38
940.948	3959.38
941.179	3877.38
941.409	3897.38
941.64	3873.38
941.871	3898.38
942.102	3882.38
942.332	3886.38
942.563	3905.38
942.793	3873.38
943.024	3812.38
943.254	3846.38
943.484	3931.38
943.715	3871.38
943.945	3843.38
944.175	3785.38
944.405	3766.38
944.636	3781.38
944.866	3829.38
945.096	3809.38
945.326	3768.38
945.556	3828.38
945.786	3809.38
946.016	3743.38
946.245	3685.38
946.475	3693.38
946.705	3678.38
946.935	3658.38
947.164	3661.38
947.394	3596.38
947.624	3622.38
947.853	3633.38
948.083	3585.38
948.312	3515.38
948.542	3512.38
948.771	3471.38
949	3510.38
949.23	3459.38
949.459	3501.38
949.688	3607.38
949.917	3511.38
950.146	3509.38
950.375	3565.38
950.604	3451.38
950.833	3565.38
951.062	3500.38
951.291	3439.38
951.52	3367.38
951.749	3418.38
951.978	3391.38
952.206	3372.38
952.435	3366.38
952.664	3420.38
952.892	3390.38
953.121	3363.38
953.349	3374.38
953.578	3347.38
953.806	3342.38
954.035	3263.38
954.263	3304.38
954.491	3232.38
954.719	3307.38
954.948	3223.38
955.176	3187.38
955.404	3130.38
955.632	3186.38
955.86	3185.38
956.088	3162.38
956.316	3200.38
956.544	3196.38
956.772	3079.38
956.999	3071.38
957.227	3206.38
957.455	3057.38
957.683	3084.38
957.91	3006.38
958.138	3024.38
958.365	2994.38
958.593	3031.38
958.82	2931.38
959.048	3028.38
959.275	2959.38
959.502	2933.38
959.73	2910.38
959.957	2940.38
960.184	2985.38
960.411	2890.38
960.638	2983.38
960.865	2924.38
961.092	2949.38
961.319	2848.38
961.546	2959.38
961.773	2929.38
962	2923.38
962.227	2924.38
962.454	2902.38
962.68	2897.38
962.907	2869.38
963.134	2833.38
963.36	2836.38
963.587	2842.38
963.813	2775.38
964.04	2837.38
964.266	2757.38
964.493	2837.38
964.719	2783.38
964.945	2761.38
965.171	2658.38
965.398	2680.38
965.624	2730.38
965.85	2677.38
966.076	2695.38
966.302	2688.38
966.528	2669.38
966.754	2649.38
966.98	2649.38
967.206	2644.38
967.431	2593.38
967.657	2698.38
967.883	2635.38
968.109	2600.38
968.334	2553.38
968.56	2534.38
968.785	2610.38
969.011	2515.38
969.236	2581.38
969.462	2500.38
969.687	2520.38
969.912	2556.38
970.138	2594.38
970.363	2533.38
970.588	2547.38
970.813	2505.38
971.038	2432.38
971.263	2506.38
971.488	2478.38
971.713	2506.38
971.938	2497.38
972.163	2412.38
972.388	2440.38
972.613	2398.38
972.838	2422.38
973.062	2396.38
973.287	2373.38
973.512	2345.38
973.736	2389.38
973.961	2354.38
974.185	2332.38
974.41	2343.38
974.634	2249.38
974.858	2295.38
975.083	2299.38
975.307	2284.38
975.531	2225.38
975.755	2177.38
975.98	2225.38
976.204	2152.38
976.428	2154.38
976.652	2183.38
976.876	2146.38
977.1	2168.38
977.324	2130.38
977.547	2157.38
977.771	2183.38
977.995	2142.38
978.219	2103.38
978.442	2214.38
978.666	2145.38
978.89	2104.38
979.113	2112.38
979.337	2093.38
979.56	2071.38
979.783	2172.38
980.007	2007.38
980.23	2070.38
980.453	2025.38
980.677	2084.38
980.9	2030.38
981.123	1967.38
981.346	2046.38
981.569	2056.38
981.792	2072.38
982.015	2018.38
982.238	1968.38
982.461	2016.38
982.684	1981.38
982.907	1941.38
983.129	1933.38
983.352	1951.38
983.575	1972.38
983.797	1972.38
984.02	1899.38
984.242	1910.38
984.465	1937.38
984.687	1930.38
984.91	1954.38
985.132	1920.38
985.354	1946.38
985.577	1887.38
985.799	1848.38
986.021	1800.38
986.243	1838.38
986.465	1833.38
986.687	1916.38
986.909	1932.38
987.131	1868.38
987.353	1802.38
987.575	1849.38
987.797	1802.38
988.019	1761.38
988.241	1823.38
988.462	1795.38
988.684	1843.38
988.906	1853.38
989.127	1867.38
989.349	1745.38
989.57	1815.38
989.792	1835.38
990.013	1831.38
990.234	1834.38
990.456	1849.38
990.677	1828.38
990.898	1771.38
991.119	1756.38
991.341	1796.38
991.562	1709.38
991.783	1777.38
992.004	1693.38
992.225	1671.38
992.446	1689.38
992.667	1641.38
992.887	1729.38
993.108	1618.38
993.329	1727.38
993.55	1668.38
993.77	1638.38
993.991	1637.38
994.212	1659.38
994.432	1680.38
994.653	1673.38
994.873	1645.38
995.093	1559.38
995.314	1599.38
995.534	1637.38
995.754	1673.38
995.975	1694.38
996.195	1564.38
996.415	1619.38
996.635	1577.38
996.855	1624.38
997.075	1597.38
997.295	1547.38
997.515	1578.38
997.735	1623.38
997.955	1568.38
998.174	1566.38
998.394	1518.38
998.614	1593.38
998.834	1530.38
999.053	1617.38
999.273	1567.38
999.492	1605.38
999.712	1585.38
999.931	1519.38
1000.151	1576.38
1000.37	1546.38
1000.589	1602.38
1000.809	1514.38
1001.028	1641.38
1001.247	1559.38
1001.466	1469.38
1001.685	1598.38
1001.904	1529.38
1002.123	1531.38
1002.342	1510.38
1002.561	1501.38
1002.78	1490.38
1002.999	1574.38
1003.218	1500.38
1003.436	1486.38
1003.655	1524.38
1003.874	1447.38
1004.092	1489.38
1004.311	1533.38
1004.53	1478.38
1004.748	1569.38
1004.966	1481.38
1005.185	1558.38
1005.403	1513.38
1005.622	1508.38
1005.84	1563.38
1006.058	1464.38
1006.276	1479.38
1006.494	1844.38
1006.712	1486.38
1006.931	1545.38
1007.149	1461.38
1007.367	1452.38
1007.584	1500.38
1007.802	1516.38
1008.02	1476.38
1008.238	1573.38
1008.456	1564.38
1008.673	1444.38
1008.891	1541.38
1009.109	1478.38
1009.326	1534.38
1009.544	1627.38
1009.761	1540.38
1009.979	1625.38
1010.196	1656.38
1010.413	1733.38
1010.631	1797.38
1010.848	1835.38
1011.065	1796.38
1011.282	1799.38
1011.5	1705.38
1011.717	1811.38
1011.934	1753.38
1012.151	1753.38
1012.368	1758.38
1012.585	1692.38
1012.801	1792.38
1013.018	1738.38
1013.235	1670.38
1013.452	1704.38
1013.669	1715.38
1013.885	1710.38
1014.102	1713.38
1014.318	1715.38
1014.535	1686.38
1014.751	1688.38
1014.968	1692.38
1015.184	1723.38
1015.401	1622.38
1015.617	1656.38
1015.833	1572.38
1016.049	1619.38
1016.266	1591.38
1016.482	1588.38
1016.698	1532.38
1016.914	1573.38
1017.13	1515.38
1017.346	1495.38
1017.562	1557.38
1017.778	1498.38
1017.993	1461.38
1018.209	1508.38
1018.425	1478.38
1018.641	1461.38
1018.856	1436.38
1019.072	1463.38
1019.288	1514.38
1019.503	1422.38
1019.719	1371.38
1019.934	1380.38
1020.149	1466.38
1020.365	1419.38
1020.58	1359.38
1020.795	1393.38
1021.011	1335.38
1021.226	1311.38
1021.441	1325.38
1021.656	1259.38
1021.871	1177.38
1022.086	1199.38
1022.301	1186.38
1022.516	1174.38
1022.731	1187.38
1022.946	1125.38
1023.16	1134.38
1023.375	1087.38
1023.59	1092.38
1023.804	1044.38
1024.019	1118.38
1024.234	1002.38
1024.448	1052.38
1024.663	969.38
1024.877	977.38
1025.092	1003.38
1025.306	997.38
1025.52	899.38
1025.734	1003.38
1025.949	911.38
1026.163	880.38
1026.377	838.38
1026.591	893.38
1026.805	802.38
1027.019	810.38
1027.233	768.38
1027.447	691.38
1027.661	817.38
1027.875	770.38
1028.088	762.38
1028.302	695.38
1028.516	683.38
1028.73	687.38
1028.943	695.38
1029.157	624.38
1029.37	588.38
1029.584	-2.62
1029.797	-0.62
1030.011	-3.62
1030.224	2.38
