Data from QEP037381__85__10-50-04-315.txt Node

Date: Fri Apr 28 10:50:04 EDT 2023
User: dcclab
Spectrometer: QEP03738
Trigger mode: 4
Integration Time (sec): 1.000000E1
Scans to average: 1
Electric dark correction enabled: true
Nonlinearity correction enabled: false
Boxcar width: 0
XAxis mode: Wavelengths
Number of Pixels in Spectrum: 1044
>>>>>Begin Spectral Data<<<<<
784.041	12.12
784.3	0.12
784.558	0.12
784.817	-3.88
785.075	90557.12
785.334	18017.12
785.592	9251.12
785.851	6556.12
786.109	4945.12
786.368	3863.12
786.626	3125.12
786.884	2561.12
787.143	2137.12
787.401	1732.12
787.659	1575.12
787.917	1350.12
788.175	1204.12
788.433	1074.12
788.691	959.12
788.949	855.12
789.207	820.12
789.465	699.12
789.723	677.12
789.98	616.12
790.238	643.12
790.496	598.12
790.753	585.12
791.011	615.12
791.268	548.12
791.526	545.12
791.783	545.12
792.041	516.12
792.298	446.12
792.556	501.12
792.813	489.12
793.07	465.12
793.327	438.12
793.584	535.12
793.841	445.12
794.099	466.12
794.356	523.12
794.613	412.12
794.869	462.12
795.126	408.12
795.383	404.12
795.64	426.12
795.897	378.12
796.153	438.12
796.41	412.12
796.667	413.12
796.923	404.12
797.18	410.12
797.436	421.12
797.693	396.12
797.949	456.12
798.206	472.12
798.462	385.12
798.718	447.12
798.974	421.12
799.231	463.12
799.487	443.12
799.743	448.12
799.999	481.12
800.255	457.12
800.511	448.12
800.767	475.12
801.023	464.12
801.279	492.12
801.534	520.12
801.79	567.12
802.046	559.12
802.302	669.12
802.557	760.12
802.813	921.12
803.068	1114.12
803.324	1515.12
803.579	2052.12
803.835	2755.12
804.09	3720.12
804.345	4616.12
804.601	5522.12
804.856	6390.12
805.111	6990.12
805.366	7442.12
805.621	7819.12
805.876	8011.12
806.131	8225.12
806.386	8329.12
806.641	8454.12
806.896	8553.12
807.151	8731.12
807.406	8808.12
807.661	8964.12
807.915	9218.12
808.17	9268.12
808.425	9323.12
808.679	9354.12
808.934	9516.12
809.188	9612.12
809.443	9675.12
809.697	9854.12
809.951	9816.12
810.206	9927.12
810.46	10019.12
810.714	10107.12
810.968	10302.12
811.223	10343.12
811.477	10417.12
811.731	10537.12
811.985	10560.12
812.239	10382.12
812.493	10536.12
812.747	10569.12
813	10522.12
813.254	10538.12
813.508	10790.12
813.762	10646.12
814.015	10685.12
814.269	10787.12
814.522	10837.12
814.776	10946.12
815.03	11081.12
815.283	11167.12
815.536	11390.12
815.79	11521.12
816.043	11715.12
816.296	11829.12
816.55	11990.12
816.803	12071.12
817.056	12362.12
817.309	12350.12
817.562	12549.12
817.815	12732.12
818.068	12673.12
818.321	12823.12
818.574	12978.12
818.827	13175.12
819.079	13327.12
819.332	13678.12
819.585	13864.12
819.838	13977.12
820.09	13941.12
820.343	14000.12
820.595	13976.12
820.848	14123.12
821.1	14295.12
821.353	14250.12
821.605	14163.12
821.857	14130.12
822.11	14025.12
822.362	14031.12
822.614	13919.12
822.866	14163.12
823.118	14004.12
823.37	14218.12
823.622	14350.12
823.874	14439.12
824.126	14456.12
824.378	14329.12
824.63	14353.12
824.882	14339.12
825.134	14331.12
825.385	14293.12
825.637	14126.12
825.888	14054.12
826.14	14134.12
826.392	14107.12
826.643	13945.12
826.895	13901.12
827.146	13752.12
827.397	13824.12
827.649	13745.12
827.9	13745.12
828.151	13716.12
828.402	13838.12
828.653	13865.12
828.905	13940.12
829.156	13943.12
829.407	13937.12
829.658	14153.12
829.909	14500.12
830.159	14599.12
830.41	14454.12
830.661	14179.12
830.912	14048.12
831.162	14055.12
831.413	14091.12
831.664	14053.12
831.914	13893.12
832.165	13863.12
832.415	13822.12
832.666	13876.12
832.916	14005.12
833.167	13913.12
833.417	13898.12
833.667	13790.12
833.917	13780.12
834.168	13804.12
834.418	13743.12
834.668	13664.12
834.918	13620.12
835.168	13582.12
835.418	13482.12
835.668	13477.12
835.918	13411.12
836.167	13342.12
836.417	13291.12
836.667	13328.12
836.917	13385.12
837.166	13449.12
837.416	13569.12
837.666	13562.12
837.915	13512.12
838.165	13509.12
838.414	13445.12
838.663	13365.12
838.913	13525.12
839.162	13442.12
839.411	13508.12
839.661	13506.12
839.91	13567.12
840.159	13443.12
840.408	13600.12
840.657	13572.12
840.906	13516.12
841.155	13477.12
841.404	13414.12
841.653	13510.12
841.902	13522.12
842.15	13574.12
842.399	13754.12
842.648	13711.12
842.897	13732.12
843.145	13556.12
843.394	13451.12
843.642	13351.12
843.891	13156.12
844.139	13075.12
844.388	13001.12
844.636	12838.12
844.884	12973.12
845.133	13004.12
845.381	13045.12
845.629	13001.12
845.877	12988.12
846.125	13028.12
846.373	12878.12
846.621	12865.12
846.869	12753.12
847.117	12748.12
847.365	12817.12
847.613	12678.12
847.861	12691.12
848.108	12810.12
848.356	12773.12
848.604	12746.12
848.851	12742.12
849.099	12729.12
849.346	12695.12
849.594	12781.12
849.841	12832.12
850.089	12793.12
850.336	12842.12
850.583	12836.12
850.831	12875.12
851.078	12692.12
851.325	12825.12
851.572	13081.12
851.819	13004.12
852.066	12514.12
852.313	12298.12
852.56	12103.12
852.807	12061.12
853.054	12144.12
853.301	12189.12
853.548	12221.12
853.794	12373.12
854.041	12337.12
854.288	12436.12
854.534	12610.12
854.781	12607.12
855.028	12549.12
855.274	12696.12
855.52	12777.12
855.767	13014.12
856.013	13295.12
856.26	13515.12
856.506	12714.12
856.752	12642.12
856.998	12663.12
857.244	12728.12
857.49	12903.12
857.736	12935.12
857.982	12879.12
858.228	12710.12
858.474	12499.12
858.72	12370.12
858.966	12140.12
859.212	12140.12
859.458	11967.12
859.703	11835.12
859.949	11681.12
860.195	11611.12
860.44	11667.12
860.686	11753.12
860.931	11919.12
861.177	11633.12
861.422	11476.12
861.667	11245.12
861.913	11146.12
862.158	11059.12
862.403	11177.12
862.648	11101.12
862.893	11179.12
863.138	11110.12
863.384	11040.12
863.629	11092.12
863.873	11057.12
864.118	11091.12
864.363	10961.12
864.608	11003.12
864.853	10894.12
865.098	10819.12
865.342	10739.12
865.587	10729.12
865.832	10729.12
866.076	10607.12
866.321	10720.12
866.565	10668.12
866.81	10573.12
867.054	10561.12
867.298	10620.12
867.543	10436.12
867.787	10626.12
868.031	10572.12
868.275	10555.12
868.519	10622.12
868.764	10550.12
869.008	10615.12
869.252	10632.12
869.496	10620.12
869.739	10708.12
869.983	10838.12
870.227	10897.12
870.471	10962.12
870.715	11044.12
870.958	11115.12
871.202	11148.12
871.446	11228.12
871.689	11217.12
871.933	11204.12
872.176	11136.12
872.42	11136.12
872.663	11235.12
872.906	11378.12
873.15	11658.12
873.393	11836.12
873.636	12029.12
873.879	11716.12
874.122	11383.12
874.366	11016.12
874.609	10830.12
874.852	10543.12
875.095	10482.12
875.337	10374.12
875.58	10202.12
875.823	10271.12
876.066	10160.12
876.309	10169.12
876.551	9970.12
876.794	9939.12
877.037	10038.12
877.279	9920.12
877.522	9935.12
877.764	9874.12
878.007	9778.12
878.249	9710.12
878.491	9675.12
878.734	9672.12
878.976	9567.12
879.218	9525.12
879.46	9522.12
879.702	9421.12
879.945	9305.12
880.187	9140.12
880.429	9074.12
880.671	9055.12
880.912	9010.12
881.154	8953.12
881.396	8860.12
881.638	8944.12
881.88	8967.12
882.121	8971.12
882.363	9013.12
882.605	9086.12
882.846	9099.12
883.088	9336.12
883.329	9454.12
883.571	9789.12
883.812	10391.12
884.053	11295.12
884.295	11988.12
884.536	12393.12
884.777	12196.12
885.018	11705.12
885.259	11477.12
885.5	11336.12
885.742	11318.12
885.982	10995.12
886.223	10801.12
886.464	10656.12
886.705	10292.12
886.946	9972.12
887.187	9595.12
887.428	9330.12
887.668	8946.12
887.909	8585.12
888.15	8416.12
888.39	8273.12
888.631	8250.12
888.871	8079.12
889.111	8037.12
889.352	7869.12
889.592	7738.12
889.833	7697.12
890.073	7671.12
890.313	7716.12
890.553	7450.12
890.793	7470.12
891.033	7442.12
891.273	7361.12
891.513	7388.12
891.753	7414.12
891.993	7362.12
892.233	7411.12
892.473	7459.12
892.713	7408.12
892.952	7308.12
893.192	7416.12
893.432	7331.12
893.671	7340.12
893.911	7312.12
894.15	7301.12
894.39	7122.12
894.629	7167.12
894.869	7153.12
895.108	7072.12
895.347	7045.12
895.587	7085.12
895.826	7073.12
896.065	7034.12
896.304	7067.12
896.543	7126.12
896.782	7016.12
897.021	7051.12
897.26	6972.12
897.499	7091.12
897.738	7037.12
897.977	6967.12
898.216	6981.12
898.454	6892.12
898.693	6878.12
898.932	6898.12
899.17	6762.12
899.409	6845.12
899.647	6887.12
899.886	6804.12
900.124	6954.12
900.363	6931.12
900.601	7028.12
900.839	7143.12
901.078	7223.12
901.316	7312.12
901.554	7463.12
901.792	7583.12
902.03	7508.12
902.268	7580.12
902.506	7602.12
902.744	7536.12
902.982	7449.12
903.22	7212.12
903.458	7011.12
903.695	6847.12
903.933	6649.12
904.171	6396.12
904.409	6347.12
904.646	6259.12
904.884	6067.12
905.121	6062.12
905.359	5967.12
905.596	5886.12
905.833	5793.12
906.071	5790.12
906.308	5811.12
906.545	5742.12
906.783	5763.12
907.02	5707.12
907.257	5715.12
907.494	5723.12
907.731	5711.12
907.968	5647.12
908.205	5554.12
908.442	5537.12
908.679	5506.12
908.915	5500.12
909.152	5484.12
909.389	5339.12
909.626	5371.12
909.862	5265.12
910.099	5296.12
910.335	5308.12
910.572	5218.12
910.808	5252.12
911.045	5186.12
911.281	5202.12
911.518	5209.12
911.754	5071.12
911.99	5078.12
912.226	5050.12
912.463	4933.12
912.699	4961.12
912.935	4909.12
913.171	4915.12
913.407	4860.12
913.643	4841.12
913.879	4810.12
914.114	4746.12
914.35	4709.12
914.586	4672.12
914.822	4594.12
915.057	4716.12
915.293	4550.12
915.529	4536.12
915.764	4582.12
916	4536.12
916.235	4519.12
916.471	4562.12
916.706	4487.12
916.941	4513.12
917.177	4454.12
917.412	4512.12
917.647	4499.12
917.882	4435.12
918.117	4521.12
918.352	4458.12
918.588	4468.12
918.823	4414.12
919.057	4358.12
919.292	4257.12
919.527	4354.12
919.762	4217.12
919.997	4273.12
920.232	4162.12
920.466	4181.12
920.701	4031.12
920.935	4108.12
921.17	4027.12
921.405	4013.12
921.639	4067.12
921.873	4007.12
922.108	4023.12
922.342	3986.12
922.576	3945.12
922.811	3921.12
923.045	3976.12
923.279	3972.12
923.513	3846.12
923.747	3897.12
923.981	3853.12
924.215	3869.12
924.449	3824.12
924.683	3796.12
924.917	3785.12
925.151	3766.12
925.385	3830.12
925.618	3770.12
925.852	3781.12
926.086	3663.12
926.319	3747.12
926.553	3748.12
926.786	3753.12
927.02	3768.12
927.253	3765.12
927.486	3701.12
927.72	3633.12
927.953	3730.12
928.186	3636.12
928.42	3679.12
928.653	3613.12
928.886	3563.12
929.119	3635.12
929.352	3608.12
929.585	3605.12
929.818	3528.12
930.051	3550.12
930.284	3534.12
930.516	3421.12
930.749	3415.12
930.982	3475.12
931.215	3490.12
931.447	3396.12
931.68	3378.12
931.912	3352.12
932.145	3373.12
932.377	3392.12
932.61	3474.12
932.842	3323.12
933.074	3396.12
933.307	3322.12
933.539	3464.12
933.771	3435.12
934.003	3391.12
934.236	3448.12
934.468	3439.12
934.7	3376.12
934.932	3367.12
935.164	3320.12
935.395	3354.12
935.627	3318.12
935.859	3325.12
936.091	3274.12
936.323	3354.12
936.554	3308.12
936.786	3301.12
937.017	3242.12
937.249	3263.12
937.481	3158.12
937.712	3254.12
937.943	3216.12
938.175	3234.12
938.406	3183.12
938.637	3295.12
938.869	3144.12
939.1	3223.12
939.331	3194.12
939.562	3200.12
939.793	3168.12
940.024	3188.12
940.255	3215.12
940.486	3143.12
940.717	3118.12
940.948	3100.12
941.179	3079.12
941.409	3143.12
941.64	3126.12
941.871	3047.12
942.102	3057.12
942.332	3101.12
942.563	3119.12
942.793	3079.12
943.024	3057.12
943.254	3067.12
943.484	3070.12
943.715	3100.12
943.945	3085.12
944.175	3001.12
944.405	3009.12
944.636	3041.12
944.866	3041.12
945.096	3061.12
945.326	2924.12
945.556	3020.12
945.786	3046.12
946.016	2987.12
946.245	2947.12
946.475	2948.12
946.705	2934.12
946.935	2934.12
947.164	2985.12
947.394	2898.12
947.624	2912.12
947.853	2944.12
948.083	2841.12
948.312	2862.12
948.542	2820.12
948.771	2803.12
949	2808.12
949.23	2801.12
949.459	2828.12
949.688	2870.12
949.917	2843.12
950.146	2825.12
950.375	2849.12
950.604	2772.12
950.833	2834.12
951.062	2873.12
951.291	2795.12
951.52	2779.12
951.749	2784.12
951.978	2731.12
952.206	2739.12
952.435	2749.12
952.664	2749.12
952.892	2791.12
953.121	2697.12
953.349	2736.12
953.578	2747.12
953.806	2699.12
954.035	2631.12
954.263	2674.12
954.491	2603.12
954.719	2666.12
954.948	2634.12
955.176	2630.12
955.404	2548.12
955.632	2602.12
955.86	2572.12
956.088	2623.12
956.316	2618.12
956.544	2639.12
956.772	2527.12
956.999	2556.12
957.227	2597.12
957.455	2495.12
957.683	2529.12
957.91	2476.12
958.138	2441.12
958.365	2446.12
958.593	2436.12
958.82	2416.12
959.048	2479.12
959.275	2452.12
959.502	2423.12
959.73	2431.12
959.957	2417.12
960.184	2500.12
960.411	2392.12
960.638	2488.12
960.865	2403.12
961.092	2458.12
961.319	2348.12
961.546	2438.12
961.773	2424.12
962	2375.12
962.227	2439.12
962.454	2411.12
962.68	2363.12
962.907	2392.12
963.134	2329.12
963.36	2361.12
963.587	2387.12
963.813	2271.12
964.04	2333.12
964.266	2310.12
964.493	2335.12
964.719	2348.12
964.945	2338.12
965.171	2252.12
965.398	2270.12
965.624	2310.12
965.85	2217.12
966.076	2260.12
966.302	2221.12
966.528	2235.12
966.754	2253.12
966.98	2223.12
967.206	2234.12
967.431	2157.12
967.657	2253.12
967.883	2211.12
968.109	2202.12
968.334	2138.12
968.56	2092.12
968.785	2145.12
969.011	2113.12
969.236	2160.12
969.462	2110.12
969.687	2117.12
969.912	2166.12
970.138	2191.12
970.363	2077.12
970.588	2132.12
970.813	2094.12
971.038	2064.12
971.263	2119.12
971.488	2116.12
971.713	2144.12
971.938	2129.12
972.163	2008.12
972.388	2055.12
972.613	2019.12
972.838	2033.12
973.062	2019.12
973.287	1985.12
973.512	1935.12
973.736	1997.12
973.961	1998.12
974.185	1932.12
974.41	2006.12
974.634	1912.12
974.858	1907.12
975.083	1945.12
975.307	1973.12
975.531	1894.12
975.755	1848.12
975.98	1910.12
976.204	1793.12
976.428	1803.12
976.652	1851.12
976.876	1800.12
977.1	1838.12
977.324	1806.12
977.547	1863.12
977.771	1855.12
977.995	1830.12
978.219	1766.12
978.442	1895.12
978.666	1804.12
978.89	1847.12
979.113	1802.12
979.337	1793.12
979.56	1787.12
979.783	1853.12
980.007	1731.12
980.23	1787.12
980.453	1741.12
980.677	1785.12
980.9	1787.12
981.123	1681.12
981.346	1770.12
981.569	1789.12
981.792	1793.12
982.015	1746.12
982.238	1715.12
982.461	1730.12
982.684	1701.12
982.907	1666.12
983.129	1674.12
983.352	1732.12
983.575	1668.12
983.797	1713.12
984.02	1637.12
984.242	1664.12
984.465	1662.12
984.687	1701.12
984.91	1718.12
985.132	1693.12
985.354	1706.12
985.577	1692.12
985.799	1660.12
986.021	1605.12
986.243	1633.12
986.465	1637.12
986.687	1686.12
986.909	1739.12
987.131	1683.12
987.353	1647.12
987.575	1680.12
987.797	1649.12
988.019	1562.12
988.241	1622.12
988.462	1584.12
988.684	1655.12
988.906	1680.12
989.127	1712.12
989.349	1575.12
989.57	1630.12
989.792	1666.12
990.013	1698.12
990.234	1667.12
990.456	1713.12
990.677	1678.12
990.898	1604.12
991.119	1633.12
991.341	1649.12
991.562	1589.12
991.783	1650.12
992.004	1572.12
992.225	1549.12
992.446	1619.12
992.667	1514.12
992.887	1595.12
993.108	1488.12
993.329	1623.12
993.55	1584.12
993.77	1522.12
993.991	1470.12
994.212	1544.12
994.432	1569.12
994.653	1572.12
994.873	1559.12
995.093	1440.12
995.314	1484.12
995.534	1581.12
995.754	1575.12
995.975	1590.12
996.195	1535.12
996.415	1565.12
996.635	1525.12
996.855	1596.12
997.075	1591.12
997.295	1579.12
997.515	1560.12
997.735	1615.12
997.955	1600.12
998.174	1562.12
998.394	1576.12
998.614	1604.12
998.834	1555.12
999.053	1633.12
999.273	1561.12
999.492	1627.12
999.712	1523.12
999.931	1527.12
1000.151	1536.12
1000.37	1512.12
1000.589	1565.12
1000.809	1472.12
1001.028	1572.12
1001.247	1528.12
1001.466	1424.12
1001.685	1541.12
1001.904	1483.12
1002.123	1452.12
1002.342	1473.12
1002.561	1439.12
1002.78	1454.12
1002.999	1508.12
1003.218	1437.12
1003.436	1432.12
1003.655	1501.12
1003.874	1406.12
1004.092	1448.12
1004.311	1488.12
1004.53	1464.12
1004.748	1513.12
1004.966	1433.12
1005.185	1498.12
1005.403	1503.12
1005.622	1491.12
1005.84	1541.12
1006.058	1479.12
1006.276	1510.12
1006.494	1886.12
1006.712	1522.12
1006.931	1602.12
1007.149	1536.12
1007.367	1536.12
1007.584	1601.12
1007.802	1658.12
1008.02	1625.12
1008.238	1757.12
1008.456	1790.12
1008.673	1720.12
1008.891	1851.12
1009.109	1870.12
1009.326	1971.12
1009.544	2161.12
1009.761	2161.12
1009.979	2368.12
1010.196	2523.12
1010.413	2749.12
1010.631	2924.12
1010.848	3079.12
1011.065	3077.12
1011.282	3066.12
1011.5	2980.12
1011.717	3069.12
1011.934	2990.12
1012.151	2963.12
1012.368	2970.12
1012.585	2900.12
1012.801	2968.12
1013.018	2948.12
1013.235	2925.12
1013.452	2989.12
1013.669	3018.12
1013.885	3031.12
1014.102	3095.12
1014.318	3102.12
1014.535	3079.12
1014.751	3065.12
1014.968	3061.12
1015.184	3061.12
1015.401	2904.12
1015.617	2903.12
1015.833	2818.12
1016.049	2759.12
1016.266	2760.12
1016.482	2698.12
1016.698	2623.12
1016.914	2649.12
1017.13	2546.12
1017.346	2552.12
1017.562	2575.12
1017.778	2493.12
1017.993	2412.12
1018.209	2449.12
1018.425	2446.12
1018.641	2426.12
1018.856	2358.12
1019.072	2393.12
1019.288	2436.12
1019.503	2394.12
1019.719	2276.12
1019.934	2290.12
1020.149	2325.12
1020.365	2258.12
1020.58	2133.12
1020.795	2163.12
1021.011	2043.12
1021.226	1954.12
1021.441	1976.12
1021.656	1858.12
1021.871	1738.12
1022.086	1736.12
1022.301	1696.12
1022.516	1681.12
1022.731	1687.12
1022.946	1630.12
1023.16	1553.12
1023.375	1502.12
1023.59	1436.12
1023.804	1390.12
1024.019	1474.12
1024.234	1305.12
1024.448	1330.12
1024.663	1240.12
1024.877	1245.12
1025.092	1211.12
1025.306	1227.12
1025.52	1092.12
1025.734	1166.12
1025.949	1083.12
1026.163	1059.12
1026.377	971.12
1026.591	1020.12
1026.805	941.12
1027.019	948.12
1027.233	902.12
1027.447	825.12
1027.661	942.12
1027.875	878.12
1028.088	870.12
1028.302	777.12
1028.516	778.12
1028.73	781.12
1028.943	746.12
1029.157	714.12
1029.37	650.12
1029.584	-1.88
1029.797	-2.88
1030.011	-1.88
1030.224	-1.88
