Data from QEP037381__22__15-12-55-856.txt Node

Date: Fri Dec 16 15:12:55 EST 2022
User: dcclab
Spectrometer: QEP03738
Trigger mode: 4
Integration Time (sec): 1.000000E1
Scans to average: 1
Electric dark correction enabled: true
Nonlinearity correction enabled: false
Boxcar width: 0
XAxis mode: Wavelengths
Number of Pixels in Spectrum: 1044
>>>>>Begin Spectral Data<<<<<
784.041	10.75
784.3	-2.25
784.558	-2.25
784.817	-3.25
785.075	90080.75
785.334	15587.75
785.592	7317.75
785.851	5032.75
786.109	3815.75
786.368	3011.75
786.626	2438.75
786.884	2013.75
787.143	1687.75
787.401	1409.75
787.659	1249.75
787.917	1075.75
788.175	1029.75
788.433	883.75
788.691	806.75
788.949	777.75
789.207	714.75
789.465	616.75
789.723	594.75
789.98	564.75
790.238	605.75
790.496	557.75
790.753	535.75
791.011	566.75
791.268	512.75
791.526	512.75
791.783	517.75
792.041	503.75
792.298	428.75
792.556	482.75
792.813	462.75
793.07	442.75
793.327	435.75
793.584	516.75
793.841	431.75
794.099	468.75
794.356	518.75
794.613	406.75
794.869	455.75
795.126	419.75
795.383	408.75
795.64	420.75
795.897	379.75
796.153	450.75
796.41	427.75
796.667	417.75
796.923	409.75
797.18	414.75
797.436	427.75
797.693	409.75
797.949	470.75
798.206	478.75
798.462	405.75
798.718	463.75
798.974	441.75
799.231	469.75
799.487	470.75
799.743	463.75
799.999	489.75
800.255	499.75
800.511	479.75
800.767	516.75
801.023	509.75
801.279	555.75
801.534	584.75
801.79	633.75
802.046	639.75
802.302	774.75
802.557	886.75
802.813	1105.75
803.068	1333.75
803.324	1822.75
803.579	2491.75
803.835	3411.75
804.09	4703.75
804.345	6066.75
804.601	7628.75
804.856	9277.75
805.111	10681.75
805.366	11817.75
805.621	12591.75
805.876	13112.75
806.131	13448.75
806.386	13698.75
806.641	13955.75
806.896	14204.75
807.151	14523.75
807.406	14789.75
807.661	14999.75
807.915	15147.75
808.17	15540.75
808.425	15644.75
808.679	15853.75
808.934	16062.75
809.188	16155.75
809.443	16315.75
809.697	16439.75
809.951	16561.75
810.206	16837.75
810.46	16936.75
810.714	17056.75
810.968	17343.75
811.223	17413.75
811.477	17608.75
811.731	17796.75
811.985	17764.75
812.239	17787.75
812.493	17985.75
812.747	18026.75
813	17984.75
813.254	18201.75
813.508	18288.75
813.762	18372.75
814.015	18433.75
814.269	18541.75
814.522	18694.75
814.776	18910.75
815.03	19074.75
815.283	19445.75
815.536	19690.75
815.79	20041.75
816.043	20343.75
816.296	20575.75
816.55	20712.75
816.803	21050.75
817.056	21318.75
817.309	21482.75
817.562	21665.75
817.815	21882.75
818.068	22086.75
818.321	22308.75
818.574	22494.75
818.827	22738.75
819.079	23014.75
819.332	23532.75
819.585	23779.75
819.838	24089.75
820.09	24154.75
820.343	24495.75
820.595	24486.75
820.848	24611.75
821.1	24619.75
821.353	24763.75
821.605	24690.75
821.857	24609.75
822.11	24636.75
822.362	24552.75
822.614	24364.75
822.866	24634.75
823.118	24376.75
823.37	24584.75
823.622	24726.75
823.874	24828.75
824.126	24769.75
824.378	24812.75
824.63	24894.75
824.882	24899.75
825.134	24937.75
825.385	24917.75
825.637	24884.75
825.888	24687.75
826.14	24539.75
826.392	24582.75
826.643	24494.75
826.895	24357.75
827.146	24199.75
827.397	24201.75
827.649	24230.75
827.9	24141.75
828.151	24139.75
828.402	24263.75
828.653	24346.75
828.905	24341.75
829.156	24580.75
829.407	24414.75
829.658	24396.75
829.909	24523.75
830.159	24492.75
830.41	24473.75
830.661	24300.75
830.912	24139.75
831.162	24118.75
831.413	23947.75
831.664	23981.75
831.914	23950.75
832.165	23873.75
832.415	23824.75
832.666	23842.75
832.916	23980.75
833.167	23989.75
833.417	23927.75
833.667	23795.75
833.917	23720.75
834.168	23762.75
834.418	23674.75
834.668	23565.75
834.918	23337.75
835.168	23419.75
835.418	23119.75
835.668	23138.75
835.918	22986.75
836.167	23004.75
836.417	22925.75
836.667	22942.75
836.917	22971.75
837.166	22972.75
837.416	23012.75
837.666	22933.75
837.915	22855.75
838.165	22786.75
838.414	22724.75
838.663	22669.75
838.913	22700.75
839.162	22552.75
839.411	22677.75
839.661	22444.75
839.91	22451.75
840.159	22415.75
840.408	22362.75
840.657	22410.75
840.906	22367.75
841.155	22499.75
841.404	22338.75
841.653	22461.75
841.902	22330.75
842.15	22420.75
842.399	22484.75
842.648	22384.75
842.897	22406.75
843.145	22201.75
843.394	22068.75
843.642	21887.75
843.891	21767.75
844.139	21639.75
844.388	21621.75
844.636	21458.75
844.884	21485.75
845.133	21544.75
845.381	21369.75
845.629	21396.75
845.877	21436.75
846.125	21379.75
846.373	21288.75
846.621	21246.75
846.869	21149.75
847.117	21043.75
847.365	21013.75
847.613	20779.75
847.861	20861.75
848.108	20863.75
848.356	20744.75
848.604	20764.75
848.851	20732.75
849.099	20713.75
849.346	20777.75
849.594	20871.75
849.841	20996.75
850.089	20909.75
850.336	20846.75
850.583	20977.75
850.831	20864.75
851.078	20682.75
851.325	20797.75
851.572	20981.75
851.819	20771.75
852.066	20318.75
852.313	20001.75
852.56	19824.75
852.807	19750.75
853.054	19615.75
853.301	19712.75
853.548	19707.75
853.794	19878.75
854.041	19838.75
854.288	19980.75
854.534	20162.75
854.781	20103.75
855.028	20003.75
855.274	20118.75
855.52	19921.75
855.767	19811.75
856.013	19835.75
856.26	20169.75
856.506	19702.75
856.752	19656.75
856.998	19612.75
857.244	19700.75
857.49	19873.75
857.736	19917.75
857.982	19852.75
858.228	19677.75
858.474	19605.75
858.72	19417.75
858.966	19308.75
859.212	19163.75
859.458	18830.75
859.703	18803.75
859.949	18530.75
860.195	18459.75
860.44	18402.75
860.686	18278.75
860.931	18334.75
861.177	18165.75
861.422	18203.75
861.667	17963.75
861.913	18004.75
862.158	17943.75
862.403	18096.75
862.648	18122.75
862.893	18129.75
863.138	18125.75
863.384	18100.75
863.629	17978.75
863.873	18074.75
864.118	18017.75
864.363	17819.75
864.608	17936.75
864.853	17784.75
865.098	17671.75
865.342	17556.75
865.587	17604.75
865.832	17474.75
866.076	17548.75
866.321	17444.75
866.565	17413.75
866.81	17299.75
867.054	17316.75
867.298	17235.75
867.543	17118.75
867.787	17257.75
868.031	17061.75
868.275	17100.75
868.519	17148.75
868.764	16989.75
869.008	16992.75
869.252	16966.75
869.496	16943.75
869.739	16964.75
869.983	17018.75
870.227	16953.75
870.471	16990.75
870.715	17095.75
870.958	17136.75
871.202	17065.75
871.446	17225.75
871.689	17170.75
871.933	17241.75
872.176	17177.75
872.42	17152.75
872.663	17009.75
872.906	17053.75
873.15	17098.75
873.393	16990.75
873.636	16973.75
873.879	16844.75
874.122	16699.75
874.366	16396.75
874.609	16251.75
874.852	16189.75
875.095	16031.75
875.337	16032.75
875.58	15842.75
875.823	15847.75
876.066	15845.75
876.309	15760.75
876.551	15658.75
876.794	15585.75
877.037	15660.75
877.279	15496.75
877.522	15437.75
877.764	15555.75
878.007	15463.75
878.249	15421.75
878.491	15417.75
878.734	15343.75
878.976	15363.75
879.218	15218.75
879.46	15140.75
879.702	15019.75
879.945	14930.75
880.187	14813.75
880.429	14705.75
880.671	14646.75
880.912	14599.75
881.154	14600.75
881.396	14521.75
881.638	14576.75
881.88	14502.75
882.121	14568.75
882.363	14419.75
882.605	14526.75
882.846	14456.75
883.088	14453.75
883.329	14397.75
883.571	14456.75
883.812	14651.75
884.053	14933.75
884.295	15254.75
884.536	15477.75
884.777	15346.75
885.018	15309.75
885.259	15145.75
885.5	15055.75
885.742	15313.75
885.982	15022.75
886.223	14891.75
886.464	14774.75
886.705	14611.75
886.946	14454.75
887.187	14179.75
887.428	14044.75
887.668	13720.75
887.909	13554.75
888.15	13334.75
888.39	13308.75
888.631	13173.75
888.871	13101.75
889.111	12930.75
889.352	12957.75
889.592	12843.75
889.833	12743.75
890.073	12706.75
890.313	12660.75
890.553	12542.75
890.793	12414.75
891.033	12460.75
891.273	12422.75
891.513	12288.75
891.753	12357.75
891.993	12254.75
892.233	12337.75
892.473	12452.75
892.713	12417.75
892.952	12384.75
893.192	12367.75
893.432	12313.75
893.671	12387.75
893.911	12199.75
894.15	12188.75
894.39	12061.75
894.629	12080.75
894.869	12095.75
895.108	11944.75
895.347	11954.75
895.587	11957.75
895.826	11952.75
896.065	11861.75
896.304	11885.75
896.543	11947.75
896.782	11815.75
897.021	11910.75
897.26	11852.75
897.499	11921.75
897.738	11973.75
897.977	11809.75
898.216	11678.75
898.454	11710.75
898.693	11565.75
898.932	11513.75
899.17	11535.75
899.409	11497.75
899.647	11552.75
899.886	11520.75
900.124	11480.75
900.363	11518.75
900.601	11539.75
900.839	11609.75
901.078	11666.75
901.316	11728.75
901.554	11795.75
901.792	11860.75
902.03	11906.75
902.268	11867.75
902.506	11889.75
902.744	11626.75
902.982	11628.75
903.22	11411.75
903.458	11230.75
903.695	11069.75
903.933	10888.75
904.171	10629.75
904.409	10500.75
904.646	10325.75
904.884	10079.75
905.121	10075.75
905.359	9960.75
905.596	9868.75
905.833	9708.75
906.071	9684.75
906.308	9685.75
906.545	9645.75
906.783	9495.75
907.02	9552.75
907.257	9434.75
907.494	9425.75
907.731	9382.75
907.968	9338.75
908.205	9331.75
908.442	9202.75
908.679	9122.75
908.915	9098.75
909.152	9020.75
909.389	8898.75
909.626	8852.75
909.862	8792.75
910.099	8781.75
910.335	8743.75
910.572	8698.75
910.808	8647.75
911.045	8631.75
911.281	8575.75
911.518	8596.75
911.754	8581.75
911.99	8419.75
912.226	8321.75
912.463	8244.75
912.699	8262.75
912.935	8218.75
913.171	8120.75
913.407	8058.75
913.643	8069.75
913.879	7976.75
914.114	7843.75
914.35	7802.75
914.586	7744.75
914.822	7612.75
915.057	7737.75
915.293	7481.75
915.529	7451.75
915.764	7568.75
916	7522.75
916.235	7578.75
916.471	7510.75
916.706	7440.75
916.941	7436.75
917.177	7435.75
917.412	7421.75
917.647	7421.75
917.882	7399.75
918.117	7384.75
918.352	7382.75
918.588	7341.75
918.823	7313.75
919.057	7214.75
919.292	7046.75
919.527	7093.75
919.762	6998.75
919.997	7012.75
920.232	6871.75
920.466	6887.75
920.701	6723.75
920.935	6720.75
921.17	6686.75
921.405	6652.75
921.639	6691.75
921.873	6568.75
922.108	6592.75
922.342	6626.75
922.576	6506.75
922.811	6451.75
923.045	6542.75
923.279	6576.75
923.513	6346.75
923.747	6412.75
923.981	6409.75
924.215	6304.75
924.449	6258.75
924.683	6239.75
924.917	6198.75
925.151	6191.75
925.385	6256.75
925.618	6145.75
925.852	6188.75
926.086	6048.75
926.319	6159.75
926.553	6138.75
926.786	6148.75
927.02	6096.75
927.253	6099.75
927.486	6126.75
927.72	5994.75
927.953	6082.75
928.186	6016.75
928.42	6088.75
928.653	5988.75
928.886	5975.75
929.119	5960.75
929.352	5927.75
929.585	5957.75
929.818	5797.75
930.051	5769.75
930.284	5798.75
930.516	5667.75
930.749	5659.75
930.982	5703.75
931.215	5632.75
931.447	5500.75
931.68	5548.75
931.912	5530.75
932.145	5500.75
932.377	5529.75
932.61	5751.75
932.842	5513.75
933.074	5587.75
933.307	5510.75
933.539	5612.75
933.771	5570.75
934.003	5506.75
934.236	5609.75
934.468	5609.75
934.7	5503.75
934.932	5541.75
935.164	5444.75
935.395	5469.75
935.627	5488.75
935.859	5420.75
936.091	5351.75
936.323	5373.75
936.554	5410.75
936.786	5351.75
937.017	5309.75
937.249	5331.75
937.481	5242.75
937.712	5336.75
937.943	5330.75
938.175	5287.75
938.406	5209.75
938.637	5323.75
938.869	5199.75
939.1	5250.75
939.331	5182.75
939.562	5206.75
939.793	5203.75
940.024	5204.75
940.255	5208.75
940.486	5073.75
940.717	5121.75
940.948	5059.75
941.179	4987.75
941.409	5040.75
941.64	5064.75
941.871	5017.75
942.102	4959.75
942.332	4972.75
942.563	5019.75
942.793	5003.75
943.024	4988.75
943.254	4954.75
943.484	5035.75
943.715	4999.75
943.945	4970.75
944.175	4882.75
944.405	4863.75
944.636	4901.75
944.866	4931.75
945.096	4936.75
945.326	4815.75
945.556	4880.75
945.786	4955.75
946.016	4833.75
946.245	4768.75
946.475	4721.75
946.705	4760.75
946.935	4744.75
947.164	4726.75
947.394	4670.75
947.624	4659.75
947.853	4679.75
948.083	4617.75
948.312	4608.75
948.542	4512.75
948.771	4476.75
949	4508.75
949.23	4522.75
949.459	4435.75
949.688	4531.75
949.917	4520.75
950.146	4507.75
950.375	4527.75
950.604	4446.75
950.833	4561.75
951.062	4495.75
951.291	4454.75
951.52	4440.75
951.749	4411.75
951.978	4326.75
952.206	4323.75
952.435	4332.75
952.664	4398.75
952.892	4309.75
953.121	4302.75
953.349	4337.75
953.578	4301.75
953.806	4261.75
954.035	4212.75
954.263	4268.75
954.491	4183.75
954.719	4195.75
954.948	4168.75
955.176	4099.75
955.404	4068.75
955.632	4078.75
955.86	4108.75
956.088	4074.75
956.316	4053.75
956.544	4086.75
956.772	4014.75
956.999	3999.75
957.227	4043.75
957.455	3947.75
957.683	3901.75
957.91	3892.75
958.138	3868.75
958.365	3862.75
958.593	3867.75
958.82	3833.75
959.048	3840.75
959.275	3843.75
959.502	3805.75
959.73	3743.75
959.957	3802.75
960.184	3803.75
960.411	3758.75
960.638	3827.75
960.865	3737.75
961.092	3769.75
961.319	3659.75
961.546	3763.75
961.773	3808.75
962	3732.75
962.227	3788.75
962.454	3723.75
962.68	3673.75
962.907	3734.75
963.134	3609.75
963.36	3645.75
963.587	3679.75
963.813	3567.75
964.04	3586.75
964.266	3534.75
964.493	3597.75
964.719	3548.75
964.945	3533.75
965.171	3434.75
965.398	3460.75
965.624	3460.75
965.85	3392.75
966.076	3437.75
966.302	3422.75
966.528	3403.75
966.754	3393.75
966.98	3364.75
967.206	3370.75
967.431	3314.75
967.657	3387.75
967.883	3346.75
968.109	3323.75
968.334	3264.75
968.56	3284.75
968.785	3278.75
969.011	3222.75
969.236	3279.75
969.462	3237.75
969.687	3197.75
969.912	3282.75
970.138	3295.75
970.363	3152.75
970.588	3211.75
970.813	3189.75
971.038	3178.75
971.263	3195.75
971.488	3206.75
971.713	3178.75
971.938	3166.75
972.163	3048.75
972.388	3053.75
972.613	3058.75
972.838	3089.75
973.062	3035.75
973.287	3070.75
973.512	2985.75
973.736	3028.75
973.961	2969.75
974.185	2971.75
974.41	2990.75
974.634	2897.75
974.858	2894.75
975.083	2917.75
975.307	2976.75
975.531	2859.75
975.755	2813.75
975.98	2836.75
976.204	2768.75
976.428	2772.75
976.652	2757.75
976.876	2758.75
977.1	2757.75
977.324	2723.75
977.547	2721.75
977.771	2734.75
977.995	2748.75
978.219	2645.75
978.442	2809.75
978.666	2723.75
978.89	2700.75
979.113	2675.75
979.337	2709.75
979.56	2643.75
979.783	2755.75
980.007	2624.75
980.23	2664.75
980.453	2595.75
980.677	2654.75
980.9	2626.75
981.123	2541.75
981.346	2631.75
981.569	2588.75
981.792	2588.75
982.015	2541.75
982.238	2532.75
982.461	2531.75
982.684	2514.75
982.907	2488.75
983.129	2482.75
983.352	2520.75
983.575	2500.75
983.797	2477.75
984.02	2439.75
984.242	2406.75
984.465	2437.75
984.687	2459.75
984.91	2438.75
985.132	2423.75
985.354	2413.75
985.577	2394.75
985.799	2378.75
986.021	2331.75
986.243	2315.75
986.465	2340.75
986.687	2382.75
986.909	2434.75
987.131	2350.75
987.353	2324.75
987.575	2343.75
987.797	2323.75
988.019	2253.75
988.241	2294.75
988.462	2240.75
988.684	2297.75
988.906	2295.75
989.127	2347.75
989.349	2245.75
989.57	2275.75
989.792	2284.75
990.013	2295.75
990.234	2330.75
990.456	2319.75
990.677	2295.75
990.898	2206.75
991.119	2230.75
991.341	2248.75
991.562	2204.75
991.783	2224.75
992.004	2150.75
992.225	2120.75
992.446	2173.75
992.667	2110.75
992.887	2160.75
993.108	2052.75
993.329	2164.75
993.55	2107.75
993.77	2041.75
993.991	2033.75
994.212	2086.75
994.432	2049.75
994.653	2071.75
994.873	2086.75
995.093	1940.75
995.314	1986.75
995.534	2062.75
995.754	2104.75
995.975	2087.75
996.195	1990.75
996.415	2053.75
996.635	2011.75
996.855	2005.75
997.075	2007.75
997.295	1986.75
997.515	1960.75
997.735	2030.75
997.955	1997.75
998.174	1998.75
998.394	1976.75
998.614	2016.75
998.834	1980.75
999.053	2006.75
999.273	1974.75
999.492	2016.75
999.712	1968.75
999.931	1909.75
1000.151	1933.75
1000.37	1927.75
1000.589	2016.75
1000.809	1873.75
1001.028	1990.75
1001.247	1943.75
1001.466	1839.75
1001.685	1971.75
1001.904	1906.75
1002.123	1881.75
1002.342	1862.75
1002.561	1833.75
1002.78	1853.75
1002.999	1932.75
1003.218	1862.75
1003.436	1802.75
1003.655	1891.75
1003.874	1798.75
1004.092	1825.75
1004.311	1856.75
1004.53	1818.75
1004.748	1887.75
1004.966	1819.75
1005.185	1857.75
1005.403	1885.75
1005.622	1868.75
1005.84	1901.75
1006.058	1796.75
1006.276	1814.75
1006.494	2305.75
1006.712	1828.75
1006.931	1887.75
1007.149	1790.75
1007.367	1807.75
1007.584	1863.75
1007.802	1889.75
1008.02	1826.75
1008.238	1942.75
1008.456	1977.75
1008.673	1832.75
1008.891	1980.75
1009.109	1942.75
1009.326	1988.75
1009.544	2106.75
1009.761	2022.75
1009.979	2167.75
1010.196	2219.75
1010.413	2367.75
1010.631	2444.75
1010.848	2491.75
1011.065	2557.75
1011.282	2513.75
1011.5	2432.75
1011.717	2535.75
1011.934	2440.75
1012.151	2474.75
1012.368	2469.75
1012.585	2378.75
1012.801	2464.75
1013.018	2442.75
1013.235	2448.75
1013.452	2424.75
1013.669	2472.75
1013.885	2458.75
1014.102	2505.75
1014.318	2477.75
1014.535	2467.75
1014.751	2455.75
1014.968	2443.75
1015.184	2466.75
1015.401	2395.75
1015.617	2375.75
1015.833	2325.75
1016.049	2348.75
1016.266	2277.75
1016.482	2324.75
1016.698	2237.75
1016.914	2267.75
1017.13	2204.75
1017.346	2217.75
1017.562	2275.75
1017.778	2206.75
1017.993	2142.75
1018.209	2230.75
1018.425	2198.75
1018.641	2145.75
1018.856	2148.75
1019.072	2140.75
1019.288	2230.75
1019.503	2128.75
1019.719	2089.75
1019.934	2115.75
1020.149	2144.75
1020.365	2093.75
1020.58	2002.75
1020.795	2049.75
1021.011	1931.75
1021.226	1967.75
1021.441	1924.75
1021.656	1821.75
1021.871	1751.75
1022.086	1755.75
1022.301	1745.75
1022.516	1687.75
1022.731	1735.75
1022.946	1656.75
1023.16	1628.75
1023.375	1582.75
1023.59	1550.75
1023.804	1513.75
1024.019	1617.75
1024.234	1455.75
1024.448	1472.75
1024.663	1408.75
1024.877	1413.75
1025.092	1412.75
1025.306	1387.75
1025.52	1288.75
1025.734	1390.75
1025.949	1259.75
1026.163	1230.75
1026.377	1177.75
1026.591	1198.75
1026.805	1134.75
1027.019	1113.75
1027.233	1089.75
1027.447	1042.75
1027.661	1120.75
1027.875	1086.75
1028.088	1055.75
1028.302	1004.75
1028.516	965.75
1028.73	958.75
1028.943	919.75
1029.157	870.75
1029.37	812.75
1029.584	1.75
1029.797	-2.25
1030.011	0.75
1030.224	-3.25
