Data from QEP037381__109__15-27-25-866.txt Node

Date: Fri Dec 16 15:27:25 EST 2022
User: dcclab
Spectrometer: QEP03738
Trigger mode: 4
Integration Time (sec): 1.000000E1
Scans to average: 1
Electric dark correction enabled: true
Nonlinearity correction enabled: false
Boxcar width: 0
XAxis mode: Wavelengths
Number of Pixels in Spectrum: 1044
>>>>>Begin Spectral Data<<<<<
784.041	13.62
784.3	-2.38
784.558	-1.38
784.817	-2.38
785.075	93447.62
785.334	16043.62
785.592	7500.62
785.851	5216.62
786.109	3893.62
786.368	3061.62
786.626	2467.62
786.884	2048.62
787.143	1732.62
787.401	1412.62
787.659	1287.62
787.917	1110.62
788.175	1032.62
788.433	925.62
788.691	841.62
788.949	772.62
789.207	749.62
789.465	647.62
789.723	622.62
789.98	564.62
790.238	604.62
790.496	598.62
790.753	543.62
791.011	617.62
791.268	544.62
791.526	533.62
791.783	540.62
792.041	517.62
792.298	439.62
792.556	513.62
792.813	484.62
793.07	466.62
793.327	449.62
793.584	534.62
793.841	457.62
794.099	480.62
794.356	543.62
794.613	453.62
794.869	477.62
795.126	433.62
795.383	443.62
795.64	444.62
795.897	404.62
796.153	463.62
796.41	443.62
796.667	429.62
796.923	424.62
797.18	436.62
797.436	458.62
797.693	430.62
797.949	488.62
798.206	521.62
798.462	444.62
798.718	500.62
798.974	486.62
799.231	513.62
799.487	497.62
799.743	531.62
799.999	550.62
800.255	536.62
800.511	530.62
800.767	592.62
801.023	592.62
801.279	623.62
801.534	665.62
801.79	741.62
802.046	784.62
802.302	936.62
802.557	1103.62
802.813	1366.62
803.068	1759.62
803.324	2441.62
803.579	3359.62
803.835	4703.62
804.09	6509.62
804.345	8534.62
804.601	10850.62
804.856	13051.62
805.111	15066.62
805.366	16611.62
805.621	17560.62
805.876	18518.62
806.131	18911.62
806.386	19280.62
806.641	19547.62
806.896	19884.62
807.151	20401.62
807.406	20713.62
807.661	21099.62
807.915	21546.62
808.17	21840.62
808.425	22098.62
808.679	22392.62
808.934	22704.62
809.188	22870.62
809.443	23200.62
809.697	23536.62
809.951	23677.62
810.206	23918.62
810.46	24197.62
810.714	24465.62
810.968	24821.62
811.223	24898.62
811.477	25120.62
811.731	25342.62
811.985	25511.62
812.239	25640.62
812.493	25836.62
812.747	26112.62
813	26062.62
813.254	26207.62
813.508	26311.62
813.762	26443.62
814.015	26565.62
814.269	26983.62
814.522	27150.62
814.776	27369.62
815.03	27903.62
815.283	28116.62
815.536	28668.62
815.79	29178.62
816.043	29560.62
816.296	29986.62
816.55	30291.62
816.803	30848.62
817.056	31215.62
817.309	31709.62
817.562	31869.62
817.815	32149.62
818.068	32528.62
818.321	32855.62
818.574	33229.62
818.827	33782.62
819.079	34273.62
819.332	34938.62
819.585	35378.62
819.838	35730.62
820.09	35998.62
820.343	36299.62
820.595	36548.62
820.848	36739.62
821.1	36955.62
821.353	37027.62
821.605	37050.62
821.857	36898.62
822.11	37023.62
822.362	36774.62
822.614	36814.62
822.866	36903.62
823.118	36795.62
823.37	36990.62
823.622	37170.62
823.874	37145.62
824.126	37340.62
824.378	37529.62
824.63	37667.62
824.882	37699.62
825.134	37557.62
825.385	37696.62
825.637	37656.62
825.888	37512.62
826.14	37448.62
826.392	37372.62
826.643	37084.62
826.895	36953.62
827.146	36941.62
827.397	36801.62
827.649	36954.62
827.9	37092.62
828.151	37023.62
828.402	37097.62
828.653	37286.62
828.905	37526.62
829.156	37518.62
829.407	37398.62
829.658	37381.62
829.909	37632.62
830.159	37470.62
830.41	37403.62
830.661	37095.62
830.912	36773.62
831.162	36743.62
831.413	36737.62
831.664	36810.62
831.914	36777.62
832.165	36744.62
832.415	36880.62
832.666	36776.62
832.916	36834.62
833.167	36854.62
833.417	36791.62
833.667	36704.62
833.917	36595.62
834.168	36571.62
834.418	36451.62
834.668	36318.62
834.918	36028.62
835.168	35941.62
835.418	35930.62
835.668	35699.62
835.918	35824.62
836.167	35731.62
836.417	35665.62
836.667	35654.62
836.917	35671.62
837.166	35687.62
837.416	35612.62
837.666	35453.62
837.915	35489.62
838.165	35471.62
838.414	35363.62
838.663	35357.62
838.913	35309.62
839.162	35221.62
839.411	35286.62
839.661	35068.62
839.91	35092.62
840.159	34980.62
840.408	34934.62
840.657	35012.62
840.906	34968.62
841.155	35046.62
841.404	35102.62
841.653	35123.62
841.902	35108.62
842.15	35228.62
842.399	35105.62
842.648	35000.62
842.897	34887.62
843.145	34767.62
843.394	34575.62
843.642	34350.62
843.891	34332.62
844.139	34135.62
844.388	33987.62
844.636	33829.62
844.884	33971.62
845.133	33824.62
845.381	33821.62
845.629	33879.62
845.877	33878.62
846.125	33849.62
846.373	33789.62
846.621	33638.62
846.869	33536.62
847.117	33330.62
847.365	33127.62
847.613	33043.62
847.861	32956.62
848.108	32934.62
848.356	32901.62
848.604	32620.62
848.851	32774.62
849.099	32966.62
849.346	32995.62
849.594	33171.62
849.841	33299.62
850.089	33438.62
850.336	33489.62
850.583	33344.62
850.831	33184.62
851.078	33102.62
851.325	33004.62
851.572	33080.62
851.819	32879.62
852.066	32199.62
852.313	31882.62
852.56	31489.62
852.807	31578.62
853.054	31354.62
853.301	31370.62
853.548	31360.62
853.794	31431.62
854.041	31668.62
854.288	31927.62
854.534	32106.62
854.781	32199.62
855.028	31997.62
855.274	31936.62
855.52	31792.62
855.767	31547.62
856.013	31599.62
856.26	31785.62
856.506	31223.62
856.752	31288.62
856.998	31344.62
857.244	31406.62
857.49	31526.62
857.736	31704.62
857.982	31589.62
858.228	31509.62
858.474	31441.62
858.72	31308.62
858.966	30821.62
859.212	30654.62
859.458	30322.62
859.703	30107.62
859.949	29738.62
860.195	29817.62
860.44	29537.62
860.686	29440.62
860.931	29455.62
861.177	29149.62
861.422	29198.62
861.667	29148.62
861.913	29038.62
862.158	29166.62
862.403	29302.62
862.648	29426.62
862.893	29422.62
863.138	29433.62
863.384	29482.62
863.629	29253.62
863.873	29381.62
864.118	29235.62
864.363	29118.62
864.608	29036.62
864.853	29001.62
865.098	28793.62
865.342	28736.62
865.587	28572.62
865.832	28562.62
866.076	28575.62
866.321	28461.62
866.565	28377.62
866.81	28253.62
867.054	28315.62
867.298	28117.62
867.543	27989.62
867.787	28069.62
868.031	27936.62
868.275	27891.62
868.519	27968.62
868.764	27954.62
869.008	27965.62
869.252	27767.62
869.496	27726.62
869.739	27609.62
869.983	27605.62
870.227	27627.62
870.471	27611.62
870.715	27695.62
870.958	27780.62
871.202	27851.62
871.446	27997.62
871.689	27922.62
871.933	27944.62
872.176	27856.62
872.42	27907.62
872.663	27687.62
872.906	27720.62
873.15	27550.62
873.393	27389.62
873.636	27339.62
873.879	27181.62
874.122	26888.62
874.366	26642.62
874.609	26466.62
874.852	26358.62
875.095	26065.62
875.337	26108.62
875.58	25976.62
875.823	25921.62
876.066	25833.62
876.309	25791.62
876.551	25719.62
876.794	25509.62
877.037	25551.62
877.279	25554.62
877.522	25536.62
877.764	25440.62
878.007	25464.62
878.249	25512.62
878.491	25324.62
878.734	25392.62
878.976	25353.62
879.218	25066.62
879.46	24981.62
879.702	24962.62
879.945	24719.62
880.187	24471.62
880.429	24481.62
880.671	24251.62
880.912	24235.62
881.154	24163.62
881.396	24050.62
881.638	24249.62
881.88	24136.62
882.121	24080.62
882.363	24076.62
882.605	24102.62
882.846	23957.62
883.088	23972.62
883.329	23837.62
883.571	23903.62
883.812	23960.62
884.053	24207.62
884.295	24451.62
884.536	24632.62
884.777	24627.62
885.018	24352.62
885.259	24385.62
885.5	24309.62
885.742	24521.62
885.982	24226.62
886.223	24178.62
886.464	23992.62
886.705	23820.62
886.946	23681.62
887.187	23401.62
887.428	23362.62
887.668	22944.62
887.909	22687.62
888.15	22269.62
888.39	22376.62
888.631	22257.62
888.871	22045.62
889.111	21951.62
889.352	21799.62
889.592	21653.62
889.833	21541.62
890.073	21351.62
890.313	21372.62
890.553	21100.62
890.793	20953.62
891.033	20950.62
891.273	20932.62
891.513	20874.62
891.753	20838.62
891.993	20791.62
892.233	20863.62
892.473	20913.62
892.713	20929.62
892.952	20868.62
893.192	20898.62
893.432	20907.62
893.671	20857.62
893.911	20781.62
894.15	20746.62
894.39	20419.62
894.629	20430.62
894.869	20409.62
895.108	20163.62
895.347	20160.62
895.587	20262.62
895.826	20116.62
896.065	20058.62
896.304	20038.62
896.543	20140.62
896.782	19863.62
897.021	19965.62
897.26	19943.62
897.499	19965.62
897.738	19996.62
897.977	19798.62
898.216	19649.62
898.454	19451.62
898.693	19401.62
898.932	19413.62
899.17	19326.62
899.409	19294.62
899.647	19308.62
899.886	19199.62
900.124	19353.62
900.363	19233.62
900.601	19305.62
900.839	19313.62
901.078	19457.62
901.316	19431.62
901.554	19487.62
901.792	19561.62
902.03	19601.62
902.268	19563.62
902.506	19485.62
902.744	19375.62
902.982	19331.62
903.22	18996.62
903.458	18752.62
903.695	18433.62
903.933	18305.62
904.171	18009.62
904.409	17726.62
904.646	17542.62
904.884	17262.62
905.121	17119.62
905.359	16915.62
905.596	16759.62
905.833	16552.62
906.071	16448.62
906.308	16514.62
906.545	16483.62
906.783	16385.62
907.02	16278.62
907.257	16237.62
907.494	16149.62
907.731	16138.62
907.968	16024.62
908.205	15888.62
908.442	15876.62
908.679	15800.62
908.915	15638.62
909.152	15569.62
909.389	15371.62
909.626	15286.62
909.862	15214.62
910.099	15266.62
910.335	15160.62
910.572	15040.62
910.808	14999.62
911.045	14986.62
911.281	14886.62
911.518	14818.62
911.754	14790.62
911.99	14746.62
912.226	14576.62
912.463	14486.62
912.699	14337.62
912.935	14274.62
913.171	14186.62
913.407	13980.62
913.643	13985.62
913.879	13907.62
914.114	13717.62
914.35	13597.62
914.586	13462.62
914.822	13436.62
915.057	13396.62
915.293	13203.62
915.529	13118.62
915.764	13154.62
916	13087.62
916.235	13155.62
916.471	13123.62
916.706	12990.62
916.941	12922.62
917.177	12989.62
917.412	12926.62
917.647	13010.62
917.882	12959.62
918.117	12965.62
918.352	12956.62
918.588	12871.62
918.823	12686.62
919.057	12627.62
919.292	12437.62
919.527	12494.62
919.762	12252.62
919.997	12192.62
920.232	12034.62
920.466	11965.62
920.701	11733.62
920.935	11857.62
921.17	11732.62
921.405	11615.62
921.639	11612.62
921.873	11558.62
922.108	11574.62
922.342	11562.62
922.576	11389.62
922.811	11431.62
923.045	11423.62
923.279	11307.62
923.513	11274.62
923.747	11243.62
923.981	11172.62
924.215	11058.62
924.449	10955.62
924.683	10854.62
924.917	10903.62
925.151	10818.62
925.385	10869.62
925.618	10803.62
925.852	10757.62
926.086	10673.62
926.319	10671.62
926.553	10672.62
926.786	10769.62
927.02	10658.62
927.253	10712.62
927.486	10719.62
927.72	10541.62
927.953	10691.62
928.186	10569.62
928.42	10571.62
928.653	10576.62
928.886	10469.62
929.119	10438.62
929.352	10426.62
929.585	10278.62
929.818	10247.62
930.051	10119.62
930.284	10053.62
930.516	9861.62
930.749	9954.62
930.982	9942.62
931.215	9880.62
931.447	9712.62
931.68	9834.62
931.912	9721.62
932.145	9673.62
932.377	9711.62
932.61	9822.62
932.842	9597.62
933.074	9728.62
933.307	9647.62
933.539	9754.62
933.771	9694.62
934.003	9576.62
934.236	9691.62
934.468	9780.62
934.7	9618.62
934.932	9616.62
935.164	9609.62
935.395	9506.62
935.627	9638.62
935.859	9548.62
936.091	9450.62
936.323	9458.62
936.554	9440.62
936.786	9414.62
937.017	9338.62
937.249	9433.62
937.481	9238.62
937.712	9311.62
937.943	9184.62
938.175	9280.62
938.406	9207.62
938.637	9321.62
938.869	9158.62
939.1	9146.62
939.331	9034.62
939.562	9116.62
939.793	9093.62
940.024	9006.62
940.255	9024.62
940.486	8909.62
940.717	8924.62
940.948	8889.62
941.179	8836.62
941.409	8856.62
941.64	8837.62
941.871	8870.62
942.102	8826.62
942.332	8757.62
942.563	8813.62
942.793	8790.62
943.024	8736.62
943.254	8723.62
943.484	8806.62
943.715	8771.62
943.945	8778.62
944.175	8692.62
944.405	8671.62
944.636	8636.62
944.866	8690.62
945.096	8648.62
945.326	8545.62
945.556	8660.62
945.786	8642.62
946.016	8493.62
946.245	8411.62
946.475	8326.62
946.705	8284.62
946.935	8305.62
947.164	8281.62
947.394	8199.62
947.624	8164.62
947.853	8194.62
948.083	8167.62
948.312	8029.62
948.542	8015.62
948.771	7977.62
949	7963.62
949.23	7946.62
949.459	7983.62
949.688	8000.62
949.917	7909.62
950.146	7910.62
950.375	8021.62
950.604	7891.62
950.833	7941.62
951.062	7955.62
951.291	7843.62
951.52	7839.62
951.749	7879.62
951.978	7780.62
952.206	7708.62
952.435	7722.62
952.664	7712.62
952.892	7733.62
953.121	7640.62
953.349	7628.62
953.578	7626.62
953.806	7479.62
954.035	7436.62
954.263	7504.62
954.491	7381.62
954.719	7442.62
954.948	7344.62
955.176	7331.62
955.404	7296.62
955.632	7270.62
955.86	7253.62
956.088	7226.62
956.316	7224.62
956.544	7158.62
956.772	7083.62
956.999	7084.62
957.227	7101.62
957.455	6980.62
957.683	6969.62
957.91	6876.62
958.138	6838.62
958.365	6768.62
958.593	6807.62
958.82	6701.62
959.048	6789.62
959.275	6801.62
959.502	6668.62
959.73	6702.62
959.957	6777.62
960.184	6743.62
960.411	6640.62
960.638	6663.62
960.865	6685.62
961.092	6683.62
961.319	6506.62
961.546	6698.62
961.773	6678.62
962	6580.62
962.227	6601.62
962.454	6518.62
962.68	6511.62
962.907	6538.62
963.134	6432.62
963.36	6422.62
963.587	6449.62
963.813	6280.62
964.04	6267.62
964.266	6263.62
964.493	6312.62
964.719	6231.62
964.945	6197.62
965.171	6077.62
965.398	6151.62
965.624	6085.62
965.85	6033.62
966.076	6010.62
966.302	6029.62
966.528	5945.62
966.754	5948.62
966.98	5993.62
967.206	5915.62
967.431	5822.62
967.657	5972.62
967.883	5945.62
968.109	5844.62
968.334	5755.62
968.56	5844.62
968.785	5783.62
969.011	5740.62
969.236	5787.62
969.462	5768.62
969.687	5755.62
969.912	5714.62
970.138	5697.62
970.363	5607.62
970.588	5657.62
970.813	5574.62
971.038	5559.62
971.263	5565.62
971.488	5511.62
971.713	5527.62
971.938	5509.62
972.163	5403.62
972.388	5456.62
972.613	5428.62
972.838	5420.62
973.062	5355.62
973.287	5376.62
973.512	5266.62
973.736	5286.62
973.961	5215.62
974.185	5241.62
974.41	5263.62
974.634	5106.62
974.858	5092.62
975.083	5130.62
975.307	5132.62
975.531	5000.62
975.755	4937.62
975.98	4989.62
976.204	4875.62
976.428	4908.62
976.652	4873.62
976.876	4886.62
977.1	4858.62
977.324	4784.62
977.547	4852.62
977.771	4822.62
977.995	4800.62
978.219	4766.62
978.442	4785.62
978.666	4740.62
978.89	4742.62
979.113	4725.62
979.337	4688.62
979.56	4643.62
979.783	4749.62
980.007	4606.62
980.23	4635.62
980.453	4590.62
980.677	4616.62
980.9	4581.62
981.123	4475.62
981.346	4564.62
981.569	4529.62
981.792	4539.62
982.015	4424.62
982.238	4407.62
982.461	4412.62
982.684	4358.62
982.907	4296.62
983.129	4289.62
983.352	4268.62
983.575	4277.62
983.797	4272.62
984.02	4178.62
984.242	4208.62
984.465	4184.62
984.687	4188.62
984.91	4179.62
985.132	4147.62
985.354	4152.62
985.577	4132.62
985.799	4055.62
986.021	4009.62
986.243	4047.62
986.465	3990.62
986.687	4043.62
986.909	4078.62
987.131	4009.62
987.353	3914.62
987.575	3993.62
987.797	3946.62
988.019	3807.62
988.241	3877.62
988.462	3860.62
988.684	3888.62
988.906	3923.62
989.127	3945.62
989.349	3838.62
989.57	3867.62
989.792	3879.62
990.013	3904.62
990.234	3814.62
990.456	3876.62
990.677	3861.62
990.898	3706.62
991.119	3746.62
991.341	3749.62
991.562	3665.62
991.783	3715.62
992.004	3653.62
992.225	3585.62
992.446	3647.62
992.667	3523.62
992.887	3586.62
993.108	3456.62
993.329	3593.62
993.55	3533.62
993.77	3431.62
993.991	3450.62
994.212	3441.62
994.432	3442.62
994.653	3455.62
994.873	3408.62
995.093	3305.62
995.314	3353.62
995.534	3385.62
995.754	3374.62
995.975	3407.62
996.195	3258.62
996.415	3289.62
996.635	3262.62
996.855	3308.62
997.075	3268.62
997.295	3261.62
997.515	3196.62
997.735	3272.62
997.955	3235.62
998.174	3223.62
998.394	3205.62
998.614	3266.62
998.834	3218.62
999.053	3216.62
999.273	3141.62
999.492	3170.62
999.712	3131.62
999.931	3120.62
1000.151	3158.62
1000.37	3083.62
1000.589	3136.62
1000.809	3048.62
1001.028	3175.62
1001.247	3066.62
1001.466	2913.62
1001.685	3070.62
1001.904	3021.62
1002.123	2992.62
1002.342	2949.62
1002.561	2915.62
1002.78	2942.62
1002.999	2966.62
1003.218	2917.62
1003.436	2874.62
1003.655	2935.62
1003.874	2839.62
1004.092	2835.62
1004.311	2913.62
1004.53	2791.62
1004.748	2936.62
1004.966	2819.62
1005.185	2829.62
1005.403	2833.62
1005.622	2793.62
1005.84	2895.62
1006.058	2768.62
1006.276	2803.62
1006.494	3269.62
1006.712	2787.62
1006.931	2845.62
1007.149	2742.62
1007.367	2740.62
1007.584	2798.62
1007.802	2853.62
1008.02	2767.62
1008.238	2880.62
1008.456	2874.62
1008.673	2776.62
1008.891	2845.62
1009.109	2841.62
1009.326	2905.62
1009.544	2970.62
1009.761	2925.62
1009.979	3011.62
1010.196	3060.62
1010.413	3227.62
1010.631	3278.62
1010.848	3346.62
1011.065	3356.62
1011.282	3299.62
1011.5	3234.62
1011.717	3385.62
1011.934	3296.62
1012.151	3270.62
1012.368	3296.62
1012.585	3234.62
1012.801	3316.62
1013.018	3285.62
1013.235	3238.62
1013.452	3262.62
1013.669	3252.62
1013.885	3258.62
1014.102	3323.62
1014.318	3288.62
1014.535	3232.62
1014.751	3238.62
1014.968	3241.62
1015.184	3250.62
1015.401	3126.62
1015.617	3149.62
1015.833	3103.62
1016.049	3140.62
1016.266	3074.62
1016.482	3075.62
1016.698	2986.62
1016.914	3033.62
1017.13	2952.62
1017.346	2899.62
1017.562	2998.62
1017.778	2948.62
1017.993	2914.62
1018.209	2960.62
1018.425	2944.62
1018.641	2919.62
1018.856	2875.62
1019.072	2893.62
1019.288	2926.62
1019.503	2908.62
1019.719	2813.62
1019.934	2849.62
1020.149	2895.62
1020.365	2814.62
1020.58	2738.62
1020.795	2768.62
1021.011	2667.62
1021.226	2639.62
1021.441	2664.62
1021.656	2533.62
1021.871	2462.62
1022.086	2433.62
1022.301	2387.62
1022.516	2361.62
1022.731	2367.62
1022.946	2286.62
1023.16	2244.62
1023.375	2185.62
1023.59	2175.62
1023.804	2112.62
1024.019	2217.62
1024.234	2040.62
1024.448	2076.62
1024.663	1996.62
1024.877	1943.62
1025.092	1999.62
1025.306	1942.62
1025.52	1808.62
1025.734	1878.62
1025.949	1775.62
1026.163	1726.62
1026.377	1669.62
1026.591	1679.62
1026.805	1610.62
1027.019	1564.62
1027.233	1529.62
1027.447	1472.62
1027.661	1538.62
1027.875	1502.62
1028.088	1454.62
1028.302	1417.62
1028.516	1374.62
1028.73	1319.62
1028.943	1314.62
1029.157	1229.62
1029.37	1152.62
1029.584	-3.38
1029.797	-0.38
1030.011	-1.38
1030.224	-2.38
