Data from QEP037381__104__15-26-35-867.txt Node

Date: Fri Dec 16 15:26:35 EST 2022
User: dcclab
Spectrometer: QEP03738
Trigger mode: 4
Integration Time (sec): 1.000000E1
Scans to average: 1
Electric dark correction enabled: true
Nonlinearity correction enabled: false
Boxcar width: 0
XAxis mode: Wavelengths
Number of Pixels in Spectrum: 1044
>>>>>Begin Spectral Data<<<<<
784.041	12.5
784.3	-0.5
784.558	-0.5
784.817	-3.5
785.075	91322.5
785.334	16145.5
785.592	7618.5
785.851	5221.5
786.109	3980.5
786.368	3084.5
786.626	2481.5
786.884	2087.5
787.143	1776.5
787.401	1442.5
787.659	1343.5
787.917	1123.5
788.175	1051.5
788.433	905.5
788.691	840.5
788.949	770.5
789.207	734.5
789.465	643.5
789.723	634.5
789.98	561.5
790.238	616.5
790.496	565.5
790.753	551.5
791.011	592.5
791.268	547.5
791.526	517.5
791.783	542.5
792.041	534.5
792.298	447.5
792.556	516.5
792.813	477.5
793.07	465.5
793.327	457.5
793.584	520.5
793.841	447.5
794.099	467.5
794.356	531.5
794.613	441.5
794.869	471.5
795.126	436.5
795.383	437.5
795.64	442.5
795.897	404.5
796.153	460.5
796.41	437.5
796.667	419.5
796.923	438.5
797.18	442.5
797.436	462.5
797.693	439.5
797.949	483.5
798.206	506.5
798.462	430.5
798.718	484.5
798.974	460.5
799.231	507.5
799.487	497.5
799.743	513.5
799.999	539.5
800.255	531.5
800.511	508.5
800.767	563.5
801.023	556.5
801.279	571.5
801.534	645.5
801.79	685.5
802.046	724.5
802.302	894.5
802.557	1007.5
802.813	1247.5
803.068	1573.5
803.324	2139.5
803.579	2941.5
803.835	4107.5
804.09	5698.5
804.345	7456.5
804.601	9606.5
804.856	11589.5
805.111	13409.5
805.366	14869.5
805.621	15884.5
805.876	16593.5
806.131	17004.5
806.386	17356.5
806.641	17621.5
806.896	18009.5
807.151	18352.5
807.406	18775.5
807.661	19045.5
807.915	19402.5
808.17	19621.5
808.425	19937.5
808.679	20226.5
808.934	20482.5
809.188	20567.5
809.443	20844.5
809.697	21199.5
809.951	21342.5
810.206	21590.5
810.46	21701.5
810.714	21926.5
810.968	22243.5
811.223	22476.5
811.477	22568.5
811.731	22906.5
811.985	22997.5
812.239	23113.5
812.493	23250.5
812.747	23258.5
813	23419.5
813.254	23579.5
813.508	23702.5
813.762	23843.5
814.015	23971.5
814.269	24156.5
814.522	24330.5
814.776	24716.5
815.03	25073.5
815.283	25374.5
815.536	25868.5
815.79	26202.5
816.043	26660.5
816.296	27109.5
816.55	27255.5
816.803	27570.5
817.056	28114.5
817.309	28311.5
817.562	28636.5
817.815	28820.5
818.068	29207.5
818.321	29573.5
818.574	29983.5
818.827	30471.5
819.079	30776.5
819.332	31383.5
819.585	31743.5
819.838	32083.5
820.09	32286.5
820.343	32676.5
820.595	32914.5
820.848	33182.5
821.1	33043.5
821.353	33280.5
821.605	33217.5
821.857	33156.5
822.11	33091.5
822.362	33120.5
822.614	32976.5
822.866	33150.5
823.118	33075.5
823.37	33317.5
823.622	33332.5
823.874	33514.5
824.126	33685.5
824.378	33615.5
824.63	33711.5
824.882	33904.5
825.134	33831.5
825.385	33810.5
825.637	33683.5
825.888	33729.5
826.14	33594.5
826.392	33586.5
826.643	33417.5
826.895	33303.5
827.146	33223.5
827.397	33150.5
827.649	33093.5
827.9	33256.5
828.151	33327.5
828.402	33404.5
828.653	33547.5
828.905	33620.5
829.156	33661.5
829.407	33497.5
829.658	33674.5
829.909	33731.5
830.159	33734.5
830.41	33521.5
830.661	33270.5
830.912	33146.5
831.162	33187.5
831.413	33086.5
831.664	33012.5
831.914	33001.5
832.165	32963.5
832.415	33128.5
832.666	33048.5
832.916	33100.5
833.167	33034.5
833.417	33081.5
833.667	33127.5
833.917	32936.5
834.168	32857.5
834.418	32693.5
834.668	32642.5
834.918	32444.5
835.168	32497.5
835.418	32232.5
835.668	32200.5
835.918	32180.5
836.167	32149.5
836.417	31908.5
836.667	31972.5
836.917	31921.5
837.166	32005.5
837.416	32016.5
837.666	31962.5
837.915	31900.5
838.165	31877.5
838.414	31795.5
838.663	31804.5
838.913	31841.5
839.162	31793.5
839.411	31742.5
839.661	31587.5
839.91	31536.5
840.159	31482.5
840.408	31419.5
840.657	31543.5
840.906	31521.5
841.155	31541.5
841.404	31592.5
841.653	31635.5
841.902	31595.5
842.15	31681.5
842.399	31679.5
842.648	31567.5
842.897	31532.5
843.145	31321.5
843.394	31215.5
843.642	30968.5
843.891	30871.5
844.139	30794.5
844.388	30628.5
844.636	30353.5
844.884	30524.5
845.133	30515.5
845.381	30442.5
845.629	30443.5
845.877	30435.5
846.125	30335.5
846.373	30378.5
846.621	30220.5
846.869	30089.5
847.117	30113.5
847.365	29799.5
847.613	29679.5
847.861	29728.5
848.108	29775.5
848.356	29643.5
848.604	29501.5
848.851	29595.5
849.099	29622.5
849.346	29720.5
849.594	29802.5
849.841	29977.5
850.089	30087.5
850.336	30180.5
850.583	30026.5
850.831	30060.5
851.078	29710.5
851.325	29881.5
851.572	29760.5
851.819	29527.5
852.066	29056.5
852.313	28720.5
852.56	28505.5
852.807	28499.5
853.054	28247.5
853.301	28301.5
853.548	28330.5
853.794	28568.5
854.041	28740.5
854.288	28589.5
854.534	29090.5
854.781	29052.5
855.028	28876.5
855.274	28808.5
855.52	28783.5
855.767	28584.5
856.013	28516.5
856.26	28730.5
856.506	28367.5
856.752	28333.5
856.998	28350.5
857.244	28440.5
857.49	28630.5
857.736	28659.5
857.982	28733.5
858.228	28602.5
858.474	28350.5
858.72	28114.5
858.966	27933.5
859.212	27561.5
859.458	27527.5
859.703	27250.5
859.949	26988.5
860.195	26889.5
860.44	26732.5
860.686	26750.5
860.931	26673.5
861.177	26504.5
861.422	26442.5
861.667	26257.5
861.913	26389.5
862.158	26477.5
862.403	26535.5
862.648	26632.5
862.893	26524.5
863.138	26575.5
863.384	26454.5
863.629	26485.5
863.873	26456.5
864.118	26492.5
864.363	26331.5
864.608	26457.5
864.853	26178.5
865.098	25983.5
865.342	25979.5
865.587	25928.5
865.832	25913.5
866.076	25850.5
866.321	25740.5
866.565	25757.5
866.81	25439.5
867.054	25541.5
867.298	25462.5
867.543	25394.5
867.787	25517.5
868.031	25474.5
868.275	25368.5
868.519	25257.5
868.764	25362.5
869.008	25217.5
869.252	25241.5
869.496	25186.5
869.739	25233.5
869.983	25143.5
870.227	25125.5
870.471	25097.5
870.715	25267.5
870.958	25329.5
871.202	25354.5
871.446	25426.5
871.689	25375.5
871.933	25384.5
872.176	25503.5
872.42	25341.5
872.663	25200.5
872.906	25238.5
873.15	25111.5
873.393	24948.5
873.636	24920.5
873.879	24772.5
874.122	24559.5
874.366	24297.5
874.609	24015.5
874.852	23960.5
875.095	23921.5
875.337	23788.5
875.58	23612.5
875.823	23582.5
876.066	23584.5
876.309	23521.5
876.551	23365.5
876.794	23188.5
877.037	23277.5
877.279	23178.5
877.522	23258.5
877.764	23250.5
878.007	23050.5
878.249	23214.5
878.491	23064.5
878.734	23239.5
878.976	23051.5
879.218	22873.5
879.46	22920.5
879.702	22638.5
879.945	22487.5
880.187	22308.5
880.429	22128.5
880.671	22157.5
880.912	22149.5
881.154	21976.5
881.396	21859.5
881.638	22024.5
881.88	21950.5
882.121	21988.5
882.363	21969.5
882.605	21930.5
882.846	21836.5
883.088	21868.5
883.329	21846.5
883.571	21747.5
883.812	21917.5
884.053	22343.5
884.295	22397.5
884.536	22821.5
884.777	22601.5
885.018	22509.5
885.259	22468.5
885.5	22382.5
885.742	22620.5
885.982	22373.5
886.223	22216.5
886.464	21997.5
886.705	21812.5
886.946	21677.5
887.187	21340.5
887.428	21141.5
887.668	20938.5
887.909	20559.5
888.15	20505.5
888.39	20343.5
888.631	20284.5
888.871	20076.5
889.111	19982.5
889.352	19838.5
889.592	19730.5
889.833	19658.5
890.073	19456.5
890.313	19448.5
890.553	19206.5
890.793	19135.5
891.033	19179.5
891.273	19064.5
891.513	19045.5
891.753	19019.5
891.993	18987.5
892.233	19068.5
892.473	19152.5
892.713	19067.5
892.952	18965.5
893.192	19024.5
893.432	19039.5
893.671	19002.5
893.911	19073.5
894.15	18950.5
894.39	18840.5
894.629	18723.5
894.869	18665.5
895.108	18570.5
895.347	18481.5
895.587	18459.5
895.826	18380.5
896.065	18465.5
896.304	18465.5
896.543	18358.5
896.782	18219.5
897.021	18322.5
897.26	18282.5
897.499	18340.5
897.738	18251.5
897.977	18111.5
898.216	18024.5
898.454	17872.5
898.693	17725.5
898.932	17783.5
899.17	17628.5
899.409	17727.5
899.647	17642.5
899.886	17748.5
900.124	17765.5
900.363	17675.5
900.601	17787.5
900.839	17712.5
901.078	17871.5
901.316	17856.5
901.554	17907.5
901.792	18137.5
902.03	18053.5
902.268	17994.5
902.506	18041.5
902.744	17905.5
902.982	17701.5
903.22	17466.5
903.458	17236.5
903.695	17037.5
903.933	16699.5
904.171	16457.5
904.409	16277.5
904.646	16120.5
904.884	15827.5
905.121	15644.5
905.359	15453.5
905.596	15345.5
905.833	15264.5
906.071	15169.5
906.308	15095.5
906.545	15057.5
906.783	15021.5
907.02	14916.5
907.257	14852.5
907.494	14882.5
907.731	14844.5
907.968	14723.5
908.205	14744.5
908.442	14634.5
908.679	14513.5
908.915	14401.5
909.152	14273.5
909.389	14179.5
909.626	14025.5
909.862	13980.5
910.099	13903.5
910.335	13880.5
910.572	13756.5
910.808	13781.5
911.045	13772.5
911.281	13638.5
911.518	13627.5
911.754	13465.5
911.99	13496.5
912.226	13441.5
912.463	13256.5
912.699	13207.5
912.935	13111.5
913.171	13085.5
913.407	12922.5
913.643	12795.5
913.879	12744.5
914.114	12572.5
914.35	12450.5
914.586	12426.5
914.822	12193.5
915.057	12327.5
915.293	12105.5
915.529	12014.5
915.764	12108.5
916	12068.5
916.235	12035.5
916.471	12039.5
916.706	11884.5
916.941	11949.5
917.177	11977.5
917.412	11929.5
917.647	11949.5
917.882	11861.5
918.117	11930.5
918.352	11779.5
918.588	11912.5
918.823	11642.5
919.057	11629.5
919.292	11465.5
919.527	11437.5
919.762	11207.5
919.997	11198.5
920.232	11097.5
920.466	11014.5
920.701	10853.5
920.935	10892.5
921.17	10736.5
921.405	10728.5
921.639	10728.5
921.873	10607.5
922.108	10646.5
922.342	10643.5
922.576	10520.5
922.811	10542.5
923.045	10497.5
923.279	10437.5
923.513	10370.5
923.747	10371.5
923.981	10294.5
924.215	10270.5
924.449	10088.5
924.683	10026.5
924.917	10069.5
925.151	10028.5
925.385	10011.5
925.618	9999.5
925.852	9963.5
926.086	9847.5
926.319	9884.5
926.553	9961.5
926.786	9883.5
927.02	9892.5
927.253	9877.5
927.486	9909.5
927.72	9810.5
927.953	9867.5
928.186	9848.5
928.42	9786.5
928.653	9636.5
928.886	9558.5
929.119	9600.5
929.352	9592.5
929.585	9565.5
929.818	9431.5
930.051	9430.5
930.284	9354.5
930.516	9206.5
930.749	9078.5
930.982	9158.5
931.215	9120.5
931.447	9042.5
931.68	8982.5
931.912	9006.5
932.145	8948.5
932.377	9011.5
932.61	9128.5
932.842	8978.5
933.074	9025.5
933.307	8933.5
933.539	9012.5
933.771	9049.5
934.003	8983.5
934.236	9087.5
934.468	9061.5
934.7	8959.5
934.932	8990.5
935.164	8791.5
935.395	8838.5
935.627	8865.5
935.859	8829.5
936.091	8732.5
936.323	8746.5
936.554	8729.5
936.786	8719.5
937.017	8645.5
937.249	8658.5
937.481	8590.5
937.712	8632.5
937.943	8631.5
938.175	8513.5
938.406	8551.5
938.637	8582.5
938.869	8485.5
939.1	8520.5
939.331	8435.5
939.562	8463.5
939.793	8440.5
940.024	8397.5
940.255	8385.5
940.486	8299.5
940.717	8264.5
940.948	8241.5
941.179	8204.5
941.409	8186.5
941.64	8166.5
941.871	8170.5
942.102	8146.5
942.332	8203.5
942.563	8198.5
942.793	8124.5
943.024	8131.5
943.254	8134.5
943.484	8151.5
943.715	8201.5
943.945	8131.5
944.175	8032.5
944.405	8045.5
944.636	8025.5
944.866	8096.5
945.096	8051.5
945.326	7974.5
945.556	8071.5
945.786	8026.5
946.016	7934.5
946.245	7829.5
946.475	7795.5
946.705	7717.5
946.935	7717.5
947.164	7772.5
947.394	7648.5
947.624	7629.5
947.853	7622.5
948.083	7575.5
948.312	7534.5
948.542	7492.5
948.771	7498.5
949	7440.5
949.23	7414.5
949.459	7393.5
949.688	7422.5
949.917	7403.5
950.146	7323.5
950.375	7442.5
950.604	7319.5
950.833	7319.5
951.062	7379.5
951.291	7313.5
951.52	7302.5
951.749	7203.5
951.978	7238.5
952.206	7226.5
952.435	7186.5
952.664	7179.5
952.892	7194.5
953.121	7153.5
953.349	7106.5
953.578	7124.5
953.806	7020.5
954.035	6966.5
954.263	6979.5
954.491	6903.5
954.719	6922.5
954.948	6905.5
955.176	6830.5
955.404	6718.5
955.632	6793.5
955.86	6787.5
956.088	6720.5
956.316	6723.5
956.544	6688.5
956.772	6622.5
956.999	6585.5
957.227	6641.5
957.455	6526.5
957.683	6566.5
957.91	6436.5
958.138	6433.5
958.365	6360.5
958.593	6396.5
958.82	6305.5
959.048	6416.5
959.275	6338.5
959.502	6322.5
959.73	6261.5
959.957	6257.5
960.184	6270.5
960.411	6163.5
960.638	6299.5
960.865	6213.5
961.092	6205.5
961.319	6121.5
961.546	6216.5
961.773	6203.5
962	6132.5
962.227	6217.5
962.454	6152.5
962.68	6128.5
962.907	6116.5
963.134	6046.5
963.36	5991.5
963.587	5992.5
963.813	5878.5
964.04	5937.5
964.266	5849.5
964.493	5882.5
964.719	5893.5
964.945	5857.5
965.171	5683.5
965.398	5722.5
965.624	5786.5
965.85	5627.5
966.076	5598.5
966.302	5640.5
966.528	5628.5
966.754	5565.5
966.98	5572.5
967.206	5476.5
967.431	5493.5
967.657	5581.5
967.883	5481.5
968.109	5504.5
968.334	5445.5
968.56	5388.5
968.785	5448.5
969.011	5357.5
969.236	5413.5
969.462	5263.5
969.687	5353.5
969.912	5355.5
970.138	5419.5
970.363	5228.5
970.588	5278.5
970.813	5259.5
971.038	5252.5
971.263	5191.5
971.488	5216.5
971.713	5230.5
971.938	5229.5
972.163	5101.5
972.388	5158.5
972.613	5091.5
972.838	5074.5
973.062	4995.5
973.287	5027.5
973.512	4955.5
973.736	5018.5
973.961	4896.5
974.185	4883.5
974.41	4907.5
974.634	4784.5
974.858	4811.5
975.083	4820.5
975.307	4821.5
975.531	4758.5
975.755	4648.5
975.98	4623.5
976.204	4588.5
976.428	4588.5
976.652	4605.5
976.876	4556.5
977.1	4612.5
977.324	4534.5
977.547	4537.5
977.771	4583.5
977.995	4535.5
978.219	4445.5
978.442	4525.5
978.666	4454.5
978.89	4463.5
979.113	4438.5
979.337	4442.5
979.56	4392.5
979.783	4506.5
980.007	4334.5
980.23	4329.5
980.453	4320.5
980.677	4325.5
980.9	4292.5
981.123	4255.5
981.346	4312.5
981.569	4249.5
981.792	4249.5
982.015	4197.5
982.238	4143.5
982.461	4140.5
982.684	4110.5
982.907	4001.5
983.129	4094.5
983.352	4090.5
983.575	4004.5
983.797	3996.5
984.02	3980.5
984.242	3972.5
984.465	3913.5
984.687	3977.5
984.91	3952.5
985.132	3893.5
985.354	3905.5
985.577	3890.5
985.799	3846.5
986.021	3784.5
986.243	3819.5
986.465	3798.5
986.687	3847.5
986.909	3823.5
987.131	3804.5
987.353	3760.5
987.575	3769.5
987.797	3706.5
988.019	3650.5
988.241	3687.5
988.462	3651.5
988.684	3685.5
988.906	3713.5
989.127	3735.5
989.349	3649.5
989.57	3667.5
989.792	3658.5
990.013	3663.5
990.234	3672.5
990.456	3645.5
990.677	3640.5
990.898	3577.5
991.119	3562.5
991.341	3566.5
991.562	3480.5
991.783	3515.5
992.004	3433.5
992.225	3397.5
992.446	3425.5
992.667	3336.5
992.887	3368.5
993.108	3312.5
993.329	3396.5
993.55	3335.5
993.77	3303.5
993.991	3288.5
994.212	3293.5
994.432	3302.5
994.653	3276.5
994.873	3254.5
995.093	3141.5
995.314	3169.5
995.534	3245.5
995.754	3234.5
995.975	3220.5
996.195	3110.5
996.415	3118.5
996.635	3151.5
996.855	3148.5
997.075	3171.5
997.295	3135.5
997.515	3136.5
997.735	3129.5
997.955	3076.5
998.174	3104.5
998.394	3062.5
998.614	3077.5
998.834	3039.5
999.053	3079.5
999.273	3035.5
999.492	3143.5
999.712	3032.5
999.931	2985.5
1000.151	2994.5
1000.37	2945.5
1000.589	3008.5
1000.809	2930.5
1001.028	3018.5
1001.247	2945.5
1001.466	2810.5
1001.685	2915.5
1001.904	2904.5
1002.123	2835.5
1002.342	2870.5
1002.561	2800.5
1002.78	2812.5
1002.999	2875.5
1003.218	2783.5
1003.436	2785.5
1003.655	2795.5
1003.874	2724.5
1004.092	2734.5
1004.311	2802.5
1004.53	2714.5
1004.748	2825.5
1004.966	2669.5
1005.185	2792.5
1005.403	2727.5
1005.622	2691.5
1005.84	2777.5
1006.058	2658.5
1006.276	2693.5
1006.494	3190.5
1006.712	2671.5
1006.931	2743.5
1007.149	2659.5
1007.367	2656.5
1007.584	2686.5
1007.802	2726.5
1008.02	2708.5
1008.238	2805.5
1008.456	2783.5
1008.673	2631.5
1008.891	2798.5
1009.109	2765.5
1009.326	2835.5
1009.544	2906.5
1009.761	2828.5
1009.979	2974.5
1010.196	3014.5
1010.413	3173.5
1010.631	3245.5
1010.848	3304.5
1011.065	3349.5
1011.282	3326.5
1011.5	3242.5
1011.717	3331.5
1011.934	3250.5
1012.151	3330.5
1012.368	3254.5
1012.585	3232.5
1012.801	3279.5
1013.018	3294.5
1013.235	3228.5
1013.452	3273.5
1013.669	3295.5
1013.885	3265.5
1014.102	3288.5
1014.318	3229.5
1014.535	3257.5
1014.751	3277.5
1014.968	3237.5
1015.184	3218.5
1015.401	3130.5
1015.617	3153.5
1015.833	3106.5
1016.049	3119.5
1016.266	3046.5
1016.482	3026.5
1016.698	2982.5
1016.914	2976.5
1017.13	2948.5
1017.346	2901.5
1017.562	2987.5
1017.778	2897.5
1017.993	2878.5
1018.209	2933.5
1018.425	2894.5
1018.641	2877.5
1018.856	2869.5
1019.072	2861.5
1019.288	2941.5
1019.503	2830.5
1019.719	2763.5
1019.934	2815.5
1020.149	2856.5
1020.365	2805.5
1020.58	2675.5
1020.795	2740.5
1021.011	2615.5
1021.226	2589.5
1021.441	2594.5
1021.656	2486.5
1021.871	2377.5
1022.086	2356.5
1022.301	2324.5
1022.516	2333.5
1022.731	2343.5
1022.946	2230.5
1023.16	2177.5
1023.375	2168.5
1023.59	2109.5
1023.804	2062.5
1024.019	2140.5
1024.234	1978.5
1024.448	2002.5
1024.663	1898.5
1024.877	1888.5
1025.092	1901.5
1025.306	1850.5
1025.52	1774.5
1025.734	1825.5
1025.949	1724.5
1026.163	1713.5
1026.377	1593.5
1026.591	1644.5
1026.805	1568.5
1027.019	1529.5
1027.233	1517.5
1027.447	1433.5
1027.661	1503.5
1027.875	1433.5
1028.088	1433.5
1028.302	1366.5
1028.516	1308.5
1028.73	1282.5
1028.943	1250.5
1029.157	1204.5
1029.37	1112.5
1029.584	-1.5
1029.797	-5.5
1030.011	-0.5
1030.224	-0.5
