Data from QEP037381__81__15-22-45-864.txt Node

Date: Fri Dec 16 15:22:45 EST 2022
User: dcclab
Spectrometer: QEP03738
Trigger mode: 4
Integration Time (sec): 1.000000E1
Scans to average: 1
Electric dark correction enabled: true
Nonlinearity correction enabled: false
Boxcar width: 0
XAxis mode: Wavelengths
Number of Pixels in Spectrum: 1044
>>>>>Begin Spectral Data<<<<<
784.041	15.25
784.3	-1.75
784.558	-1.75
784.817	-2.75
785.075	89856.25
785.334	15616.25
785.592	7311.25
785.851	5056.25
786.109	3808.25
786.368	2996.25
786.626	2404.25
786.884	2008.25
787.143	1711.25
787.401	1411.25
787.659	1279.25
787.917	1080.25
788.175	1025.25
788.433	896.25
788.691	798.25
788.949	744.25
789.207	707.25
789.465	616.25
789.723	611.25
789.98	564.25
790.238	588.25
790.496	569.25
790.753	545.25
791.011	593.25
791.268	518.25
791.526	510.25
791.783	523.25
792.041	490.25
792.298	440.25
792.556	504.25
792.813	476.25
793.07	439.25
793.327	448.25
793.584	520.25
793.841	439.25
794.099	472.25
794.356	530.25
794.613	429.25
794.869	474.25
795.126	436.25
795.383	408.25
795.64	435.25
795.897	383.25
796.153	449.25
796.41	429.25
796.667	412.25
796.923	435.25
797.18	434.25
797.436	470.25
797.693	419.25
797.949	468.25
798.206	510.25
798.462	412.25
798.718	477.25
798.974	447.25
799.231	485.25
799.487	481.25
799.743	491.25
799.999	510.25
800.255	518.25
800.511	515.25
800.767	562.25
801.023	549.25
801.279	592.25
801.534	609.25
801.79	675.25
802.046	713.25
802.302	854.25
802.557	971.25
802.813	1241.25
803.068	1518.25
803.324	2079.25
803.579	2881.25
803.835	3991.25
804.09	5411.25
804.345	7188.25
804.601	9159.25
804.856	11026.25
805.111	12745.25
805.366	14056.25
805.621	15105.25
805.876	15660.25
806.131	16126.25
806.386	16402.25
806.641	16716.25
806.896	16936.25
807.151	17323.25
807.406	17581.25
807.661	18036.25
807.915	18271.25
808.17	18633.25
808.425	18732.25
808.679	19085.25
808.934	19154.25
809.188	19457.25
809.443	19679.25
809.697	19916.25
809.951	20014.25
810.206	20221.25
810.46	20545.25
810.714	20759.25
810.968	20923.25
811.223	20980.25
811.477	21328.25
811.731	21554.25
811.985	21581.25
812.239	21688.25
812.493	21835.25
812.747	21882.25
813	22012.25
813.254	22089.25
813.508	22272.25
813.762	22425.25
814.015	22466.25
814.269	22667.25
814.522	22851.25
814.776	23189.25
815.03	23524.25
815.283	23736.25
815.536	24215.25
815.79	24543.25
816.043	24988.25
816.296	25320.25
816.55	25534.25
816.803	25880.25
817.056	26238.25
817.309	26457.25
817.562	26758.25
817.815	27068.25
818.068	27285.25
818.321	27563.25
818.574	27950.25
818.827	28430.25
819.079	28621.25
819.332	29193.25
819.585	29553.25
819.838	29963.25
820.09	30160.25
820.343	30226.25
820.595	30445.25
820.848	30728.25
821.1	30876.25
821.353	30926.25
821.605	30711.25
821.857	30820.25
822.11	30622.25
822.362	30654.25
822.614	30599.25
822.866	30653.25
823.118	30612.25
823.37	30785.25
823.622	30920.25
823.874	30862.25
824.126	31097.25
824.378	31193.25
824.63	31352.25
824.882	31365.25
825.134	31370.25
825.385	31354.25
825.637	31167.25
825.888	31111.25
826.14	31053.25
826.392	30935.25
826.643	30809.25
826.895	30743.25
827.146	30671.25
827.397	30472.25
827.649	30629.25
827.9	30618.25
828.151	30578.25
828.402	30624.25
828.653	30698.25
828.905	30953.25
829.156	31004.25
829.407	30892.25
829.658	31040.25
829.909	31030.25
830.159	31099.25
830.41	30918.25
830.661	30801.25
830.912	30547.25
831.162	30459.25
831.413	30529.25
831.664	30484.25
831.914	30421.25
832.165	30248.25
832.415	30190.25
832.666	30243.25
832.916	30502.25
833.167	30385.25
833.417	30444.25
833.667	30348.25
833.917	30196.25
834.168	30125.25
834.418	30107.25
834.668	29873.25
834.918	29736.25
835.168	29643.25
835.418	29472.25
835.668	29491.25
835.918	29515.25
836.167	29372.25
836.417	29374.25
836.667	29358.25
836.917	29279.25
837.166	29215.25
837.416	29353.25
837.666	29291.25
837.915	29216.25
838.165	29071.25
838.414	29060.25
838.663	29014.25
838.913	29082.25
839.162	29009.25
839.411	28927.25
839.661	28976.25
839.91	28860.25
840.159	28729.25
840.408	28762.25
840.657	28829.25
840.906	28845.25
841.155	28759.25
841.404	28785.25
841.653	28782.25
841.902	28757.25
842.15	28827.25
842.399	28981.25
842.648	28860.25
842.897	28786.25
843.145	28495.25
843.394	28400.25
843.642	28372.25
843.891	28137.25
844.139	27986.25
844.388	27710.25
844.636	27843.25
844.884	27688.25
845.133	27618.25
845.381	27702.25
845.629	27743.25
845.877	27634.25
846.125	27676.25
846.373	27617.25
846.621	27561.25
846.869	27574.25
847.117	27224.25
847.365	27190.25
847.613	27029.25
847.861	26961.25
848.108	26905.25
848.356	26852.25
848.604	26873.25
848.851	26888.25
849.099	26979.25
849.346	27066.25
849.594	27044.25
849.841	27177.25
850.089	27241.25
850.336	27289.25
850.583	27164.25
850.831	27059.25
851.078	27045.25
851.325	27016.25
851.572	27221.25
851.819	26925.25
852.066	26375.25
852.313	26006.25
852.56	25849.25
852.807	25697.25
853.054	25524.25
853.301	25634.25
853.548	25655.25
853.794	25896.25
854.041	25976.25
854.288	26032.25
854.534	26222.25
854.781	26156.25
855.028	26062.25
855.274	26009.25
855.52	25885.25
855.767	25832.25
856.013	25873.25
856.26	26201.25
856.506	25678.25
856.752	25543.25
856.998	25606.25
857.244	25666.25
857.49	25776.25
857.736	25868.25
857.982	25853.25
858.228	25783.25
858.474	25565.25
858.72	25376.25
858.966	25216.25
859.212	24926.25
859.458	24809.25
859.703	24586.25
859.949	24268.25
860.195	24203.25
860.44	24018.25
860.686	23964.25
860.931	23990.25
861.177	23694.25
861.422	23809.25
861.667	23617.25
861.913	23661.25
862.158	23658.25
862.403	23771.25
862.648	23884.25
862.893	23854.25
863.138	23923.25
863.384	23896.25
863.629	23803.25
863.873	23837.25
864.118	23743.25
864.363	23591.25
864.608	23545.25
864.853	23551.25
865.098	23222.25
865.342	23103.25
865.587	23211.25
865.832	23209.25
866.076	23143.25
866.321	22972.25
866.565	22958.25
866.81	22672.25
867.054	22925.25
867.298	22809.25
867.543	22631.25
867.787	22865.25
868.031	22594.25
868.275	22719.25
868.519	22654.25
868.764	22557.25
869.008	22557.25
869.252	22585.25
869.496	22380.25
869.739	22599.25
869.983	22569.25
870.227	22465.25
870.471	22440.25
870.715	22555.25
870.958	22583.25
871.202	22612.25
871.446	22746.25
871.689	22561.25
871.933	22759.25
872.176	22564.25
872.42	22580.25
872.663	22595.25
872.906	22619.25
873.15	22476.25
873.393	22309.25
873.636	22322.25
873.879	22159.25
874.122	21962.25
874.366	21656.25
874.609	21534.25
874.852	21373.25
875.095	21191.25
875.337	21104.25
875.58	21007.25
875.823	20977.25
876.066	20994.25
876.309	20940.25
876.551	20704.25
876.794	20616.25
877.037	20624.25
877.279	20529.25
877.522	20590.25
877.764	20587.25
878.007	20569.25
878.249	20576.25
878.491	20373.25
878.734	20473.25
878.976	20413.25
879.218	20256.25
879.46	20203.25
879.702	20022.25
879.945	19876.25
880.187	19726.25
880.429	19586.25
880.671	19505.25
880.912	19409.25
881.154	19368.25
881.396	19442.25
881.638	19489.25
881.88	19380.25
882.121	19312.25
882.363	19249.25
882.605	19390.25
882.846	19176.25
883.088	19209.25
883.329	19278.25
883.571	19239.25
883.812	19400.25
884.053	19753.25
884.295	20093.25
884.536	20217.25
884.777	20160.25
885.018	19990.25
885.259	19906.25
885.5	19864.25
885.742	20198.25
885.982	19832.25
886.223	19802.25
886.464	19448.25
886.705	19314.25
886.946	19098.25
887.187	18867.25
887.428	18654.25
887.668	18317.25
887.909	18096.25
888.15	17879.25
888.39	17845.25
888.631	17782.25
888.871	17574.25
889.111	17350.25
889.352	17417.25
889.592	17192.25
889.833	17073.25
890.073	16982.25
890.313	16930.25
890.553	16767.25
890.793	16777.25
891.033	16718.25
891.273	16646.25
891.513	16622.25
891.753	16506.25
891.993	16477.25
892.233	16537.25
892.473	16708.25
892.713	16590.25
892.952	16658.25
893.192	16648.25
893.432	16618.25
893.671	16619.25
893.911	16500.25
894.15	16455.25
894.39	16275.25
894.629	16290.25
894.869	16162.25
895.108	16150.25
895.347	15988.25
895.587	15967.25
895.826	16059.25
896.065	16001.25
896.304	16030.25
896.543	15957.25
896.782	15849.25
897.021	15986.25
897.26	15911.25
897.499	15932.25
897.738	15883.25
897.977	15744.25
898.216	15605.25
898.454	15584.25
898.693	15442.25
898.932	15500.25
899.17	15371.25
899.409	15426.25
899.647	15411.25
899.886	15349.25
900.124	15426.25
900.363	15311.25
900.601	15370.25
900.839	15573.25
901.078	15520.25
901.316	15525.25
901.554	15680.25
901.792	15811.25
902.03	15665.25
902.268	15741.25
902.506	15740.25
902.744	15614.25
902.982	15410.25
903.22	15206.25
903.458	15050.25
903.695	14741.25
903.933	14546.25
904.171	14254.25
904.409	14056.25
904.646	13915.25
904.884	13638.25
905.121	13624.25
905.359	13347.25
905.596	13300.25
905.833	13155.25
906.071	13013.25
906.308	12965.25
906.545	12944.25
906.783	12847.25
907.02	12876.25
907.257	12818.25
907.494	12761.25
907.731	12719.25
907.968	12705.25
908.205	12595.25
908.442	12452.25
908.679	12437.25
908.915	12280.25
909.152	12273.25
909.389	12066.25
909.626	12110.25
909.862	11948.25
910.099	11950.25
910.335	11918.25
910.572	11779.25
910.808	11778.25
911.045	11690.25
911.281	11667.25
911.518	11724.25
911.754	11559.25
911.99	11585.25
912.226	11433.25
912.463	11262.25
912.699	11160.25
912.935	11174.25
913.171	11117.25
913.407	11029.25
913.643	10920.25
913.879	10878.25
914.114	10759.25
914.35	10650.25
914.586	10614.25
914.822	10475.25
915.057	10499.25
915.293	10266.25
915.529	10226.25
915.764	10325.25
916	10275.25
916.235	10245.25
916.471	10262.25
916.706	10130.25
916.941	10217.25
917.177	10126.25
917.412	10172.25
917.647	10133.25
917.882	10079.25
918.117	10121.25
918.352	10074.25
918.588	10106.25
918.823	9884.25
919.057	9887.25
919.292	9708.25
919.527	9812.25
919.762	9586.25
919.997	9516.25
920.232	9391.25
920.466	9368.25
920.701	9204.25
920.935	9200.25
921.17	9073.25
921.405	9133.25
921.639	9030.25
921.873	8992.25
922.108	9022.25
922.342	9003.25
922.576	8887.25
922.811	8896.25
923.045	8959.25
923.279	8840.25
923.513	8643.25
923.747	8799.25
923.981	8645.25
924.215	8642.25
924.449	8637.25
924.683	8517.25
924.917	8414.25
925.151	8485.25
925.385	8524.25
925.618	8373.25
925.852	8392.25
926.086	8384.25
926.319	8426.25
926.553	8356.25
926.786	8370.25
927.02	8300.25
927.253	8364.25
927.486	8316.25
927.72	8315.25
927.953	8364.25
928.186	8209.25
928.42	8257.25
928.653	8112.25
928.886	8123.25
929.119	8174.25
929.352	8128.25
929.585	8076.25
929.818	7933.25
930.051	7915.25
930.284	7853.25
930.516	7792.25
930.749	7760.25
930.982	7719.25
931.215	7703.25
931.447	7611.25
931.68	7637.25
931.912	7583.25
932.145	7587.25
932.377	7596.25
932.61	7709.25
932.842	7490.25
933.074	7571.25
933.307	7555.25
933.539	7609.25
933.771	7593.25
934.003	7508.25
934.236	7620.25
934.468	7686.25
934.7	7493.25
934.932	7568.25
935.164	7413.25
935.395	7441.25
935.627	7427.25
935.859	7420.25
936.091	7375.25
936.323	7430.25
936.554	7343.25
936.786	7309.25
937.017	7233.25
937.249	7221.25
937.481	7225.25
937.712	7259.25
937.943	7152.25
938.175	7219.25
938.406	7143.25
938.637	7260.25
938.869	7091.25
939.1	7123.25
939.331	7079.25
939.562	7091.25
939.793	7051.25
940.024	7080.25
940.255	7036.25
940.486	6958.25
940.717	6958.25
940.948	6926.25
941.179	6853.25
941.409	6953.25
941.64	6874.25
941.871	6888.25
942.102	6886.25
942.332	6789.25
942.563	6865.25
942.793	6839.25
943.024	6795.25
943.254	6836.25
943.484	6832.25
943.715	6838.25
943.945	6841.25
944.175	6783.25
944.405	6648.25
944.636	6805.25
944.866	6793.25
945.096	6772.25
945.326	6683.25
945.556	6724.25
945.786	6766.25
946.016	6596.25
946.245	6550.25
946.475	6531.25
946.705	6468.25
946.935	6494.25
947.164	6441.25
947.394	6402.25
947.624	6386.25
947.853	6400.25
948.083	6297.25
948.312	6291.25
948.542	6191.25
948.771	6140.25
949	6220.25
949.23	6184.25
949.459	6184.25
949.688	6193.25
949.917	6210.25
950.146	6183.25
950.375	6196.25
950.604	6143.25
950.833	6140.25
951.062	6219.25
951.291	6131.25
951.52	6029.25
951.749	6031.25
951.978	6016.25
952.206	5992.25
952.435	5988.25
952.664	5981.25
952.892	6022.25
953.121	5987.25
953.349	5937.25
953.578	5952.25
953.806	5878.25
954.035	5772.25
954.263	5811.25
954.491	5765.25
954.719	5741.25
954.948	5733.25
955.176	5704.25
955.404	5605.25
955.632	5646.25
955.86	5645.25
956.088	5616.25
956.316	5564.25
956.544	5597.25
956.772	5493.25
956.999	5504.25
957.227	5584.25
957.455	5426.25
957.683	5439.25
957.91	5370.25
958.138	5347.25
958.365	5339.25
958.593	5287.25
958.82	5235.25
959.048	5279.25
959.275	5277.25
959.502	5211.25
959.73	5165.25
959.957	5206.25
960.184	5227.25
960.411	5138.25
960.638	5266.25
960.865	5166.25
961.092	5198.25
961.319	5064.25
961.546	5178.25
961.773	5202.25
962	5103.25
962.227	5176.25
962.454	5126.25
962.68	5066.25
962.907	5059.25
963.134	5019.25
963.36	5021.25
963.587	4979.25
963.813	4918.25
964.04	4908.25
964.266	4859.25
964.493	4956.25
964.719	4907.25
964.945	4846.25
965.171	4776.25
965.398	4812.25
965.624	4779.25
965.85	4712.25
966.076	4641.25
966.302	4669.25
966.528	4621.25
966.754	4628.25
966.98	4637.25
967.206	4631.25
967.431	4532.25
967.657	4610.25
967.883	4578.25
968.109	4543.25
968.334	4531.25
968.56	4484.25
968.785	4542.25
969.011	4444.25
969.236	4478.25
969.462	4422.25
969.687	4461.25
969.912	4453.25
970.138	4436.25
970.363	4387.25
970.588	4382.25
970.813	4365.25
971.038	4322.25
971.263	4369.25
971.488	4343.25
971.713	4314.25
971.938	4297.25
972.163	4171.25
972.388	4258.25
972.613	4176.25
972.838	4204.25
973.062	4142.25
973.287	4201.25
973.512	4081.25
973.736	4143.25
973.961	4119.25
974.185	4061.25
974.41	4125.25
974.634	4006.25
974.858	3956.25
975.083	3981.25
975.307	4028.25
975.531	3929.25
975.755	3846.25
975.98	3827.25
976.204	3815.25
976.428	3773.25
976.652	3784.25
976.876	3752.25
977.1	3796.25
977.324	3745.25
977.547	3757.25
977.771	3775.25
977.995	3711.25
978.219	3661.25
978.442	3796.25
978.666	3703.25
978.89	3708.25
979.113	3679.25
979.337	3627.25
979.56	3631.25
979.783	3678.25
980.007	3622.25
980.23	3613.25
980.453	3546.25
980.677	3590.25
980.9	3596.25
981.123	3471.25
981.346	3587.25
981.569	3478.25
981.792	3528.25
982.015	3509.25
982.238	3412.25
982.461	3444.25
982.684	3370.25
982.907	3344.25
983.129	3343.25
983.352	3427.25
983.575	3368.25
983.797	3384.25
984.02	3269.25
984.242	3346.25
984.465	3276.25
984.687	3274.25
984.91	3332.25
985.132	3252.25
985.354	3266.25
985.577	3262.25
985.799	3195.25
986.021	3146.25
986.243	3169.25
986.465	3145.25
986.687	3209.25
986.909	3217.25
987.131	3136.25
987.353	3094.25
987.575	3132.25
987.797	3112.25
988.019	3067.25
988.241	3093.25
988.462	3038.25
988.684	3078.25
988.906	3104.25
989.127	3139.25
989.349	3011.25
989.57	3021.25
989.792	3087.25
990.013	3073.25
990.234	3107.25
990.456	3077.25
990.677	3040.25
990.898	2949.25
991.119	2970.25
991.341	3019.25
991.562	2884.25
991.783	2970.25
992.004	2883.25
992.225	2812.25
992.446	2870.25
992.667	2797.25
992.887	2831.25
993.108	2721.25
993.329	2862.25
993.55	2786.25
993.77	2735.25
993.991	2700.25
994.212	2744.25
994.432	2693.25
994.653	2747.25
994.873	2747.25
995.093	2614.25
995.314	2664.25
995.534	2694.25
995.754	2715.25
995.975	2740.25
996.195	2616.25
996.415	2682.25
996.635	2628.25
996.855	2681.25
997.075	2648.25
997.295	2618.25
997.515	2599.25
997.735	2655.25
997.955	2622.25
998.174	2592.25
998.394	2582.25
998.614	2589.25
998.834	2523.25
999.053	2592.25
999.273	2569.25
999.492	2627.25
999.712	2529.25
999.931	2474.25
1000.151	2540.25
1000.37	2546.25
1000.589	2577.25
1000.809	2500.25
1001.028	2544.25
1001.247	2484.25
1001.466	2364.25
1001.685	2529.25
1001.904	2452.25
1002.123	2403.25
1002.342	2427.25
1002.561	2380.25
1002.78	2358.25
1002.999	2467.25
1003.218	2362.25
1003.436	2346.25
1003.655	2364.25
1003.874	2333.25
1004.092	2348.25
1004.311	2389.25
1004.53	2336.25
1004.748	2376.25
1004.966	2298.25
1005.185	2371.25
1005.403	2349.25
1005.622	2338.25
1005.84	2382.25
1006.058	2317.25
1006.276	2306.25
1006.494	2796.25
1006.712	2303.25
1006.931	2377.25
1007.149	2264.25
1007.367	2296.25
1007.584	2319.25
1007.802	2352.25
1008.02	2319.25
1008.238	2454.25
1008.456	2428.25
1008.673	2308.25
1008.891	2383.25
1009.109	2378.25
1009.326	2496.25
1009.544	2563.25
1009.761	2508.25
1009.979	2609.25
1010.196	2712.25
1010.413	2795.25
1010.631	2880.25
1010.848	3016.25
1011.065	3029.25
1011.282	2958.25
1011.5	2879.25
1011.717	3027.25
1011.934	2970.25
1012.151	2984.25
1012.368	2923.25
1012.585	2924.25
1012.801	2970.25
1013.018	2917.25
1013.235	2935.25
1013.452	2896.25
1013.669	2980.25
1013.885	2969.25
1014.102	2998.25
1014.318	3006.25
1014.535	2925.25
1014.751	2943.25
1014.968	2909.25
1015.184	2930.25
1015.401	2848.25
1015.617	2851.25
1015.833	2773.25
1016.049	2802.25
1016.266	2769.25
1016.482	2720.25
1016.698	2663.25
1016.914	2719.25
1017.13	2632.25
1017.346	2662.25
1017.562	2659.25
1017.778	2613.25
1017.993	2600.25
1018.209	2681.25
1018.425	2599.25
1018.641	2591.25
1018.856	2600.25
1019.072	2608.25
1019.288	2659.25
1019.503	2581.25
1019.719	2533.25
1019.934	2527.25
1020.149	2617.25
1020.365	2547.25
1020.58	2491.25
1020.795	2466.25
1021.011	2374.25
1021.226	2338.25
1021.441	2332.25
1021.656	2220.25
1021.871	2143.25
1022.086	2136.25
1022.301	2099.25
1022.516	2088.25
1022.731	2091.25
1022.946	2019.25
1023.16	1986.25
1023.375	1935.25
1023.59	1896.25
1023.804	1860.25
1024.019	1919.25
1024.234	1792.25
1024.448	1804.25
1024.663	1688.25
1024.877	1707.25
1025.092	1714.25
1025.306	1688.25
1025.52	1568.25
1025.734	1643.25
1025.949	1555.25
1026.163	1523.25
1026.377	1420.25
1026.591	1469.25
1026.805	1382.25
1027.019	1328.25
1027.233	1339.25
1027.447	1249.25
1027.661	1348.25
1027.875	1295.25
1028.088	1286.25
1028.302	1177.25
1028.516	1174.25
1028.73	1160.25
1028.943	1135.25
1029.157	1052.25
1029.37	971.25
1029.584	0.25
1029.797	-1.75
1030.011	-5.75
1030.224	-1.75
