Data from QEP037381__106__15-26-55-867.txt Node

Date: Fri Dec 16 15:26:55 EST 2022
User: dcclab
Spectrometer: QEP03738
Trigger mode: 4
Integration Time (sec): 1.000000E1
Scans to average: 1
Electric dark correction enabled: true
Nonlinearity correction enabled: false
Boxcar width: 0
XAxis mode: Wavelengths
Number of Pixels in Spectrum: 1044
>>>>>Begin Spectral Data<<<<<
784.041	12.12
784.3	2.12
784.558	-1.88
784.817	-5.88
785.075	91093.12
785.334	15756.12
785.592	7430.12
785.851	5124.12
786.109	3853.12
786.368	3018.12
786.626	2447.12
786.884	2064.12
787.143	1714.12
787.401	1389.12
787.659	1302.12
787.917	1105.12
788.175	1025.12
788.433	907.12
788.691	811.12
788.949	762.12
789.207	754.12
789.465	639.12
789.723	617.12
789.98	560.12
790.238	601.12
790.496	561.12
790.753	550.12
791.011	606.12
791.268	524.12
791.526	515.12
791.783	526.12
792.041	518.12
792.298	440.12
792.556	490.12
792.813	485.12
793.07	455.12
793.327	441.12
793.584	541.12
793.841	442.12
794.099	459.12
794.356	531.12
794.613	426.12
794.869	460.12
795.126	432.12
795.383	433.12
795.64	441.12
795.897	379.12
796.153	451.12
796.41	443.12
796.667	425.12
796.923	435.12
797.18	436.12
797.436	462.12
797.693	425.12
797.949	480.12
798.206	493.12
798.462	423.12
798.718	488.12
798.974	464.12
799.231	494.12
799.487	480.12
799.743	508.12
799.999	516.12
800.255	515.12
800.511	517.12
800.767	545.12
801.023	555.12
801.279	573.12
801.534	607.12
801.79	680.12
802.046	690.12
802.302	833.12
802.557	959.12
802.813	1207.12
803.068	1494.12
803.324	2084.12
803.579	2839.12
803.835	3931.12
804.09	5371.12
804.345	7054.12
804.601	8895.12
804.856	10819.12
805.111	12457.12
805.366	13714.12
805.621	14648.12
805.876	15200.12
806.131	15619.12
806.386	15917.12
806.641	16223.12
806.896	16460.12
807.151	16885.12
807.406	17149.12
807.661	17466.12
807.915	17796.12
808.17	17950.12
808.425	18186.12
808.679	18447.12
808.934	18678.12
809.188	18875.12
809.443	19120.12
809.697	19285.12
809.951	19506.12
810.206	19606.12
810.46	19795.12
810.714	20087.12
810.968	20252.12
811.223	20310.12
811.477	20647.12
811.731	20698.12
811.985	20918.12
812.239	21014.12
812.493	21045.12
812.747	21301.12
813	21314.12
813.254	21399.12
813.508	21428.12
813.762	21518.12
814.015	21706.12
814.269	21893.12
814.522	22097.12
814.776	22337.12
815.03	22615.12
815.283	23006.12
815.536	23306.12
815.79	23665.12
816.043	24033.12
816.296	24369.12
816.55	24579.12
816.803	25000.12
817.056	25276.12
817.309	25560.12
817.562	25812.12
817.815	26111.12
818.068	26316.12
818.321	26683.12
818.574	26889.12
818.827	27262.12
819.079	27543.12
819.332	27887.12
819.585	28589.12
819.838	28762.12
820.09	28869.12
820.343	29182.12
820.595	29274.12
820.848	29506.12
821.1	29595.12
821.353	29556.12
821.605	29622.12
821.857	29662.12
822.11	29546.12
822.362	29539.12
822.614	29275.12
822.866	29512.12
823.118	29494.12
823.37	29621.12
823.622	29572.12
823.874	29777.12
824.126	29918.12
824.378	29864.12
824.63	29958.12
824.882	30023.12
825.134	29972.12
825.385	30197.12
825.637	29957.12
825.888	29899.12
826.14	29856.12
826.392	29685.12
826.643	29637.12
826.895	29546.12
827.146	29381.12
827.397	29299.12
827.649	29286.12
827.9	29238.12
828.151	29367.12
828.402	29502.12
828.653	29578.12
828.905	29575.12
829.156	29814.12
829.407	29757.12
829.658	29747.12
829.909	29781.12
830.159	29826.12
830.41	29613.12
830.661	29388.12
830.912	29251.12
831.162	29304.12
831.413	29218.12
831.664	29158.12
831.914	29119.12
832.165	29126.12
832.415	29131.12
832.666	29074.12
832.916	29254.12
833.167	29231.12
833.417	29126.12
833.667	29165.12
833.917	28924.12
834.168	29003.12
834.418	28838.12
834.668	28734.12
834.918	28556.12
835.168	28458.12
835.418	28286.12
835.668	28284.12
835.918	28350.12
836.167	28233.12
836.417	28149.12
836.667	28110.12
836.917	28136.12
837.166	27970.12
837.416	28134.12
837.666	28053.12
837.915	28013.12
838.165	28024.12
838.414	27824.12
838.663	27855.12
838.913	27910.12
839.162	27768.12
839.411	27820.12
839.661	27611.12
839.91	27627.12
840.159	27611.12
840.408	27523.12
840.657	27673.12
840.906	27629.12
841.155	27506.12
841.404	27494.12
841.653	27657.12
841.902	27623.12
842.15	27694.12
842.399	27629.12
842.648	27724.12
842.897	27594.12
843.145	27281.12
843.394	27150.12
843.642	26994.12
843.891	26833.12
844.139	26722.12
844.388	26659.12
844.636	26563.12
844.884	26513.12
845.133	26487.12
845.381	26439.12
845.629	26492.12
845.877	26290.12
846.125	26408.12
846.373	26466.12
846.621	26256.12
846.869	26284.12
847.117	26108.12
847.365	25942.12
847.613	25840.12
847.861	25654.12
848.108	25839.12
848.356	25666.12
848.604	25514.12
848.851	25681.12
849.099	25732.12
849.346	25769.12
849.594	25804.12
849.841	25989.12
850.089	25987.12
850.336	25971.12
850.583	25987.12
850.831	25795.12
851.078	25787.12
851.325	25861.12
851.572	25855.12
851.819	25719.12
852.066	25133.12
852.313	24829.12
852.56	24680.12
852.807	24489.12
853.054	24428.12
853.301	24604.12
853.548	24520.12
853.794	24632.12
854.041	24739.12
854.288	24887.12
854.534	25054.12
854.781	24986.12
855.028	24992.12
855.274	24983.12
855.52	24824.12
855.767	24698.12
856.013	24800.12
856.26	25027.12
856.506	24463.12
856.752	24453.12
856.998	24543.12
857.244	24456.12
857.49	24662.12
857.736	24825.12
857.982	24778.12
858.228	24576.12
858.474	24498.12
858.72	24362.12
858.966	24206.12
859.212	23878.12
859.458	23675.12
859.703	23591.12
859.949	23156.12
860.195	23116.12
860.44	23138.12
860.686	22943.12
860.931	23013.12
861.177	22746.12
861.422	22683.12
861.667	22622.12
861.913	22646.12
862.158	22639.12
862.403	22714.12
862.648	22840.12
862.893	22729.12
863.138	22798.12
863.384	22789.12
863.629	22667.12
863.873	22640.12
864.118	22633.12
864.363	22565.12
864.608	22409.12
864.853	22477.12
865.098	22309.12
865.342	22271.12
865.587	22155.12
865.832	22128.12
866.076	22111.12
866.321	22010.12
866.565	22000.12
866.81	21919.12
867.054	21802.12
867.298	21711.12
867.543	21681.12
867.787	21603.12
868.031	21602.12
868.275	21651.12
868.519	21647.12
868.764	21599.12
869.008	21566.12
869.252	21578.12
869.496	21479.12
869.739	21380.12
869.983	21450.12
870.227	21480.12
870.471	21458.12
870.715	21551.12
870.958	21651.12
871.202	21644.12
871.446	21624.12
871.689	21656.12
871.933	21613.12
872.176	21637.12
872.42	21471.12
872.663	21530.12
872.906	21511.12
873.15	21452.12
873.393	21359.12
873.636	21415.12
873.879	21167.12
874.122	20980.12
874.366	20633.12
874.609	20583.12
874.852	20363.12
875.095	20337.12
875.337	20217.12
875.58	20137.12
875.823	20071.12
876.066	20087.12
876.309	20039.12
876.551	19788.12
876.794	19671.12
877.037	19791.12
877.279	19682.12
877.522	19682.12
877.764	19637.12
878.007	19688.12
878.249	19565.12
878.491	19623.12
878.734	19518.12
878.976	19439.12
879.218	19346.12
879.46	19349.12
879.702	19188.12
879.945	18957.12
880.187	18830.12
880.429	18625.12
880.671	18648.12
880.912	18592.12
881.154	18473.12
881.396	18512.12
881.638	18471.12
881.88	18566.12
882.121	18401.12
882.363	18407.12
882.605	18488.12
882.846	18432.12
883.088	18412.12
883.329	18288.12
883.571	18451.12
883.812	18578.12
884.053	18870.12
884.295	19165.12
884.536	19434.12
884.777	19303.12
885.018	19171.12
885.259	19177.12
885.5	18954.12
885.742	19236.12
885.982	19024.12
886.223	18791.12
886.464	18656.12
886.705	18456.12
886.946	18329.12
887.187	17998.12
887.428	17957.12
887.668	17627.12
887.909	17399.12
888.15	17143.12
888.39	17067.12
888.631	16992.12
888.871	16852.12
889.111	16774.12
889.352	16704.12
889.592	16519.12
889.833	16364.12
890.073	16229.12
890.313	16291.12
890.553	16063.12
890.793	16008.12
891.033	16011.12
891.273	15935.12
891.513	15960.12
891.753	15825.12
891.993	15821.12
892.233	15926.12
892.473	15931.12
892.713	15845.12
892.952	15927.12
893.192	15930.12
893.432	15898.12
893.671	16047.12
893.911	15844.12
894.15	15714.12
894.39	15614.12
894.629	15545.12
894.869	15529.12
895.108	15487.12
895.347	15365.12
895.587	15403.12
895.826	15338.12
896.065	15262.12
896.304	15325.12
896.543	15334.12
896.782	15224.12
897.021	15235.12
897.26	15238.12
897.499	15273.12
897.738	15242.12
897.977	15127.12
898.216	15013.12
898.454	14930.12
898.693	14949.12
898.932	14890.12
899.17	14729.12
899.409	14730.12
899.647	14797.12
899.886	14760.12
900.124	14899.12
900.363	14721.12
900.601	14817.12
900.839	14910.12
901.078	14922.12
901.316	15022.12
901.554	15003.12
901.792	15182.12
902.03	15142.12
902.268	15109.12
902.506	15171.12
902.744	14933.12
902.982	14842.12
903.22	14629.12
903.458	14443.12
903.695	14220.12
903.933	14029.12
904.171	13720.12
904.409	13537.12
904.646	13344.12
904.884	13101.12
905.121	13044.12
905.359	12762.12
905.596	12761.12
905.833	12683.12
906.071	12592.12
906.308	12529.12
906.545	12552.12
906.783	12359.12
907.02	12337.12
907.257	12298.12
907.494	12338.12
907.731	12233.12
907.968	12162.12
908.205	12076.12
908.442	12007.12
908.679	11958.12
908.915	11776.12
909.152	11800.12
909.389	11690.12
909.626	11615.12
909.862	11449.12
910.099	11479.12
910.335	11455.12
910.572	11342.12
910.808	11344.12
911.045	11211.12
911.281	11274.12
911.518	11278.12
911.754	11127.12
911.99	11023.12
912.226	11046.12
912.463	10904.12
912.699	10808.12
912.935	10690.12
913.171	10714.12
913.407	10558.12
913.643	10551.12
913.879	10433.12
914.114	10360.12
914.35	10185.12
914.586	10188.12
914.822	9992.12
915.057	10117.12
915.293	9956.12
915.529	9879.12
915.764	9903.12
916	9869.12
916.235	9870.12
916.471	9803.12
916.706	9785.12
916.941	9811.12
917.177	9768.12
917.412	9809.12
917.647	9729.12
917.882	9710.12
918.117	9797.12
918.352	9686.12
918.588	9691.12
918.823	9610.12
919.057	9499.12
919.292	9303.12
919.527	9456.12
919.762	9256.12
919.997	9278.12
920.232	9110.12
920.466	9071.12
920.701	8949.12
920.935	8909.12
921.17	8850.12
921.405	8727.12
921.639	8823.12
921.873	8704.12
922.108	8653.12
922.342	8709.12
922.576	8604.12
922.811	8556.12
923.045	8572.12
923.279	8598.12
923.513	8428.12
923.747	8488.12
923.981	8374.12
924.215	8311.12
924.449	8322.12
924.683	8272.12
924.917	8183.12
925.151	8150.12
925.385	8286.12
925.618	8145.12
925.852	8129.12
926.086	7997.12
926.319	8116.12
926.553	8096.12
926.786	8046.12
927.02	8045.12
927.253	8080.12
927.486	8060.12
927.72	7967.12
927.953	8069.12
928.186	7975.12
928.42	7942.12
928.653	7894.12
928.886	7851.12
929.119	7863.12
929.352	7792.12
929.585	7766.12
929.818	7637.12
930.051	7699.12
930.284	7658.12
930.516	7497.12
930.749	7448.12
930.982	7506.12
931.215	7469.12
931.447	7380.12
931.68	7359.12
931.912	7261.12
932.145	7311.12
932.377	7346.12
932.61	7364.12
932.842	7305.12
933.074	7293.12
933.307	7279.12
933.539	7393.12
933.771	7381.12
934.003	7295.12
934.236	7354.12
934.468	7340.12
934.7	7327.12
934.932	7248.12
935.164	7240.12
935.395	7242.12
935.627	7189.12
935.859	7194.12
936.091	7155.12
936.323	7176.12
936.554	7168.12
936.786	7064.12
937.017	6968.12
937.249	7085.12
937.481	6966.12
937.712	7031.12
937.943	7013.12
938.175	6916.12
938.406	6936.12
938.637	7005.12
938.869	6895.12
939.1	6910.12
939.331	6849.12
939.562	6897.12
939.793	6891.12
940.024	6805.12
940.255	6835.12
940.486	6715.12
940.717	6740.12
940.948	6680.12
941.179	6625.12
941.409	6665.12
941.64	6663.12
941.871	6658.12
942.102	6626.12
942.332	6615.12
942.563	6691.12
942.793	6653.12
943.024	6646.12
943.254	6593.12
943.484	6683.12
943.715	6651.12
943.945	6594.12
944.175	6510.12
944.405	6459.12
944.636	6439.12
944.866	6528.12
945.096	6612.12
945.326	6456.12
945.556	6536.12
945.786	6508.12
946.016	6430.12
946.245	6307.12
946.475	6310.12
946.705	6291.12
946.935	6318.12
947.164	6245.12
947.394	6158.12
947.624	6127.12
947.853	6208.12
948.083	6161.12
948.312	6077.12
948.542	6001.12
948.771	6029.12
949	6005.12
949.23	5982.12
949.459	5946.12
949.688	6062.12
949.917	5989.12
950.146	5946.12
950.375	6049.12
950.604	5910.12
950.833	6027.12
951.062	5980.12
951.291	5906.12
951.52	5861.12
951.749	5858.12
951.978	5760.12
952.206	5779.12
952.435	5812.12
952.664	5864.12
952.892	5831.12
953.121	5769.12
953.349	5786.12
953.578	5746.12
953.806	5703.12
954.035	5604.12
954.263	5641.12
954.491	5602.12
954.719	5607.12
954.948	5514.12
955.176	5535.12
955.404	5457.12
955.632	5505.12
955.86	5494.12
956.088	5435.12
956.316	5403.12
956.544	5408.12
956.772	5363.12
956.999	5288.12
957.227	5366.12
957.455	5293.12
957.683	5255.12
957.91	5194.12
958.138	5170.12
958.365	5138.12
958.593	5158.12
958.82	5078.12
959.048	5145.12
959.275	5103.12
959.502	5131.12
959.73	5026.12
959.957	5050.12
960.184	5077.12
960.411	4961.12
960.638	5081.12
960.865	4991.12
961.092	5021.12
961.319	4908.12
961.546	5014.12
961.773	5039.12
962	4951.12
962.227	5025.12
962.454	4953.12
962.68	4904.12
962.907	4941.12
963.134	4849.12
963.36	4890.12
963.587	4831.12
963.813	4763.12
964.04	4761.12
964.266	4685.12
964.493	4761.12
964.719	4719.12
964.945	4642.12
965.171	4588.12
965.398	4605.12
965.624	4637.12
965.85	4533.12
966.076	4561.12
966.302	4536.12
966.528	4505.12
966.754	4486.12
966.98	4518.12
967.206	4524.12
967.431	4425.12
967.657	4413.12
967.883	4439.12
968.109	4440.12
968.334	4364.12
968.56	4298.12
968.785	4376.12
969.011	4300.12
969.236	4346.12
969.462	4292.12
969.687	4271.12
969.912	4284.12
970.138	4336.12
970.363	4277.12
970.588	4253.12
970.813	4255.12
971.038	4188.12
971.263	4234.12
971.488	4186.12
971.713	4280.12
971.938	4180.12
972.163	4085.12
972.388	4098.12
972.613	4050.12
972.838	4083.12
973.062	4031.12
973.287	4072.12
973.512	3977.12
973.736	4032.12
973.961	3990.12
974.185	3959.12
974.41	3959.12
974.634	3857.12
974.858	3848.12
975.083	3870.12
975.307	3881.12
975.531	3825.12
975.755	3765.12
975.98	3792.12
976.204	3675.12
976.428	3696.12
976.652	3648.12
976.876	3682.12
977.1	3635.12
977.324	3585.12
977.547	3664.12
977.771	3689.12
977.995	3641.12
978.219	3529.12
978.442	3665.12
978.666	3610.12
978.89	3623.12
979.113	3579.12
979.337	3581.12
979.56	3515.12
979.783	3593.12
980.007	3489.12
980.23	3496.12
980.453	3460.12
980.677	3535.12
980.9	3492.12
981.123	3376.12
981.346	3490.12
981.569	3398.12
981.792	3442.12
982.015	3334.12
982.238	3346.12
982.461	3323.12
982.684	3324.12
982.907	3284.12
983.129	3255.12
983.352	3294.12
983.575	3254.12
983.797	3249.12
984.02	3192.12
984.242	3200.12
984.465	3220.12
984.687	3186.12
984.91	3258.12
985.132	3159.12
985.354	3174.12
985.577	3101.12
985.799	3150.12
986.021	3046.12
986.243	3064.12
986.465	3064.12
986.687	3087.12
986.909	3137.12
987.131	3075.12
987.353	3038.12
987.575	3047.12
987.797	3008.12
988.019	2928.12
988.241	2990.12
988.462	2970.12
988.684	2996.12
988.906	3009.12
989.127	3048.12
989.349	2940.12
989.57	2955.12
989.792	3022.12
990.013	3022.12
990.234	3003.12
990.456	3018.12
990.677	2964.12
990.898	2905.12
991.119	2872.12
991.341	2889.12
991.562	2826.12
991.783	2859.12
992.004	2778.12
992.225	2747.12
992.446	2823.12
992.667	2722.12
992.887	2824.12
993.108	2663.12
993.329	2794.12
993.55	2778.12
993.77	2696.12
993.991	2655.12
994.212	2713.12
994.432	2663.12
994.653	2660.12
994.873	2671.12
995.093	2513.12
995.314	2589.12
995.534	2657.12
995.754	2683.12
995.975	2664.12
996.195	2575.12
996.415	2633.12
996.635	2594.12
996.855	2597.12
997.075	2557.12
997.295	2532.12
997.515	2539.12
997.735	2610.12
997.955	2536.12
998.174	2563.12
998.394	2487.12
998.614	2563.12
998.834	2534.12
999.053	2556.12
999.273	2520.12
999.492	2559.12
999.712	2512.12
999.931	2457.12
1000.151	2483.12
1000.37	2442.12
1000.589	2502.12
1000.809	2404.12
1001.028	2483.12
1001.247	2431.12
1001.466	2353.12
1001.685	2448.12
1001.904	2405.12
1002.123	2374.12
1002.342	2366.12
1002.561	2309.12
1002.78	2359.12
1002.999	2401.12
1003.218	2321.12
1003.436	2322.12
1003.655	2335.12
1003.874	2265.12
1004.092	2325.12
1004.311	2318.12
1004.53	2280.12
1004.748	2340.12
1004.966	2271.12
1005.185	2319.12
1005.403	2322.12
1005.622	2276.12
1005.84	2345.12
1006.058	2273.12
1006.276	2273.12
1006.494	2739.12
1006.712	2288.12
1006.931	2321.12
1007.149	2253.12
1007.367	2210.12
1007.584	2259.12
1007.802	2374.12
1008.02	2296.12
1008.238	2424.12
1008.456	2398.12
1008.673	2289.12
1008.891	2424.12
1009.109	2346.12
1009.326	2402.12
1009.544	2520.12
1009.761	2450.12
1009.979	2615.12
1010.196	2677.12
1010.413	2800.12
1010.631	2906.12
1010.848	2979.12
1011.065	2996.12
1011.282	2988.12
1011.5	2911.12
1011.717	2995.12
1011.934	2929.12
1012.151	2994.12
1012.368	2924.12
1012.585	2864.12
1012.801	2927.12
1013.018	2933.12
1013.235	2868.12
1013.452	2919.12
1013.669	2899.12
1013.885	2908.12
1014.102	2953.12
1014.318	2940.12
1014.535	2870.12
1014.751	2943.12
1014.968	2924.12
1015.184	2933.12
1015.401	2784.12
1015.617	2872.12
1015.833	2770.12
1016.049	2818.12
1016.266	2720.12
1016.482	2686.12
1016.698	2654.12
1016.914	2696.12
1017.13	2616.12
1017.346	2616.12
1017.562	2634.12
1017.778	2587.12
1017.993	2570.12
1018.209	2626.12
1018.425	2587.12
1018.641	2560.12
1018.856	2546.12
1019.072	2542.12
1019.288	2610.12
1019.503	2536.12
1019.719	2486.12
1019.934	2489.12
1020.149	2559.12
1020.365	2463.12
1020.58	2386.12
1020.795	2404.12
1021.011	2341.12
1021.226	2289.12
1021.441	2291.12
1021.656	2193.12
1021.871	2136.12
1022.086	2102.12
1022.301	2040.12
1022.516	2040.12
1022.731	2065.12
1022.946	1962.12
1023.16	1952.12
1023.375	1919.12
1023.59	1879.12
1023.804	1795.12
1024.019	1880.12
1024.234	1726.12
1024.448	1784.12
1024.663	1661.12
1024.877	1687.12
1025.092	1679.12
1025.306	1674.12
1025.52	1557.12
1025.734	1610.12
1025.949	1532.12
1026.163	1479.12
1026.377	1404.12
1026.591	1441.12
1026.805	1352.12
1027.019	1340.12
1027.233	1297.12
1027.447	1244.12
1027.661	1322.12
1027.875	1232.12
1028.088	1262.12
1028.302	1180.12
1028.516	1150.12
1028.73	1153.12
1028.943	1111.12
1029.157	1054.12
1029.37	985.12
1029.584	0.12
1029.797	-4.88
1030.011	1.12
1030.224	-2.88
