Data from QEP037381__36__15-15-15-857.txt Node

Date: Fri Dec 16 15:15:15 EST 2022
User: dcclab
Spectrometer: QEP03738
Trigger mode: 4
Integration Time (sec): 1.000000E1
Scans to average: 1
Electric dark correction enabled: true
Nonlinearity correction enabled: false
Boxcar width: 0
XAxis mode: Wavelengths
Number of Pixels in Spectrum: 1044
>>>>>Begin Spectral Data<<<<<
784.041	10.62
784.3	1.62
784.558	-3.38
784.817	-5.38
785.075	89395.62
785.334	15439.62
785.592	7235.62
785.851	4995.62
786.109	3799.62
786.368	2971.62
786.626	2411.62
786.884	1993.62
787.143	1680.62
787.401	1412.62
787.659	1253.62
787.917	1098.62
788.175	996.62
788.433	894.62
788.691	806.62
788.949	757.62
789.207	734.62
789.465	632.62
789.723	617.62
789.98	556.62
790.238	606.62
790.496	590.62
790.753	534.62
791.011	591.62
791.268	521.62
791.526	512.62
791.783	528.62
792.041	514.62
792.298	423.62
792.556	476.62
792.813	489.62
793.07	443.62
793.327	452.62
793.584	507.62
793.841	428.62
794.099	465.62
794.356	520.62
794.613	432.62
794.869	461.62
795.126	414.62
795.383	416.62
795.64	430.62
795.897	393.62
796.153	448.62
796.41	431.62
796.667	410.62
796.923	417.62
797.18	431.62
797.436	460.62
797.693	413.62
797.949	478.62
798.206	483.62
798.462	413.62
798.718	462.62
798.974	450.62
799.231	475.62
799.487	473.62
799.743	489.62
799.999	516.62
800.255	514.62
800.511	498.62
800.767	561.62
801.023	529.62
801.279	570.62
801.534	606.62
801.79	654.62
802.046	688.62
802.302	828.62
802.557	943.62
802.813	1165.62
803.068	1460.62
803.324	1996.62
803.579	2681.62
803.835	3743.62
804.09	5125.62
804.345	6699.62
804.601	8487.62
804.856	10305.62
805.111	11755.62
805.366	12965.62
805.621	13902.62
805.876	14541.62
806.131	14960.62
806.386	15239.62
806.641	15510.62
806.896	15860.62
807.151	16138.62
807.406	16360.62
807.661	16662.62
807.915	17031.62
808.17	17239.62
808.425	17498.62
808.679	17694.62
808.934	17909.62
809.188	18049.62
809.443	18289.62
809.697	18492.62
809.951	18601.62
810.206	18793.62
810.46	19004.62
810.714	19217.62
810.968	19383.62
811.223	19625.62
811.477	19751.62
811.731	19933.62
811.985	19939.62
812.239	20099.62
812.493	20242.62
812.747	20448.62
813	20451.62
813.254	20545.62
813.508	20594.62
813.762	20684.62
814.015	20825.62
814.269	20972.62
814.522	21105.62
814.776	21389.62
815.03	21640.62
815.283	21991.62
815.536	22407.62
815.79	22776.62
816.043	23050.62
816.296	23365.62
816.55	23632.62
816.803	23958.62
817.056	24261.62
817.309	24480.62
817.562	24835.62
817.815	25050.62
818.068	25124.62
818.321	25540.62
818.574	25851.62
818.827	26161.62
819.079	26407.62
819.332	26988.62
819.585	27283.62
819.838	27715.62
820.09	27782.62
820.343	28041.62
820.595	28003.62
820.848	28291.62
821.1	28507.62
821.353	28587.62
821.605	28483.62
821.857	28450.62
822.11	28389.62
822.362	28320.62
822.614	28172.62
822.866	28355.62
823.118	28198.62
823.37	28373.62
823.622	28587.62
823.874	28471.62
824.126	28752.62
824.378	28670.62
824.63	28928.62
824.882	28792.62
825.134	28868.62
825.385	28870.62
825.637	28694.62
825.888	28792.62
826.14	28664.62
826.392	28443.62
826.643	28430.62
826.895	28307.62
827.146	28133.62
827.397	28259.62
827.649	28227.62
827.9	28132.62
828.151	28244.62
828.402	28230.62
828.653	28271.62
828.905	28547.62
829.156	28550.62
829.407	28560.62
829.658	28571.62
829.909	28601.62
830.159	28607.62
830.41	28421.62
830.661	28276.62
830.912	28163.62
831.162	27959.62
831.413	27968.62
831.664	28122.62
831.914	27903.62
832.165	28004.62
832.415	27890.62
832.666	28031.62
832.916	27880.62
833.167	27957.62
833.417	27931.62
833.667	27891.62
833.917	27787.62
834.168	27707.62
834.418	27627.62
834.668	27598.62
834.918	27360.62
835.168	27405.62
835.418	27211.62
835.668	27134.62
835.918	27026.62
836.167	27035.62
836.417	26933.62
836.667	27033.62
836.917	26920.62
837.166	26896.62
837.416	27008.62
837.666	26906.62
837.915	26868.62
838.165	26857.62
838.414	26781.62
838.663	26752.62
838.913	26739.62
839.162	26696.62
839.411	26705.62
839.661	26616.62
839.91	26570.62
840.159	26544.62
840.408	26537.62
840.657	26494.62
840.906	26641.62
841.155	26481.62
841.404	26582.62
841.653	26568.62
841.902	26456.62
842.15	26576.62
842.399	26519.62
842.648	26625.62
842.897	26632.62
843.145	26256.62
843.394	26040.62
843.642	26005.62
843.891	25924.62
844.139	25744.62
844.388	25566.62
844.636	25407.62
844.884	25536.62
845.133	25474.62
845.381	25509.62
845.629	25522.62
845.877	25536.62
846.125	25475.62
846.373	25528.62
846.621	25348.62
846.869	25200.62
847.117	25086.62
847.365	25012.62
847.613	24906.62
847.861	24870.62
848.108	24844.62
848.356	24657.62
848.604	24696.62
848.851	24732.62
849.099	24682.62
849.346	24885.62
849.594	25007.62
849.841	24962.62
850.089	24985.62
850.336	25102.62
850.583	25033.62
850.831	24892.62
851.078	24755.62
851.325	24832.62
851.572	25010.62
851.819	24661.62
852.066	24287.62
852.313	23934.62
852.56	23668.62
852.807	23707.62
853.054	23512.62
853.301	23541.62
853.548	23608.62
853.794	23726.62
854.041	23711.62
854.288	23866.62
854.534	24105.62
854.781	23972.62
855.028	23898.62
855.274	23980.62
855.52	23890.62
855.767	23719.62
856.013	23738.62
856.26	24019.62
856.506	23586.62
856.752	23565.62
856.998	23366.62
857.244	23536.62
857.49	23797.62
857.736	23738.62
857.982	23845.62
858.228	23699.62
858.474	23472.62
858.72	23286.62
858.966	23129.62
859.212	22987.62
859.458	22612.62
859.703	22422.62
859.949	22242.62
860.195	22192.62
860.44	22165.62
860.686	21905.62
860.931	21885.62
861.177	21780.62
861.422	21809.62
861.667	21656.62
861.913	21665.62
862.158	21650.62
862.403	21764.62
862.648	21782.62
862.893	21882.62
863.138	21940.62
863.384	21718.62
863.629	21690.62
863.873	21726.62
864.118	21562.62
864.363	21573.62
864.608	21581.62
864.853	21442.62
865.098	21408.62
865.342	21303.62
865.587	21176.62
865.832	21156.62
866.076	21168.62
866.321	21107.62
866.565	21080.62
866.81	20908.62
867.054	20839.62
867.298	20899.62
867.543	20747.62
867.787	20821.62
868.031	20736.62
868.275	20671.62
868.519	20745.62
868.764	20705.62
869.008	20635.62
869.252	20587.62
869.496	20622.62
869.739	20614.62
869.983	20581.62
870.227	20517.62
870.471	20517.62
870.715	20573.62
870.958	20698.62
871.202	20739.62
871.446	20752.62
871.689	20690.62
871.933	20749.62
872.176	20753.62
872.42	20678.62
872.663	20683.62
872.906	20551.62
873.15	20505.62
873.393	20420.62
873.636	20426.62
873.879	20345.62
874.122	20041.62
874.366	19748.62
874.609	19686.62
874.852	19480.62
875.095	19435.62
875.337	19382.62
875.58	19202.62
875.823	19177.62
876.066	19086.62
876.309	19174.62
876.551	18984.62
876.794	18947.62
877.037	18855.62
877.279	18817.62
877.522	18812.62
877.764	18838.62
878.007	18784.62
878.249	18722.62
878.491	18708.62
878.734	18600.62
878.976	18678.62
879.218	18464.62
879.46	18392.62
879.702	18205.62
879.945	18053.62
880.187	17947.62
880.429	17924.62
880.671	17805.62
880.912	17774.62
881.154	17740.62
881.396	17568.62
881.638	17656.62
881.88	17623.62
882.121	17606.62
882.363	17634.62
882.605	17623.62
882.846	17489.62
883.088	17530.62
883.329	17507.62
883.571	17655.62
883.812	17690.62
884.053	17972.62
884.295	18392.62
884.536	18593.62
884.777	18451.62
885.018	18392.62
885.259	18365.62
885.5	18211.62
885.742	18392.62
885.982	18081.62
886.223	17906.62
886.464	17755.62
886.705	17581.62
886.946	17458.62
887.187	17030.62
887.428	16947.62
887.668	16630.62
887.909	16489.62
888.15	16305.62
888.39	16183.62
888.631	16127.62
888.871	16051.62
889.111	15881.62
889.352	15714.62
889.592	15556.62
889.833	15477.62
890.073	15433.62
890.313	15336.62
890.553	15200.62
890.793	15103.62
891.033	15105.62
891.273	15006.62
891.513	15047.62
891.753	14987.62
891.993	15001.62
892.233	15066.62
892.473	15055.62
892.713	15009.62
892.952	15016.62
893.192	15055.62
893.432	15086.62
893.671	15108.62
893.911	14995.62
894.15	14842.62
894.39	14767.62
894.629	14830.62
894.869	14664.62
895.108	14562.62
895.347	14567.62
895.587	14518.62
895.826	14421.62
896.065	14412.62
896.304	14533.62
896.543	14493.62
896.782	14369.62
897.021	14487.62
897.26	14342.62
897.499	14450.62
897.738	14449.62
897.977	14262.62
898.216	14198.62
898.454	14157.62
898.693	13997.62
898.932	14005.62
899.17	13925.62
899.409	13860.62
899.647	13878.62
899.886	13848.62
900.124	13975.62
900.363	13940.62
900.601	14096.62
900.839	13990.62
901.078	14066.62
901.316	14185.62
901.554	14267.62
901.792	14233.62
902.03	14317.62
902.268	14274.62
902.506	14301.62
902.744	14154.62
902.982	14052.62
903.22	13753.62
903.458	13566.62
903.695	13339.62
903.933	13171.62
904.171	12994.62
904.409	12669.62
904.646	12517.62
904.884	12358.62
905.121	12228.62
905.359	12106.62
905.596	11983.62
905.833	11818.62
906.071	11799.62
906.308	11802.62
906.545	11669.62
906.783	11574.62
907.02	11620.62
907.257	11494.62
907.494	11524.62
907.731	11506.62
907.968	11485.62
908.205	11401.62
908.442	11330.62
908.679	11233.62
908.915	11121.62
909.152	11033.62
909.389	10973.62
909.626	10828.62
909.862	10704.62
910.099	10810.62
910.335	10733.62
910.572	10675.62
910.808	10627.62
911.045	10603.62
911.281	10454.62
911.518	10661.62
911.754	10472.62
911.99	10441.62
912.226	10348.62
912.463	10180.62
912.699	10131.62
912.935	10043.62
913.171	9982.62
913.407	9919.62
913.643	9785.62
913.879	9753.62
914.114	9775.62
914.35	9550.62
914.586	9547.62
914.822	9432.62
915.057	9374.62
915.293	9266.62
915.529	9325.62
915.764	9344.62
916	9243.62
916.235	9197.62
916.471	9223.62
916.706	9130.62
916.941	9105.62
917.177	9156.62
917.412	9176.62
917.647	9073.62
917.882	9068.62
918.117	9187.62
918.352	9099.62
918.588	9124.62
918.823	8950.62
919.057	8903.62
919.292	8734.62
919.527	8724.62
919.762	8626.62
919.997	8677.62
920.232	8453.62
920.466	8423.62
920.701	8282.62
920.935	8263.62
921.17	8261.62
921.405	8154.62
921.639	8246.62
921.873	8135.62
922.108	8175.62
922.342	8064.62
922.576	7993.62
922.811	7993.62
923.045	8026.62
923.279	8011.62
923.513	7831.62
923.747	7925.62
923.981	7822.62
924.215	7747.62
924.449	7723.62
924.683	7616.62
924.917	7622.62
925.151	7604.62
925.385	7620.62
925.618	7588.62
925.852	7519.62
926.086	7496.62
926.319	7560.62
926.553	7592.62
926.786	7560.62
927.02	7475.62
927.253	7573.62
927.486	7567.62
927.72	7432.62
927.953	7447.62
928.186	7375.62
928.42	7389.62
928.653	7288.62
928.886	7277.62
929.119	7296.62
929.352	7221.62
929.585	7233.62
929.818	7154.62
930.051	7065.62
930.284	7057.62
930.516	6918.62
930.749	6960.62
930.982	6952.62
931.215	6875.62
931.447	6812.62
931.68	6813.62
931.912	6815.62
932.145	6813.62
932.377	6811.62
932.61	6958.62
932.842	6749.62
933.074	6790.62
933.307	6760.62
933.539	6807.62
933.771	6825.62
934.003	6709.62
934.236	6808.62
934.468	6848.62
934.7	6691.62
934.932	6702.62
935.164	6647.62
935.395	6675.62
935.627	6647.62
935.859	6619.62
936.091	6581.62
936.323	6611.62
936.554	6611.62
936.786	6515.62
937.017	6482.62
937.249	6442.62
937.481	6409.62
937.712	6526.62
937.943	6437.62
938.175	6446.62
938.406	6440.62
938.637	6423.62
938.869	6335.62
939.1	6420.62
939.331	6313.62
939.562	6341.62
939.793	6399.62
940.024	6301.62
940.255	6320.62
940.486	6250.62
940.717	6246.62
940.948	6210.62
941.179	6145.62
941.409	6170.62
941.64	6121.62
941.871	6120.62
942.102	6096.62
942.332	6061.62
942.563	6124.62
942.793	6113.62
943.024	6022.62
943.254	6081.62
943.484	6212.62
943.715	6064.62
943.945	6064.62
944.175	5969.62
944.405	5979.62
944.636	5959.62
944.866	6006.62
945.096	6037.62
945.326	5968.62
945.556	5993.62
945.786	5975.62
946.016	5920.62
946.245	5831.62
946.475	5824.62
946.705	5792.62
946.935	5771.62
947.164	5771.62
947.394	5702.62
947.624	5696.62
947.853	5696.62
948.083	5679.62
948.312	5597.62
948.542	5536.62
948.771	5500.62
949	5486.62
949.23	5514.62
949.459	5516.62
949.688	5559.62
949.917	5526.62
950.146	5474.62
950.375	5524.62
950.604	5419.62
950.833	5548.62
951.062	5468.62
951.291	5380.62
951.52	5389.62
951.749	5406.62
951.978	5365.62
952.206	5316.62
952.435	5312.62
952.664	5333.62
952.892	5369.62
953.121	5279.62
953.349	5312.62
953.578	5263.62
953.806	5213.62
954.035	5162.62
954.263	5166.62
954.491	5070.62
954.719	5108.62
954.948	5072.62
955.176	5015.62
955.404	4982.62
955.632	4975.62
955.86	5003.62
956.088	4995.62
956.316	5005.62
956.544	4980.62
956.772	4878.62
956.999	4886.62
957.227	4941.62
957.455	4817.62
957.683	4795.62
957.91	4738.62
958.138	4738.62
958.365	4743.62
958.593	4689.62
958.82	4631.62
959.048	4719.62
959.275	4640.62
959.502	4621.62
959.73	4575.62
959.957	4643.62
960.184	4663.62
960.411	4576.62
960.638	4678.62
960.865	4595.62
961.092	4596.62
961.319	4521.62
961.546	4585.62
961.773	4592.62
962	4579.62
962.227	4529.62
962.454	4504.62
962.68	4501.62
962.907	4497.62
963.134	4440.62
963.36	4397.62
963.587	4451.62
963.813	4349.62
964.04	4449.62
964.266	4343.62
964.493	4369.62
964.719	4279.62
964.945	4335.62
965.171	4234.62
965.398	4258.62
965.624	4250.62
965.85	4143.62
966.076	4178.62
966.302	4150.62
966.528	4162.62
966.754	4166.62
966.98	4133.62
967.206	4041.62
967.431	4035.62
967.657	4100.62
967.883	4072.62
968.109	4083.62
968.334	4000.62
968.56	4022.62
968.785	4011.62
969.011	3961.62
969.236	4054.62
969.462	3926.62
969.687	3885.62
969.912	3941.62
970.138	4020.62
970.363	3878.62
970.588	3908.62
970.813	3865.62
971.038	3834.62
971.263	3872.62
971.488	3817.62
971.713	3852.62
971.938	3831.62
972.163	3720.62
972.388	3756.62
972.613	3759.62
972.838	3772.62
973.062	3691.62
973.287	3703.62
973.512	3614.62
973.736	3641.62
973.961	3631.62
974.185	3591.62
974.41	3648.62
974.634	3496.62
974.858	3513.62
975.083	3538.62
975.307	3573.62
975.531	3457.62
975.755	3397.62
975.98	3405.62
976.204	3327.62
976.428	3330.62
976.652	3383.62
976.876	3293.62
977.1	3342.62
977.324	3292.62
977.547	3366.62
977.771	3329.62
977.995	3330.62
978.219	3262.62
978.442	3367.62
978.666	3288.62
978.89	3271.62
979.113	3267.62
979.337	3251.62
979.56	3223.62
979.783	3258.62
980.007	3180.62
980.23	3197.62
980.453	3180.62
980.677	3175.62
980.9	3174.62
981.123	3071.62
981.346	3178.62
981.569	3118.62
981.792	3096.62
982.015	3062.62
982.238	3023.62
982.461	3060.62
982.684	3018.62
982.907	2977.62
983.129	2953.62
983.352	3005.62
983.575	2956.62
983.797	2957.62
984.02	2899.62
984.242	2861.62
984.465	2927.62
984.687	2923.62
984.91	2933.62
985.132	2879.62
985.354	2891.62
985.577	2855.62
985.799	2862.62
986.021	2747.62
986.243	2808.62
986.465	2808.62
986.687	2837.62
986.909	2895.62
987.131	2794.62
987.353	2767.62
987.575	2813.62
987.797	2768.62
988.019	2684.62
988.241	2733.62
988.462	2674.62
988.684	2760.62
988.906	2718.62
989.127	2773.62
989.349	2634.62
989.57	2705.62
989.792	2725.62
990.013	2746.62
990.234	2704.62
990.456	2735.62
990.677	2710.62
990.898	2629.62
991.119	2642.62
991.341	2702.62
991.562	2607.62
991.783	2614.62
992.004	2571.62
992.225	2506.62
992.446	2598.62
992.667	2485.62
992.887	2570.62
993.108	2454.62
993.329	2555.62
993.55	2487.62
993.77	2412.62
993.991	2444.62
994.212	2468.62
994.432	2447.62
994.653	2462.62
994.873	2426.62
995.093	2310.62
995.314	2376.62
995.534	2451.62
995.754	2441.62
995.975	2451.62
996.195	2308.62
996.415	2400.62
996.635	2350.62
996.855	2395.62
997.075	2329.62
997.295	2322.62
997.515	2353.62
997.735	2379.62
997.955	2320.62
998.174	2308.62
998.394	2286.62
998.614	2326.62
998.834	2295.62
999.053	2326.62
999.273	2297.62
999.492	2343.62
999.712	2288.62
999.931	2244.62
1000.151	2279.62
1000.37	2236.62
1000.589	2318.62
1000.809	2218.62
1001.028	2331.62
1001.247	2219.62
1001.466	2110.62
1001.685	2275.62
1001.904	2208.62
1002.123	2169.62
1002.342	2199.62
1002.561	2125.62
1002.78	2151.62
1002.999	2209.62
1003.218	2141.62
1003.436	2111.62
1003.655	2152.62
1003.874	2080.62
1004.092	2163.62
1004.311	2122.62
1004.53	2102.62
1004.748	2176.62
1004.966	2091.62
1005.185	2135.62
1005.403	2122.62
1005.622	2104.62
1005.84	2154.62
1006.058	2028.62
1006.276	2065.62
1006.494	2589.62
1006.712	2105.62
1006.931	2155.62
1007.149	2066.62
1007.367	2097.62
1007.584	2123.62
1007.802	2132.62
1008.02	2108.62
1008.238	2187.62
1008.456	2163.62
1008.673	2055.62
1008.891	2181.62
1009.109	2172.62
1009.326	2244.62
1009.544	2359.62
1009.761	2266.62
1009.979	2344.62
1010.196	2436.62
1010.413	2571.62
1010.631	2652.62
1010.848	2709.62
1011.065	2708.62
1011.282	2686.62
1011.5	2618.62
1011.717	2734.62
1011.934	2641.62
1012.151	2668.62
1012.368	2683.62
1012.585	2608.62
1012.801	2667.62
1013.018	2623.62
1013.235	2641.62
1013.452	2620.62
1013.669	2701.62
1013.885	2620.62
1014.102	2670.62
1014.318	2682.62
1014.535	2617.62
1014.751	2619.62
1014.968	2628.62
1015.184	2640.62
1015.401	2516.62
1015.617	2585.62
1015.833	2504.62
1016.049	2565.62
1016.266	2472.62
1016.482	2486.62
1016.698	2424.62
1016.914	2437.62
1017.13	2383.62
1017.346	2403.62
1017.562	2434.62
1017.778	2372.62
1017.993	2329.62
1018.209	2381.62
1018.425	2323.62
1018.641	2353.62
1018.856	2298.62
1019.072	2339.62
1019.288	2432.62
1019.503	2334.62
1019.719	2238.62
1019.934	2252.62
1020.149	2315.62
1020.365	2232.62
1020.58	2216.62
1020.795	2240.62
1021.011	2134.62
1021.226	2069.62
1021.441	2108.62
1021.656	1970.62
1021.871	1916.62
1022.086	1880.62
1022.301	1899.62
1022.516	1865.62
1022.731	1889.62
1022.946	1795.62
1023.16	1757.62
1023.375	1710.62
1023.59	1672.62
1023.804	1638.62
1024.019	1756.62
1024.234	1584.62
1024.448	1581.62
1024.663	1542.62
1024.877	1514.62
1025.092	1538.62
1025.306	1523.62
1025.52	1387.62
1025.734	1497.62
1025.949	1404.62
1026.163	1349.62
1026.377	1271.62
1026.591	1310.62
1026.805	1226.62
1027.019	1220.62
1027.233	1183.62
1027.447	1144.62
1027.661	1216.62
1027.875	1137.62
1028.088	1162.62
1028.302	1056.62
1028.516	1030.62
1028.73	1031.62
1028.943	1015.62
1029.157	952.62
1029.37	890.62
1029.584	0.62
1029.797	0.62
1030.011	-1.38
1030.224	-3.38
