Data from QEP037381__17__15-12-05-855.txt Node

Date: Fri Dec 16 15:12:05 EST 2022
User: dcclab
Spectrometer: QEP03738
Trigger mode: 4
Integration Time (sec): 1.000000E1
Scans to average: 1
Electric dark correction enabled: true
Nonlinearity correction enabled: false
Boxcar width: 0
XAxis mode: Wavelengths
Number of Pixels in Spectrum: 1044
>>>>>Begin Spectral Data<<<<<
784.041	7.5
784.3	1.5
784.558	-3.5
784.817	-3.5
785.075	89823.5
785.334	15498.5
785.592	7249.5
785.851	5052.5
786.109	3812.5
786.368	3037.5
786.626	2453.5
786.884	2037.5
787.143	1713.5
787.401	1397.5
787.659	1296.5
787.917	1125.5
788.175	1053.5
788.433	916.5
788.691	839.5
788.949	774.5
789.207	737.5
789.465	664.5
789.723	644.5
789.98	573.5
790.238	619.5
790.496	605.5
790.753	549.5
791.011	605.5
791.268	542.5
791.526	523.5
791.783	543.5
792.041	522.5
792.298	455.5
792.556	525.5
792.813	504.5
793.07	481.5
793.327	463.5
793.584	556.5
793.841	480.5
794.099	500.5
794.356	552.5
794.613	475.5
794.869	502.5
795.126	455.5
795.383	447.5
795.64	463.5
795.897	414.5
796.153	469.5
796.41	472.5
796.667	451.5
796.923	464.5
797.18	477.5
797.436	477.5
797.693	446.5
797.949	507.5
798.206	528.5
798.462	465.5
798.718	517.5
798.974	516.5
799.231	554.5
799.487	527.5
799.743	551.5
799.999	598.5
800.255	573.5
800.511	579.5
800.767	644.5
801.023	650.5
801.279	675.5
801.534	724.5
801.79	797.5
802.046	871.5
802.302	1047.5
802.557	1252.5
802.813	1604.5
803.068	2002.5
803.324	2806.5
803.579	3936.5
803.835	5526.5
804.09	7633.5
804.345	10130.5
804.601	12842.5
804.856	15611.5
805.111	18063.5
805.366	19961.5
805.621	21346.5
805.876	22360.5
806.131	22884.5
806.386	23322.5
806.641	23716.5
806.896	24193.5
807.151	24671.5
807.406	25193.5
807.661	25591.5
807.915	25970.5
808.17	26414.5
808.425	26724.5
808.679	27063.5
808.934	27333.5
809.188	27676.5
809.443	27988.5
809.697	28376.5
809.951	28505.5
810.206	28938.5
810.46	29279.5
810.714	29582.5
810.968	29842.5
811.223	30088.5
811.477	30270.5
811.731	30610.5
811.985	30727.5
812.239	30985.5
812.493	31264.5
812.747	31272.5
813	31519.5
813.254	31897.5
813.508	32009.5
813.762	31881.5
814.015	32089.5
814.269	32419.5
814.522	32818.5
814.776	33156.5
815.03	33567.5
815.283	33986.5
815.536	34731.5
815.79	35135.5
816.043	35795.5
816.296	36307.5
816.55	36826.5
816.803	37236.5
817.056	37855.5
817.309	38149.5
817.562	38506.5
817.815	38976.5
818.068	39101.5
818.321	39630.5
818.574	40187.5
818.827	40877.5
819.079	41297.5
819.332	42076.5
819.585	42554.5
819.838	43173.5
820.09	43415.5
820.343	43811.5
820.595	44080.5
820.848	44395.5
821.1	44476.5
821.353	44719.5
821.605	44636.5
821.857	44583.5
822.11	44581.5
822.362	44401.5
822.614	44379.5
822.866	44367.5
823.118	44347.5
823.37	44662.5
823.622	44827.5
823.874	44937.5
824.126	44954.5
824.378	45094.5
824.63	45309.5
824.882	45246.5
825.134	45081.5
825.385	44992.5
825.637	44990.5
825.888	44826.5
826.14	44962.5
826.392	44786.5
826.643	44535.5
826.895	44611.5
827.146	44330.5
827.397	44311.5
827.649	44387.5
827.9	44286.5
828.151	44606.5
828.402	44646.5
828.653	44868.5
828.905	45042.5
829.156	45085.5
829.407	44889.5
829.658	45047.5
829.909	45100.5
830.159	44963.5
830.41	44852.5
830.661	44627.5
830.912	44507.5
831.162	44379.5
831.413	44261.5
831.664	44395.5
831.914	44184.5
832.165	44240.5
832.415	44370.5
832.666	44213.5
832.916	44491.5
833.167	44268.5
833.417	44249.5
833.667	44318.5
833.917	44091.5
834.168	43711.5
834.418	43590.5
834.668	43420.5
834.918	43386.5
835.168	43359.5
835.418	43098.5
835.668	42921.5
835.918	42989.5
836.167	43115.5
836.417	42778.5
836.667	42892.5
836.917	43036.5
837.166	42888.5
837.416	43025.5
837.666	42799.5
837.915	42882.5
838.165	42723.5
838.414	42622.5
838.663	42385.5
838.913	42412.5
839.162	42245.5
839.411	42407.5
839.661	42172.5
839.91	42163.5
840.159	42001.5
840.408	41907.5
840.657	42131.5
840.906	42247.5
841.155	42209.5
841.404	42388.5
841.653	42531.5
841.902	42653.5
842.15	42343.5
842.399	42228.5
842.648	42231.5
842.897	42147.5
843.145	41837.5
843.394	41691.5
843.642	41732.5
843.891	41341.5
844.139	41344.5
844.388	40969.5
844.636	40988.5
844.884	41013.5
845.133	40919.5
845.381	41033.5
845.629	40930.5
845.877	41024.5
846.125	40789.5
846.373	40741.5
846.621	40591.5
846.869	40577.5
847.117	40539.5
847.365	40415.5
847.613	40220.5
847.861	39858.5
848.108	39902.5
848.356	39710.5
848.604	39852.5
848.851	39811.5
849.099	39894.5
849.346	40009.5
849.594	40215.5
849.841	40308.5
850.089	40263.5
850.336	40360.5
850.583	40437.5
850.831	40227.5
851.078	40137.5
851.325	40021.5
851.572	40145.5
851.819	39530.5
852.066	39080.5
852.313	38566.5
852.56	38316.5
852.807	38048.5
853.054	38009.5
853.301	37962.5
853.548	37929.5
853.794	38148.5
854.041	38138.5
854.288	38393.5
854.534	38625.5
854.781	38591.5
855.028	38516.5
855.274	38411.5
855.52	38171.5
855.767	37954.5
856.013	38226.5
856.26	38404.5
856.506	37906.5
856.752	37902.5
856.998	38048.5
857.244	38113.5
857.49	38267.5
857.736	38231.5
857.982	38312.5
858.228	38389.5
858.474	38064.5
858.72	37706.5
858.966	37474.5
859.212	37201.5
859.458	36880.5
859.703	36389.5
859.949	36044.5
860.195	35846.5
860.44	35876.5
860.686	35599.5
860.931	35574.5
861.177	35468.5
861.422	35463.5
861.667	35364.5
861.913	35215.5
862.158	35367.5
862.403	35502.5
862.648	35493.5
862.893	35659.5
863.138	35696.5
863.384	35650.5
863.629	35735.5
863.873	35583.5
864.118	35295.5
864.363	35266.5
864.608	35249.5
864.853	35030.5
865.098	35034.5
865.342	34932.5
865.587	34832.5
865.832	34868.5
866.076	34842.5
866.321	34455.5
866.565	34568.5
866.81	34277.5
867.054	34318.5
867.298	34145.5
867.543	34118.5
867.787	34038.5
868.031	34029.5
868.275	34068.5
868.519	33969.5
868.764	33753.5
869.008	33743.5
869.252	33691.5
869.496	33587.5
869.739	33580.5
869.983	33521.5
870.227	33608.5
870.471	33437.5
870.715	33557.5
870.958	33586.5
871.202	33478.5
871.446	33683.5
871.689	33716.5
871.933	33682.5
872.176	33714.5
872.42	33714.5
872.663	33643.5
872.906	33491.5
873.15	33175.5
873.393	33003.5
873.636	32707.5
873.879	32533.5
874.122	32254.5
874.366	31954.5
874.609	31787.5
874.852	31551.5
875.095	31519.5
875.337	31461.5
875.58	31265.5
875.823	31264.5
876.066	31315.5
876.309	31130.5
876.551	30950.5
876.794	30762.5
877.037	30787.5
877.279	30758.5
877.522	30894.5
877.764	30865.5
878.007	30728.5
878.249	30681.5
878.491	30606.5
878.734	30584.5
878.976	30634.5
879.218	30392.5
879.46	30223.5
879.702	30074.5
879.945	29917.5
880.187	29636.5
880.429	29424.5
880.671	29342.5
880.912	29381.5
881.154	29283.5
881.396	29149.5
881.638	29382.5
881.88	29331.5
882.121	29329.5
882.363	29180.5
882.605	29080.5
882.846	28913.5
883.088	28836.5
883.329	28855.5
883.571	28722.5
883.812	28807.5
884.053	28966.5
884.295	29096.5
884.536	29302.5
884.777	29322.5
885.018	29265.5
885.259	29239.5
885.5	29078.5
885.742	29288.5
885.982	29026.5
886.223	28976.5
886.464	28920.5
886.705	28598.5
886.946	28444.5
887.187	28159.5
887.428	27864.5
887.668	27565.5
887.909	27351.5
888.15	27043.5
888.39	26938.5
888.631	26813.5
888.871	26536.5
889.111	26572.5
889.352	26520.5
889.592	26171.5
889.833	26001.5
890.073	25840.5
890.313	25586.5
890.553	25484.5
890.793	25351.5
891.033	25366.5
891.273	25217.5
891.513	25131.5
891.753	25166.5
891.993	25158.5
892.233	25123.5
892.473	25309.5
892.713	25258.5
892.952	25057.5
893.192	25056.5
893.432	24986.5
893.671	25102.5
893.911	24841.5
894.15	24826.5
894.39	24567.5
894.629	24491.5
894.869	24340.5
895.108	24320.5
895.347	24254.5
895.587	24187.5
895.826	24022.5
896.065	24015.5
896.304	23987.5
896.543	24086.5
896.782	23984.5
897.021	23847.5
897.26	23839.5
897.499	23807.5
897.738	23838.5
897.977	23587.5
898.216	23468.5
898.454	23366.5
898.693	23230.5
898.932	23133.5
899.17	22950.5
899.409	22914.5
899.647	22914.5
899.886	22801.5
900.124	23031.5
900.363	22920.5
900.601	23011.5
900.839	22837.5
901.078	23015.5
901.316	22994.5
901.554	23039.5
901.792	23098.5
902.03	23041.5
902.268	23045.5
902.506	22960.5
902.744	22872.5
902.982	22779.5
903.22	22513.5
903.458	22165.5
903.695	21820.5
903.933	21583.5
904.171	21201.5
904.409	21026.5
904.646	20849.5
904.884	20482.5
905.121	20456.5
905.359	20210.5
905.596	19923.5
905.833	19713.5
906.071	19657.5
906.308	19601.5
906.545	19601.5
906.783	19578.5
907.02	19558.5
907.257	19371.5
907.494	19310.5
907.731	19334.5
907.968	19137.5
908.205	19021.5
908.442	18791.5
908.679	18824.5
908.915	18645.5
909.152	18485.5
909.389	18267.5
909.626	18174.5
909.862	18180.5
910.099	18049.5
910.335	18115.5
910.572	18041.5
910.808	17892.5
911.045	17829.5
911.281	17800.5
911.518	17844.5
911.754	17752.5
911.99	17582.5
912.226	17316.5
912.463	17220.5
912.699	17097.5
912.935	17034.5
913.171	16880.5
913.407	16733.5
913.643	16612.5
913.879	16537.5
914.114	16400.5
914.35	16251.5
914.586	16245.5
914.822	16053.5
915.057	16037.5
915.293	15776.5
915.529	15724.5
915.764	15823.5
916	15829.5
916.235	15678.5
916.471	15645.5
916.706	15576.5
916.941	15569.5
917.177	15535.5
917.412	15666.5
917.647	15506.5
917.882	15540.5
918.117	15544.5
918.352	15507.5
918.588	15512.5
918.823	15225.5
919.057	15065.5
919.292	14903.5
919.527	14903.5
919.762	14788.5
919.997	14700.5
920.232	14455.5
920.466	14415.5
920.701	14225.5
920.935	14174.5
921.17	14023.5
921.405	13962.5
921.639	13958.5
921.873	13937.5
922.108	13820.5
922.342	13775.5
922.576	13703.5
922.811	13737.5
923.045	13724.5
923.279	13718.5
923.513	13515.5
923.747	13497.5
923.981	13425.5
924.215	13329.5
924.449	13289.5
924.683	13128.5
924.917	13040.5
925.151	13053.5
925.385	13152.5
925.618	13038.5
925.852	12962.5
926.086	12886.5
926.319	12990.5
926.553	12949.5
926.786	12957.5
927.02	12915.5
927.253	13049.5
927.486	12958.5
927.72	12767.5
927.953	12885.5
928.186	12772.5
928.42	12753.5
928.653	12658.5
928.886	12577.5
929.119	12576.5
929.352	12521.5
929.585	12391.5
929.818	12277.5
930.051	12258.5
930.284	12154.5
930.516	12064.5
930.749	11928.5
930.982	11902.5
931.215	11865.5
931.447	11814.5
931.68	11767.5
931.912	11716.5
932.145	11762.5
932.377	11759.5
932.61	11840.5
932.842	11684.5
933.074	11773.5
933.307	11710.5
933.539	11772.5
933.771	11721.5
934.003	11627.5
934.236	11780.5
934.468	11739.5
934.7	11547.5
934.932	11628.5
935.164	11500.5
935.395	11538.5
935.627	11458.5
935.859	11472.5
936.091	11470.5
936.323	11313.5
936.554	11361.5
936.786	11306.5
937.017	11280.5
937.249	11317.5
937.481	11228.5
937.712	11207.5
937.943	11152.5
938.175	11122.5
938.406	11047.5
938.637	11164.5
938.869	11058.5
939.1	11000.5
939.331	11000.5
939.562	11009.5
939.793	10920.5
940.024	10840.5
940.255	10849.5
940.486	10717.5
940.717	10709.5
940.948	10638.5
941.179	10528.5
941.409	10717.5
941.64	10647.5
941.871	10644.5
942.102	10586.5
942.332	10620.5
942.563	10590.5
942.793	10556.5
943.024	10526.5
943.254	10577.5
943.484	10574.5
943.715	10548.5
943.945	10474.5
944.175	10402.5
944.405	10382.5
944.636	10438.5
944.866	10436.5
945.096	10460.5
945.326	10376.5
945.556	10465.5
945.786	10371.5
946.016	10220.5
946.245	10153.5
946.475	10122.5
946.705	10062.5
946.935	10076.5
947.164	9970.5
947.394	9879.5
947.624	9890.5
947.853	9834.5
948.083	9793.5
948.312	9719.5
948.542	9643.5
948.771	9621.5
949	9585.5
949.23	9577.5
949.459	9609.5
949.688	9557.5
949.917	9618.5
950.146	9553.5
950.375	9619.5
950.604	9457.5
950.833	9531.5
951.062	9556.5
951.291	9484.5
951.52	9402.5
951.749	9400.5
951.978	9270.5
952.206	9291.5
952.435	9241.5
952.664	9276.5
952.892	9303.5
953.121	9190.5
953.349	9176.5
953.578	9134.5
953.806	9114.5
954.035	9024.5
954.263	8972.5
954.491	8917.5
954.719	8869.5
954.948	8862.5
955.176	8827.5
955.404	8773.5
955.632	8801.5
955.86	8698.5
956.088	8667.5
956.316	8670.5
956.544	8649.5
956.772	8523.5
956.999	8490.5
957.227	8422.5
957.455	8371.5
957.683	8334.5
957.91	8299.5
958.138	8294.5
958.365	8201.5
958.593	8190.5
958.82	8067.5
959.048	8135.5
959.275	8037.5
959.502	8035.5
959.73	8028.5
959.957	8085.5
960.184	8037.5
960.411	7943.5
960.638	8035.5
960.865	7924.5
961.092	7930.5
961.319	7866.5
961.546	7911.5
961.773	7915.5
962	7835.5
962.227	7991.5
962.454	7845.5
962.68	7797.5
962.907	7770.5
963.134	7695.5
963.36	7674.5
963.587	7632.5
963.813	7607.5
964.04	7590.5
964.266	7421.5
964.493	7523.5
964.719	7430.5
964.945	7422.5
965.171	7254.5
965.398	7318.5
965.624	7383.5
965.85	7198.5
966.076	7207.5
966.302	7183.5
966.528	7111.5
966.754	7144.5
966.98	7061.5
967.206	7033.5
967.431	6929.5
967.657	6970.5
967.883	6981.5
968.109	6903.5
968.334	6933.5
968.56	6863.5
968.785	6879.5
969.011	6808.5
969.236	6880.5
969.462	6752.5
969.687	6785.5
969.912	6851.5
970.138	6797.5
970.363	6693.5
970.588	6729.5
970.813	6685.5
971.038	6639.5
971.263	6620.5
971.488	6606.5
971.713	6634.5
971.938	6545.5
972.163	6435.5
972.388	6392.5
972.613	6374.5
972.838	6409.5
973.062	6407.5
973.287	6344.5
973.512	6291.5
973.736	6267.5
973.961	6240.5
974.185	6220.5
974.41	6153.5
974.634	6102.5
974.858	6067.5
975.083	6062.5
975.307	6025.5
975.531	5982.5
975.755	5866.5
975.98	5867.5
976.204	5794.5
976.428	5779.5
976.652	5784.5
976.876	5787.5
977.1	5712.5
977.324	5639.5
977.547	5665.5
977.771	5691.5
977.995	5672.5
978.219	5613.5
978.442	5648.5
978.666	5592.5
978.89	5599.5
979.113	5566.5
979.337	5541.5
979.56	5532.5
979.783	5568.5
980.007	5408.5
980.23	5444.5
980.453	5441.5
980.677	5428.5
980.9	5380.5
981.123	5291.5
981.346	5324.5
981.569	5296.5
981.792	5295.5
982.015	5242.5
982.238	5191.5
982.461	5146.5
982.684	5098.5
982.907	5023.5
983.129	5030.5
983.352	5065.5
983.575	4993.5
983.797	4973.5
984.02	4904.5
984.242	4923.5
984.465	4900.5
984.687	4890.5
984.91	4886.5
985.132	4819.5
985.354	4802.5
985.577	4760.5
985.799	4728.5
986.021	4673.5
986.243	4674.5
986.465	4652.5
986.687	4738.5
986.909	4749.5
987.131	4656.5
987.353	4565.5
987.575	4627.5
987.797	4589.5
988.019	4488.5
988.241	4501.5
988.462	4490.5
988.684	4577.5
988.906	4532.5
989.127	4525.5
989.349	4401.5
989.57	4448.5
989.792	4513.5
990.013	4443.5
990.234	4463.5
990.456	4440.5
990.677	4414.5
990.898	4290.5
991.119	4350.5
991.341	4372.5
991.562	4262.5
991.783	4281.5
992.004	4199.5
992.225	4154.5
992.446	4225.5
992.667	4127.5
992.887	4139.5
993.108	4037.5
993.329	4119.5
993.55	4060.5
993.77	3966.5
993.991	3965.5
994.212	3947.5
994.432	3894.5
994.653	3909.5
994.873	3856.5
995.093	3739.5
995.314	3793.5
995.534	3852.5
995.754	3844.5
995.975	3858.5
996.195	3748.5
996.415	3802.5
996.635	3753.5
996.855	3741.5
997.075	3700.5
997.295	3652.5
997.515	3624.5
997.735	3756.5
997.955	3680.5
998.174	3672.5
998.394	3683.5
998.614	3662.5
998.834	3613.5
999.053	3659.5
999.273	3640.5
999.492	3645.5
999.712	3540.5
999.931	3562.5
1000.151	3554.5
1000.37	3461.5
1000.589	3540.5
1000.809	3454.5
1001.028	3524.5
1001.247	3481.5
1001.466	3343.5
1001.685	3460.5
1001.904	3430.5
1002.123	3394.5
1002.342	3340.5
1002.561	3311.5
1002.78	3288.5
1002.999	3336.5
1003.218	3261.5
1003.436	3233.5
1003.655	3243.5
1003.874	3186.5
1004.092	3199.5
1004.311	3264.5
1004.53	3203.5
1004.748	3256.5
1004.966	3132.5
1005.185	3178.5
1005.403	3165.5
1005.622	3133.5
1005.84	3225.5
1006.058	3077.5
1006.276	3103.5
1006.494	3612.5
1006.712	3102.5
1006.931	3156.5
1007.149	3059.5
1007.367	3078.5
1007.584	3088.5
1007.802	3106.5
1008.02	3099.5
1008.238	3157.5
1008.456	3195.5
1008.673	3045.5
1008.891	3153.5
1009.109	3111.5
1009.326	3164.5
1009.544	3241.5
1009.761	3133.5
1009.979	3293.5
1010.196	3317.5
1010.413	3395.5
1010.631	3463.5
1010.848	3507.5
1011.065	3570.5
1011.282	3524.5
1011.5	3433.5
1011.717	3554.5
1011.934	3417.5
1012.151	3484.5
1012.368	3491.5
1012.585	3434.5
1012.801	3467.5
1013.018	3432.5
1013.235	3462.5
1013.452	3507.5
1013.669	3495.5
1013.885	3478.5
1014.102	3468.5
1014.318	3407.5
1014.535	3371.5
1014.751	3422.5
1014.968	3418.5
1015.184	3374.5
1015.401	3244.5
1015.617	3278.5
1015.833	3233.5
1016.049	3238.5
1016.266	3191.5
1016.482	3180.5
1016.698	3060.5
1016.914	3140.5
1017.13	3077.5
1017.346	3062.5
1017.562	3103.5
1017.778	3041.5
1017.993	3002.5
1018.209	3039.5
1018.425	3046.5
1018.641	3018.5
1018.856	2986.5
1019.072	2989.5
1019.288	3054.5
1019.503	3009.5
1019.719	2910.5
1019.934	2932.5
1020.149	2990.5
1020.365	2905.5
1020.58	2854.5
1020.795	2880.5
1021.011	2792.5
1021.226	2743.5
1021.441	2721.5
1021.656	2605.5
1021.871	2536.5
1022.086	2511.5
1022.301	2465.5
1022.516	2470.5
1022.731	2475.5
1022.946	2374.5
1023.16	2319.5
1023.375	2296.5
1023.59	2273.5
1023.804	2211.5
1024.019	2294.5
1024.234	2094.5
1024.448	2139.5
1024.663	2077.5
1024.877	2045.5
1025.092	2037.5
1025.306	2025.5
1025.52	1902.5
1025.734	1952.5
1025.949	1841.5
1026.163	1799.5
1026.377	1719.5
1026.591	1776.5
1026.805	1687.5
1027.019	1657.5
1027.233	1620.5
1027.447	1550.5
1027.661	1652.5
1027.875	1532.5
1028.088	1519.5
1028.302	1451.5
1028.516	1405.5
1028.73	1384.5
1028.943	1325.5
1029.157	1279.5
1029.37	1194.5
1029.584	-0.5
1029.797	1.5
1030.011	-0.5
1030.224	-2.5
