Data from QEP037381__43__15-16-25-857.txt Node

Date: Fri Dec 16 15:16:25 EST 2022
User: dcclab
Spectrometer: QEP03738
Trigger mode: 4
Integration Time (sec): 1.000000E1
Scans to average: 1
Electric dark correction enabled: true
Nonlinearity correction enabled: false
Boxcar width: 0
XAxis mode: Wavelengths
Number of Pixels in Spectrum: 1044
>>>>>Begin Spectral Data<<<<<
784.041	12.5
784.3	-0.5
784.558	-4.5
784.817	-3.5
785.075	89673.5
785.334	15589.5
785.592	7309.5
785.851	5105.5
786.109	3823.5
786.368	2986.5
786.626	2389.5
786.884	2016.5
787.143	1724.5
787.401	1410.5
787.659	1279.5
787.917	1117.5
788.175	1001.5
788.433	885.5
788.691	800.5
788.949	757.5
789.207	729.5
789.465	623.5
789.723	627.5
789.98	565.5
790.238	597.5
790.496	553.5
790.753	544.5
791.011	590.5
791.268	523.5
791.526	525.5
791.783	528.5
792.041	524.5
792.298	437.5
792.556	489.5
792.813	488.5
793.07	457.5
793.327	439.5
793.584	523.5
793.841	430.5
794.099	465.5
794.356	521.5
794.613	436.5
794.869	468.5
795.126	442.5
795.383	402.5
795.64	438.5
795.897	398.5
796.153	451.5
796.41	436.5
796.667	425.5
796.923	449.5
797.18	441.5
797.436	462.5
797.693	428.5
797.949	462.5
798.206	501.5
798.462	421.5
798.718	476.5
798.974	459.5
799.231	504.5
799.487	493.5
799.743	499.5
799.999	536.5
800.255	526.5
800.511	510.5
800.767	547.5
801.023	554.5
801.279	583.5
801.534	619.5
801.79	704.5
802.046	715.5
802.302	858.5
802.557	997.5
802.813	1226.5
803.068	1530.5
803.324	2153.5
803.579	2898.5
803.835	4069.5
804.09	5615.5
804.345	7351.5
804.601	9360.5
804.856	11399.5
805.111	13212.5
805.366	14502.5
805.621	15621.5
805.876	16286.5
806.131	16769.5
806.386	17122.5
806.641	17368.5
806.896	17783.5
807.151	18021.5
807.406	18334.5
807.661	18720.5
807.915	19063.5
808.17	19347.5
808.425	19594.5
808.679	19799.5
808.934	20089.5
809.188	20232.5
809.443	20477.5
809.697	20739.5
809.951	20945.5
810.206	21021.5
810.46	21365.5
810.714	21505.5
810.968	21823.5
811.223	21918.5
811.477	22221.5
811.731	22344.5
811.985	22416.5
812.239	22581.5
812.493	22686.5
812.747	22787.5
813	22786.5
813.254	22906.5
813.508	23165.5
813.762	23220.5
814.015	23370.5
814.269	23541.5
814.522	23827.5
814.776	24040.5
815.03	24393.5
815.283	24672.5
815.536	25146.5
815.79	25446.5
816.043	25799.5
816.296	26131.5
816.55	26599.5
816.803	26922.5
817.056	27337.5
817.309	27507.5
817.562	27765.5
817.815	28074.5
818.068	28222.5
818.321	28774.5
818.574	29054.5
818.827	29334.5
819.079	29733.5
819.332	30344.5
819.585	30496.5
819.838	30974.5
820.09	31080.5
820.343	31392.5
820.595	31605.5
820.848	31890.5
821.1	32044.5
821.353	32061.5
821.605	31988.5
821.857	31997.5
822.11	31865.5
822.362	31864.5
822.614	31811.5
822.866	31838.5
823.118	31797.5
823.37	31902.5
823.622	32097.5
823.874	32165.5
824.126	32317.5
824.378	32404.5
824.63	32464.5
824.882	32529.5
825.134	32544.5
825.385	32547.5
825.637	32398.5
825.888	32334.5
826.14	32323.5
826.392	32204.5
826.643	32001.5
826.895	31944.5
827.146	31774.5
827.397	31794.5
827.649	31868.5
827.9	31767.5
828.151	31760.5
828.402	31771.5
828.653	31928.5
828.905	32054.5
829.156	32139.5
829.407	32182.5
829.658	32182.5
829.909	32219.5
830.159	32261.5
830.41	32156.5
830.661	31830.5
830.912	31825.5
831.162	31587.5
831.413	31541.5
831.664	31714.5
831.914	31640.5
832.165	31469.5
832.415	31532.5
832.666	31425.5
832.916	31584.5
833.167	31622.5
833.417	31442.5
833.667	31503.5
833.917	31425.5
834.168	31261.5
834.418	31274.5
834.668	31043.5
834.918	30830.5
835.168	30868.5
835.418	30773.5
835.668	30681.5
835.918	30712.5
836.167	30600.5
836.417	30484.5
836.667	30401.5
836.917	30374.5
837.166	30392.5
837.416	30415.5
837.666	30343.5
837.915	30299.5
838.165	30289.5
838.414	30223.5
838.663	30093.5
838.913	30165.5
839.162	29966.5
839.411	30083.5
839.661	29994.5
839.91	29844.5
840.159	29839.5
840.408	29686.5
840.657	29780.5
840.906	29828.5
841.155	29906.5
841.404	29922.5
841.653	29761.5
841.902	29947.5
842.15	29791.5
842.399	29892.5
842.648	30010.5
842.897	29945.5
843.145	29678.5
843.394	29510.5
843.642	29299.5
843.891	29209.5
844.139	29242.5
844.388	28875.5
844.636	28819.5
844.884	28827.5
845.133	28805.5
845.381	28820.5
845.629	28863.5
845.877	28816.5
846.125	28722.5
846.373	28714.5
846.621	28609.5
846.869	28471.5
847.117	28268.5
847.365	28127.5
847.613	28096.5
847.861	27946.5
848.108	27906.5
848.356	27956.5
848.604	27905.5
848.851	27855.5
849.099	27945.5
849.346	27971.5
849.594	28135.5
849.841	28234.5
850.089	28314.5
850.336	28206.5
850.583	28217.5
850.831	28183.5
851.078	28042.5
851.325	28008.5
851.572	28198.5
851.819	27789.5
852.066	27332.5
852.313	26993.5
852.56	26911.5
852.807	26789.5
853.054	26591.5
853.301	26541.5
853.548	26615.5
853.794	26906.5
854.041	26789.5
854.288	26976.5
854.534	27203.5
854.781	27190.5
855.028	27100.5
855.274	27001.5
855.52	26912.5
855.767	26859.5
856.013	26799.5
856.26	27146.5
856.506	26587.5
856.752	26565.5
856.998	26648.5
857.244	26567.5
857.49	26714.5
857.736	26900.5
857.982	26990.5
858.228	26848.5
858.474	26611.5
858.72	26485.5
858.966	26235.5
859.212	25930.5
859.458	25668.5
859.703	25485.5
859.949	25164.5
860.195	25102.5
860.44	24975.5
860.686	24911.5
860.931	24869.5
861.177	24863.5
861.422	24675.5
861.667	24460.5
861.913	24533.5
862.158	24649.5
862.403	24692.5
862.648	24820.5
862.893	24876.5
863.138	24751.5
863.384	24801.5
863.629	24755.5
863.873	24659.5
864.118	24599.5
864.363	24527.5
864.608	24397.5
864.853	24292.5
865.098	24312.5
865.342	24136.5
865.587	24112.5
865.832	24012.5
866.076	24050.5
866.321	23983.5
866.565	23943.5
866.81	23723.5
867.054	23775.5
867.298	23628.5
867.543	23623.5
867.787	23785.5
868.031	23545.5
868.275	23410.5
868.519	23454.5
868.764	23441.5
869.008	23451.5
869.252	23337.5
869.496	23353.5
869.739	23363.5
869.983	23344.5
870.227	23210.5
870.471	23354.5
870.715	23420.5
870.958	23448.5
871.202	23427.5
871.446	23578.5
871.689	23550.5
871.933	23611.5
872.176	23514.5
872.42	23580.5
872.663	23428.5
872.906	23432.5
873.15	23319.5
873.393	23231.5
873.636	23154.5
873.879	22976.5
874.122	22795.5
874.366	22398.5
874.609	22290.5
874.852	22067.5
875.095	21983.5
875.337	21950.5
875.58	21775.5
875.823	21727.5
876.066	21822.5
876.309	21713.5
876.551	21576.5
876.794	21456.5
877.037	21517.5
877.279	21330.5
877.522	21264.5
877.764	21407.5
878.007	21314.5
878.249	21333.5
878.491	21238.5
878.734	21272.5
878.976	21225.5
879.218	21049.5
879.46	21005.5
879.702	20779.5
879.945	20597.5
880.187	20545.5
880.429	20324.5
880.671	20355.5
880.912	20293.5
881.154	20199.5
881.396	20205.5
881.638	20166.5
881.88	20157.5
882.121	20071.5
882.363	20054.5
882.605	20146.5
882.846	20048.5
883.088	20037.5
883.329	19898.5
883.571	20045.5
883.812	20146.5
884.053	20423.5
884.295	20842.5
884.536	21069.5
884.777	20804.5
885.018	20764.5
885.259	20695.5
885.5	20567.5
885.742	20829.5
885.982	20446.5
886.223	20366.5
886.464	20234.5
886.705	20074.5
886.946	19818.5
887.187	19580.5
887.428	19408.5
887.668	19182.5
887.909	18962.5
888.15	18744.5
888.39	18547.5
888.631	18446.5
888.871	18306.5
889.111	18261.5
889.352	18146.5
889.592	17879.5
889.833	17759.5
890.073	17796.5
890.313	17663.5
890.553	17435.5
890.793	17528.5
891.033	17476.5
891.273	17302.5
891.513	17297.5
891.753	17253.5
891.993	17162.5
892.233	17303.5
892.473	17393.5
892.713	17333.5
892.952	17297.5
893.192	17401.5
893.432	17250.5
893.671	17372.5
893.911	17262.5
894.15	17140.5
894.39	17024.5
894.629	16977.5
894.869	16884.5
895.108	16756.5
895.347	16709.5
895.587	16702.5
895.826	16739.5
896.065	16620.5
896.304	16668.5
896.543	16637.5
896.782	16540.5
897.021	16575.5
897.26	16467.5
897.499	16636.5
897.738	16516.5
897.977	16373.5
898.216	16322.5
898.454	16150.5
898.693	16114.5
898.932	16105.5
899.17	16023.5
899.409	16082.5
899.647	16063.5
899.886	16031.5
900.124	16076.5
900.363	16069.5
900.601	16034.5
900.839	16109.5
901.078	16168.5
901.316	16164.5
901.554	16285.5
901.792	16387.5
902.03	16308.5
902.268	16325.5
902.506	16221.5
902.744	16221.5
902.982	16057.5
903.22	15809.5
903.458	15597.5
903.695	15409.5
903.933	15143.5
904.171	14918.5
904.409	14615.5
904.646	14512.5
904.884	14329.5
905.121	14124.5
905.359	13902.5
905.596	13914.5
905.833	13701.5
906.071	13614.5
906.308	13621.5
906.545	13495.5
906.783	13528.5
907.02	13520.5
907.257	13376.5
907.494	13320.5
907.731	13344.5
907.968	13253.5
908.205	13171.5
908.442	13014.5
908.679	13055.5
908.915	12859.5
909.152	12840.5
909.389	12643.5
909.626	12623.5
909.862	12469.5
910.099	12468.5
910.335	12422.5
910.572	12302.5
910.808	12368.5
911.045	12242.5
911.281	12139.5
911.518	12226.5
911.754	12100.5
911.99	12020.5
912.226	11976.5
912.463	11873.5
912.699	11768.5
912.935	11673.5
913.171	11584.5
913.407	11453.5
913.643	11505.5
913.879	11297.5
914.114	11178.5
914.35	11170.5
914.586	11100.5
914.822	10961.5
915.057	10924.5
915.293	10803.5
915.529	10732.5
915.764	10848.5
916	10793.5
916.235	10723.5
916.471	10689.5
916.706	10610.5
916.941	10591.5
917.177	10600.5
917.412	10611.5
917.647	10604.5
917.882	10628.5
918.117	10591.5
918.352	10496.5
918.588	10546.5
918.823	10402.5
919.057	10313.5
919.292	10131.5
919.527	10202.5
919.762	10080.5
919.997	9912.5
920.232	9805.5
920.466	9814.5
920.701	9650.5
920.935	9568.5
921.17	9590.5
921.405	9458.5
921.639	9591.5
921.873	9498.5
922.108	9421.5
922.342	9423.5
922.576	9320.5
922.811	9375.5
923.045	9314.5
923.279	9337.5
923.513	9174.5
923.747	9200.5
923.981	9055.5
924.215	8974.5
924.449	8953.5
924.683	8867.5
924.917	8882.5
925.151	8875.5
925.385	8879.5
925.618	8797.5
925.852	8804.5
926.086	8733.5
926.319	8739.5
926.553	8763.5
926.786	8745.5
927.02	8719.5
927.253	8673.5
927.486	8740.5
927.72	8592.5
927.953	8705.5
928.186	8624.5
928.42	8646.5
928.653	8548.5
928.886	8465.5
929.119	8442.5
929.352	8456.5
929.585	8434.5
929.818	8341.5
930.051	8328.5
930.284	8238.5
930.516	8151.5
930.749	8082.5
930.982	8082.5
931.215	8091.5
931.447	7929.5
931.68	8012.5
931.912	7913.5
932.145	7884.5
932.377	7963.5
932.61	8048.5
932.842	7857.5
933.074	7947.5
933.307	7847.5
933.539	7956.5
933.771	8004.5
934.003	7860.5
934.236	7879.5
934.468	7921.5
934.7	7825.5
934.932	7872.5
935.164	7734.5
935.395	7769.5
935.627	7741.5
935.859	7733.5
936.091	7660.5
936.323	7661.5
936.554	7690.5
936.786	7639.5
937.017	7507.5
937.249	7560.5
937.481	7527.5
937.712	7615.5
937.943	7566.5
938.175	7485.5
938.406	7447.5
938.637	7516.5
938.869	7454.5
939.1	7447.5
939.331	7378.5
939.562	7379.5
939.793	7361.5
940.024	7373.5
940.255	7311.5
940.486	7259.5
940.717	7193.5
940.948	7212.5
941.179	7197.5
941.409	7191.5
941.64	7190.5
941.871	7147.5
942.102	7140.5
942.332	7074.5
942.563	7139.5
942.793	7124.5
943.024	7068.5
943.254	7117.5
943.484	7163.5
943.715	7145.5
943.945	7083.5
944.175	7015.5
944.405	7075.5
944.636	7031.5
944.866	7105.5
945.096	7103.5
945.326	6955.5
945.556	7020.5
945.786	6961.5
946.016	6925.5
946.245	6824.5
946.475	6750.5
946.705	6734.5
946.935	6718.5
947.164	6689.5
947.394	6632.5
947.624	6577.5
947.853	6551.5
948.083	6610.5
948.312	6507.5
948.542	6467.5
948.771	6418.5
949	6466.5
949.23	6405.5
949.459	6463.5
949.688	6489.5
949.917	6390.5
950.146	6339.5
950.375	6460.5
950.604	6328.5
950.833	6447.5
951.062	6410.5
951.291	6387.5
951.52	6326.5
951.749	6314.5
951.978	6303.5
952.206	6249.5
952.435	6212.5
952.664	6243.5
952.892	6234.5
953.121	6191.5
953.349	6200.5
953.578	6144.5
953.806	6067.5
954.035	6082.5
954.263	6043.5
954.491	5970.5
954.719	5979.5
954.948	5974.5
955.176	5886.5
955.404	5836.5
955.632	5861.5
955.86	5854.5
956.088	5807.5
956.316	5827.5
956.544	5824.5
956.772	5732.5
956.999	5736.5
957.227	5736.5
957.455	5641.5
957.683	5646.5
957.91	5522.5
958.138	5531.5
958.365	5498.5
958.593	5446.5
958.82	5408.5
959.048	5519.5
959.275	5457.5
959.502	5443.5
959.73	5409.5
959.957	5397.5
960.184	5421.5
960.411	5357.5
960.638	5445.5
960.865	5392.5
961.092	5389.5
961.319	5265.5
961.546	5343.5
961.773	5365.5
962	5259.5
962.227	5331.5
962.454	5268.5
962.68	5275.5
962.907	5212.5
963.134	5209.5
963.36	5180.5
963.587	5150.5
963.813	5073.5
964.04	5087.5
964.266	5037.5
964.493	5092.5
964.719	5043.5
964.945	5044.5
965.171	4933.5
965.398	4968.5
965.624	4952.5
965.85	4857.5
966.076	4865.5
966.302	4852.5
966.528	4811.5
966.754	4768.5
966.98	4812.5
967.206	4804.5
967.431	4724.5
967.657	4785.5
967.883	4728.5
968.109	4757.5
968.334	4649.5
968.56	4640.5
968.785	4645.5
969.011	4598.5
969.236	4633.5
969.462	4610.5
969.687	4636.5
969.912	4619.5
970.138	4575.5
970.363	4549.5
970.588	4517.5
970.813	4506.5
971.038	4461.5
971.263	4510.5
971.488	4478.5
971.713	4491.5
971.938	4452.5
972.163	4383.5
972.388	4386.5
972.613	4347.5
972.838	4388.5
973.062	4312.5
973.287	4316.5
973.512	4211.5
973.736	4241.5
973.961	4252.5
974.185	4142.5
974.41	4222.5
974.634	4117.5
974.858	4107.5
975.083	4119.5
975.307	4122.5
975.531	4046.5
975.755	4002.5
975.98	4001.5
976.204	3927.5
976.428	3933.5
976.652	3915.5
976.876	3906.5
977.1	3909.5
977.324	3874.5
977.547	3896.5
977.771	3873.5
977.995	3844.5
978.219	3790.5
978.442	3900.5
978.666	3848.5
978.89	3824.5
979.113	3780.5
979.337	3755.5
979.56	3741.5
979.783	3840.5
980.007	3685.5
980.23	3725.5
980.453	3634.5
980.677	3672.5
980.9	3691.5
981.123	3613.5
981.346	3676.5
981.569	3618.5
981.792	3635.5
982.015	3602.5
982.238	3552.5
982.461	3519.5
982.684	3530.5
982.907	3475.5
983.129	3461.5
983.352	3472.5
983.575	3489.5
983.797	3432.5
984.02	3406.5
984.242	3381.5
984.465	3405.5
984.687	3409.5
984.91	3385.5
985.132	3331.5
985.354	3382.5
985.577	3334.5
985.799	3282.5
986.021	3209.5
986.243	3219.5
986.465	3247.5
986.687	3294.5
986.909	3329.5
987.131	3240.5
987.353	3162.5
987.575	3249.5
987.797	3170.5
988.019	3099.5
988.241	3168.5
988.462	3078.5
988.684	3152.5
988.906	3178.5
989.127	3238.5
989.349	3022.5
989.57	3117.5
989.792	3157.5
990.013	3171.5
990.234	3116.5
990.456	3162.5
990.677	3139.5
990.898	3041.5
991.119	3010.5
991.341	3091.5
991.562	3010.5
991.783	3032.5
992.004	2962.5
992.225	2923.5
992.446	2982.5
992.667	2859.5
992.887	2925.5
993.108	2826.5
993.329	2921.5
993.55	2848.5
993.77	2798.5
993.991	2813.5
994.212	2858.5
994.432	2823.5
994.653	2821.5
994.873	2810.5
995.093	2665.5
995.314	2711.5
995.534	2785.5
995.754	2771.5
995.975	2766.5
996.195	2686.5
996.415	2735.5
996.635	2742.5
996.855	2735.5
997.075	2679.5
997.295	2676.5
997.515	2635.5
997.735	2711.5
997.955	2667.5
998.174	2690.5
998.394	2598.5
998.614	2685.5
998.834	2629.5
999.053	2695.5
999.273	2626.5
999.492	2684.5
999.712	2630.5
999.931	2568.5
1000.151	2592.5
1000.37	2568.5
1000.589	2622.5
1000.809	2534.5
1001.028	2627.5
1001.247	2537.5
1001.466	2453.5
1001.685	2552.5
1001.904	2506.5
1002.123	2451.5
1002.342	2482.5
1002.561	2457.5
1002.78	2463.5
1002.999	2489.5
1003.218	2445.5
1003.436	2383.5
1003.655	2437.5
1003.874	2402.5
1004.092	2411.5
1004.311	2428.5
1004.53	2373.5
1004.748	2430.5
1004.966	2363.5
1005.185	2429.5
1005.403	2368.5
1005.622	2391.5
1005.84	2397.5
1006.058	2347.5
1006.276	2360.5
1006.494	2849.5
1006.712	2328.5
1006.931	2410.5
1007.149	2325.5
1007.367	2330.5
1007.584	2381.5
1007.802	2405.5
1008.02	2342.5
1008.238	2471.5
1008.456	2501.5
1008.673	2311.5
1008.891	2449.5
1009.109	2421.5
1009.326	2489.5
1009.544	2583.5
1009.761	2532.5
1009.979	2670.5
1010.196	2686.5
1010.413	2815.5
1010.631	2906.5
1010.848	3025.5
1011.065	3003.5
1011.282	2991.5
1011.5	2964.5
1011.717	3020.5
1011.934	2967.5
1012.151	2970.5
1012.368	2971.5
1012.585	2905.5
1012.801	2935.5
1013.018	2940.5
1013.235	2892.5
1013.452	2939.5
1013.669	2933.5
1013.885	2924.5
1014.102	2965.5
1014.318	2942.5
1014.535	2911.5
1014.751	2947.5
1014.968	2929.5
1015.184	2941.5
1015.401	2812.5
1015.617	2877.5
1015.833	2786.5
1016.049	2761.5
1016.266	2742.5
1016.482	2731.5
1016.698	2635.5
1016.914	2631.5
1017.13	2636.5
1017.346	2633.5
1017.562	2672.5
1017.778	2620.5
1017.993	2608.5
1018.209	2626.5
1018.425	2617.5
1018.641	2577.5
1018.856	2517.5
1019.072	2601.5
1019.288	2642.5
1019.503	2553.5
1019.719	2509.5
1019.934	2512.5
1020.149	2582.5
1020.365	2487.5
1020.58	2391.5
1020.795	2430.5
1021.011	2342.5
1021.226	2303.5
1021.441	2299.5
1021.656	2175.5
1021.871	2108.5
1022.086	2084.5
1022.301	2085.5
1022.516	2065.5
1022.731	2081.5
1022.946	1975.5
1023.16	1946.5
1023.375	1905.5
1023.59	1905.5
1023.804	1807.5
1024.019	1926.5
1024.234	1751.5
1024.448	1762.5
1024.663	1709.5
1024.877	1650.5
1025.092	1702.5
1025.306	1708.5
1025.52	1560.5
1025.734	1628.5
1025.949	1534.5
1026.163	1500.5
1026.377	1421.5
1026.591	1470.5
1026.805	1415.5
1027.019	1345.5
1027.233	1288.5
1027.447	1265.5
1027.661	1338.5
1027.875	1302.5
1028.088	1265.5
1028.302	1195.5
1028.516	1182.5
1028.73	1156.5
1028.943	1123.5
1029.157	1060.5
1029.37	984.5
1029.584	-4.5
1029.797	0.5
1030.011	-0.5
1030.224	0.5
