Data from QEP037381__86__15-23-35-864.txt Node

Date: Fri Dec 16 15:23:35 EST 2022
User: dcclab
Spectrometer: QEP03738
Trigger mode: 4
Integration Time (sec): 1.000000E1
Scans to average: 1
Electric dark correction enabled: true
Nonlinearity correction enabled: false
Boxcar width: 0
XAxis mode: Wavelengths
Number of Pixels in Spectrum: 1044
>>>>>Begin Spectral Data<<<<<
784.041	14
784.3	-1
784.558	-4
784.817	-3
785.075	92696
785.334	16056
785.592	7490
785.851	5221
786.109	3884
786.368	3040
786.626	2453
786.884	2071
787.143	1718
787.401	1395
787.659	1310
787.917	1116
788.175	1035
788.433	889
788.691	834
788.949	757
789.207	740
789.465	638
789.723	606
789.98	567
790.238	597
790.496	554
790.753	537
791.011	586
791.268	548
791.526	511
791.783	536
792.041	529
792.298	429
792.556	498
792.813	489
793.07	469
793.327	436
793.584	525
793.841	459
794.099	466
794.356	525
794.613	418
794.869	463
795.126	425
795.383	423
795.64	450
795.897	385
796.153	457
796.41	436
796.667	432
796.923	440
797.18	414
797.436	446
797.693	418
797.949	490
798.206	493
798.462	407
798.718	476
798.974	445
799.231	508
799.487	484
799.743	492
799.999	539
800.255	500
800.511	499
800.767	543
801.023	532
801.279	582
801.534	608
801.79	674
802.046	699
802.302	837
802.557	959
802.813	1206
803.068	1504
803.324	2067
803.579	2785
803.835	3914
804.09	5336
804.345	6948
804.601	8874
804.856	10718
805.111	12398
805.366	13587
805.621	14546
805.876	15180
806.131	15644
806.386	15749
806.641	16131
806.896	16519
807.151	16809
807.406	16971
807.661	17376
807.915	17709
808.17	17947
808.425	18088
808.679	18244
808.934	18587
809.188	18704
809.443	18888
809.697	19019
809.951	19214
810.206	19557
810.46	19778
810.714	19971
810.968	20153
811.223	20344
811.477	20439
811.731	20547
811.985	20740
812.239	20818
812.493	21053
812.747	21001
813	20980
813.254	21204
813.508	21315
813.762	21444
814.015	21513
814.269	21711
814.522	21885
814.776	22227
815.03	22402
815.283	22730
815.536	23072
815.79	23397
816.043	23840
816.296	24153
816.55	24367
816.803	24657
817.056	25108
817.309	25134
817.562	25508
817.815	25854
818.068	25985
818.321	26144
818.574	26542
818.827	26888
819.079	27274
819.332	27854
819.585	28047
819.838	28420
820.09	28477
820.343	28853
820.595	28815
820.848	29176
821.1	29334
821.353	29204
821.605	29162
821.857	29335
822.11	29112
822.362	29178
822.614	29006
822.866	28961
823.118	28915
823.37	29219
823.622	29139
823.874	29300
824.126	29356
824.378	29460
824.63	29474
824.882	29474
825.134	29613
825.385	29679
825.637	29534
825.888	29230
826.14	29313
826.392	29221
826.643	29105
826.895	29031
827.146	29001
827.397	28858
827.649	28921
827.9	28925
828.151	28838
828.402	28938
828.653	29068
828.905	29111
829.156	29165
829.407	29330
829.658	29239
829.909	29320
830.159	29276
830.41	29303
830.661	28950
830.912	28764
831.162	28685
831.413	28643
831.664	28657
831.914	28687
832.165	28545
832.415	28624
832.666	28613
832.916	28693
833.167	28683
833.417	28641
833.667	28586
833.917	28568
834.168	28475
834.418	28358
834.668	28106
834.918	28206
835.168	28011
835.418	27827
835.668	27790
835.918	27660
836.167	27655
836.417	27574
836.667	27559
836.917	27561
837.166	27523
837.416	27558
837.666	27451
837.915	27327
838.165	27481
838.414	27401
838.663	27301
838.913	27253
839.162	27173
839.411	27315
839.661	27143
839.91	26939
840.159	26927
840.408	27056
840.657	26998
840.906	26950
841.155	26906
841.404	27035
841.653	26960
841.902	27037
842.15	27026
842.399	27061
842.648	26978
842.897	26952
843.145	26699
843.394	26648
843.642	26452
843.891	26321
844.139	26222
844.388	26111
844.636	25865
844.884	25848
845.133	25852
845.381	25924
845.629	25930
845.877	25827
846.125	25809
846.373	25795
846.621	25757
846.869	25717
847.117	25490
847.365	25276
847.613	25368
847.861	25267
848.108	25159
848.356	25167
848.604	25160
848.851	25104
849.099	25151
849.346	25265
849.594	25258
849.841	25366
850.089	25310
850.336	25436
850.583	25494
850.831	25327
851.078	25177
851.325	25319
851.572	25418
851.819	25143
852.066	24598
852.313	24221
852.56	24046
852.807	24003
853.054	23820
853.301	23896
853.548	23913
853.794	24031
854.041	24091
854.288	24152
854.534	24456
854.781	24306
855.028	24186
855.274	24255
855.52	24249
855.767	24037
856.013	24070
856.26	24425
856.506	23836
856.752	23861
856.998	23928
857.244	23932
857.49	24113
857.736	23946
857.982	24141
858.228	23952
858.474	23812
858.72	23657
858.966	23475
859.212	23290
859.458	23154
859.703	22834
859.949	22620
860.195	22677
860.44	22537
860.686	22314
860.931	22352
861.177	22173
861.422	22045
861.667	22013
861.913	21849
862.158	22040
862.403	22160
862.648	22242
862.893	22196
863.138	22138
863.384	22023
863.629	22043
863.873	22029
864.118	21963
864.363	21913
864.608	21828
864.853	21799
865.098	21668
865.342	21658
865.587	21456
865.832	21451
866.076	21528
866.321	21420
866.565	21411
866.81	21308
867.054	21327
867.298	21271
867.543	21208
867.787	21233
868.031	21057
868.275	21045
868.519	21101
868.764	21091
869.008	20861
869.252	20920
869.496	20824
869.739	20832
869.983	20859
870.227	20820
870.471	20801
870.715	20918
870.958	20956
871.202	21045
871.446	21065
871.689	21090
871.933	21084
872.176	21137
872.42	20962
872.663	20945
872.906	20934
873.15	20800
873.393	20836
873.636	20836
873.879	20649
874.122	20485
874.366	20142
874.609	20097
874.852	19763
875.095	19820
875.337	19646
875.58	19582
875.823	19515
876.066	19514
876.309	19412
876.551	19238
876.794	19195
877.037	19246
877.279	19155
877.522	19043
877.764	19102
878.007	19006
878.249	18980
878.491	18948
878.734	19010
878.976	18872
879.218	18645
879.46	18583
879.702	18556
879.945	18415
880.187	18248
880.429	18188
880.671	18077
880.912	17978
881.154	17977
881.396	17861
881.638	17894
881.88	17935
882.121	17856
882.363	17820
882.605	17854
882.846	17877
883.088	17918
883.329	17837
883.571	17780
883.812	18019
884.053	18277
884.295	18593
884.536	18827
884.777	18737
885.018	18643
885.259	18586
885.5	18405
885.742	18727
885.982	18374
886.223	18293
886.464	18106
886.705	17902
886.946	17670
887.187	17263
887.428	17214
887.668	17026
887.909	16719
888.15	16525
888.39	16433
888.631	16388
888.871	16264
889.111	16134
889.352	15985
889.592	15842
889.833	15829
890.073	15656
890.313	15648
890.553	15519
890.793	15543
891.033	15509
891.273	15460
891.513	15398
891.753	15408
891.993	15340
892.233	15386
892.473	15529
892.713	15520
892.952	15594
893.192	15604
893.432	15539
893.671	15487
893.911	15306
894.15	15346
894.39	15157
894.629	15086
894.869	15077
895.108	14899
895.347	14876
895.587	14842
895.826	14959
896.065	14790
896.304	14913
896.543	14879
896.782	14713
897.021	14845
897.26	14717
897.499	14817
897.738	14748
897.977	14647
898.216	14576
898.454	14449
898.693	14451
898.932	14421
899.17	14383
899.409	14238
899.647	14292
899.886	14167
900.124	14310
900.363	14225
900.601	14219
900.839	14386
901.078	14361
901.316	14420
901.554	14536
901.792	14579
902.03	14617
902.268	14450
902.506	14501
902.744	14299
902.982	14330
903.22	14077
903.458	13841
903.695	13638
903.933	13385
904.171	13153
904.409	12978
904.646	12822
904.884	12661
905.121	12471
905.359	12345
905.596	12252
905.833	12148
906.071	11960
906.308	12099
906.545	11949
906.783	11812
907.02	11895
907.257	11752
907.494	11785
907.731	11710
907.968	11677
908.205	11585
908.442	11477
908.679	11389
908.915	11341
909.152	11352
909.389	11153
909.626	11049
909.862	10985
910.099	10982
910.335	10943
910.572	10788
910.808	10901
911.045	10819
911.281	10671
911.518	10770
911.754	10641
911.99	10636
912.226	10460
912.463	10414
912.699	10309
912.935	10319
913.171	10164
913.407	10072
913.643	10090
913.879	9979
914.114	9868
914.35	9784
914.586	9796
914.822	9631
915.057	9603
915.293	9465
915.529	9444
915.764	9468
916	9482
916.235	9390
916.471	9411
916.706	9366
916.941	9317
917.177	9288
917.412	9294
917.647	9314
917.882	9255
918.117	9278
918.352	9227
918.588	9310
918.823	9129
919.057	9010
919.292	8943
919.527	8956
919.762	8764
919.997	8740
920.232	8584
920.466	8650
920.701	8481
920.935	8536
921.17	8389
921.405	8336
921.639	8389
921.873	8302
922.108	8326
922.342	8269
922.576	8250
922.811	8149
923.045	8208
923.279	8322
923.513	8057
923.747	8062
923.981	8041
924.215	7932
924.449	7958
924.683	7823
924.917	7847
925.151	7843
925.385	7791
925.618	7759
925.852	7745
926.086	7701
926.319	7724
926.553	7670
926.786	7747
927.02	7675
927.253	7697
927.486	7694
927.72	7601
927.953	7641
928.186	7580
928.42	7573
928.653	7562
928.886	7481
929.119	7489
929.352	7438
929.585	7457
929.818	7335
930.051	7308
930.284	7254
930.516	7098
930.749	7115
930.982	7120
931.215	7110
931.447	6993
931.68	6980
931.912	6968
932.145	6995
932.377	6990
932.61	7152
932.842	6893
933.074	7014
933.307	6934
933.539	7069
933.771	7035
934.003	6957
934.236	6987
934.468	6960
934.7	6901
934.932	6975
935.164	6916
935.395	6832
935.627	6912
935.859	6885
936.091	6749
936.323	6790
936.554	6797
936.786	6746
937.017	6690
937.249	6665
937.481	6686
937.712	6709
937.943	6627
938.175	6589
938.406	6668
938.637	6661
938.869	6538
939.1	6576
939.331	6591
939.562	6495
939.793	6527
940.024	6523
940.255	6510
940.486	6449
940.717	6384
940.948	6384
941.179	6318
941.409	6374
941.64	6322
941.871	6348
942.102	6309
942.332	6279
942.563	6312
942.793	6317
943.024	6269
943.254	6291
943.484	6318
943.715	6330
943.945	6316
944.175	6207
944.405	6207
944.636	6193
944.866	6214
945.096	6207
945.326	6135
945.556	6189
945.786	6230
946.016	6097
946.245	6062
946.475	6014
946.705	5995
946.935	5964
947.164	5958
947.394	5829
947.624	5865
947.853	5851
948.083	5793
948.312	5749
948.542	5709
948.771	5701
949	5714
949.23	5677
949.459	5670
949.688	5686
949.917	5711
950.146	5675
950.375	5718
950.604	5638
950.833	5677
951.062	5651
951.291	5637
951.52	5584
951.749	5609
951.978	5548
952.206	5508
952.435	5493
952.664	5501
952.892	5488
953.121	5451
953.349	5441
953.578	5497
953.806	5347
954.035	5335
954.263	5346
954.491	5282
954.719	5332
954.948	5278
955.176	5230
955.404	5145
955.632	5241
955.86	5200
956.088	5177
956.316	5171
956.544	5189
956.772	5050
956.999	5054
957.227	5116
957.455	4966
957.683	4964
957.91	4898
958.138	4876
958.365	4923
958.593	4941
958.82	4830
959.048	4878
959.275	4815
959.502	4846
959.73	4764
959.957	4784
960.184	4806
960.411	4767
960.638	4842
960.865	4766
961.092	4791
961.319	4688
961.546	4724
961.773	4734
962	4744
962.227	4704
962.454	4682
962.68	4640
962.907	4668
963.134	4601
963.36	4586
963.587	4608
963.813	4482
964.04	4510
964.266	4458
964.493	4552
964.719	4494
964.945	4462
965.171	4317
965.398	4363
965.624	4440
965.85	4294
966.076	4281
966.302	4324
966.528	4290
966.754	4291
966.98	4265
967.206	4252
967.431	4184
967.657	4179
967.883	4200
968.109	4163
968.334	4153
968.56	4161
968.785	4147
969.011	4061
969.236	4105
969.462	4099
969.687	4084
969.912	4079
970.138	4086
970.363	4034
970.588	4090
970.813	3997
971.038	3951
971.263	4022
971.488	4013
971.713	3989
971.938	3980
972.163	3923
972.388	3875
972.613	3849
972.838	3838
973.062	3820
973.287	3809
973.512	3755
973.736	3779
973.961	3729
974.185	3715
974.41	3740
974.634	3621
974.858	3633
975.083	3694
975.307	3679
975.531	3594
975.755	3504
975.98	3555
976.204	3492
976.428	3483
976.652	3459
976.876	3456
977.1	3504
977.324	3436
977.547	3464
977.771	3460
977.995	3442
978.219	3380
978.442	3489
978.666	3370
978.89	3350
979.113	3409
979.337	3350
979.56	3338
979.783	3392
980.007	3299
980.23	3288
980.453	3287
980.677	3300
980.9	3303
981.123	3212
981.346	3281
981.569	3233
981.792	3234
982.015	3172
982.238	3178
982.461	3148
982.684	3133
982.907	3073
983.129	3063
983.352	3135
983.575	3093
983.797	3088
984.02	3020
984.242	3032
984.465	2996
984.687	3044
984.91	3032
985.132	2975
985.354	2971
985.577	2961
985.799	2959
986.021	2882
986.243	2921
986.465	2900
986.687	2939
986.909	2996
987.131	2907
987.353	2817
987.575	2856
987.797	2849
988.019	2785
988.241	2818
988.462	2786
988.684	2842
988.906	2862
989.127	2921
989.349	2745
989.57	2773
989.792	2830
990.013	2846
990.234	2807
990.456	2853
990.677	2828
990.898	2702
991.119	2713
991.341	2741
991.562	2684
991.783	2734
992.004	2641
992.225	2600
992.446	2642
992.667	2577
992.887	2632
993.108	2549
993.329	2664
993.55	2596
993.77	2542
993.991	2510
994.212	2564
994.432	2518
994.653	2497
994.873	2491
995.093	2368
995.314	2421
995.534	2528
995.754	2541
995.975	2536
996.195	2414
996.415	2458
996.635	2424
996.855	2454
997.075	2424
997.295	2410
997.515	2411
997.735	2469
997.955	2416
998.174	2392
998.394	2385
998.614	2407
998.834	2351
999.053	2435
999.273	2406
999.492	2447
999.712	2356
999.931	2343
1000.151	2323
1000.37	2328
1000.589	2404
1000.809	2322
1001.028	2376
1001.247	2333
1001.466	2240
1001.685	2359
1001.904	2281
1002.123	2270
1002.342	2241
1002.561	2208
1002.78	2241
1002.999	2263
1003.218	2208
1003.436	2196
1003.655	2252
1003.874	2174
1004.092	2160
1004.311	2247
1004.53	2158
1004.748	2245
1004.966	2161
1005.185	2217
1005.403	2223
1005.622	2162
1005.84	2250
1006.058	2133
1006.276	2147
1006.494	2664
1006.712	2163
1006.931	2232
1007.149	2154
1007.367	2143
1007.584	2175
1007.802	2243
1008.02	2202
1008.238	2292
1008.456	2313
1008.673	2172
1008.891	2279
1009.109	2263
1009.326	2306
1009.544	2430
1009.761	2362
1009.979	2515
1010.196	2517
1010.413	2656
1010.631	2789
1010.848	2831
1011.065	2869
1011.282	2844
1011.5	2785
1011.717	2905
1011.934	2809
1012.151	2785
1012.368	2783
1012.585	2773
1012.801	2786
1013.018	2795
1013.235	2789
1013.452	2830
1013.669	2831
1013.885	2792
1014.102	2837
1014.318	2804
1014.535	2780
1014.751	2794
1014.968	2772
1015.184	2786
1015.401	2730
1015.617	2735
1015.833	2676
1016.049	2668
1016.266	2591
1016.482	2643
1016.698	2531
1016.914	2592
1017.13	2565
1017.346	2495
1017.562	2549
1017.778	2486
1017.993	2442
1018.209	2540
1018.425	2508
1018.641	2479
1018.856	2470
1019.072	2482
1019.288	2543
1019.503	2497
1019.719	2385
1019.934	2399
1020.149	2426
1020.365	2394
1020.58	2318
1020.795	2362
1021.011	2233
1021.226	2200
1021.441	2196
1021.656	2101
1021.871	2045
1022.086	2022
1022.301	1994
1022.516	1937
1022.731	1958
1022.946	1906
1023.16	1873
1023.375	1806
1023.59	1794
1023.804	1727
1024.019	1811
1024.234	1682
1024.448	1684
1024.663	1602
1024.877	1596
1025.092	1631
1025.306	1600
1025.52	1468
1025.734	1565
1025.949	1469
1026.163	1409
1026.377	1343
1026.591	1382
1026.805	1317
1027.019	1275
1027.233	1217
1027.447	1189
1027.661	1292
1027.875	1190
1028.088	1205
1028.302	1118
1028.516	1091
1028.73	1095
1028.943	1064
1029.157	985
1029.37	936
1029.584	0
1029.797	-1
1030.011	-2
1030.224	-3
