Data from QEP037381__67__15-20-25-861.txt Node

Date: Fri Dec 16 15:20:25 EST 2022
User: dcclab
Spectrometer: QEP03738
Trigger mode: 4
Integration Time (sec): 1.000000E1
Scans to average: 1
Electric dark correction enabled: true
Nonlinearity correction enabled: false
Boxcar width: 0
XAxis mode: Wavelengths
Number of Pixels in Spectrum: 1044
>>>>>Begin Spectral Data<<<<<
784.041	13.5
784.3	1.5
784.558	-4.5
784.817	-3.5
785.075	91611.5
785.334	15659.5
785.592	7258.5
785.851	4945.5
786.109	3740.5
786.368	2931.5
786.626	2374.5
786.884	1976.5
787.143	1672.5
787.401	1394.5
787.659	1279.5
787.917	1092.5
788.175	1002.5
788.433	893.5
788.691	817.5
788.949	768.5
789.207	716.5
789.465	618.5
789.723	608.5
789.98	560.5
790.238	612.5
790.496	556.5
790.753	555.5
791.011	592.5
791.268	523.5
791.526	507.5
791.783	533.5
792.041	505.5
792.298	446.5
792.556	500.5
792.813	484.5
793.07	455.5
793.327	434.5
793.584	520.5
793.841	450.5
794.099	472.5
794.356	533.5
794.613	417.5
794.869	473.5
795.126	433.5
795.383	416.5
795.64	447.5
795.897	392.5
796.153	454.5
796.41	432.5
796.667	421.5
796.923	431.5
797.18	434.5
797.436	460.5
797.693	410.5
797.949	470.5
798.206	502.5
798.462	422.5
798.718	477.5
798.974	457.5
799.231	489.5
799.487	479.5
799.743	500.5
799.999	531.5
800.255	522.5
800.511	496.5
800.767	550.5
801.023	532.5
801.279	571.5
801.534	611.5
801.79	663.5
802.046	695.5
802.302	838.5
802.557	972.5
802.813	1222.5
803.068	1465.5
803.324	2077.5
803.579	2775.5
803.835	3865.5
804.09	5299.5
804.345	6979.5
804.601	8845.5
804.856	10617.5
805.111	12331.5
805.366	13551.5
805.621	14531.5
805.876	15100.5
806.131	15505.5
806.386	15736.5
806.641	16147.5
806.896	16311.5
807.151	16662.5
807.406	16867.5
807.661	17276.5
807.915	17547.5
808.17	17865.5
808.425	17985.5
808.679	18111.5
808.934	18426.5
809.188	18609.5
809.443	18773.5
809.697	19135.5
809.951	19145.5
810.206	19396.5
810.46	19637.5
810.714	19729.5
810.968	20034.5
811.223	20189.5
811.477	20377.5
811.731	20513.5
811.985	20583.5
812.239	20585.5
812.493	20891.5
812.747	20951.5
813	21044.5
813.254	21044.5
813.508	21201.5
813.762	21432.5
814.015	21433.5
814.269	21615.5
814.522	21788.5
814.776	22045.5
815.03	22358.5
815.283	22619.5
815.536	23116.5
815.79	23260.5
816.043	23734.5
816.296	24032.5
816.55	24360.5
816.803	24565.5
817.056	24926.5
817.309	25225.5
817.562	25405.5
817.815	25687.5
818.068	25946.5
818.321	25974.5
818.574	26356.5
818.827	26774.5
819.079	27129.5
819.332	27628.5
819.585	27937.5
819.838	28352.5
820.09	28481.5
820.343	28927.5
820.595	28765.5
820.848	29163.5
821.1	29117.5
821.353	29050.5
821.605	29175.5
821.857	29130.5
822.11	28964.5
822.362	28992.5
822.614	29014.5
822.866	28986.5
823.118	28993.5
823.37	29154.5
823.622	29167.5
823.874	29215.5
824.126	29416.5
824.378	29343.5
824.63	29463.5
824.882	29577.5
825.134	29539.5
825.385	29655.5
825.637	29549.5
825.888	29443.5
826.14	29392.5
826.392	29125.5
826.643	29137.5
826.895	29146.5
827.146	28825.5
827.397	28819.5
827.649	28985.5
827.9	28796.5
828.151	28779.5
828.402	28972.5
828.653	28950.5
828.905	29132.5
829.156	29362.5
829.407	29177.5
829.658	29171.5
829.909	29184.5
830.159	29255.5
830.41	29171.5
830.661	29022.5
830.912	28720.5
831.162	28772.5
831.413	28638.5
831.664	28560.5
831.914	28613.5
832.165	28603.5
832.415	28516.5
832.666	28567.5
832.916	28575.5
833.167	28513.5
833.417	28691.5
833.667	28494.5
833.917	28344.5
834.168	28521.5
834.418	28323.5
834.668	28217.5
834.918	27989.5
835.168	27981.5
835.418	27857.5
835.668	27710.5
835.918	27685.5
836.167	27587.5
836.417	27522.5
836.667	27575.5
836.917	27528.5
837.166	27503.5
837.416	27527.5
837.666	27545.5
837.915	27451.5
838.165	27400.5
838.414	27317.5
838.663	27226.5
838.913	27282.5
839.162	27253.5
839.411	27322.5
839.661	27009.5
839.91	27066.5
840.159	27100.5
840.408	26960.5
840.657	27139.5
840.906	26897.5
841.155	27126.5
841.404	27114.5
841.653	27044.5
841.902	27054.5
842.15	27115.5
842.399	27112.5
842.648	27018.5
842.897	26895.5
843.145	26831.5
843.394	26646.5
843.642	26534.5
843.891	26360.5
844.139	26263.5
844.388	26108.5
844.636	25875.5
844.884	25985.5
845.133	25927.5
845.381	25890.5
845.629	26014.5
845.877	25856.5
846.125	25903.5
846.373	25815.5
846.621	25765.5
846.869	25600.5
847.117	25480.5
847.365	25333.5
847.613	25368.5
847.861	25211.5
848.108	25160.5
848.356	25117.5
848.604	25130.5
848.851	25230.5
849.099	25175.5
849.346	25222.5
849.594	25214.5
849.841	25434.5
850.089	25393.5
850.336	25470.5
850.583	25440.5
850.831	25273.5
851.078	25132.5
851.325	25246.5
851.572	25326.5
851.819	25143.5
852.066	24714.5
852.313	24258.5
852.56	24078.5
852.807	24088.5
853.054	24068.5
853.301	23918.5
853.548	23979.5
853.794	24122.5
854.041	24097.5
854.288	24207.5
854.534	24436.5
854.781	24372.5
855.028	24398.5
855.274	24294.5
855.52	24143.5
855.767	24102.5
856.013	24044.5
856.26	24439.5
856.506	23936.5
856.752	23875.5
856.998	23966.5
857.244	23950.5
857.49	24105.5
857.736	24186.5
857.982	24114.5
858.228	24118.5
858.474	23870.5
858.72	23753.5
858.966	23554.5
859.212	23356.5
859.458	23102.5
859.703	22750.5
859.949	22570.5
860.195	22551.5
860.44	22494.5
860.686	22422.5
860.931	22317.5
861.177	22195.5
861.422	22272.5
861.667	22075.5
861.913	22029.5
862.158	22113.5
862.403	22172.5
862.648	22249.5
862.893	22175.5
863.138	22277.5
863.384	22211.5
863.629	22172.5
863.873	22152.5
864.118	22094.5
864.363	21942.5
864.608	21963.5
864.853	21840.5
865.098	21730.5
865.342	21667.5
865.587	21504.5
865.832	21506.5
866.076	21525.5
866.321	21356.5
866.565	21385.5
866.81	21270.5
867.054	21220.5
867.298	21131.5
867.543	21012.5
867.787	21035.5
868.031	21071.5
868.275	21057.5
868.519	21018.5
868.764	20907.5
869.008	20980.5
869.252	21031.5
869.496	20870.5
869.739	20823.5
869.983	20807.5
870.227	20950.5
870.471	20849.5
870.715	20896.5
870.958	20979.5
871.202	21067.5
871.446	21061.5
871.689	21060.5
871.933	21187.5
872.176	20996.5
872.42	21020.5
872.663	20991.5
872.906	21003.5
873.15	20893.5
873.393	20832.5
873.636	20803.5
873.879	20493.5
874.122	20482.5
874.366	20176.5
874.609	19892.5
874.852	19741.5
875.095	19857.5
875.337	19627.5
875.58	19615.5
875.823	19350.5
876.066	19478.5
876.309	19342.5
876.551	19325.5
876.794	19226.5
877.037	19228.5
877.279	19027.5
877.522	19117.5
877.764	19093.5
878.007	19069.5
878.249	18962.5
878.491	18920.5
878.734	18989.5
878.976	18924.5
879.218	18675.5
879.46	18699.5
879.702	18535.5
879.945	18446.5
880.187	18304.5
880.429	18183.5
880.671	17971.5
880.912	18027.5
881.154	18073.5
881.396	17926.5
881.638	17992.5
881.88	17981.5
882.121	17951.5
882.363	17910.5
882.605	17930.5
882.846	17868.5
883.088	17862.5
883.329	17891.5
883.571	17930.5
883.812	18003.5
884.053	18272.5
884.295	18620.5
884.536	18852.5
884.777	18713.5
885.018	18713.5
885.259	18590.5
885.5	18501.5
885.742	18719.5
885.982	18436.5
886.223	18253.5
886.464	18154.5
886.705	17931.5
886.946	17751.5
887.187	17458.5
887.428	17324.5
887.668	17024.5
887.909	16774.5
888.15	16699.5
888.39	16487.5
888.631	16437.5
888.871	16254.5
889.111	16174.5
889.352	16093.5
889.592	15955.5
889.833	15866.5
890.073	15737.5
890.313	15751.5
890.553	15542.5
890.793	15516.5
891.033	15433.5
891.273	15330.5
891.513	15284.5
891.753	15385.5
891.993	15268.5
892.233	15404.5
892.473	15415.5
892.713	15354.5
892.952	15324.5
893.192	15452.5
893.432	15295.5
893.671	15427.5
893.911	15263.5
894.15	15215.5
894.39	15100.5
894.629	15032.5
894.869	15029.5
895.108	14920.5
895.347	14872.5
895.587	14833.5
895.826	14859.5
896.065	14766.5
896.304	14866.5
896.543	14839.5
896.782	14787.5
897.021	14777.5
897.26	14809.5
897.499	14792.5
897.738	14768.5
897.977	14651.5
898.216	14629.5
898.454	14436.5
898.693	14404.5
898.932	14332.5
899.17	14315.5
899.409	14279.5
899.647	14272.5
899.886	14239.5
900.124	14343.5
900.363	14269.5
900.601	14427.5
900.839	14375.5
901.078	14516.5
901.316	14573.5
901.554	14629.5
901.792	14725.5
902.03	14661.5
902.268	14631.5
902.506	14656.5
902.744	14536.5
902.982	14441.5
903.22	14055.5
903.458	13962.5
903.695	13695.5
903.933	13476.5
904.171	13237.5
904.409	13055.5
904.646	12851.5
904.884	12688.5
905.121	12609.5
905.359	12495.5
905.596	12336.5
905.833	12128.5
906.071	12076.5
906.308	12140.5
906.545	12063.5
906.783	11926.5
907.02	11918.5
907.257	11920.5
907.494	11856.5
907.731	11902.5
907.968	11702.5
908.205	11628.5
908.442	11561.5
908.679	11533.5
908.915	11342.5
909.152	11354.5
909.389	11178.5
909.626	11235.5
909.862	11034.5
910.099	11051.5
910.335	10994.5
910.572	10897.5
910.808	10994.5
911.045	10972.5
911.281	10794.5
911.518	10890.5
911.754	10713.5
911.99	10714.5
912.226	10626.5
912.463	10505.5
912.699	10416.5
912.935	10404.5
913.171	10300.5
913.407	10208.5
913.643	10188.5
913.879	10077.5
914.114	10037.5
914.35	9862.5
914.586	9855.5
914.822	9683.5
915.057	9724.5
915.293	9576.5
915.529	9525.5
915.764	9605.5
916	9539.5
916.235	9516.5
916.471	9588.5
916.706	9402.5
916.941	9418.5
917.177	9394.5
917.412	9453.5
917.647	9486.5
917.882	9361.5
918.117	9350.5
918.352	9302.5
918.588	9361.5
918.823	9162.5
919.057	9104.5
919.292	8990.5
919.527	9091.5
919.762	8896.5
919.997	8829.5
920.232	8691.5
920.466	8687.5
920.701	8559.5
920.935	8595.5
921.17	8423.5
921.405	8403.5
921.639	8444.5
921.873	8354.5
922.108	8390.5
922.342	8354.5
922.576	8261.5
922.811	8265.5
923.045	8256.5
923.279	8283.5
923.513	8069.5
923.747	8134.5
923.981	8113.5
924.215	8041.5
924.449	8040.5
924.683	7932.5
924.917	7869.5
925.151	7848.5
925.385	7958.5
925.618	7893.5
925.852	7790.5
926.086	7739.5
926.319	7818.5
926.553	7716.5
926.786	7730.5
927.02	7718.5
927.253	7744.5
927.486	7774.5
927.72	7720.5
927.953	7780.5
928.186	7624.5
928.42	7705.5
928.653	7619.5
928.886	7532.5
929.119	7605.5
929.352	7482.5
929.585	7485.5
929.818	7370.5
930.051	7395.5
930.284	7338.5
930.516	7180.5
930.749	7129.5
930.982	7183.5
931.215	7143.5
931.447	7068.5
931.68	7033.5
931.912	7015.5
932.145	7061.5
932.377	7088.5
932.61	7144.5
932.842	6980.5
933.074	7042.5
933.307	6968.5
933.539	7125.5
933.771	7074.5
934.003	7039.5
934.236	7070.5
934.468	7107.5
934.7	6972.5
934.932	6985.5
935.164	6957.5
935.395	6900.5
935.627	6937.5
935.859	6984.5
936.091	6832.5
936.323	6899.5
936.554	6902.5
936.786	6842.5
937.017	6698.5
937.249	6775.5
937.481	6662.5
937.712	6787.5
937.943	6722.5
938.175	6718.5
938.406	6645.5
938.637	6727.5
938.869	6606.5
939.1	6686.5
939.331	6561.5
939.562	6648.5
939.793	6549.5
940.024	6611.5
940.255	6629.5
940.486	6471.5
940.717	6455.5
940.948	6399.5
941.179	6405.5
941.409	6463.5
941.64	6374.5
941.871	6414.5
942.102	6363.5
942.332	6364.5
942.563	6361.5
942.793	6398.5
943.024	6343.5
943.254	6370.5
943.484	6416.5
943.715	6369.5
943.945	6380.5
944.175	6255.5
944.405	6267.5
944.636	6241.5
944.866	6291.5
945.096	6319.5
945.326	6215.5
945.556	6272.5
945.786	6229.5
946.016	6141.5
946.245	6118.5
946.475	6090.5
946.705	6005.5
946.935	6056.5
947.164	6009.5
947.394	5953.5
947.624	5918.5
947.853	5894.5
948.083	5921.5
948.312	5882.5
948.542	5814.5
948.771	5787.5
949	5809.5
949.23	5735.5
949.459	5766.5
949.688	5818.5
949.917	5779.5
950.146	5714.5
950.375	5757.5
950.604	5678.5
950.833	5764.5
951.062	5751.5
951.291	5674.5
951.52	5714.5
951.749	5654.5
951.978	5676.5
952.206	5605.5
952.435	5608.5
952.664	5609.5
952.892	5555.5
953.121	5474.5
953.349	5513.5
953.578	5552.5
953.806	5437.5
954.035	5382.5
954.263	5387.5
954.491	5349.5
954.719	5390.5
954.948	5338.5
955.176	5298.5
955.404	5251.5
955.632	5290.5
955.86	5231.5
956.088	5192.5
956.316	5221.5
956.544	5211.5
956.772	5102.5
956.999	5125.5
957.227	5127.5
957.455	5040.5
957.683	5034.5
957.91	4964.5
958.138	4971.5
958.365	4944.5
958.593	4906.5
958.82	4853.5
959.048	4908.5
959.275	4873.5
959.502	4845.5
959.73	4858.5
959.957	4851.5
960.184	4858.5
960.411	4817.5
960.638	4879.5
960.865	4776.5
961.092	4815.5
961.319	4720.5
961.546	4805.5
961.773	4815.5
962	4786.5
962.227	4834.5
962.454	4740.5
962.68	4724.5
962.907	4721.5
963.134	4628.5
963.36	4639.5
963.587	4635.5
963.813	4533.5
964.04	4613.5
964.266	4467.5
964.493	4576.5
964.719	4544.5
964.945	4529.5
965.171	4405.5
965.398	4467.5
965.624	4494.5
965.85	4337.5
966.076	4366.5
966.302	4394.5
966.528	4323.5
966.754	4327.5
966.98	4308.5
967.206	4320.5
967.431	4226.5
967.657	4310.5
967.883	4281.5
968.109	4255.5
968.334	4198.5
968.56	4181.5
968.785	4168.5
969.011	4114.5
969.236	4193.5
969.462	4135.5
969.687	4133.5
969.912	4180.5
970.138	4121.5
970.363	4153.5
970.588	4040.5
970.813	4089.5
971.038	4002.5
971.263	4046.5
971.488	4067.5
971.713	4048.5
971.938	4087.5
972.163	3955.5
972.388	3934.5
972.613	3913.5
972.838	3921.5
973.062	3916.5
973.287	3915.5
973.512	3811.5
973.736	3845.5
973.961	3804.5
974.185	3759.5
974.41	3813.5
974.634	3704.5
974.858	3707.5
975.083	3720.5
975.307	3733.5
975.531	3674.5
975.755	3575.5
975.98	3587.5
976.204	3566.5
976.428	3565.5
976.652	3539.5
976.876	3488.5
977.1	3606.5
977.324	3503.5
977.547	3534.5
977.771	3580.5
977.995	3495.5
978.219	3418.5
978.442	3552.5
978.666	3439.5
978.89	3461.5
979.113	3429.5
979.337	3465.5
979.56	3391.5
979.783	3464.5
980.007	3327.5
980.23	3385.5
980.453	3320.5
980.677	3373.5
980.9	3388.5
981.123	3257.5
981.346	3340.5
981.569	3339.5
981.792	3303.5
982.015	3249.5
982.238	3209.5
982.461	3214.5
982.684	3193.5
982.907	3149.5
983.129	3124.5
983.352	3186.5
983.575	3153.5
983.797	3133.5
984.02	3097.5
984.242	3102.5
984.465	3042.5
984.687	3119.5
984.91	3119.5
985.132	3062.5
985.354	3084.5
985.577	3039.5
985.799	3031.5
986.021	2923.5
986.243	2941.5
986.465	2961.5
986.687	2985.5
986.909	3052.5
987.131	2969.5
987.353	2909.5
987.575	2913.5
987.797	2880.5
988.019	2819.5
988.241	2868.5
988.462	2865.5
988.684	2902.5
988.906	2913.5
989.127	2906.5
989.349	2813.5
989.57	2831.5
989.792	2903.5
990.013	2887.5
990.234	2844.5
990.456	2898.5
990.677	2849.5
990.898	2797.5
991.119	2786.5
991.341	2809.5
991.562	2735.5
991.783	2777.5
992.004	2693.5
992.225	2666.5
992.446	2687.5
992.667	2631.5
992.887	2677.5
993.108	2571.5
993.329	2710.5
993.55	2617.5
993.77	2580.5
993.991	2564.5
994.212	2581.5
994.432	2557.5
994.653	2586.5
994.873	2565.5
995.093	2449.5
995.314	2475.5
995.534	2552.5
995.754	2546.5
995.975	2605.5
996.195	2456.5
996.415	2524.5
996.635	2522.5
996.855	2477.5
997.075	2487.5
997.295	2455.5
997.515	2419.5
997.735	2500.5
997.955	2475.5
998.174	2473.5
998.394	2417.5
998.614	2481.5
998.834	2411.5
999.053	2475.5
999.273	2441.5
999.492	2489.5
999.712	2379.5
999.931	2369.5
1000.151	2395.5
1000.37	2366.5
1000.589	2418.5
1000.809	2365.5
1001.028	2463.5
1001.247	2372.5
1001.466	2276.5
1001.685	2408.5
1001.904	2319.5
1002.123	2323.5
1002.342	2294.5
1002.561	2260.5
1002.78	2247.5
1002.999	2291.5
1003.218	2282.5
1003.436	2243.5
1003.655	2288.5
1003.874	2213.5
1004.092	2221.5
1004.311	2224.5
1004.53	2212.5
1004.748	2272.5
1004.966	2184.5
1005.185	2237.5
1005.403	2246.5
1005.622	2227.5
1005.84	2293.5
1006.058	2186.5
1006.276	2195.5
1006.494	2689.5
1006.712	2220.5
1006.931	2252.5
1007.149	2151.5
1007.367	2170.5
1007.584	2226.5
1007.802	2276.5
1008.02	2202.5
1008.238	2354.5
1008.456	2311.5
1008.673	2189.5
1008.891	2313.5
1009.109	2299.5
1009.326	2322.5
1009.544	2495.5
1009.761	2433.5
1009.979	2533.5
1010.196	2569.5
1010.413	2712.5
1010.631	2788.5
1010.848	2893.5
1011.065	2928.5
1011.282	2910.5
1011.5	2808.5
1011.717	2898.5
1011.934	2847.5
1012.151	2871.5
1012.368	2858.5
1012.585	2794.5
1012.801	2847.5
1013.018	2865.5
1013.235	2826.5
1013.452	2857.5
1013.669	2881.5
1013.885	2840.5
1014.102	2914.5
1014.318	2893.5
1014.535	2839.5
1014.751	2825.5
1014.968	2820.5
1015.184	2881.5
1015.401	2750.5
1015.617	2787.5
1015.833	2708.5
1016.049	2718.5
1016.266	2731.5
1016.482	2677.5
1016.698	2606.5
1016.914	2637.5
1017.13	2586.5
1017.346	2588.5
1017.562	2592.5
1017.778	2521.5
1017.993	2492.5
1018.209	2563.5
1018.425	2535.5
1018.641	2506.5
1018.856	2476.5
1019.072	2521.5
1019.288	2588.5
1019.503	2536.5
1019.719	2437.5
1019.934	2423.5
1020.149	2496.5
1020.365	2415.5
1020.58	2361.5
1020.795	2392.5
1021.011	2277.5
1021.226	2260.5
1021.441	2271.5
1021.656	2149.5
1021.871	2046.5
1022.086	2047.5
1022.301	2028.5
1022.516	2005.5
1022.731	2034.5
1022.946	1959.5
1023.16	1891.5
1023.375	1859.5
1023.59	1832.5
1023.804	1758.5
1024.019	1828.5
1024.234	1672.5
1024.448	1734.5
1024.663	1649.5
1024.877	1619.5
1025.092	1650.5
1025.306	1628.5
1025.52	1501.5
1025.734	1570.5
1025.949	1492.5
1026.163	1448.5
1026.377	1387.5
1026.591	1415.5
1026.805	1319.5
1027.019	1328.5
1027.233	1256.5
1027.447	1181.5
1027.661	1309.5
1027.875	1231.5
1028.088	1245.5
1028.302	1147.5
1028.516	1140.5
1028.73	1130.5
1028.943	1085.5
1029.157	999.5
1029.37	969.5
1029.584	-1.5
1029.797	-2.5
1030.011	-3.5
1030.224	0.5
