Data from QEP037381__55__15-18-25-860.txt Node

Date: Fri Dec 16 15:18:25 EST 2022
User: dcclab
Spectrometer: QEP03738
Trigger mode: 4
Integration Time (sec): 1.000000E1
Scans to average: 1
Electric dark correction enabled: true
Nonlinearity correction enabled: false
Boxcar width: 0
XAxis mode: Wavelengths
Number of Pixels in Spectrum: 1044
>>>>>Begin Spectral Data<<<<<
784.041	14.12
784.3	-0.88
784.558	0.12
784.817	-2.88
785.075	86807.12
785.334	14991.12
785.592	7067.12
785.851	4856.12
786.109	3681.12
786.368	2855.12
786.626	2346.12
786.884	1961.12
787.143	1646.12
787.401	1361.12
787.659	1241.12
787.917	1074.12
788.175	997.12
788.433	874.12
788.691	789.12
788.949	733.12
789.207	709.12
789.465	621.12
789.723	593.12
789.98	568.12
790.238	598.12
790.496	550.12
790.753	549.12
791.011	575.12
791.268	523.12
791.526	510.12
791.783	525.12
792.041	513.12
792.298	423.12
792.556	483.12
792.813	467.12
793.07	454.12
793.327	438.12
793.584	522.12
793.841	435.12
794.099	473.12
794.356	527.12
794.613	416.12
794.869	456.12
795.126	433.12
795.383	421.12
795.64	438.12
795.897	391.12
796.153	453.12
796.41	442.12
796.667	430.12
796.923	422.12
797.18	415.12
797.436	466.12
797.693	419.12
797.949	470.12
798.206	507.12
798.462	423.12
798.718	475.12
798.974	462.12
799.231	497.12
799.487	503.12
799.743	497.12
799.999	515.12
800.255	499.12
800.511	496.12
800.767	559.12
801.023	550.12
801.279	569.12
801.534	607.12
801.79	673.12
802.046	700.12
802.302	842.12
802.557	931.12
802.813	1167.12
803.068	1439.12
803.324	1969.12
803.579	2660.12
803.835	3678.12
804.09	5146.12
804.345	6787.12
804.601	8610.12
804.856	10468.12
805.111	12169.12
805.366	13456.12
805.621	14349.12
805.876	15086.12
806.131	15490.12
806.386	15816.12
806.641	16092.12
806.896	16400.12
807.151	16809.12
807.406	17094.12
807.661	17379.12
807.915	17766.12
808.17	18024.12
808.425	18181.12
808.679	18421.12
808.934	18744.12
809.188	18761.12
809.443	19150.12
809.697	19454.12
809.951	19598.12
810.206	19723.12
810.46	19930.12
810.714	20089.12
810.968	20466.12
811.223	20580.12
811.477	20814.12
811.731	20974.12
811.985	21012.12
812.239	21292.12
812.493	21295.12
812.747	21387.12
813	21451.12
813.254	21520.12
813.508	21666.12
813.762	21848.12
814.015	21866.12
814.269	22058.12
814.522	22439.12
814.776	22648.12
815.03	22931.12
815.283	23242.12
815.536	23708.12
815.79	23944.12
816.043	24560.12
816.296	24767.12
816.55	25051.12
816.803	25373.12
817.056	25871.12
817.309	26120.12
817.562	26388.12
817.815	26636.12
818.068	26781.12
818.321	27056.12
818.574	27532.12
818.827	27917.12
819.079	28318.12
819.332	28778.12
819.585	29133.12
819.838	29539.12
820.09	29630.12
820.343	29936.12
820.595	30054.12
820.848	30267.12
821.1	30517.12
821.353	30514.12
821.605	30444.12
821.857	30517.12
822.11	30311.12
822.362	30334.12
822.614	30284.12
822.866	30421.12
823.118	30435.12
823.37	30399.12
823.622	30392.12
823.874	30671.12
824.126	30847.12
824.378	30797.12
824.63	30959.12
824.882	31021.12
825.134	30939.12
825.385	31080.12
825.637	30850.12
825.888	30952.12
826.14	30729.12
826.392	30654.12
826.643	30457.12
826.895	30424.12
827.146	30200.12
827.397	30359.12
827.649	30283.12
827.9	30233.12
828.151	30290.12
828.402	30454.12
828.653	30518.12
828.905	30654.12
829.156	30657.12
829.407	30623.12
829.658	30676.12
829.909	30731.12
830.159	30771.12
830.41	30515.12
830.661	30487.12
830.912	30212.12
831.162	30218.12
831.413	30059.12
831.664	30129.12
831.914	30135.12
832.165	30010.12
832.415	30131.12
832.666	30065.12
832.916	30060.12
833.167	30077.12
833.417	30203.12
833.667	29979.12
833.917	29961.12
834.168	29834.12
834.418	29798.12
834.668	29577.12
834.918	29467.12
835.168	29442.12
835.418	29297.12
835.668	29235.12
835.918	29197.12
836.167	29185.12
836.417	28901.12
836.667	29134.12
836.917	29020.12
837.166	28923.12
837.416	28944.12
837.666	29010.12
837.915	29039.12
838.165	28699.12
838.414	28824.12
838.663	28648.12
838.913	28810.12
839.162	28693.12
839.411	28717.12
839.661	28649.12
839.91	28536.12
840.159	28531.12
840.408	28493.12
840.657	28523.12
840.906	28555.12
841.155	28535.12
841.404	28417.12
841.653	28432.12
841.902	28460.12
842.15	28544.12
842.399	28566.12
842.648	28557.12
842.897	28420.12
843.145	28124.12
843.394	28099.12
843.642	28011.12
843.891	27861.12
844.139	27693.12
844.388	27629.12
844.636	27407.12
844.884	27543.12
845.133	27384.12
845.381	27413.12
845.629	27389.12
845.877	27506.12
846.125	27440.12
846.373	27439.12
846.621	27251.12
846.869	27334.12
847.117	27151.12
847.365	26872.12
847.613	26677.12
847.861	26666.12
848.108	26675.12
848.356	26602.12
848.604	26664.12
848.851	26644.12
849.099	26750.12
849.346	26653.12
849.594	26851.12
849.841	26790.12
850.089	27068.12
850.336	27122.12
850.583	27002.12
850.831	26843.12
851.078	26758.12
851.325	26919.12
851.572	27010.12
851.819	26737.12
852.066	26156.12
852.313	25799.12
852.56	25556.12
852.807	25426.12
853.054	25317.12
853.301	25227.12
853.548	25377.12
853.794	25517.12
854.041	25546.12
854.288	25656.12
854.534	25883.12
854.781	25906.12
855.028	25691.12
855.274	25737.12
855.52	25573.12
855.767	25342.12
856.013	25493.12
856.26	25867.12
856.506	25200.12
856.752	25235.12
856.998	25357.12
857.244	25361.12
857.49	25503.12
857.736	25503.12
857.982	25502.12
858.228	25409.12
858.474	25348.12
858.72	25202.12
858.966	24916.12
859.212	24767.12
859.458	24364.12
859.703	24215.12
859.949	24017.12
860.195	23908.12
860.44	23817.12
860.686	23637.12
860.931	23685.12
861.177	23457.12
861.422	23395.12
861.667	23296.12
861.913	23331.12
862.158	23430.12
862.403	23483.12
862.648	23542.12
862.893	23512.12
863.138	23459.12
863.384	23477.12
863.629	23562.12
863.873	23468.12
864.118	23338.12
864.363	23245.12
864.608	23238.12
864.853	23174.12
865.098	23114.12
865.342	22960.12
865.587	22859.12
865.832	22765.12
866.076	22825.12
866.321	22763.12
866.565	22677.12
866.81	22529.12
867.054	22555.12
867.298	22640.12
867.543	22427.12
867.787	22390.12
868.031	22337.12
868.275	22300.12
868.519	22342.12
868.764	22254.12
869.008	22272.12
869.252	22311.12
869.496	22094.12
869.739	22082.12
869.983	22116.12
870.227	22101.12
870.471	22057.12
870.715	22268.12
870.958	22249.12
871.202	22345.12
871.446	22418.12
871.689	22375.12
871.933	22347.12
872.176	22314.12
872.42	22139.12
872.663	22152.12
872.906	22157.12
873.15	22071.12
873.393	21942.12
873.636	21988.12
873.879	21713.12
874.122	21565.12
874.366	21282.12
874.609	21154.12
874.852	21049.12
875.095	20961.12
875.337	20831.12
875.58	20603.12
875.823	20625.12
876.066	20701.12
876.309	20610.12
876.551	20450.12
876.794	20296.12
877.037	20347.12
877.279	20223.12
877.522	20327.12
877.764	20325.12
878.007	20263.12
878.249	20211.12
878.491	20153.12
878.734	20177.12
878.976	20121.12
879.218	19881.12
879.46	19854.12
879.702	19854.12
879.945	19607.12
880.187	19465.12
880.429	19231.12
880.671	19199.12
880.912	19241.12
881.154	19159.12
881.396	19158.12
881.638	19062.12
881.88	19092.12
882.121	19073.12
882.363	19065.12
882.605	19014.12
882.846	18968.12
883.088	19020.12
883.329	18965.12
883.571	18984.12
883.812	19103.12
884.053	19225.12
884.295	19621.12
884.536	19746.12
884.777	19696.12
885.018	19641.12
885.259	19597.12
885.5	19505.12
885.742	19767.12
885.982	19428.12
886.223	19201.12
886.464	19187.12
886.705	18920.12
886.946	18889.12
887.187	18530.12
887.428	18319.12
887.668	18076.12
887.909	17848.12
888.15	17613.12
888.39	17484.12
888.631	17460.12
888.871	17294.12
889.111	17275.12
889.352	17137.12
889.592	16984.12
889.833	16906.12
890.073	16715.12
890.313	16776.12
890.553	16594.12
890.793	16472.12
891.033	16455.12
891.273	16341.12
891.513	16268.12
891.753	16288.12
891.993	16271.12
892.233	16342.12
892.473	16472.12
892.713	16409.12
892.952	16369.12
893.192	16454.12
893.432	16459.12
893.671	16481.12
893.911	16395.12
894.15	16147.12
894.39	16179.12
894.629	16005.12
894.869	16032.12
895.108	15896.12
895.347	15782.12
895.587	15844.12
895.826	15700.12
896.065	15755.12
896.304	15880.12
896.543	15835.12
896.782	15603.12
897.021	15635.12
897.26	15707.12
897.499	15779.12
897.738	15738.12
897.977	15632.12
898.216	15493.12
898.454	15401.12
898.693	15300.12
898.932	15287.12
899.17	15211.12
899.409	15175.12
899.647	15119.12
899.886	15162.12
900.124	15137.12
900.363	15200.12
900.601	15133.12
900.839	15206.12
901.078	15244.12
901.316	15283.12
901.554	15383.12
901.792	15543.12
902.03	15515.12
902.268	15464.12
902.506	15525.12
902.744	15326.12
902.982	15211.12
903.22	14957.12
903.458	14752.12
903.695	14551.12
903.933	14323.12
904.171	14120.12
904.409	13903.12
904.646	13727.12
904.884	13523.12
905.121	13379.12
905.359	13224.12
905.596	13110.12
905.833	12892.12
906.071	12799.12
906.308	12847.12
906.545	12809.12
906.783	12643.12
907.02	12649.12
907.257	12530.12
907.494	12577.12
907.731	12523.12
907.968	12477.12
908.205	12370.12
908.442	12325.12
908.679	12242.12
908.915	12183.12
909.152	12078.12
909.389	11967.12
909.626	11924.12
909.862	11813.12
910.099	11791.12
910.335	11697.12
910.572	11661.12
910.808	11645.12
911.045	11561.12
911.281	11510.12
911.518	11507.12
911.754	11453.12
911.99	11329.12
912.226	11327.12
912.463	11123.12
912.699	11111.12
912.935	10980.12
913.171	10943.12
913.407	10873.12
913.643	10832.12
913.879	10713.12
914.114	10623.12
914.35	10498.12
914.586	10396.12
914.822	10366.12
915.057	10300.12
915.293	10141.12
915.529	10063.12
915.764	10216.12
916	10172.12
916.235	10087.12
916.471	10103.12
916.706	10011.12
916.941	10007.12
917.177	10014.12
917.412	10033.12
917.647	10075.12
917.882	9955.12
918.117	10002.12
918.352	9934.12
918.588	9964.12
918.823	9792.12
919.057	9727.12
919.292	9593.12
919.527	9668.12
919.762	9492.12
919.997	9427.12
920.232	9309.12
920.466	9301.12
920.701	9091.12
920.935	9077.12
921.17	9031.12
921.405	8971.12
921.639	9007.12
921.873	8928.12
922.108	8811.12
922.342	8919.12
922.576	8843.12
922.811	8790.12
923.045	8760.12
923.279	8817.12
923.513	8662.12
923.747	8638.12
923.981	8617.12
924.215	8526.12
924.449	8521.12
924.683	8473.12
924.917	8373.12
925.151	8374.12
925.385	8369.12
925.618	8295.12
925.852	8348.12
926.086	8224.12
926.319	8277.12
926.553	8307.12
926.786	8306.12
927.02	8278.12
927.253	8302.12
927.486	8266.12
927.72	8162.12
927.953	8184.12
928.186	8138.12
928.42	8123.12
928.653	8084.12
928.886	8029.12
929.119	8004.12
929.352	8058.12
929.585	7943.12
929.818	7885.12
930.051	7872.12
930.284	7752.12
930.516	7640.12
930.749	7643.12
930.982	7676.12
931.215	7574.12
931.447	7502.12
931.68	7443.12
931.912	7472.12
932.145	7471.12
932.377	7533.12
932.61	7670.12
932.842	7438.12
933.074	7513.12
933.307	7460.12
933.539	7525.12
933.771	7474.12
934.003	7459.12
934.236	7496.12
934.468	7577.12
934.7	7406.12
934.932	7440.12
935.164	7402.12
935.395	7351.12
935.627	7316.12
935.859	7354.12
936.091	7322.12
936.323	7284.12
936.554	7293.12
936.786	7251.12
937.017	7171.12
937.249	7163.12
937.481	7108.12
937.712	7155.12
937.943	7077.12
938.175	7099.12
938.406	7111.12
938.637	7164.12
938.869	7010.12
939.1	7064.12
939.331	6933.12
939.562	7015.12
939.793	6984.12
940.024	6990.12
940.255	7008.12
940.486	6856.12
940.717	6859.12
940.948	6869.12
941.179	6798.12
941.409	6804.12
941.64	6781.12
941.871	6771.12
942.102	6836.12
942.332	6751.12
942.563	6785.12
942.793	6796.12
943.024	6733.12
943.254	6782.12
943.484	6776.12
943.715	6810.12
943.945	6756.12
944.175	6717.12
944.405	6669.12
944.636	6627.12
944.866	6656.12
945.096	6685.12
945.326	6611.12
945.556	6648.12
945.786	6665.12
946.016	6479.12
946.245	6439.12
946.475	6420.12
946.705	6426.12
946.935	6376.12
947.164	6347.12
947.394	6324.12
947.624	6291.12
947.853	6304.12
948.083	6250.12
948.312	6214.12
948.542	6147.12
948.771	6122.12
949	6159.12
949.23	6070.12
949.459	6126.12
949.688	6194.12
949.917	6164.12
950.146	6055.12
950.375	6153.12
950.604	6065.12
950.833	6134.12
951.062	6073.12
951.291	6037.12
951.52	5977.12
951.749	6031.12
951.978	5966.12
952.206	5951.12
952.435	5917.12
952.664	6020.12
952.892	5925.12
953.121	5885.12
953.349	5868.12
953.578	5837.12
953.806	5761.12
954.035	5812.12
954.263	5772.12
954.491	5657.12
954.719	5701.12
954.948	5654.12
955.176	5678.12
955.404	5562.12
955.632	5589.12
955.86	5628.12
956.088	5561.12
956.316	5564.12
956.544	5564.12
956.772	5496.12
956.999	5391.12
957.227	5463.12
957.455	5364.12
957.683	5367.12
957.91	5342.12
958.138	5237.12
958.365	5272.12
958.593	5269.12
958.82	5170.12
959.048	5192.12
959.275	5161.12
959.502	5155.12
959.73	5166.12
959.957	5190.12
960.184	5194.12
960.411	5091.12
960.638	5142.12
960.865	5096.12
961.092	5107.12
961.319	5008.12
961.546	5154.12
961.773	5083.12
962	5038.12
962.227	5107.12
962.454	5072.12
962.68	5054.12
962.907	5038.12
963.134	4954.12
963.36	4978.12
963.587	4942.12
963.813	4850.12
964.04	4885.12
964.266	4784.12
964.493	4877.12
964.719	4815.12
964.945	4747.12
965.171	4678.12
965.398	4723.12
965.624	4717.12
965.85	4644.12
966.076	4576.12
966.302	4635.12
966.528	4584.12
966.754	4618.12
966.98	4579.12
967.206	4536.12
967.431	4496.12
967.657	4572.12
967.883	4519.12
968.109	4514.12
968.334	4443.12
968.56	4462.12
968.785	4508.12
969.011	4384.12
969.236	4452.12
969.462	4355.12
969.687	4401.12
969.912	4409.12
970.138	4484.12
970.363	4315.12
970.588	4384.12
970.813	4361.12
971.038	4257.12
971.263	4338.12
971.488	4283.12
971.713	4279.12
971.938	4264.12
972.163	4158.12
972.388	4210.12
972.613	4152.12
972.838	4150.12
973.062	4129.12
973.287	4144.12
973.512	4054.12
973.736	4115.12
973.961	4082.12
974.185	4020.12
974.41	4064.12
974.634	3918.12
974.858	3945.12
975.083	3942.12
975.307	3943.12
975.531	3871.12
975.755	3840.12
975.98	3818.12
976.204	3785.12
976.428	3724.12
976.652	3734.12
976.876	3695.12
977.1	3744.12
977.324	3690.12
977.547	3750.12
977.771	3697.12
977.995	3665.12
978.219	3610.12
978.442	3713.12
978.666	3664.12
978.89	3650.12
979.113	3653.12
979.337	3666.12
979.56	3582.12
979.783	3694.12
980.007	3581.12
980.23	3533.12
980.453	3514.12
980.677	3592.12
980.9	3513.12
981.123	3409.12
981.346	3529.12
981.569	3467.12
981.792	3499.12
982.015	3460.12
982.238	3421.12
982.461	3426.12
982.684	3378.12
982.907	3334.12
983.129	3316.12
983.352	3366.12
983.575	3320.12
983.797	3307.12
984.02	3262.12
984.242	3252.12
984.465	3231.12
984.687	3260.12
984.91	3275.12
985.132	3186.12
985.354	3218.12
985.577	3187.12
985.799	3161.12
986.021	3060.12
986.243	3091.12
986.465	3112.12
986.687	3148.12
986.909	3148.12
987.131	3122.12
987.353	3062.12
987.575	3125.12
987.797	3085.12
988.019	3028.12
988.241	3050.12
988.462	2990.12
988.684	3040.12
988.906	3097.12
989.127	3094.12
989.349	2974.12
989.57	3005.12
989.792	3021.12
990.013	3014.12
990.234	3048.12
990.456	3050.12
990.677	3027.12
990.898	2921.12
991.119	2948.12
991.341	2940.12
991.562	2879.12
991.783	2916.12
992.004	2796.12
992.225	2818.12
992.446	2856.12
992.667	2752.12
992.887	2787.12
993.108	2713.12
993.329	2863.12
993.55	2753.12
993.77	2676.12
993.991	2708.12
994.212	2733.12
994.432	2700.12
994.653	2713.12
994.873	2676.12
995.093	2577.12
995.314	2605.12
995.534	2688.12
995.754	2699.12
995.975	2707.12
996.195	2581.12
996.415	2607.12
996.635	2593.12
996.855	2626.12
997.075	2569.12
997.295	2564.12
997.515	2575.12
997.735	2643.12
997.955	2566.12
998.174	2557.12
998.394	2512.12
998.614	2593.12
998.834	2516.12
999.053	2570.12
999.273	2532.12
999.492	2535.12
999.712	2502.12
999.931	2473.12
1000.151	2489.12
1000.37	2499.12
1000.589	2464.12
1000.809	2438.12
1001.028	2564.12
1001.247	2479.12
1001.466	2332.12
1001.685	2493.12
1001.904	2429.12
1002.123	2406.12
1002.342	2395.12
1002.561	2352.12
1002.78	2369.12
1002.999	2412.12
1003.218	2353.12
1003.436	2340.12
1003.655	2319.12
1003.874	2317.12
1004.092	2282.12
1004.311	2328.12
1004.53	2278.12
1004.748	2348.12
1004.966	2290.12
1005.185	2339.12
1005.403	2308.12
1005.622	2281.12
1005.84	2320.12
1006.058	2274.12
1006.276	2286.12
1006.494	2761.12
1006.712	2271.12
1006.931	2350.12
1007.149	2260.12
1007.367	2256.12
1007.584	2292.12
1007.802	2331.12
1008.02	2251.12
1008.238	2361.12
1008.456	2339.12
1008.673	2267.12
1008.891	2357.12
1009.109	2316.12
1009.326	2391.12
1009.544	2472.12
1009.761	2386.12
1009.979	2535.12
1010.196	2570.12
1010.413	2670.12
1010.631	2751.12
1010.848	2824.12
1011.065	2831.12
1011.282	2811.12
1011.5	2756.12
1011.717	2862.12
1011.934	2779.12
1012.151	2806.12
1012.368	2793.12
1012.585	2732.12
1012.801	2808.12
1013.018	2798.12
1013.235	2750.12
1013.452	2784.12
1013.669	2790.12
1013.885	2747.12
1014.102	2842.12
1014.318	2753.12
1014.535	2715.12
1014.751	2774.12
1014.968	2762.12
1015.184	2796.12
1015.401	2682.12
1015.617	2711.12
1015.833	2643.12
1016.049	2674.12
1016.266	2636.12
1016.482	2616.12
1016.698	2518.12
1016.914	2611.12
1017.13	2560.12
1017.346	2513.12
1017.562	2591.12
1017.778	2510.12
1017.993	2484.12
1018.209	2496.12
1018.425	2525.12
1018.641	2462.12
1018.856	2448.12
1019.072	2482.12
1019.288	2561.12
1019.503	2500.12
1019.719	2408.12
1019.934	2474.12
1020.149	2501.12
1020.365	2427.12
1020.58	2362.12
1020.795	2364.12
1021.011	2281.12
1021.226	2248.12
1021.441	2258.12
1021.656	2119.12
1021.871	2076.12
1022.086	2037.12
1022.301	2038.12
1022.516	2009.12
1022.731	2006.12
1022.946	1935.12
1023.16	1935.12
1023.375	1865.12
1023.59	1822.12
1023.804	1789.12
1024.019	1837.12
1024.234	1708.12
1024.448	1737.12
1024.663	1675.12
1024.877	1664.12
1025.092	1659.12
1025.306	1643.12
1025.52	1554.12
1025.734	1602.12
1025.949	1527.12
1026.163	1466.12
1026.377	1388.12
1026.591	1442.12
1026.805	1355.12
1027.019	1337.12
1027.233	1286.12
1027.447	1224.12
1027.661	1341.12
1027.875	1249.12
1028.088	1269.12
1028.302	1132.12
1028.516	1149.12
1028.73	1118.12
1028.943	1100.12
1029.157	1034.12
1029.37	958.12
1029.584	-0.88
1029.797	2.12
1030.011	-2.88
1030.224	-8.88
