Data from QEP037381__69__15-20-45-862.txt Node

Date: Fri Dec 16 15:20:45 EST 2022
User: dcclab
Spectrometer: QEP03738
Trigger mode: 4
Integration Time (sec): 1.000000E1
Scans to average: 1
Electric dark correction enabled: true
Nonlinearity correction enabled: false
Boxcar width: 0
XAxis mode: Wavelengths
Number of Pixels in Spectrum: 1044
>>>>>Begin Spectral Data<<<<<
784.041	13.25
784.3	-0.75
784.558	0.25
784.817	-2.75
785.075	91801.25
785.334	15959.25
785.592	7395.25
785.851	5093.25
786.109	3849.25
786.368	3017.25
786.626	2407.25
786.884	2037.25
787.143	1726.25
787.401	1445.25
787.659	1293.25
787.917	1120.25
788.175	1016.25
788.433	911.25
788.691	833.25
788.949	771.25
789.207	737.25
789.465	645.25
789.723	621.25
789.98	577.25
790.238	626.25
790.496	579.25
790.753	553.25
791.011	619.25
791.268	552.25
791.526	530.25
791.783	537.25
792.041	535.25
792.298	453.25
792.556	511.25
792.813	492.25
793.07	491.25
793.327	468.25
793.584	530.25
793.841	475.25
794.099	480.25
794.356	537.25
794.613	435.25
794.869	494.25
795.126	434.25
795.383	430.25
795.64	460.25
795.897	403.25
796.153	457.25
796.41	439.25
796.667	422.25
796.923	436.25
797.18	443.25
797.436	479.25
797.693	433.25
797.949	489.25
798.206	520.25
798.462	432.25
798.718	508.25
798.974	478.25
799.231	521.25
799.487	503.25
799.743	509.25
799.999	551.25
800.255	552.25
800.511	533.25
800.767	591.25
801.023	587.25
801.279	619.25
801.534	674.25
801.79	728.25
802.046	770.25
802.302	928.25
802.557	1078.25
802.813	1357.25
803.068	1718.25
803.324	2395.25
803.579	3271.25
803.835	4543.25
804.09	6274.25
804.345	8273.25
804.601	10437.25
804.856	12741.25
805.111	14845.25
805.366	16310.25
805.621	17478.25
805.876	18350.25
806.131	18926.25
806.386	19316.25
806.641	19603.25
806.896	19943.25
807.151	20329.25
807.406	20683.25
807.661	21120.25
807.915	21589.25
808.17	21846.25
808.425	22155.25
808.679	22347.25
808.934	22739.25
809.188	22980.25
809.443	23147.25
809.697	23402.25
809.951	23669.25
810.206	23948.25
810.46	24190.25
810.714	24380.25
810.968	24767.25
811.223	24756.25
811.477	25090.25
811.731	25264.25
811.985	25442.25
812.239	25571.25
812.493	25859.25
812.747	25972.25
813	26008.25
813.254	26032.25
813.508	26217.25
813.762	26323.25
814.015	26495.25
814.269	26743.25
814.522	27095.25
814.776	27292.25
815.03	27788.25
815.283	28202.25
815.536	28644.25
815.79	29071.25
816.043	29533.25
816.296	29970.25
816.55	30436.25
816.803	30657.25
817.056	31012.25
817.309	31476.25
817.562	31770.25
817.815	32038.25
818.068	32298.25
818.321	32681.25
818.574	33177.25
818.827	33696.25
819.079	34067.25
819.332	34599.25
819.585	35196.25
819.838	35663.25
820.09	35841.25
820.343	36186.25
820.595	36427.25
820.848	36587.25
821.1	36758.25
821.353	36830.25
821.605	36904.25
821.857	36783.25
822.11	36670.25
822.362	36531.25
822.614	36597.25
822.866	36708.25
823.118	36607.25
823.37	36741.25
823.622	36944.25
823.874	36912.25
824.126	37155.25
824.378	37199.25
824.63	37373.25
824.882	37451.25
825.134	37528.25
825.385	37464.25
825.637	37441.25
825.888	37195.25
826.14	37337.25
826.392	36981.25
826.643	37001.25
826.895	36854.25
827.146	36882.25
827.397	36708.25
827.649	36803.25
827.9	36698.25
828.151	36700.25
828.402	36772.25
828.653	36938.25
828.905	37118.25
829.156	37132.25
829.407	37121.25
829.658	37270.25
829.909	37262.25
830.159	37072.25
830.41	37024.25
830.661	36690.25
830.912	36666.25
831.162	36472.25
831.413	36598.25
831.664	36458.25
831.914	36373.25
832.165	36490.25
832.415	36451.25
832.666	36472.25
832.916	36493.25
833.167	36549.25
833.417	36563.25
833.667	36343.25
833.917	36211.25
834.168	36240.25
834.418	36005.25
834.668	36069.25
834.918	35918.25
835.168	35757.25
835.418	35661.25
835.668	35441.25
835.918	35536.25
836.167	35354.25
836.417	35448.25
836.667	35331.25
836.917	35360.25
837.166	35164.25
837.416	35255.25
837.666	35294.25
837.915	35274.25
838.165	35059.25
838.414	34911.25
838.663	35083.25
838.913	34906.25
839.162	34798.25
839.411	34901.25
839.661	34793.25
839.91	34592.25
840.159	34484.25
840.408	34622.25
840.657	34571.25
840.906	34669.25
841.155	34724.25
841.404	34642.25
841.653	34796.25
841.902	34709.25
842.15	34844.25
842.399	34794.25
842.648	34750.25
842.897	34611.25
843.145	34320.25
843.394	34260.25
843.642	34037.25
843.891	33899.25
844.139	33785.25
844.388	33653.25
844.636	33530.25
844.884	33520.25
845.133	33416.25
845.381	33295.25
845.629	33523.25
845.877	33460.25
846.125	33408.25
846.373	33261.25
846.621	33161.25
846.869	33204.25
847.117	32950.25
847.365	32843.25
847.613	32649.25
847.861	32559.25
848.108	32661.25
848.356	32406.25
848.604	32459.25
848.851	32319.25
849.099	32515.25
849.346	32623.25
849.594	32654.25
849.841	32965.25
850.089	32854.25
850.336	32846.25
850.583	32956.25
850.831	32723.25
851.078	32625.25
851.325	32679.25
851.572	32653.25
851.819	32434.25
852.066	31891.25
852.313	31379.25
852.56	31268.25
852.807	30988.25
853.054	30964.25
853.301	30896.25
853.548	30918.25
853.794	31188.25
854.041	31245.25
854.288	31362.25
854.534	31698.25
854.781	31670.25
855.028	31465.25
855.274	31479.25
855.52	31300.25
855.767	31163.25
856.013	31183.25
856.26	31418.25
856.506	31078.25
856.752	30988.25
856.998	30864.25
857.244	31004.25
857.49	31179.25
857.736	31305.25
857.982	31223.25
858.228	31140.25
858.474	30949.25
858.72	30824.25
858.966	30392.25
859.212	30248.25
859.458	29979.25
859.703	29633.25
859.949	29467.25
860.195	29281.25
860.44	29119.25
860.686	28998.25
860.931	28965.25
861.177	28854.25
861.422	28790.25
861.667	28798.25
861.913	28600.25
862.158	28647.25
862.403	28830.25
862.648	28850.25
862.893	29139.25
863.138	28936.25
863.384	28927.25
863.629	28817.25
863.873	28993.25
864.118	28781.25
864.363	28669.25
864.608	28652.25
864.853	28392.25
865.098	28245.25
865.342	28255.25
865.587	28098.25
865.832	28163.25
866.076	28074.25
866.321	27950.25
866.565	28043.25
866.81	27891.25
867.054	27849.25
867.298	27582.25
867.543	27622.25
867.787	27528.25
868.031	27514.25
868.275	27471.25
868.519	27440.25
868.764	27380.25
869.008	27242.25
869.252	27323.25
869.496	27309.25
869.739	27109.25
869.983	27111.25
870.227	27150.25
870.471	27043.25
870.715	27380.25
870.958	27308.25
871.202	27456.25
871.446	27380.25
871.689	27473.25
871.933	27313.25
872.176	27472.25
872.42	27367.25
872.663	27168.25
872.906	27322.25
873.15	26984.25
873.393	27013.25
873.636	26875.25
873.879	26579.25
874.122	26397.25
874.366	26177.25
874.609	25955.25
874.852	25753.25
875.095	25685.25
875.337	25613.25
875.58	25538.25
875.823	25591.25
876.066	25441.25
876.309	25307.25
876.551	25133.25
876.794	24986.25
877.037	25176.25
877.279	24988.25
877.522	24903.25
877.764	25034.25
878.007	24917.25
878.249	25011.25
878.491	24906.25
878.734	24976.25
878.976	24894.25
879.218	24733.25
879.46	24609.25
879.702	24483.25
879.945	24413.25
880.187	24112.25
880.429	23963.25
880.671	23808.25
880.912	23900.25
881.154	23704.25
881.396	23713.25
881.638	23598.25
881.88	23571.25
882.121	23667.25
882.363	23595.25
882.605	23619.25
882.846	23501.25
883.088	23398.25
883.329	23312.25
883.571	23397.25
883.812	23499.25
884.053	23717.25
884.295	23971.25
884.536	24276.25
884.777	23994.25
885.018	24006.25
885.259	23956.25
885.5	23745.25
885.742	24032.25
885.982	23690.25
886.223	23665.25
886.464	23355.25
886.705	23332.25
886.946	23189.25
887.187	22977.25
887.428	22808.25
887.668	22378.25
887.909	22159.25
888.15	21881.25
888.39	21859.25
888.631	21723.25
888.871	21571.25
889.111	21483.25
889.352	21465.25
889.592	21209.25
889.833	21078.25
890.073	21007.25
890.313	20870.25
890.553	20653.25
890.793	20600.25
891.033	20463.25
891.273	20366.25
891.513	20375.25
891.753	20385.25
891.993	20294.25
892.233	20331.25
892.473	20457.25
892.713	20460.25
892.952	20351.25
893.192	20411.25
893.432	20457.25
893.671	20399.25
893.911	20256.25
894.15	20158.25
894.39	20051.25
894.629	19905.25
894.869	19846.25
895.108	19797.25
895.347	19774.25
895.587	19671.25
895.826	19648.25
896.065	19684.25
896.304	19632.25
896.543	19623.25
896.782	19570.25
897.021	19464.25
897.26	19457.25
897.499	19491.25
897.738	19449.25
897.977	19295.25
898.216	19190.25
898.454	19031.25
898.693	18883.25
898.932	18899.25
899.17	18861.25
899.409	18829.25
899.647	18699.25
899.886	18709.25
900.124	18771.25
900.363	18779.25
900.601	18795.25
900.839	18829.25
901.078	18811.25
901.316	18851.25
901.554	18986.25
901.792	18969.25
902.03	18906.25
902.268	18982.25
902.506	19061.25
902.744	18851.25
902.982	18621.25
903.22	18374.25
903.458	18210.25
903.695	17942.25
903.933	17754.25
904.171	17438.25
904.409	17165.25
904.646	17045.25
904.884	16800.25
905.121	16671.25
905.359	16493.25
905.596	16255.25
905.833	16182.25
906.071	16087.25
906.308	16024.25
906.545	15962.25
906.783	15976.25
907.02	15958.25
907.257	15881.25
907.494	15806.25
907.731	15773.25
907.968	15644.25
908.205	15574.25
908.442	15538.25
908.679	15338.25
908.915	15279.25
909.152	15165.25
909.389	15027.25
909.626	14949.25
909.862	14800.25
910.099	14812.25
910.335	14701.25
910.572	14678.25
910.808	14713.25
911.045	14536.25
911.281	14521.25
911.518	14509.25
911.754	14442.25
911.99	14276.25
912.226	14213.25
912.463	14129.25
912.699	13930.25
912.935	13967.25
913.171	13752.25
913.407	13682.25
913.643	13675.25
913.879	13501.25
914.114	13415.25
914.35	13198.25
914.586	13157.25
914.822	12952.25
915.057	13042.25
915.293	12840.25
915.529	12862.25
915.764	12800.25
916	12748.25
916.235	12762.25
916.471	12736.25
916.706	12648.25
916.941	12630.25
917.177	12571.25
917.412	12664.25
917.647	12593.25
917.882	12502.25
918.117	12708.25
918.352	12525.25
918.588	12548.25
918.823	12318.25
919.057	12195.25
919.292	12099.25
919.527	12019.25
919.762	11954.25
919.997	11909.25
920.232	11711.25
920.466	11711.25
920.701	11531.25
920.935	11473.25
921.17	11476.25
921.405	11358.25
921.639	11372.25
921.873	11243.25
922.108	11221.25
922.342	11210.25
922.576	11058.25
922.811	11097.25
923.045	11098.25
923.279	11055.25
923.513	10916.25
923.747	10963.25
923.981	10840.25
924.215	10738.25
924.449	10634.25
924.683	10598.25
924.917	10551.25
925.151	10520.25
925.385	10570.25
925.618	10529.25
925.852	10490.25
926.086	10309.25
926.319	10507.25
926.553	10420.25
926.786	10430.25
927.02	10418.25
927.253	10431.25
927.486	10406.25
927.72	10365.25
927.953	10401.25
928.186	10299.25
928.42	10318.25
928.653	10168.25
928.886	10110.25
929.119	10168.25
929.352	10055.25
929.585	10123.25
929.818	9926.25
930.051	9888.25
930.284	9869.25
930.516	9706.25
930.749	9626.25
930.982	9660.25
931.215	9594.25
931.447	9503.25
931.68	9499.25
931.912	9365.25
932.145	9498.25
932.377	9491.25
932.61	9528.25
932.842	9324.25
933.074	9476.25
933.307	9426.25
933.539	9452.25
933.771	9442.25
934.003	9394.25
934.236	9477.25
934.468	9486.25
934.7	9398.25
934.932	9389.25
935.164	9298.25
935.395	9294.25
935.627	9269.25
935.859	9289.25
936.091	9176.25
936.323	9220.25
936.554	9218.25
936.786	9269.25
937.017	8985.25
937.249	9008.25
937.481	9011.25
937.712	8993.25
937.943	9000.25
938.175	8962.25
938.406	8918.25
938.637	9014.25
938.869	8850.25
939.1	8913.25
939.331	8811.25
939.562	8919.25
939.793	8812.25
940.024	8808.25
940.255	8731.25
940.486	8753.25
940.717	8676.25
940.948	8596.25
941.179	8534.25
941.409	8528.25
941.64	8577.25
941.871	8500.25
942.102	8497.25
942.332	8580.25
942.563	8571.25
942.793	8627.25
943.024	8557.25
943.254	8518.25
943.484	8538.25
943.715	8515.25
943.945	8554.25
944.175	8441.25
944.405	8381.25
944.636	8366.25
944.866	8389.25
945.096	8407.25
945.326	8337.25
945.556	8366.25
945.786	8380.25
946.016	8297.25
946.245	8159.25
946.475	8135.25
946.705	8111.25
946.935	8047.25
947.164	8026.25
947.394	7931.25
947.624	7936.25
947.853	8020.25
948.083	7832.25
948.312	7872.25
948.542	7767.25
948.771	7729.25
949	7732.25
949.23	7709.25
949.459	7787.25
949.688	7813.25
949.917	7663.25
950.146	7699.25
950.375	7766.25
950.604	7605.25
950.833	7708.25
951.062	7665.25
951.291	7629.25
951.52	7542.25
951.749	7560.25
951.978	7475.25
952.206	7467.25
952.435	7401.25
952.664	7559.25
952.892	7480.25
953.121	7442.25
953.349	7446.25
953.578	7391.25
953.806	7379.25
954.035	7260.25
954.263	7284.25
954.491	7149.25
954.719	7228.25
954.948	7173.25
955.176	7081.25
955.404	7021.25
955.632	7099.25
955.86	7080.25
956.088	6996.25
956.316	7019.25
956.544	7017.25
956.772	6904.25
956.999	6805.25
957.227	6874.25
957.455	6713.25
957.683	6738.25
957.91	6682.25
958.138	6664.25
958.365	6579.25
958.593	6669.25
958.82	6535.25
959.048	6628.25
959.275	6563.25
959.502	6525.25
959.73	6502.25
959.957	6506.25
960.184	6527.25
960.411	6436.25
960.638	6498.25
960.865	6392.25
961.092	6455.25
961.319	6366.25
961.546	6469.25
961.773	6489.25
962	6390.25
962.227	6388.25
962.454	6378.25
962.68	6340.25
962.907	6358.25
963.134	6234.25
963.36	6227.25
963.587	6263.25
963.813	6108.25
964.04	6131.25
964.266	6029.25
964.493	6198.25
964.719	6034.25
964.945	6048.25
965.171	5930.25
965.398	6003.25
965.624	5911.25
965.85	5843.25
966.076	5799.25
966.302	5845.25
966.528	5816.25
966.754	5745.25
966.98	5732.25
967.206	5781.25
967.431	5677.25
967.657	5739.25
967.883	5686.25
968.109	5672.25
968.334	5594.25
968.56	5577.25
968.785	5597.25
969.011	5541.25
969.236	5627.25
969.462	5523.25
969.687	5483.25
969.912	5551.25
970.138	5516.25
970.363	5456.25
970.588	5505.25
970.813	5449.25
971.038	5388.25
971.263	5421.25
971.488	5410.25
971.713	5380.25
971.938	5379.25
972.163	5222.25
972.388	5267.25
972.613	5199.25
972.838	5233.25
973.062	5216.25
973.287	5196.25
973.512	5107.25
973.736	5099.25
973.961	5099.25
974.185	5067.25
974.41	5094.25
974.634	4917.25
974.858	4987.25
975.083	4969.25
975.307	4975.25
975.531	4859.25
975.755	4800.25
975.98	4805.25
976.204	4796.25
976.428	4740.25
976.652	4706.25
976.876	4653.25
977.1	4713.25
977.324	4677.25
977.547	4676.25
977.771	4698.25
977.995	4666.25
978.219	4587.25
978.442	4685.25
978.666	4599.25
978.89	4593.25
979.113	4571.25
979.337	4520.25
979.56	4511.25
979.783	4591.25
980.007	4489.25
980.23	4472.25
980.453	4425.25
980.677	4421.25
980.9	4435.25
981.123	4324.25
981.346	4428.25
981.569	4385.25
981.792	4379.25
982.015	4336.25
982.238	4235.25
982.461	4254.25
982.684	4221.25
982.907	4158.25
983.129	4127.25
983.352	4187.25
983.575	4130.25
983.797	4145.25
984.02	4086.25
984.242	4047.25
984.465	4077.25
984.687	4076.25
984.91	4066.25
985.132	4031.25
985.354	4007.25
985.577	4007.25
985.799	3935.25
986.021	3880.25
986.243	3899.25
986.465	3871.25
986.687	3920.25
986.909	3977.25
987.131	3914.25
987.353	3846.25
987.575	3847.25
987.797	3831.25
988.019	3710.25
988.241	3806.25
988.462	3746.25
988.684	3796.25
988.906	3834.25
989.127	3835.25
989.349	3698.25
989.57	3715.25
989.792	3714.25
990.013	3750.25
990.234	3715.25
990.456	3736.25
990.677	3711.25
990.898	3636.25
991.119	3625.25
991.341	3651.25
991.562	3560.25
991.783	3575.25
992.004	3549.25
992.225	3463.25
992.446	3502.25
992.667	3413.25
992.887	3508.25
993.108	3361.25
993.329	3491.25
993.55	3381.25
993.77	3323.25
993.991	3349.25
994.212	3376.25
994.432	3314.25
994.653	3339.25
994.873	3336.25
995.093	3185.25
995.314	3212.25
995.534	3238.25
995.754	3264.25
995.975	3302.25
996.195	3144.25
996.415	3189.25
996.635	3167.25
996.855	3203.25
997.075	3170.25
997.295	3139.25
997.515	3163.25
997.735	3184.25
997.955	3114.25
998.174	3123.25
998.394	3100.25
998.614	3151.25
998.834	3077.25
999.053	3163.25
999.273	3096.25
999.492	3119.25
999.712	3030.25
999.931	3032.25
1000.151	3031.25
1000.37	3010.25
1000.589	3043.25
1000.809	2959.25
1001.028	3057.25
1001.247	2975.25
1001.466	2867.25
1001.685	2992.25
1001.904	2912.25
1002.123	2885.25
1002.342	2886.25
1002.561	2812.25
1002.78	2861.25
1002.999	2854.25
1003.218	2824.25
1003.436	2774.25
1003.655	2844.25
1003.874	2731.25
1004.092	2799.25
1004.311	2813.25
1004.53	2734.25
1004.748	2828.25
1004.966	2743.25
1005.185	2787.25
1005.403	2769.25
1005.622	2732.25
1005.84	2808.25
1006.058	2698.25
1006.276	2669.25
1006.494	3165.25
1006.712	2673.25
1006.931	2730.25
1007.149	2687.25
1007.367	2690.25
1007.584	2714.25
1007.802	2731.25
1008.02	2671.25
1008.238	2784.25
1008.456	2774.25
1008.673	2665.25
1008.891	2772.25
1009.109	2739.25
1009.326	2782.25
1009.544	2858.25
1009.761	2799.25
1009.979	2919.25
1010.196	2971.25
1010.413	3087.25
1010.631	3179.25
1010.848	3192.25
1011.065	3229.25
1011.282	3219.25
1011.5	3126.25
1011.717	3243.25
1011.934	3155.25
1012.151	3231.25
1012.368	3163.25
1012.585	3070.25
1012.801	3123.25
1013.018	3122.25
1013.235	3130.25
1013.452	3082.25
1013.669	3135.25
1013.885	3097.25
1014.102	3155.25
1014.318	3144.25
1014.535	3079.25
1014.751	3123.25
1014.968	3075.25
1015.184	3079.25
1015.401	3012.25
1015.617	3019.25
1015.833	2952.25
1016.049	2944.25
1016.266	2941.25
1016.482	2897.25
1016.698	2867.25
1016.914	2871.25
1017.13	2777.25
1017.346	2815.25
1017.562	2832.25
1017.778	2759.25
1017.993	2776.25
1018.209	2767.25
1018.425	2785.25
1018.641	2724.25
1018.856	2715.25
1019.072	2742.25
1019.288	2780.25
1019.503	2753.25
1019.719	2658.25
1019.934	2666.25
1020.149	2751.25
1020.365	2657.25
1020.58	2602.25
1020.795	2627.25
1021.011	2532.25
1021.226	2443.25
1021.441	2489.25
1021.656	2355.25
1021.871	2282.25
1022.086	2260.25
1022.301	2223.25
1022.516	2184.25
1022.731	2220.25
1022.946	2151.25
1023.16	2103.25
1023.375	2067.25
1023.59	2039.25
1023.804	1981.25
1024.019	2060.25
1024.234	1924.25
1024.448	1953.25
1024.663	1856.25
1024.877	1839.25
1025.092	1825.25
1025.306	1837.25
1025.52	1722.25
1025.734	1782.25
1025.949	1688.25
1026.163	1628.25
1026.377	1573.25
1026.591	1593.25
1026.805	1504.25
1027.019	1492.25
1027.233	1434.25
1027.447	1363.25
1027.661	1492.25
1027.875	1426.25
1028.088	1429.25
1028.302	1296.25
1028.516	1280.25
1028.73	1253.25
1028.943	1242.25
1029.157	1159.25
1029.37	1069.25
1029.584	-1.75
1029.797	-1.75
1030.011	-2.75
1030.224	-3.75
