Data from QEP037381__101__15-26-05-867.txt Node

Date: Fri Dec 16 15:26:05 EST 2022
User: dcclab
Spectrometer: QEP03738
Trigger mode: 4
Integration Time (sec): 1.000000E1
Scans to average: 1
Electric dark correction enabled: true
Nonlinearity correction enabled: false
Boxcar width: 0
XAxis mode: Wavelengths
Number of Pixels in Spectrum: 1044
>>>>>Begin Spectral Data<<<<<
784.041	11
784.3	1
784.558	-2
784.817	-3
785.075	91929
785.334	15872
785.592	7393
785.851	5061
786.109	3809
786.368	3054
786.626	2469
786.884	2016
787.143	1755
787.401	1441
787.659	1303
787.917	1116
788.175	1030
788.433	909
788.691	815
788.949	751
789.207	732
789.465	642
789.723	610
789.98	560
790.238	601
790.496	581
790.753	532
791.011	594
791.268	524
791.526	500
791.783	528
792.041	508
792.298	439
792.556	494
792.813	473
793.07	459
793.327	442
793.584	527
793.841	438
794.099	462
794.356	541
794.613	431
794.869	468
795.126	434
795.383	423
795.64	431
795.897	378
796.153	433
796.41	436
796.667	428
796.923	431
797.18	439
797.436	453
797.693	418
797.949	464
798.206	490
798.462	417
798.718	472
798.974	437
799.231	495
799.487	487
799.743	480
799.999	519
800.255	494
800.511	496
800.767	540
801.023	543
801.279	582
801.534	610
801.79	662
802.046	690
802.302	839
802.557	949
802.813	1197
803.068	1449
803.324	2056
803.579	2767
803.835	3823
804.09	5233
804.345	6909
804.601	8690
804.856	10584
805.111	12266
805.366	13379
805.621	14291
805.876	15001
806.131	15266
806.386	15610
806.641	15898
806.896	16160
807.151	16485
807.406	16814
807.661	17086
807.915	17438
808.17	17718
808.425	17909
808.679	18082
808.934	18338
809.188	18658
809.443	18784
809.697	18972
809.951	19117
810.206	19407
810.46	19575
810.714	19772
810.968	19939
811.223	20142
811.477	20319
811.731	20627
811.985	20655
812.239	20696
812.493	20920
812.747	20959
813	20975
813.254	21210
813.508	21287
813.762	21270
814.015	21489
814.269	21675
814.522	21836
814.776	22138
815.03	22465
815.283	22681
815.536	23140
815.79	23570
816.043	23798
816.296	24134
816.55	24454
816.803	24740
817.056	25223
817.309	25437
817.562	25643
817.815	25949
818.068	26012
818.321	26368
818.574	26794
818.827	27107
819.079	27565
819.332	27872
819.585	28341
819.838	28785
820.09	28901
820.343	29179
820.595	29217
820.848	29471
821.1	29577
821.353	29589
821.605	29609
821.857	29601
822.11	29410
822.362	29415
822.614	29414
822.866	29436
823.118	29439
823.37	29586
823.622	29662
823.874	29770
824.126	29964
824.378	29934
824.63	30071
824.882	30077
825.134	30209
825.385	30136
825.637	29883
825.888	29865
826.14	29926
826.392	29810
826.643	29679
826.895	29450
827.146	29473
827.397	29449
827.649	29551
827.9	29466
828.151	29547
828.402	29509
828.653	29561
828.905	29804
829.156	29813
829.407	29725
829.658	29903
829.909	29895
830.159	29938
830.41	29727
830.661	29414
830.912	29494
831.162	29387
831.413	29344
831.664	29328
831.914	29274
832.165	29161
832.415	29263
832.666	29207
832.916	29279
833.167	29238
833.417	29295
833.667	29117
833.917	29107
834.168	29102
834.418	28945
834.668	28822
834.918	28738
835.168	28651
835.418	28535
835.668	28405
835.918	28435
836.167	28430
836.417	28356
836.667	28342
836.917	28168
837.166	28229
837.416	28194
837.666	28250
837.915	28163
838.165	28097
838.414	28077
838.663	27967
838.913	28046
839.162	28062
839.411	28036
839.661	27846
839.91	27900
840.159	27675
840.408	27756
840.657	27793
840.906	27753
841.155	27811
841.404	27700
841.653	27843
841.902	27853
842.15	27864
842.399	27885
842.648	27917
842.897	27827
843.145	27522
843.394	27298
843.642	27369
843.891	27082
844.139	27032
844.388	26914
844.636	26827
844.884	26892
845.133	26807
845.381	26703
845.629	26875
845.877	26806
846.125	26777
846.373	26728
846.621	26670
846.869	26653
847.117	26390
847.365	26257
847.613	26167
847.861	25931
848.108	26184
848.356	26111
848.604	25867
848.851	26074
849.099	26032
849.346	26144
849.594	26199
849.841	26355
850.089	26345
850.336	26318
850.583	26318
850.831	26263
851.078	26143
851.325	26243
851.572	26282
851.819	26094
852.066	25593
852.313	25219
852.56	24915
852.807	24837
853.054	24822
853.301	24866
853.548	24918
853.794	25028
854.041	25061
854.288	25163
854.534	25396
854.781	25471
855.028	25363
855.274	25288
855.52	25261
855.767	25080
856.013	25185
856.26	25308
856.506	24812
856.752	24893
856.998	24760
857.244	24902
857.49	25050
857.736	25031
857.982	25063
858.228	25075
858.474	24926
858.72	24779
858.966	24498
859.212	24256
859.458	24083
859.703	23828
859.949	23648
860.195	23489
860.44	23402
860.686	23383
860.931	23305
861.177	23248
861.422	22969
861.667	23017
861.913	23054
862.158	23139
862.403	23098
862.648	23206
862.893	23220
863.138	23217
863.384	23162
863.629	23121
863.873	23172
864.118	22977
864.363	22850
864.608	22938
864.853	22873
865.098	22716
865.342	22695
865.587	22427
865.832	22553
866.076	22505
866.321	22448
866.565	22378
866.81	22269
867.054	22205
867.298	22151
867.543	22044
867.787	22229
868.031	22011
868.275	21984
868.519	21993
868.764	22066
869.008	21928
869.252	21906
869.496	21893
869.739	21922
869.983	21882
870.227	21866
870.471	21874
870.715	21959
870.958	21988
871.202	21927
871.446	22079
871.689	22148
871.933	22130
872.176	22056
872.42	22041
872.663	21920
872.906	21897
873.15	21912
873.393	21820
873.636	21717
873.879	21648
874.122	21385
874.366	21104
874.609	20955
874.852	20783
875.095	20687
875.337	20663
875.58	20508
875.823	20546
876.066	20560
876.309	20430
876.551	20272
876.794	20190
877.037	20210
877.279	20039
877.522	20061
877.764	20163
878.007	20054
878.249	20024
878.491	19941
878.734	20047
878.976	19919
879.218	19723
879.46	19731
879.702	19638
879.945	19492
880.187	19211
880.429	19221
880.671	19066
880.912	19062
881.154	18954
881.396	18899
881.638	18969
881.88	18879
882.121	18908
882.363	18910
882.605	18947
882.846	18960
883.088	18822
883.329	18864
883.571	18966
883.812	19000
884.053	19285
884.295	19630
884.536	19797
884.777	19731
885.018	19611
885.259	19645
885.5	19493
885.742	19695
885.982	19591
886.223	19263
886.464	19108
886.705	18895
886.946	18753
887.187	18443
887.428	18383
887.668	17976
887.909	17760
888.15	17610
888.39	17490
888.631	17589
888.871	17375
889.111	17094
889.352	16963
889.592	17011
889.833	16786
890.073	16646
890.313	16712
890.553	16588
890.793	16473
891.033	16452
891.273	16379
891.513	16331
891.753	16392
891.993	16253
892.233	16297
892.473	16434
892.713	16325
892.952	16461
893.192	16394
893.432	16302
893.671	16438
893.911	16326
894.15	16181
894.39	15952
894.629	15983
894.869	16020
895.108	15878
895.347	15815
895.587	15812
895.826	15764
896.065	15778
896.304	15882
896.543	15753
896.782	15655
897.021	15760
897.26	15738
897.499	15744
897.738	15629
897.977	15603
898.216	15457
898.454	15387
898.693	15328
898.932	15373
899.17	15114
899.409	15128
899.647	15153
899.886	15205
900.124	15239
900.363	15186
900.601	15294
900.839	15293
901.078	15365
901.316	15351
901.554	15548
901.792	15555
902.03	15556
902.268	15495
902.506	15560
902.744	15356
902.982	15305
903.22	15018
903.458	14828
903.695	14588
903.933	14363
904.171	14221
904.409	13912
904.646	13772
904.884	13546
905.121	13455
905.359	13258
905.596	13137
905.833	12965
906.071	12936
906.308	12903
906.545	12824
906.783	12753
907.02	12794
907.257	12700
907.494	12653
907.731	12620
907.968	12570
908.205	12438
908.442	12393
908.679	12349
908.915	12246
909.152	12120
909.389	12049
909.626	11922
909.862	11914
910.099	11813
910.335	11884
910.572	11672
910.808	11733
911.045	11659
911.281	11666
911.518	11581
911.754	11436
911.99	11382
912.226	11355
912.463	11303
912.699	11197
912.935	11103
913.171	11055
913.407	10919
913.643	10826
913.879	10749
914.114	10706
914.35	10521
914.586	10561
914.822	10454
915.057	10411
915.293	10256
915.529	10181
915.764	10255
916	10210
916.235	10303
916.471	10279
916.706	10141
916.941	10137
917.177	10106
917.412	10142
917.647	10155
917.882	10097
918.117	10083
918.352	10056
918.588	9965
918.823	9847
919.057	9777
919.292	9653
919.527	9727
919.762	9569
919.997	9515
920.232	9400
920.466	9355
920.701	9214
920.935	9199
921.17	9114
921.405	9081
921.639	9112
921.873	9052
922.108	8940
922.342	8973
922.576	8948
922.811	8853
923.045	8920
923.279	8873
923.513	8745
923.747	8812
923.981	8726
924.215	8652
924.449	8645
924.683	8508
924.917	8456
925.151	8457
925.385	8440
925.618	8395
925.852	8391
926.086	8347
926.319	8340
926.553	8312
926.786	8365
927.02	8259
927.253	8436
927.486	8380
927.72	8269
927.953	8380
928.186	8279
928.42	8288
928.653	8185
928.886	8141
929.119	8162
929.352	8124
929.585	7993
929.818	7964
930.051	7932
930.284	7874
930.516	7765
930.749	7753
930.982	7781
931.215	7726
931.447	7631
931.68	7697
931.912	7587
932.145	7681
932.377	7625
932.61	7807
932.842	7599
933.074	7602
933.307	7502
933.539	7653
933.771	7649
934.003	7581
934.236	7669
934.468	7658
934.7	7525
934.932	7523
935.164	7495
935.395	7431
935.627	7451
935.859	7466
936.091	7408
936.323	7456
936.554	7394
936.786	7398
937.017	7291
937.249	7321
937.481	7192
937.712	7294
937.943	7226
938.175	7246
938.406	7167
938.637	7294
938.869	7181
939.1	7213
939.331	7156
939.562	7135
939.793	7101
940.024	7091
940.255	7148
940.486	6980
940.717	7002
940.948	6972
941.179	6961
941.409	6936
941.64	6936
941.871	6865
942.102	6924
942.332	6887
942.563	6967
942.793	6954
943.024	6840
943.254	6898
943.484	6896
943.715	6910
943.945	6860
944.175	6837
944.405	6801
944.636	6816
944.866	6797
945.096	6796
945.326	6797
945.556	6749
945.786	6754
946.016	6663
946.245	6600
946.475	6566
946.705	6533
946.935	6512
947.164	6532
947.394	6430
947.624	6460
947.853	6438
948.083	6410
948.312	6324
948.542	6283
948.771	6209
949	6214
949.23	6228
949.459	6213
949.688	6298
949.917	6254
950.146	6227
950.375	6269
950.604	6168
950.833	6264
951.062	6219
951.291	6218
951.52	6158
951.749	6092
951.978	6027
952.206	6005
952.435	6067
952.664	6102
952.892	6130
953.121	6074
953.349	6007
953.578	5970
953.806	5928
954.035	5900
954.263	5862
954.491	5839
954.719	5844
954.948	5816
955.176	5758
955.404	5651
955.632	5752
955.86	5685
956.088	5657
956.316	5603
956.544	5649
956.772	5564
956.999	5539
957.227	5595
957.455	5487
957.683	5447
957.91	5404
958.138	5387
958.365	5351
958.593	5360
958.82	5298
959.048	5346
959.275	5303
959.502	5280
959.73	5290
959.957	5269
960.184	5305
960.411	5246
960.638	5322
960.865	5211
961.092	5278
961.319	5114
961.546	5205
961.773	5236
962	5192
962.227	5213
962.454	5207
962.68	5148
962.907	5155
963.134	5072
963.36	5089
963.587	5086
963.813	4951
964.04	5011
964.266	4903
964.493	4991
964.719	4927
964.945	4937
965.171	4803
965.398	4832
965.624	4832
965.85	4804
966.076	4742
966.302	4763
966.528	4709
966.754	4723
966.98	4728
967.206	4686
967.431	4639
967.657	4675
967.883	4659
968.109	4663
968.334	4552
968.56	4551
968.785	4572
969.011	4462
969.236	4571
969.462	4487
969.687	4467
969.912	4535
970.138	4518
970.363	4447
970.588	4460
970.813	4410
971.038	4375
971.263	4454
971.488	4374
971.713	4402
971.938	4419
972.163	4265
972.388	4263
972.613	4280
972.838	4251
973.062	4219
973.287	4276
973.512	4160
973.736	4175
973.961	4132
974.185	4131
974.41	4144
974.634	4059
974.858	4038
975.083	4058
975.307	4050
975.531	3956
975.755	3972
975.98	3928
976.204	3897
976.428	3823
976.652	3837
976.876	3848
977.1	3844
977.324	3761
977.547	3833
977.771	3832
977.995	3815
978.219	3733
978.442	3831
978.666	3746
978.89	3749
979.113	3741
979.337	3713
979.56	3655
979.783	3739
980.007	3648
980.23	3702
980.453	3600
980.677	3682
980.9	3672
981.123	3538
981.346	3635
981.569	3603
981.792	3590
982.015	3552
982.238	3501
982.461	3479
982.684	3498
982.907	3418
983.129	3420
983.352	3458
983.575	3452
983.797	3449
984.02	3353
984.242	3367
984.465	3364
984.687	3367
984.91	3389
985.132	3340
985.354	3367
985.577	3283
985.799	3268
986.021	3191
986.243	3245
986.465	3218
986.687	3249
986.909	3287
987.131	3201
987.353	3160
987.575	3205
987.797	3135
988.019	3038
988.241	3134
988.462	3105
988.684	3184
988.906	3178
989.127	3152
989.349	3060
989.57	3107
989.792	3058
990.013	3113
990.234	3137
990.456	3076
990.677	3048
990.898	3039
991.119	3064
991.341	3042
991.562	2980
991.783	2999
992.004	2916
992.225	2862
992.446	2927
992.667	2815
992.887	2939
993.108	2792
993.329	2922
993.55	2885
993.77	2792
993.991	2744
994.212	2810
994.432	2789
994.653	2823
994.873	2761
995.093	2672
995.314	2697
995.534	2751
995.754	2764
995.975	2770
996.195	2634
996.415	2712
996.635	2661
996.855	2703
997.075	2687
997.295	2681
997.515	2662
997.735	2709
997.955	2680
998.174	2614
998.394	2610
998.614	2648
998.834	2596
999.053	2680
999.273	2681
999.492	2667
999.712	2595
999.931	2567
1000.151	2593
1000.37	2571
1000.589	2586
1000.809	2528
1001.028	2616
1001.247	2534
1001.466	2432
1001.685	2567
1001.904	2493
1002.123	2477
1002.342	2474
1002.561	2429
1002.78	2429
1002.999	2496
1003.218	2422
1003.436	2391
1003.655	2451
1003.874	2355
1004.092	2407
1004.311	2426
1004.53	2372
1004.748	2447
1004.966	2345
1005.185	2417
1005.403	2395
1005.622	2339
1005.84	2429
1006.058	2336
1006.276	2324
1006.494	2825
1006.712	2347
1006.931	2426
1007.149	2300
1007.367	2362
1007.584	2365
1007.802	2394
1008.02	2379
1008.238	2446
1008.456	2465
1008.673	2324
1008.891	2469
1009.109	2463
1009.326	2493
1009.544	2622
1009.761	2555
1009.979	2712
1010.196	2695
1010.413	2855
1010.631	3001
1010.848	3043
1011.065	3102
1011.282	3055
1011.5	2970
1011.717	3087
1011.934	3045
1012.151	3055
1012.368	3010
1012.585	2953
1012.801	2994
1013.018	2993
1013.235	2937
1013.452	2993
1013.669	2999
1013.885	3042
1014.102	3046
1014.318	3047
1014.535	2975
1014.751	3012
1014.968	3001
1015.184	3009
1015.401	2927
1015.617	2929
1015.833	2843
1016.049	2854
1016.266	2819
1016.482	2820
1016.698	2734
1016.914	2742
1017.13	2704
1017.346	2668
1017.562	2751
1017.778	2710
1017.993	2627
1018.209	2703
1018.425	2658
1018.641	2614
1018.856	2637
1019.072	2691
1019.288	2703
1019.503	2660
1019.719	2552
1019.934	2562
1020.149	2667
1020.365	2541
1020.58	2491
1020.795	2495
1021.011	2387
1021.226	2372
1021.441	2333
1021.656	2253
1021.871	2146
1022.086	2150
1022.301	2147
1022.516	2089
1022.731	2148
1022.946	2010
1023.16	1985
1023.375	1940
1023.59	1934
1023.804	1862
1024.019	1957
1024.234	1793
1024.448	1836
1024.663	1704
1024.877	1750
1025.092	1721
1025.306	1716
1025.52	1618
1025.734	1695
1025.949	1544
1026.163	1487
1026.377	1445
1026.591	1493
1026.805	1407
1027.019	1401
1027.233	1358
1027.447	1269
1027.661	1390
1027.875	1322
1028.088	1319
1028.302	1215
1028.516	1187
1028.73	1172
1028.943	1136
1029.157	1072
1029.37	1006
1029.584	-3
1029.797	-5
1030.011	0
1030.224	1
