Data from QEP037381__88__15-23-55-864.txt Node

Date: Fri Dec 16 15:23:55 EST 2022
User: dcclab
Spectrometer: QEP03738
Trigger mode: 4
Integration Time (sec): 1.000000E1
Scans to average: 1
Electric dark correction enabled: true
Nonlinearity correction enabled: false
Boxcar width: 0
XAxis mode: Wavelengths
Number of Pixels in Spectrum: 1044
>>>>>Begin Spectral Data<<<<<
784.041	10.88
784.3	-1.12
784.558	-0.12
784.817	-3.12
785.075	90951.88
785.334	15665.88
785.592	7308.88
785.851	5012.88
786.109	3778.88
786.368	2958.88
786.626	2415.88
786.884	1996.88
787.143	1693.88
787.401	1365.88
787.659	1283.88
787.917	1085.88
788.175	1010.88
788.433	887.88
788.691	814.88
788.949	733.88
789.207	736.88
789.465	626.88
789.723	611.88
789.98	546.88
790.238	591.88
790.496	562.88
790.753	542.88
791.011	587.88
791.268	528.88
791.526	507.88
791.783	524.88
792.041	514.88
792.298	422.88
792.556	488.88
792.813	477.88
793.07	467.88
793.327	447.88
793.584	525.88
793.841	443.88
794.099	463.88
794.356	512.88
794.613	431.88
794.869	467.88
795.126	438.88
795.383	401.88
795.64	423.88
795.897	378.88
796.153	437.88
796.41	434.88
796.667	428.88
796.923	429.88
797.18	433.88
797.436	444.88
797.693	413.88
797.949	481.88
798.206	491.88
798.462	404.88
798.718	468.88
798.974	451.88
799.231	495.88
799.487	472.88
799.743	490.88
799.999	520.88
800.255	513.88
800.511	495.88
800.767	544.88
801.023	547.88
801.279	564.88
801.534	609.88
801.79	650.88
802.046	702.88
802.302	838.88
802.557	965.88
802.813	1160.88
803.068	1463.88
803.324	1980.88
803.579	2679.88
803.835	3710.88
804.09	5122.88
804.345	6693.88
804.601	8497.88
804.856	10239.88
805.111	11837.88
805.366	13006.88
805.621	13934.88
805.876	14519.88
806.131	14912.88
806.386	15179.88
806.641	15421.88
806.896	15712.88
807.151	16090.88
807.406	16250.88
807.661	16604.88
807.915	16948.88
808.17	17243.88
808.425	17426.88
808.679	17466.88
808.934	17796.88
809.188	17906.88
809.443	18074.88
809.697	18395.88
809.951	18535.88
810.206	18718.88
810.46	18990.88
810.714	19065.88
810.968	19191.88
811.223	19415.88
811.477	19651.88
811.731	19799.88
811.985	19777.88
812.239	19813.88
812.493	20004.88
812.747	20175.88
813	20116.88
813.254	20265.88
813.508	20435.88
813.762	20490.88
814.015	20612.88
814.269	20760.88
814.522	20875.88
814.776	21182.88
815.03	21443.88
815.283	21784.88
815.536	22085.88
815.79	22390.88
816.043	22735.88
816.296	23153.88
816.55	23384.88
816.803	23631.88
817.056	23982.88
817.309	24149.88
817.562	24366.88
817.815	24641.88
818.068	24853.88
818.321	25036.88
818.574	25409.88
818.827	25645.88
819.079	26038.88
819.332	26586.88
819.585	26926.88
819.838	27106.88
820.09	27292.88
820.343	27615.88
820.595	27635.88
820.848	27904.88
821.1	27847.88
821.353	27988.88
821.605	27993.88
821.857	27847.88
822.11	27898.88
822.362	27771.88
822.614	27639.88
822.866	27788.88
823.118	27678.88
823.37	27825.88
823.622	27901.88
823.874	28046.88
824.126	28151.88
824.378	28191.88
824.63	28279.88
824.882	28252.88
825.134	28261.88
825.385	28250.88
825.637	28224.88
825.888	28141.88
826.14	27957.88
826.392	27993.88
826.643	27845.88
826.895	27708.88
827.146	27709.88
827.397	27590.88
827.649	27581.88
827.9	27491.88
828.151	27562.88
828.402	27496.88
828.653	27665.88
828.905	27861.88
829.156	27869.88
829.407	27817.88
829.658	27793.88
829.909	27911.88
830.159	27905.88
830.41	27816.88
830.661	27674.88
830.912	27351.88
831.162	27230.88
831.413	27310.88
831.664	27352.88
831.914	27233.88
832.165	27296.88
832.415	27247.88
832.666	27167.88
832.916	27325.88
833.167	27261.88
833.417	27309.88
833.667	27186.88
833.917	27184.88
834.168	27158.88
834.418	27115.88
834.668	26905.88
834.918	26788.88
835.168	26555.88
835.418	26442.88
835.668	26429.88
835.918	26445.88
836.167	26393.88
836.417	26285.88
836.667	26219.88
836.917	26195.88
837.166	26193.88
837.416	26237.88
837.666	26210.88
837.915	26102.88
838.165	26070.88
838.414	25967.88
838.663	25906.88
838.913	26076.88
839.162	25918.88
839.411	25920.88
839.661	25835.88
839.91	25700.88
840.159	25751.88
840.408	25659.88
840.657	25795.88
840.906	25750.88
841.155	25692.88
841.404	25731.88
841.653	25750.88
841.902	25664.88
842.15	25659.88
842.399	25761.88
842.648	25737.88
842.897	25672.88
843.145	25376.88
843.394	25330.88
843.642	25178.88
843.891	24972.88
844.139	24977.88
844.388	24790.88
844.636	24711.88
844.884	24607.88
845.133	24584.88
845.381	24707.88
845.629	24658.88
845.877	24638.88
846.125	24566.88
846.373	24651.88
846.621	24404.88
846.869	24341.88
847.117	24232.88
847.365	24117.88
847.613	24121.88
847.861	23899.88
848.108	23939.88
848.356	23846.88
848.604	23803.88
848.851	23808.88
849.099	23817.88
849.346	24024.88
849.594	24168.88
849.841	24118.88
850.089	24035.88
850.336	24124.88
850.583	24204.88
850.831	24075.88
851.078	24013.88
851.325	24033.88
851.572	24171.88
851.819	23945.88
852.066	23428.88
852.313	23070.88
852.56	22874.88
852.807	22854.88
853.054	22786.88
853.301	22746.88
853.548	22796.88
853.794	22852.88
854.041	22965.88
854.288	23055.88
854.534	23178.88
854.781	23210.88
855.028	23073.88
855.274	22939.88
855.52	22877.88
855.767	22908.88
856.013	22908.88
856.26	23151.88
856.506	22676.88
856.752	22669.88
856.998	22752.88
857.244	22754.88
857.49	22806.88
857.736	22939.88
857.982	22794.88
858.228	22881.88
858.474	22647.88
858.72	22443.88
858.966	22364.88
859.212	22104.88
859.458	21834.88
859.703	21646.88
859.949	21598.88
860.195	21382.88
860.44	21361.88
860.686	21241.88
860.931	21199.88
861.177	20934.88
861.422	20924.88
861.667	20881.88
861.913	20915.88
862.158	20755.88
862.403	20921.88
862.648	21094.88
862.893	21133.88
863.138	21080.88
863.384	20921.88
863.629	21046.88
863.873	20934.88
864.118	20891.88
864.363	20821.88
864.608	20771.88
864.853	20609.88
865.098	20488.88
865.342	20422.88
865.587	20332.88
865.832	20394.88
866.076	20400.88
866.321	20270.88
866.565	20364.88
866.81	20173.88
867.054	20279.88
867.298	20053.88
867.543	20048.88
867.787	20075.88
868.031	19909.88
868.275	19957.88
868.519	19875.88
868.764	19900.88
869.008	19876.88
869.252	19809.88
869.496	19699.88
869.739	19682.88
869.983	19711.88
870.227	19716.88
870.471	19790.88
870.715	19871.88
870.958	19908.88
871.202	19932.88
871.446	20047.88
871.689	19927.88
871.933	19940.88
872.176	20044.88
872.42	19944.88
872.663	19767.88
872.906	19891.88
873.15	19717.88
873.393	19728.88
873.636	19642.88
873.879	19646.88
874.122	19267.88
874.366	19034.88
874.609	19019.88
874.852	18830.88
875.095	18759.88
875.337	18595.88
875.58	18527.88
875.823	18450.88
876.066	18478.88
876.309	18394.88
876.551	18251.88
876.794	18194.88
877.037	18222.88
877.279	18030.88
877.522	18107.88
877.764	18147.88
878.007	18025.88
878.249	18002.88
878.491	18007.88
878.734	18006.88
878.976	17863.88
879.218	17710.88
879.46	17645.88
879.702	17522.88
879.945	17482.88
880.187	17318.88
880.429	17218.88
880.671	17200.88
880.912	17034.88
881.154	16980.88
881.396	16890.88
881.638	17038.88
881.88	16949.88
882.121	16930.88
882.363	16849.88
882.605	16899.88
882.846	16954.88
883.088	16817.88
883.329	16764.88
883.571	16843.88
883.812	17098.88
884.053	17348.88
884.295	17739.88
884.536	17899.88
884.777	17730.88
885.018	17683.88
885.259	17608.88
885.5	17549.88
885.742	17765.88
885.982	17423.88
886.223	17255.88
886.464	17183.88
886.705	17013.88
886.946	16802.88
887.187	16524.88
887.428	16361.88
887.668	16085.88
887.909	15825.88
888.15	15657.88
888.39	15616.88
888.631	15516.88
888.871	15391.88
889.111	15325.88
889.352	15229.88
889.592	15027.88
889.833	14961.88
890.073	14912.88
890.313	14857.88
890.553	14745.88
890.793	14682.88
891.033	14707.88
891.273	14606.88
891.513	14591.88
891.753	14647.88
891.993	14506.88
892.233	14555.88
892.473	14754.88
892.713	14781.88
892.952	14697.88
893.192	14749.88
893.432	14651.88
893.671	14658.88
893.911	14604.88
894.15	14473.88
894.39	14326.88
894.629	14317.88
894.869	14237.88
895.108	14162.88
895.347	14082.88
895.587	14061.88
895.826	14004.88
896.065	14032.88
896.304	14106.88
896.543	14227.88
896.782	13966.88
897.021	14084.88
897.26	14021.88
897.499	14065.88
897.738	14065.88
897.977	13953.88
898.216	13905.88
898.454	13758.88
898.693	13689.88
898.932	13621.88
899.17	13684.88
899.409	13483.88
899.647	13558.88
899.886	13575.88
900.124	13589.88
900.363	13602.88
900.601	13653.88
900.839	13641.88
901.078	13651.88
901.316	13791.88
901.554	13839.88
901.792	13961.88
902.03	13904.88
902.268	13941.88
902.506	13895.88
902.744	13753.88
902.982	13572.88
903.22	13325.88
903.458	13128.88
903.695	12995.88
903.933	12770.88
904.171	12467.88
904.409	12351.88
904.646	12184.88
904.884	12012.88
905.121	11839.88
905.359	11741.88
905.596	11578.88
905.833	11477.88
906.071	11431.88
906.308	11407.88
906.545	11361.88
906.783	11272.88
907.02	11319.88
907.257	11168.88
907.494	11228.88
907.731	11134.88
907.968	11059.88
908.205	10972.88
908.442	10920.88
908.679	10865.88
908.915	10783.88
909.152	10748.88
909.389	10569.88
909.626	10562.88
909.862	10326.88
910.099	10388.88
910.335	10421.88
910.572	10281.88
910.808	10245.88
911.045	10163.88
911.281	10187.88
911.518	10153.88
911.754	10038.88
911.99	10021.88
912.226	9913.88
912.463	9904.88
912.699	9717.88
912.935	9777.88
913.171	9723.88
913.407	9576.88
913.643	9558.88
913.879	9488.88
914.114	9359.88
914.35	9315.88
914.586	9226.88
914.822	9102.88
915.057	9152.88
915.293	9033.88
915.529	8953.88
915.764	8998.88
916	8961.88
916.235	8938.88
916.471	8901.88
916.706	8844.88
916.941	8818.88
917.177	8771.88
917.412	8863.88
917.647	8802.88
917.882	8765.88
918.117	8807.88
918.352	8761.88
918.588	8779.88
918.823	8695.88
919.057	8535.88
919.292	8464.88
919.527	8519.88
919.762	8331.88
919.997	8324.88
920.232	8219.88
920.466	8221.88
920.701	8021.88
920.935	8032.88
921.17	7920.88
921.405	7944.88
921.639	7950.88
921.873	7877.88
922.108	7875.88
922.342	7786.88
922.576	7771.88
922.811	7803.88
923.045	7834.88
923.279	7773.88
923.513	7604.88
923.747	7716.88
923.981	7628.88
924.215	7484.88
924.449	7489.88
924.683	7380.88
924.917	7420.88
925.151	7355.88
925.385	7460.88
925.618	7321.88
925.852	7385.88
926.086	7286.88
926.319	7341.88
926.553	7279.88
926.786	7294.88
927.02	7300.88
927.253	7270.88
927.486	7325.88
927.72	7250.88
927.953	7309.88
928.186	7142.88
928.42	7244.88
928.653	7138.88
928.886	7075.88
929.119	7078.88
929.352	7068.88
929.585	7016.88
929.818	6938.88
930.051	6915.88
930.284	6945.88
930.516	6806.88
930.749	6743.88
930.982	6781.88
931.215	6735.88
931.447	6656.88
931.68	6623.88
931.912	6636.88
932.145	6580.88
932.377	6611.88
932.61	6730.88
932.842	6530.88
933.074	6653.88
933.307	6584.88
933.539	6623.88
933.771	6737.88
934.003	6571.88
934.236	6612.88
934.468	6673.88
934.7	6552.88
934.932	6604.88
935.164	6553.88
935.395	6530.88
935.627	6479.88
935.859	6501.88
936.091	6405.88
936.323	6447.88
936.554	6471.88
936.786	6414.88
937.017	6366.88
937.249	6416.88
937.481	6285.88
937.712	6349.88
937.943	6289.88
938.175	6291.88
938.406	6245.88
938.637	6348.88
938.869	6209.88
939.1	6176.88
939.331	6208.88
939.562	6224.88
939.793	6193.88
940.024	6191.88
940.255	6191.88
940.486	6080.88
940.717	6090.88
940.948	6047.88
941.179	5969.88
941.409	6020.88
941.64	5977.88
941.871	6035.88
942.102	5957.88
942.332	5979.88
942.563	6069.88
942.793	5972.88
943.024	5910.88
943.254	5962.88
943.484	5992.88
943.715	5961.88
943.945	5993.88
944.175	5888.88
944.405	5869.88
944.636	5901.88
944.866	5918.88
945.096	5937.88
945.326	5852.88
945.556	5931.88
945.786	5847.88
946.016	5798.88
946.245	5733.88
946.475	5725.88
946.705	5676.88
946.935	5611.88
947.164	5661.88
947.394	5558.88
947.624	5614.88
947.853	5604.88
948.083	5565.88
948.312	5517.88
948.542	5407.88
948.771	5438.88
949	5411.88
949.23	5409.88
949.459	5427.88
949.688	5489.88
949.917	5411.88
950.146	5416.88
950.375	5445.88
950.604	5340.88
950.833	5430.88
951.062	5392.88
951.291	5292.88
951.52	5308.88
951.749	5328.88
951.978	5266.88
952.206	5242.88
952.435	5256.88
952.664	5237.88
952.892	5266.88
953.121	5200.88
953.349	5205.88
953.578	5211.88
953.806	5187.88
954.035	5072.88
954.263	5104.88
954.491	5014.88
954.719	5079.88
954.948	5003.88
955.176	4960.88
955.404	4931.88
955.632	4924.88
955.86	4962.88
956.088	4908.88
956.316	4921.88
956.544	4958.88
956.772	4834.88
956.999	4802.88
957.227	5071.88
957.455	4901.88
957.683	4778.88
957.91	4717.88
958.138	4658.88
958.365	4643.88
958.593	4658.88
958.82	4571.88
959.048	4680.88
959.275	4602.88
959.502	4573.88
959.73	4548.88
959.957	4603.88
960.184	4535.88
960.411	4477.88
960.638	4555.88
960.865	4536.88
961.092	4533.88
961.319	4401.88
961.546	4549.88
961.773	4499.88
962	4480.88
962.227	4546.88
962.454	4457.88
962.68	4463.88
962.907	4427.88
963.134	4393.88
963.36	4360.88
963.587	4362.88
963.813	4314.88
964.04	4342.88
964.266	4252.88
964.493	4329.88
964.719	4252.88
964.945	4264.88
965.171	4109.88
965.398	4171.88
965.624	4247.88
965.85	4057.88
966.076	4086.88
966.302	4071.88
966.528	4049.88
966.754	4113.88
966.98	4042.88
967.206	4054.88
967.431	3973.88
967.657	4059.88
967.883	4056.88
968.109	3978.88
968.334	3967.88
968.56	3945.88
968.785	3917.88
969.011	3910.88
969.236	3927.88
969.462	3899.88
969.687	3844.88
969.912	3935.88
970.138	3933.88
970.363	3821.88
970.588	3843.88
970.813	3852.88
971.038	3815.88
971.263	3870.88
971.488	3811.88
971.713	3828.88
971.938	3807.88
972.163	3699.88
972.388	3706.88
972.613	3664.88
972.838	3705.88
973.062	3642.88
973.287	3685.88
973.512	3604.88
973.736	3605.88
973.961	3575.88
974.185	3570.88
974.41	3562.88
974.634	3475.88
974.858	3493.88
975.083	3519.88
975.307	3528.88
975.531	3433.88
975.755	3416.88
975.98	3378.88
976.204	3317.88
976.428	3350.88
976.652	3353.88
976.876	3314.88
977.1	3327.88
977.324	3261.88
977.547	3314.88
977.771	3301.88
977.995	3240.88
978.219	3214.88
978.442	3350.88
978.666	3243.88
978.89	3259.88
979.113	3258.88
979.337	3219.88
979.56	3216.88
979.783	3280.88
980.007	3128.88
980.23	3171.88
980.453	3129.88
980.677	3158.88
980.9	3112.88
981.123	3070.88
981.346	3145.88
981.569	3136.88
981.792	3117.88
982.015	3109.88
982.238	3053.88
982.461	3024.88
982.684	2973.88
982.907	2981.88
983.129	2952.88
983.352	2991.88
983.575	2981.88
983.797	3014.88
984.02	2945.88
984.242	2934.88
984.465	2885.88
984.687	2949.88
984.91	2951.88
985.132	2883.88
985.354	2875.88
985.577	2909.88
985.799	2897.88
986.021	2755.88
986.243	2807.88
986.465	2830.88
986.687	2818.88
986.909	2870.88
987.131	2791.88
987.353	2766.88
987.575	2785.88
987.797	2766.88
988.019	2641.88
988.241	2734.88
988.462	2679.88
988.684	2731.88
988.906	2799.88
989.127	2751.88
989.349	2648.88
989.57	2709.88
989.792	2748.88
990.013	2745.88
990.234	2721.88
990.456	2753.88
990.677	2724.88
990.898	2656.88
991.119	2640.88
991.341	2643.88
991.562	2604.88
991.783	2617.88
992.004	2567.88
992.225	2519.88
992.446	2557.88
992.667	2445.88
992.887	2540.88
993.108	2443.88
993.329	2565.88
993.55	2484.88
993.77	2450.88
993.991	2419.88
994.212	2465.88
994.432	2434.88
994.653	2416.88
994.873	2430.88
995.093	2307.88
995.314	2380.88
995.534	2454.88
995.754	2456.88
995.975	2441.88
996.195	2352.88
996.415	2370.88
996.635	2358.88
996.855	2355.88
997.075	2345.88
997.295	2346.88
997.515	2335.88
997.735	2375.88
997.955	2362.88
998.174	2343.88
998.394	2282.88
998.614	2323.88
998.834	2336.88
999.053	2347.88
999.273	2353.88
999.492	2337.88
999.712	2294.88
999.931	2274.88
1000.151	2309.88
1000.37	2253.88
1000.589	2322.88
1000.809	2202.88
1001.028	2344.88
1001.247	2298.88
1001.466	2135.88
1001.685	2279.88
1001.904	2210.88
1002.123	2191.88
1002.342	2182.88
1002.561	2139.88
1002.78	2150.88
1002.999	2204.88
1003.218	2167.88
1003.436	2099.88
1003.655	2169.88
1003.874	2136.88
1004.092	2113.88
1004.311	2179.88
1004.53	2096.88
1004.748	2190.88
1004.966	2073.88
1005.185	2163.88
1005.403	2129.88
1005.622	2111.88
1005.84	2183.88
1006.058	2092.88
1006.276	2101.88
1006.494	2597.88
1006.712	2100.88
1006.931	2153.88
1007.149	2082.88
1007.367	2097.88
1007.584	2141.88
1007.802	2155.88
1008.02	2106.88
1008.238	2211.88
1008.456	2217.88
1008.673	2086.88
1008.891	2237.88
1009.109	2223.88
1009.326	2271.88
1009.544	2373.88
1009.761	2303.88
1009.979	2433.88
1010.196	2527.88
1010.413	2633.88
1010.631	2740.88
1010.848	2816.88
1011.065	2838.88
1011.282	2802.88
1011.5	2721.88
1011.717	2826.88
1011.934	2758.88
1012.151	2791.88
1012.368	2755.88
1012.585	2728.88
1012.801	2761.88
1013.018	2750.88
1013.235	2759.88
1013.452	2758.88
1013.669	2775.88
1013.885	2729.88
1014.102	2797.88
1014.318	2787.88
1014.535	2744.88
1014.751	2798.88
1014.968	2801.88
1015.184	2780.88
1015.401	2662.88
1015.617	2658.88
1015.833	2639.88
1016.049	2647.88
1016.266	2620.88
1016.482	2568.88
1016.698	2522.88
1016.914	2546.88
1017.13	2504.88
1017.346	2504.88
1017.562	2551.88
1017.778	2520.88
1017.993	2456.88
1018.209	2487.88
1018.425	2473.88
1018.641	2434.88
1018.856	2488.88
1019.072	2448.88
1019.288	2514.88
1019.503	2472.88
1019.719	2420.88
1019.934	2392.88
1020.149	2460.88
1020.365	2377.88
1020.58	2329.88
1020.795	2322.88
1021.011	2255.88
1021.226	2221.88
1021.441	2205.88
1021.656	2098.88
1021.871	2020.88
1022.086	2013.88
1022.301	1961.88
1022.516	1954.88
1022.731	1985.88
1022.946	1894.88
1023.16	1821.88
1023.375	1830.88
1023.59	1777.88
1023.804	1731.88
1024.019	1816.88
1024.234	1673.88
1024.448	1690.88
1024.663	1597.88
1024.877	1603.88
1025.092	1603.88
1025.306	1595.88
1025.52	1451.88
1025.734	1551.88
1025.949	1453.88
1026.163	1403.88
1026.377	1333.88
1026.591	1350.88
1026.805	1297.88
1027.019	1297.88
1027.233	1238.88
1027.447	1188.88
1027.661	1273.88
1027.875	1207.88
1028.088	1201.88
1028.302	1146.88
1028.516	1085.88
1028.73	1086.88
1028.943	1073.88
1029.157	1009.88
1029.37	932.88
1029.584	0.88
1029.797	-4.12
1030.011	-1.12
1030.224	-2.12
