Data from QEP037381__100__15-25-55-866.txt Node

Date: Fri Dec 16 15:25:55 EST 2022
User: dcclab
Spectrometer: QEP03738
Trigger mode: 4
Integration Time (sec): 1.000000E1
Scans to average: 1
Electric dark correction enabled: true
Nonlinearity correction enabled: false
Boxcar width: 0
XAxis mode: Wavelengths
Number of Pixels in Spectrum: 1044
>>>>>Begin Spectral Data<<<<<
784.041	14.25
784.3	0.25
784.558	-3.75
784.817	-3.75
785.075	90055.25
785.334	15630.25
785.592	7304.25
785.851	5055.25
786.109	3790.25
786.368	2977.25
786.626	2404.25
786.884	2033.25
787.143	1684.25
787.401	1392.25
787.659	1276.25
787.917	1112.25
788.175	1033.25
788.433	902.25
788.691	810.25
788.949	733.25
789.207	723.25
789.465	647.25
789.723	598.25
789.98	551.25
790.238	609.25
790.496	570.25
790.753	539.25
791.011	582.25
791.268	517.25
791.526	508.25
791.783	506.25
792.041	523.25
792.298	431.25
792.556	490.25
792.813	459.25
793.07	463.25
793.327	442.25
793.584	544.25
793.841	457.25
794.099	472.25
794.356	528.25
794.613	427.25
794.869	472.25
795.126	427.25
795.383	411.25
795.64	421.25
795.897	393.25
796.153	437.25
796.41	442.25
796.667	404.25
796.923	428.25
797.18	424.25
797.436	449.25
797.693	412.25
797.949	469.25
798.206	498.25
798.462	407.25
798.718	465.25
798.974	453.25
799.231	486.25
799.487	466.25
799.743	488.25
799.999	516.25
800.255	497.25
800.511	501.25
800.767	530.25
801.023	541.25
801.279	583.25
801.534	593.25
801.79	640.25
802.046	691.25
802.302	819.25
802.557	921.25
802.813	1147.25
803.068	1414.25
803.324	1972.25
803.579	2666.25
803.835	3651.25
804.09	5097.25
804.345	6636.25
804.601	8355.25
804.856	10137.25
805.111	11618.25
805.366	12794.25
805.621	13646.25
805.876	14259.25
806.131	14625.25
806.386	14974.25
806.641	15246.25
806.896	15507.25
807.151	15837.25
807.406	16046.25
807.661	16346.25
807.915	16588.25
808.17	16921.25
808.425	17027.25
808.679	17257.25
808.934	17539.25
809.188	17749.25
809.443	17911.25
809.697	18166.25
809.951	18338.25
810.206	18417.25
810.46	18688.25
810.714	18987.25
810.968	19159.25
811.223	19259.25
811.477	19464.25
811.731	19528.25
811.985	19656.25
812.239	19701.25
812.493	19965.25
812.747	20006.25
813	20059.25
813.254	20142.25
813.508	20299.25
813.762	20413.25
814.015	20456.25
814.269	20751.25
814.522	20798.25
814.776	21106.25
815.03	21452.25
815.283	21633.25
815.536	22093.25
815.79	22430.25
816.043	22745.25
816.296	23077.25
816.55	23391.25
816.803	23549.25
817.056	23927.25
817.309	24231.25
817.562	24418.25
817.815	24574.25
818.068	24835.25
818.321	25136.25
818.574	25421.25
818.827	25890.25
819.079	26033.25
819.332	26751.25
819.585	26943.25
819.838	27338.25
820.09	27459.25
820.343	27613.25
820.595	27734.25
820.848	28051.25
821.1	28211.25
821.353	28238.25
821.605	28184.25
821.857	28177.25
822.11	27904.25
822.362	28091.25
822.614	27991.25
822.866	28005.25
823.118	28045.25
823.37	28205.25
823.622	28334.25
823.874	28416.25
824.126	28544.25
824.378	28519.25
824.63	28648.25
824.882	28641.25
825.134	28558.25
825.385	28623.25
825.637	28605.25
825.888	28453.25
826.14	28554.25
826.392	28433.25
826.643	28349.25
826.895	28094.25
827.146	28167.25
827.397	28009.25
827.649	28065.25
827.9	28092.25
828.151	28014.25
828.402	28100.25
828.653	28202.25
828.905	28308.25
829.156	28443.25
829.407	28387.25
829.658	28487.25
829.909	28406.25
830.159	28420.25
830.41	28321.25
830.661	28175.25
830.912	27965.25
831.162	27961.25
831.413	27917.25
831.664	27939.25
831.914	27889.25
832.165	27944.25
832.415	27869.25
832.666	27907.25
832.916	28025.25
833.167	27930.25
833.417	28110.25
833.667	27828.25
833.917	27742.25
834.168	27763.25
834.418	27644.25
834.668	27528.25
834.918	27496.25
835.168	27388.25
835.418	27232.25
835.668	27144.25
835.918	27139.25
836.167	27209.25
836.417	27001.25
836.667	27046.25
836.917	27009.25
837.166	27022.25
837.416	26979.25
837.666	26994.25
837.915	27074.25
838.165	27017.25
838.414	26726.25
838.663	26934.25
838.913	26743.25
839.162	26774.25
839.411	26872.25
839.661	26720.25
839.91	26690.25
840.159	26519.25
840.408	26561.25
840.657	26557.25
840.906	26527.25
841.155	26726.25
841.404	26603.25
841.653	26639.25
841.902	26582.25
842.15	26683.25
842.399	26794.25
842.648	26724.25
842.897	26523.25
843.145	26400.25
843.394	26258.25
843.642	26173.25
843.891	26026.25
844.139	25824.25
844.388	25694.25
844.636	25631.25
844.884	25797.25
845.133	25705.25
845.381	25616.25
845.629	25666.25
845.877	25662.25
846.125	25665.25
846.373	25674.25
846.621	25589.25
846.869	25527.25
847.117	25317.25
847.365	25185.25
847.613	25109.25
847.861	25037.25
848.108	24926.25
848.356	24885.25
848.604	24983.25
848.851	24942.25
849.099	24963.25
849.346	25082.25
849.594	25113.25
849.841	25260.25
850.089	25244.25
850.336	25307.25
850.583	25356.25
850.831	25198.25
851.078	25252.25
851.325	25169.25
851.572	25239.25
851.819	25019.25
852.066	24687.25
852.313	24243.25
852.56	24003.25
852.807	24007.25
853.054	23816.25
853.301	23942.25
853.548	23973.25
853.794	24197.25
854.041	24097.25
854.288	24187.25
854.534	24530.25
854.781	24472.25
855.028	24414.25
855.274	24339.25
855.52	24266.25
855.767	24022.25
856.013	24130.25
856.26	24538.25
856.506	23905.25
856.752	23933.25
856.998	23942.25
857.244	23972.25
857.49	24133.25
857.736	24173.25
857.982	24196.25
858.228	24200.25
858.474	23915.25
858.72	23783.25
858.966	23578.25
859.212	23395.25
859.458	23155.25
859.703	22814.25
859.949	22814.25
860.195	22589.25
860.44	22614.25
860.686	22506.25
860.931	22535.25
861.177	22372.25
861.422	22266.25
861.667	22154.25
861.913	22208.25
862.158	22257.25
862.403	22384.25
862.648	22351.25
862.893	22443.25
863.138	22405.25
863.384	22296.25
863.629	22281.25
863.873	22460.25
864.118	22176.25
864.363	22165.25
864.608	22084.25
864.853	21967.25
865.098	21995.25
865.342	21808.25
865.587	21843.25
865.832	21809.25
866.076	21694.25
866.321	21698.25
866.565	21634.25
866.81	21459.25
867.054	21447.25
867.298	21499.25
867.543	21315.25
867.787	21295.25
868.031	21391.25
868.275	21348.25
868.519	21215.25
868.764	21252.25
869.008	21202.25
869.252	21281.25
869.496	21115.25
869.739	21097.25
869.983	21118.25
870.227	21151.25
870.471	21047.25
870.715	21225.25
870.958	21283.25
871.202	21340.25
871.446	21340.25
871.689	21351.25
871.933	21412.25
872.176	21324.25
872.42	21319.25
872.663	21317.25
872.906	21147.25
873.15	21189.25
873.393	21027.25
873.636	21103.25
873.879	20901.25
874.122	20749.25
874.366	20437.25
874.609	20301.25
874.852	20100.25
875.095	20099.25
875.337	19943.25
875.58	19868.25
875.823	19848.25
876.066	19803.25
876.309	19825.25
876.551	19539.25
876.794	19489.25
877.037	19481.25
877.279	19354.25
877.522	19364.25
877.764	19525.25
878.007	19402.25
878.249	19383.25
878.491	19231.25
878.734	19401.25
878.976	19364.25
879.218	19127.25
879.46	19198.25
879.702	18936.25
879.945	18754.25
880.187	18649.25
880.429	18539.25
880.671	18539.25
880.912	18408.25
881.154	18430.25
881.396	18216.25
881.638	18325.25
881.88	18390.25
882.121	18299.25
882.363	18338.25
882.605	18207.25
882.846	18256.25
883.088	18300.25
883.329	18255.25
883.571	18303.25
883.812	18397.25
884.053	18679.25
884.295	19008.25
884.536	19240.25
884.777	19083.25
885.018	19081.25
885.259	19042.25
885.5	18858.25
885.742	19180.25
885.982	18826.25
886.223	18664.25
886.464	18470.25
886.705	18417.25
886.946	18182.25
887.187	17881.25
887.428	17791.25
887.668	17439.25
887.909	17198.25
888.15	17011.25
888.39	16964.25
888.631	16901.25
888.871	16759.25
889.111	16703.25
889.352	16535.25
889.592	16372.25
889.833	16259.25
890.073	16192.25
890.313	16154.25
890.553	16013.25
890.793	15914.25
891.033	15969.25
891.273	15865.25
891.513	15832.25
891.753	15807.25
891.993	15768.25
892.233	15816.25
892.473	15891.25
892.713	15833.25
892.952	15788.25
893.192	15870.25
893.432	15778.25
893.671	15915.25
893.911	15693.25
894.15	15781.25
894.39	15509.25
894.629	15516.25
894.869	15491.25
895.108	15417.25
895.347	15344.25
895.587	15326.25
895.826	15319.25
896.065	15340.25
896.304	15313.25
896.543	15329.25
896.782	15152.25
897.021	15310.25
897.26	15228.25
897.499	15247.25
897.738	15231.25
897.977	15097.25
898.216	15086.25
898.454	14933.25
898.693	14885.25
898.932	14881.25
899.17	14809.25
899.409	14692.25
899.647	14725.25
899.886	14680.25
900.124	14879.25
900.363	14742.25
900.601	14799.25
900.839	14903.25
901.078	14824.25
901.316	14957.25
901.554	15067.25
901.792	15196.25
902.03	15005.25
902.268	15149.25
902.506	15065.25
902.744	14914.25
902.982	14860.25
903.22	14557.25
903.458	14388.25
903.695	14211.25
903.933	13875.25
904.171	13743.25
904.409	13478.25
904.646	13364.25
904.884	13138.25
905.121	13067.25
905.359	12883.25
905.596	12738.25
905.833	12695.25
906.071	12532.25
906.308	12545.25
906.545	12504.25
906.783	12399.25
907.02	12400.25
907.257	12272.25
907.494	12338.25
907.731	12259.25
907.968	12175.25
908.205	12075.25
908.442	12074.25
908.679	12000.25
908.915	11865.25
909.152	11864.25
909.389	11631.25
909.626	11615.25
909.862	11522.25
910.099	11453.25
910.335	11501.25
910.572	11418.25
910.808	11372.25
911.045	11292.25
911.281	11256.25
911.518	11276.25
911.754	11171.25
911.99	11149.25
912.226	11011.25
912.463	10922.25
912.699	10854.25
912.935	10785.25
913.171	10739.25
913.407	10534.25
913.643	10576.25
913.879	10480.25
914.114	10438.25
914.35	10277.25
914.586	10173.25
914.822	10052.25
915.057	10149.25
915.293	9923.25
915.529	9915.25
915.764	9986.25
916	9930.25
916.235	9927.25
916.471	9877.25
916.706	9809.25
916.941	9860.25
917.177	9721.25
917.412	9877.25
917.647	9803.25
917.882	9664.25
918.117	9780.25
918.352	9742.25
918.588	9706.25
918.823	9587.25
919.057	9582.25
919.292	9403.25
919.527	9497.25
919.762	9250.25
919.997	9232.25
920.232	9134.25
920.466	9071.25
920.701	8878.25
920.935	8971.25
921.17	8826.25
921.405	8818.25
921.639	8856.25
921.873	8818.25
922.108	8687.25
922.342	8758.25
922.576	8641.25
922.811	8617.25
923.045	8654.25
923.279	8667.25
923.513	8442.25
923.747	8538.25
923.981	8468.25
924.215	8348.25
924.449	8336.25
924.683	8288.25
924.917	8224.25
925.151	8227.25
925.385	8255.25
925.618	8159.25
925.852	8182.25
926.086	8068.25
926.319	8169.25
926.553	8113.25
926.786	8115.25
927.02	8201.25
927.253	8114.25
927.486	8182.25
927.72	8068.25
927.953	8061.25
928.186	8073.25
928.42	8106.25
928.653	7951.25
928.886	7924.25
929.119	7975.25
929.352	7875.25
929.585	7809.25
929.818	7742.25
930.051	7734.25
930.284	7668.25
930.516	7567.25
930.749	7518.25
930.982	7519.25
931.215	7518.25
931.447	7439.25
931.68	7473.25
931.912	7437.25
932.145	7367.25
932.377	7450.25
932.61	7515.25
932.842	7300.25
933.074	7433.25
933.307	7331.25
933.539	7496.25
933.771	7367.25
934.003	7350.25
934.236	7508.25
934.468	7505.25
934.7	7315.25
934.932	7321.25
935.164	7294.25
935.395	7313.25
935.627	7333.25
935.859	7257.25
936.091	7217.25
936.323	7199.25
936.554	7270.25
936.786	7112.25
937.017	7111.25
937.249	7141.25
937.481	6984.25
937.712	7092.25
937.943	7018.25
938.175	7059.25
938.406	7022.25
938.637	7062.25
938.869	6979.25
939.1	6990.25
939.331	6979.25
939.562	7039.25
939.793	6927.25
940.024	6958.25
940.255	6946.25
940.486	6808.25
940.717	6794.25
940.948	6825.25
941.179	6735.25
941.409	6730.25
941.64	6725.25
941.871	6752.25
942.102	6731.25
942.332	6736.25
942.563	6786.25
942.793	6704.25
943.024	6652.25
943.254	6722.25
943.484	6725.25
943.715	6758.25
943.945	6688.25
944.175	6650.25
944.405	6636.25
944.636	6595.25
944.866	6640.25
945.096	6639.25
945.326	6591.25
945.556	6534.25
945.786	6617.25
946.016	6517.25
946.245	6376.25
946.475	6434.25
946.705	6314.25
946.935	6380.25
947.164	6323.25
947.394	6323.25
947.624	6279.25
947.853	6324.25
948.083	6220.25
948.312	6174.25
948.542	6151.25
948.771	6059.25
949	6089.25
949.23	6102.25
949.459	6099.25
949.688	6131.25
949.917	6020.25
950.146	6044.25
950.375	6109.25
950.604	5944.25
950.833	6066.25
951.062	6024.25
951.291	5992.25
951.52	6009.25
951.749	6011.25
951.978	5946.25
952.206	5888.25
952.435	5879.25
952.664	5868.25
952.892	5875.25
953.121	5837.25
953.349	5889.25
953.578	5847.25
953.806	5812.25
954.035	5710.25
954.263	5744.25
954.491	5679.25
954.719	5702.25
954.948	5625.25
955.176	5615.25
955.404	5587.25
955.632	5563.25
955.86	5551.25
956.088	5537.25
956.316	5529.25
956.544	5523.25
956.772	5478.25
956.999	5385.25
957.227	5487.25
957.455	5325.25
957.683	5341.25
957.91	5247.25
958.138	5258.25
958.365	5297.25
958.593	5256.25
958.82	5146.25
959.048	5213.25
959.275	5188.25
959.502	5166.25
959.73	5086.25
959.957	5163.25
960.184	5167.25
960.411	5039.25
960.638	5191.25
960.865	5078.25
961.092	5111.25
961.319	5013.25
961.546	5066.25
961.773	5092.25
962	5025.25
962.227	5120.25
962.454	5031.25
962.68	5035.25
962.907	4995.25
963.134	4918.25
963.36	4949.25
963.587	4914.25
963.813	4833.25
964.04	4852.25
964.266	4756.25
964.493	4852.25
964.719	4799.25
964.945	4773.25
965.171	4641.25
965.398	4742.25
965.624	4696.25
965.85	4650.25
966.076	4594.25
966.302	4637.25
966.528	4569.25
966.754	4600.25
966.98	4569.25
967.206	4602.25
967.431	4446.25
967.657	4534.25
967.883	4538.25
968.109	4511.25
968.334	4475.25
968.56	4450.25
968.785	4483.25
969.011	4414.25
969.236	4427.25
969.462	4389.25
969.687	4404.25
969.912	4396.25
970.138	4433.25
970.363	4336.25
970.588	4360.25
970.813	4279.25
971.038	4278.25
971.263	4326.25
971.488	4293.25
971.713	4294.25
971.938	4275.25
972.163	4151.25
972.388	4170.25
972.613	4182.25
972.838	4193.25
973.062	4081.25
973.287	4089.25
973.512	4077.25
973.736	4095.25
973.961	4065.25
974.185	4002.25
974.41	4056.25
974.634	3949.25
974.858	3935.25
975.083	3941.25
975.307	3972.25
975.531	3911.25
975.755	3861.25
975.98	3812.25
976.204	3761.25
976.428	3760.25
976.652	3707.25
976.876	3738.25
977.1	3741.25
977.324	3706.25
977.547	3789.25
977.771	3732.25
977.995	3730.25
978.219	3626.25
978.442	3762.25
978.666	3729.25
978.89	3691.25
979.113	3669.25
979.337	3667.25
979.56	3609.25
979.783	3692.25
980.007	3538.25
980.23	3578.25
980.453	3526.25
980.677	3588.25
980.9	3588.25
981.123	3450.25
981.346	3523.25
981.569	3498.25
981.792	3489.25
982.015	3468.25
982.238	3412.25
982.461	3433.25
982.684	3402.25
982.907	3395.25
983.129	3334.25
983.352	3383.25
983.575	3341.25
983.797	3367.25
984.02	3272.25
984.242	3306.25
984.465	3268.25
984.687	3293.25
984.91	3301.25
985.132	3252.25
985.354	3206.25
985.577	3225.25
985.799	3204.25
986.021	3115.25
986.243	3150.25
986.465	3143.25
986.687	3185.25
986.909	3218.25
987.131	3144.25
987.353	3120.25
987.575	3153.25
987.797	3106.25
988.019	3021.25
988.241	3068.25
988.462	3022.25
988.684	3070.25
988.906	3123.25
989.127	3109.25
989.349	2990.25
989.57	3011.25
989.792	3074.25
990.013	3021.25
990.234	3048.25
990.456	3039.25
990.677	3058.25
990.898	2966.25
991.119	2955.25
991.341	2986.25
991.562	2922.25
991.783	2932.25
992.004	2820.25
992.225	2825.25
992.446	2888.25
992.667	2791.25
992.887	2845.25
993.108	2767.25
993.329	2888.25
993.55	2815.25
993.77	2743.25
993.991	2728.25
994.212	2791.25
994.432	2734.25
994.653	2746.25
994.873	2711.25
995.093	2594.25
995.314	2636.25
995.534	2732.25
995.754	2740.25
995.975	2744.25
996.195	2622.25
996.415	2669.25
996.635	2641.25
996.855	2641.25
997.075	2634.25
997.295	2626.25
997.515	2591.25
997.735	2669.25
997.955	2620.25
998.174	2577.25
998.394	2582.25
998.614	2603.25
998.834	2573.25
999.053	2633.25
999.273	2609.25
999.492	2633.25
999.712	2512.25
999.931	2526.25
1000.151	2539.25
1000.37	2509.25
1000.589	2541.25
1000.809	2474.25
1001.028	2566.25
1001.247	2514.25
1001.466	2356.25
1001.685	2536.25
1001.904	2457.25
1002.123	2430.25
1002.342	2463.25
1002.561	2391.25
1002.78	2373.25
1002.999	2440.25
1003.218	2370.25
1003.436	2346.25
1003.655	2428.25
1003.874	2345.25
1004.092	2360.25
1004.311	2378.25
1004.53	2318.25
1004.748	2421.25
1004.966	2312.25
1005.185	2351.25
1005.403	2346.25
1005.622	2312.25
1005.84	2359.25
1006.058	2293.25
1006.276	2308.25
1006.494	2801.25
1006.712	2336.25
1006.931	2384.25
1007.149	2307.25
1007.367	2280.25
1007.584	2315.25
1007.802	2397.25
1008.02	2358.25
1008.238	2429.25
1008.456	2452.25
1008.673	2305.25
1008.891	2418.25
1009.109	2444.25
1009.326	2498.25
1009.544	2606.25
1009.761	2513.25
1009.979	2689.25
1010.196	2734.25
1010.413	2870.25
1010.631	2940.25
1010.848	3072.25
1011.065	3049.25
1011.282	3021.25
1011.5	2961.25
1011.717	3081.25
1011.934	2977.25
1012.151	2997.25
1012.368	3021.25
1012.585	2963.25
1012.801	3014.25
1013.018	2969.25
1013.235	2972.25
1013.452	2984.25
1013.669	2992.25
1013.885	2956.25
1014.102	3004.25
1014.318	3025.25
1014.535	2988.25
1014.751	2994.25
1014.968	2999.25
1015.184	2962.25
1015.401	2903.25
1015.617	2867.25
1015.833	2823.25
1016.049	2792.25
1016.266	2794.25
1016.482	2781.25
1016.698	2731.25
1016.914	2727.25
1017.13	2673.25
1017.346	2678.25
1017.562	2721.25
1017.778	2673.25
1017.993	2606.25
1018.209	2671.25
1018.425	2641.25
1018.641	2614.25
1018.856	2603.25
1019.072	2618.25
1019.288	2650.25
1019.503	2617.25
1019.719	2538.25
1019.934	2518.25
1020.149	2585.25
1020.365	2508.25
1020.58	2461.25
1020.795	2469.25
1021.011	2381.25
1021.226	2340.25
1021.441	2334.25
1021.656	2222.25
1021.871	2165.25
1022.086	2133.25
1022.301	2099.25
1022.516	2078.25
1022.731	2110.25
1022.946	2009.25
1023.16	1997.25
1023.375	1920.25
1023.59	1908.25
1023.804	1854.25
1024.019	1916.25
1024.234	1766.25
1024.448	1790.25
1024.663	1715.25
1024.877	1699.25
1025.092	1692.25
1025.306	1698.25
1025.52	1574.25
1025.734	1657.25
1025.949	1535.25
1026.163	1527.25
1026.377	1428.25
1026.591	1485.25
1026.805	1389.25
1027.019	1382.25
1027.233	1314.25
1027.447	1258.25
1027.661	1360.25
1027.875	1309.25
1028.088	1294.25
1028.302	1208.25
1028.516	1185.25
1028.73	1154.25
1028.943	1141.25
1029.157	1049.25
1029.37	1015.25
1029.584	-2.75
1029.797	-1.75
1030.011	-1.75
1030.224	-0.75
