Data from QEP037381__30__15-14-15-856.txt Node

Date: Fri Dec 16 15:14:15 EST 2022
User: dcclab
Spectrometer: QEP03738
Trigger mode: 4
Integration Time (sec): 1.000000E1
Scans to average: 1
Electric dark correction enabled: true
Nonlinearity correction enabled: false
Boxcar width: 0
XAxis mode: Wavelengths
Number of Pixels in Spectrum: 1044
>>>>>Begin Spectral Data<<<<<
784.041	10.62
784.3	1.62
784.558	-0.38
784.817	-4.38
785.075	88113.62
785.334	15376.62
785.592	7260.62
785.851	5039.62
786.109	3807.62
786.368	2967.62
786.626	2395.62
786.884	2008.62
787.143	1692.62
787.401	1406.62
787.659	1260.62
787.917	1098.62
788.175	1002.62
788.433	882.62
788.691	799.62
788.949	749.62
789.207	722.62
789.465	626.62
789.723	611.62
789.98	555.62
790.238	589.62
790.496	560.62
790.753	541.62
791.011	575.62
791.268	525.62
791.526	518.62
791.783	531.62
792.041	504.62
792.298	444.62
792.556	499.62
792.813	483.62
793.07	453.62
793.327	446.62
793.584	520.62
793.841	442.62
794.099	451.62
794.356	527.62
794.613	445.62
794.869	470.62
795.126	432.62
795.383	411.62
795.64	442.62
795.897	398.62
796.153	447.62
796.41	431.62
796.667	419.62
796.923	420.62
797.18	424.62
797.436	458.62
797.693	424.62
797.949	483.62
798.206	516.62
798.462	416.62
798.718	488.62
798.974	468.62
799.231	512.62
799.487	495.62
799.743	493.62
799.999	533.62
800.255	507.62
800.511	526.62
800.767	547.62
801.023	555.62
801.279	582.62
801.534	626.62
801.79	697.62
802.046	701.62
802.302	864.62
802.557	999.62
802.813	1215.62
803.068	1528.62
803.324	2113.62
803.579	2851.62
803.835	3978.62
804.09	5535.62
804.345	7328.62
804.601	9384.62
804.856	11351.62
805.111	13166.62
805.366	14610.62
805.621	15679.62
805.876	16436.62
806.131	16853.62
806.386	17146.62
806.641	17525.62
806.896	17791.62
807.151	18199.62
807.406	18427.62
807.661	18796.62
807.915	19205.62
808.17	19517.62
808.425	19719.62
808.679	19765.62
808.934	20195.62
809.188	20292.62
809.443	20653.62
809.697	20877.62
809.951	21006.62
810.206	21252.62
810.46	21611.62
810.714	21692.62
810.968	21957.62
811.223	22098.62
811.477	22324.62
811.731	22529.62
811.985	22657.62
812.239	22616.62
812.493	22909.62
812.747	23014.62
813	23079.62
813.254	23175.62
813.508	23415.62
813.762	23415.62
814.015	23495.62
814.269	23765.62
814.522	24013.62
814.776	24240.62
815.03	24713.62
815.283	24976.62
815.536	25499.62
815.79	25810.62
816.043	26285.62
816.296	26526.62
816.55	26880.62
816.803	27260.62
817.056	27644.62
817.309	28044.62
817.562	28073.62
817.815	28587.62
818.068	28629.62
818.321	29126.62
818.574	29386.62
818.827	29811.62
819.079	30114.62
819.332	30792.62
819.585	31142.62
819.838	31408.62
820.09	31702.62
820.343	31985.62
820.595	32073.62
820.848	32369.62
821.1	32594.62
821.353	32527.62
821.605	32582.62
821.857	32504.62
822.11	32388.62
822.362	32501.62
822.614	32296.62
822.866	32506.62
823.118	32212.62
823.37	32449.62
823.622	32596.62
823.874	32670.62
824.126	32892.62
824.378	32964.62
824.63	33083.62
824.882	33190.62
825.134	33091.62
825.385	32997.62
825.637	33038.62
825.888	32888.62
826.14	32881.62
826.392	32708.62
826.643	32676.62
826.895	32645.62
827.146	32367.62
827.397	32388.62
827.649	32326.62
827.9	32432.62
828.151	32375.62
828.402	32503.62
828.653	32629.62
828.905	32819.62
829.156	32862.62
829.407	32832.62
829.658	32947.62
829.909	32919.62
830.159	32943.62
830.41	32794.62
830.661	32517.62
830.912	32309.62
831.162	32287.62
831.413	32352.62
831.664	32223.62
831.914	32206.62
832.165	32072.62
832.415	32233.62
832.666	32185.62
832.916	32398.62
833.167	32226.62
833.417	32310.62
833.667	32133.62
833.917	32099.62
834.168	32035.62
834.418	32142.62
834.668	31761.62
834.918	31687.62
835.168	31618.62
835.418	31479.62
835.668	31308.62
835.918	31307.62
836.167	31310.62
836.417	31288.62
836.667	31275.62
836.917	31232.62
837.166	31079.62
837.416	31177.62
837.666	31197.62
837.915	31149.62
838.165	31123.62
838.414	31018.62
838.663	30932.62
838.913	30992.62
839.162	30829.62
839.411	30862.62
839.661	30800.62
839.91	30913.62
840.159	30699.62
840.408	30651.62
840.657	30683.62
840.906	30878.62
841.155	30723.62
841.404	30714.62
841.653	30760.62
841.902	30736.62
842.15	30892.62
842.399	30952.62
842.648	30785.62
842.897	30581.62
843.145	30550.62
843.394	30326.62
843.642	30312.62
843.891	30106.62
844.139	29897.62
844.388	29723.62
844.636	29545.62
844.884	29645.62
845.133	29636.62
845.381	29488.62
845.629	29630.62
845.877	29704.62
846.125	29566.62
846.373	29630.62
846.621	29536.62
846.869	29396.62
847.117	29202.62
847.365	29052.62
847.613	29023.62
847.861	28932.62
848.108	28766.62
848.356	28840.62
848.604	28684.62
848.851	28858.62
849.099	28947.62
849.346	28950.62
849.594	29126.62
849.841	29159.62
850.089	29207.62
850.336	29156.62
850.583	29252.62
850.831	29028.62
851.078	28945.62
851.325	29008.62
851.572	29096.62
851.819	28739.62
852.066	28327.62
852.313	27927.62
852.56	27659.62
852.807	27542.62
853.054	27408.62
853.301	27455.62
853.548	27491.62
853.794	27671.62
854.041	27713.62
854.288	27904.62
854.534	28097.62
854.781	28132.62
855.028	28038.62
855.274	28054.62
855.52	27842.62
855.767	27763.62
856.013	27661.62
856.26	28052.62
856.506	27577.62
856.752	27455.62
856.998	27439.62
857.244	27563.62
857.49	27671.62
857.736	27767.62
857.982	27799.62
858.228	27651.62
858.474	27568.62
858.72	27160.62
858.966	27090.62
859.212	26817.62
859.458	26504.62
859.703	26335.62
859.949	26226.62
860.195	26022.62
860.44	25936.62
860.686	25822.62
860.931	25815.62
861.177	25611.62
861.422	25484.62
861.667	25384.62
861.913	25450.62
862.158	25502.62
862.403	25723.62
862.648	25608.62
862.893	25768.62
863.138	25768.62
863.384	25553.62
863.629	25596.62
863.873	25603.62
864.118	25537.62
864.363	25360.62
864.608	25467.62
864.853	25318.62
865.098	25188.62
865.342	25185.62
865.587	24989.62
865.832	25130.62
866.076	25036.62
866.321	24981.62
866.565	24904.62
866.81	24787.62
867.054	24656.62
867.298	24453.62
867.543	24418.62
867.787	24472.62
868.031	24546.62
868.275	24431.62
868.519	24438.62
868.764	24462.62
869.008	24313.62
869.252	24447.62
869.496	24339.62
869.739	24265.62
869.983	24306.62
870.227	24202.62
870.471	24195.62
870.715	24373.62
870.958	24434.62
871.202	24493.62
871.446	24539.62
871.689	24472.62
871.933	24366.62
872.176	24372.62
872.42	24382.62
872.663	24341.62
872.906	24260.62
873.15	24135.62
873.393	24156.62
873.636	24013.62
873.879	23930.62
874.122	23678.62
874.366	23356.62
874.609	23209.62
874.852	23018.62
875.095	22991.62
875.337	22845.62
875.58	22822.62
875.823	22739.62
876.066	22689.62
876.309	22648.62
876.551	22375.62
876.794	22438.62
877.037	22364.62
877.279	22232.62
877.522	22310.62
877.764	22360.62
878.007	22240.62
878.249	22219.62
878.491	22123.62
878.734	22082.62
878.976	22075.62
879.218	21993.62
879.46	21870.62
879.702	21643.62
879.945	21622.62
880.187	21433.62
880.429	21348.62
880.671	21148.62
880.912	21102.62
881.154	21155.62
881.396	21027.62
881.638	21154.62
881.88	21041.62
882.121	20997.62
882.363	20969.62
882.605	21103.62
882.846	20840.62
883.088	20847.62
883.329	20792.62
883.571	20855.62
883.812	21020.62
884.053	21265.62
884.295	21554.62
884.536	21924.62
884.777	21748.62
885.018	21612.62
885.259	21559.62
885.5	21379.62
885.742	21758.62
885.982	21416.62
886.223	21313.62
886.464	21176.62
886.705	20814.62
886.946	20801.62
887.187	20446.62
887.428	20283.62
887.668	19930.62
887.909	19698.62
888.15	19522.62
888.39	19408.62
888.631	19347.62
888.871	19076.62
889.111	19052.62
889.352	18926.62
889.592	18773.62
889.833	18694.62
890.073	18486.62
890.313	18529.62
890.553	18313.62
890.793	18199.62
891.033	18191.62
891.273	18156.62
891.513	18043.62
891.753	18069.62
891.993	18031.62
892.233	18131.62
892.473	18119.62
892.713	18112.62
892.952	18027.62
893.192	18231.62
893.432	18129.62
893.671	18121.62
893.911	18100.62
894.15	17960.62
894.39	17781.62
894.629	17685.62
894.869	17665.62
895.108	17576.62
895.347	17443.62
895.587	17543.62
895.826	17449.62
896.065	17338.62
896.304	17509.62
896.543	17416.62
896.782	17294.62
897.021	17299.62
897.26	17331.62
897.499	17281.62
897.738	17314.62
897.977	17125.62
898.216	17071.62
898.454	16981.62
898.693	16767.62
898.932	16809.62
899.17	16727.62
899.409	16710.62
899.647	16625.62
899.886	16584.62
900.124	16694.62
900.363	16620.62
900.601	16771.62
900.839	16754.62
901.078	16809.62
901.316	16986.62
901.554	16930.62
901.792	17022.62
902.03	16999.62
902.268	17006.62
902.506	17125.62
902.744	16796.62
902.982	16770.62
903.22	16454.62
903.458	16325.62
903.695	16096.62
903.933	15849.62
904.171	15558.62
904.409	15270.62
904.646	15206.62
904.884	14907.62
905.121	14779.62
905.359	14606.62
905.596	14485.62
905.833	14237.62
906.071	14248.62
906.308	14198.62
906.545	14109.62
906.783	14143.62
907.02	14064.62
907.257	13944.62
907.494	13866.62
907.731	13893.62
907.968	13821.62
908.205	13721.62
908.442	13695.62
908.679	13536.62
908.915	13491.62
909.152	13369.62
909.389	13246.62
909.626	13174.62
909.862	13149.62
910.099	13001.62
910.335	13189.62
910.572	12936.62
910.808	12938.62
911.045	12900.62
911.281	12772.62
911.518	12755.62
911.754	12694.62
911.99	12678.62
912.226	12506.62
912.463	12401.62
912.699	12365.62
912.935	12305.62
913.171	12149.62
913.407	12073.62
913.643	12002.62
913.879	11921.62
914.114	11769.62
914.35	11689.62
914.586	11605.62
914.822	11512.62
915.057	11471.62
915.293	11331.62
915.529	11212.62
915.764	11221.62
916	11243.62
916.235	11309.62
916.471	11249.62
916.706	11125.62
916.941	11109.62
917.177	11158.62
917.412	11152.62
917.647	11148.62
917.882	11031.62
918.117	11055.62
918.352	11025.62
918.588	10948.62
918.823	10920.62
919.057	10805.62
919.292	10644.62
919.527	10633.62
919.762	10469.62
919.997	10486.62
920.232	10392.62
920.466	10300.62
920.701	10149.62
920.935	10149.62
921.17	10057.62
921.405	9944.62
921.639	10054.62
921.873	9919.62
922.108	9913.62
922.342	9932.62
922.576	9840.62
922.811	9777.62
923.045	9768.62
923.279	9822.62
923.513	9600.62
923.747	9591.62
923.981	9529.62
924.215	9480.62
924.449	9441.62
924.683	9379.62
924.917	9313.62
925.151	9259.62
925.385	9344.62
925.618	9258.62
925.852	9267.62
926.086	9120.62
926.319	9191.62
926.553	9173.62
926.786	9142.62
927.02	9102.62
927.253	9210.62
927.486	9236.62
927.72	9082.62
927.953	9101.62
928.186	9043.62
928.42	9018.62
928.653	8965.62
928.886	8925.62
929.119	8922.62
929.352	8823.62
929.585	8886.62
929.818	8705.62
930.051	8785.62
930.284	8650.62
930.516	8485.62
930.749	8443.62
930.982	8382.62
931.215	8378.62
931.447	8348.62
931.68	8351.62
931.912	8291.62
932.145	8323.62
932.377	8282.62
932.61	8416.62
932.842	8202.62
933.074	8340.62
933.307	8241.62
933.539	8281.62
933.771	8308.62
934.003	8251.62
934.236	8279.62
934.468	8304.62
934.7	8289.62
934.932	8236.62
935.164	8144.62
935.395	8108.62
935.627	8138.62
935.859	8153.62
936.091	8069.62
936.323	8115.62
936.554	8107.62
936.786	8017.62
937.017	7915.62
937.249	7979.62
937.481	7888.62
937.712	7890.62
937.943	7906.62
938.175	7876.62
938.406	7844.62
938.637	7919.62
938.869	7839.62
939.1	7840.62
939.331	7762.62
939.562	7724.62
939.793	7714.62
940.024	7754.62
940.255	7756.62
940.486	7629.62
940.717	7590.62
940.948	7521.62
941.179	7516.62
941.409	7460.62
941.64	7431.62
941.871	7545.62
942.102	7498.62
942.332	7410.62
942.563	7526.62
942.793	7473.62
943.024	7454.62
943.254	7549.62
943.484	7514.62
943.715	7488.62
943.945	7456.62
944.175	7388.62
944.405	7332.62
944.636	7355.62
944.866	7345.62
945.096	7381.62
945.326	7317.62
945.556	7330.62
945.786	7321.62
946.016	7218.62
946.245	7176.62
946.475	7108.62
946.705	7095.62
946.935	7029.62
947.164	7051.62
947.394	6953.62
947.624	6930.62
947.853	6974.62
948.083	6908.62
948.312	6878.62
948.542	6798.62
948.771	6753.62
949	6753.62
949.23	6758.62
949.459	6818.62
949.688	6746.62
949.917	6691.62
950.146	6734.62
950.375	6764.62
950.604	6682.62
950.833	6702.62
951.062	6698.62
951.291	6686.62
951.52	6614.62
951.749	6601.62
951.978	6608.62
952.206	6525.62
952.435	6515.62
952.664	6562.62
952.892	6577.62
953.121	6521.62
953.349	6466.62
953.578	6441.62
953.806	6387.62
954.035	6316.62
954.263	6317.62
954.491	6278.62
954.719	6299.62
954.948	6224.62
955.176	6211.62
955.404	6133.62
955.632	6212.62
955.86	6136.62
956.088	6089.62
956.316	6133.62
956.544	6076.62
956.772	6020.62
956.999	5973.62
957.227	6001.62
957.455	5863.62
957.683	5890.62
957.91	5846.62
958.138	5826.62
958.365	5841.62
958.593	5726.62
958.82	5689.62
959.048	5739.62
959.275	5706.62
959.502	5714.62
959.73	5666.62
959.957	5747.62
960.184	5722.62
960.411	5667.62
960.638	5754.62
960.865	5635.62
961.092	5650.62
961.319	5506.62
961.546	5565.62
961.773	5640.62
962	5528.62
962.227	5561.62
962.454	5537.62
962.68	5530.62
962.907	5535.62
963.134	5453.62
963.36	5446.62
963.587	5397.62
963.813	5327.62
964.04	5343.62
964.266	5261.62
964.493	5331.62
964.719	5300.62
964.945	5296.62
965.171	5127.62
965.398	5201.62
965.624	5116.62
965.85	5109.62
966.076	5055.62
966.302	5129.62
966.528	5046.62
966.754	5048.62
966.98	5019.62
967.206	5041.62
967.431	4950.62
967.657	5020.62
967.883	5006.62
968.109	5021.62
968.334	4860.62
968.56	4882.62
968.785	4847.62
969.011	4829.62
969.236	4832.62
969.462	4843.62
969.687	4816.62
969.912	4787.62
970.138	4839.62
970.363	4715.62
970.588	4793.62
970.813	4725.62
971.038	4676.62
971.263	4736.62
971.488	4678.62
971.713	4695.62
971.938	4654.62
972.163	4563.62
972.388	4601.62
972.613	4564.62
972.838	4535.62
973.062	4531.62
973.287	4520.62
973.512	4424.62
973.736	4434.62
973.961	4433.62
974.185	4386.62
974.41	4402.62
974.634	4326.62
974.858	4319.62
975.083	4343.62
975.307	4298.62
975.531	4234.62
975.755	4159.62
975.98	4181.62
976.204	4120.62
976.428	4095.62
976.652	4084.62
976.876	4044.62
977.1	4040.62
977.324	4045.62
977.547	4143.62
977.771	4047.62
977.995	4036.62
978.219	3974.62
978.442	4082.62
978.666	4009.62
978.89	4022.62
979.113	3928.62
979.337	3973.62
979.56	3914.62
979.783	3972.62
980.007	3841.62
980.23	3903.62
980.453	3832.62
980.677	3923.62
980.9	3838.62
981.123	3735.62
981.346	3820.62
981.569	3831.62
981.792	3817.62
982.015	3743.62
982.238	3729.62
982.461	3719.62
982.684	3690.62
982.907	3627.62
983.129	3617.62
983.352	3666.62
983.575	3617.62
983.797	3602.62
984.02	3613.62
984.242	3566.62
984.465	3541.62
984.687	3538.62
984.91	3534.62
985.132	3538.62
985.354	3535.62
985.577	3472.62
985.799	3495.62
986.021	3370.62
986.243	3420.62
986.465	3371.62
986.687	3461.62
986.909	3457.62
987.131	3399.62
987.353	3341.62
987.575	3332.62
987.797	3322.62
988.019	3264.62
988.241	3331.62
988.462	3232.62
988.684	3324.62
988.906	3302.62
989.127	3339.62
989.349	3187.62
989.57	3244.62
989.792	3268.62
990.013	3261.62
990.234	3257.62
990.456	3274.62
990.677	3258.62
990.898	3148.62
991.119	3177.62
991.341	3219.62
991.562	3111.62
991.783	3141.62
992.004	3080.62
992.225	3075.62
992.446	3104.62
992.667	3018.62
992.887	3049.62
993.108	2972.62
993.329	3055.62
993.55	2991.62
993.77	2910.62
993.991	2935.62
994.212	2952.62
994.432	2910.62
994.653	2948.62
994.873	2892.62
995.093	2808.62
995.314	2833.62
995.534	2901.62
995.754	2895.62
995.975	2877.62
996.195	2794.62
996.415	2793.62
996.635	2759.62
996.855	2861.62
997.075	2776.62
997.295	2791.62
997.515	2752.62
997.735	2800.62
997.955	2798.62
998.174	2755.62
998.394	2716.62
998.614	2768.62
998.834	2693.62
999.053	2776.62
999.273	2710.62
999.492	2795.62
999.712	2736.62
999.931	2664.62
1000.151	2653.62
1000.37	2631.62
1000.589	2676.62
1000.809	2604.62
1001.028	2730.62
1001.247	2642.62
1001.466	2513.62
1001.685	2654.62
1001.904	2562.62
1002.123	2563.62
1002.342	2570.62
1002.561	2510.62
1002.78	2529.62
1002.999	2557.62
1003.218	2504.62
1003.436	2472.62
1003.655	2535.62
1003.874	2457.62
1004.092	2501.62
1004.311	2511.62
1004.53	2441.62
1004.748	2541.62
1004.966	2426.62
1005.185	2508.62
1005.403	2469.62
1005.622	2462.62
1005.84	2493.62
1006.058	2418.62
1006.276	2384.62
1006.494	2889.62
1006.712	2402.62
1006.931	2497.62
1007.149	2403.62
1007.367	2401.62
1007.584	2457.62
1007.802	2459.62
1008.02	2409.62
1008.238	2549.62
1008.456	2502.62
1008.673	2390.62
1008.891	2505.62
1009.109	2483.62
1009.326	2526.62
1009.544	2644.62
1009.761	2551.62
1009.979	2700.62
1010.196	2735.62
1010.413	2860.62
1010.631	2922.62
1010.848	2982.62
1011.065	2985.62
1011.282	2972.62
1011.5	2918.62
1011.717	3027.62
1011.934	2945.62
1012.151	2978.62
1012.368	2948.62
1012.585	2916.62
1012.801	2951.62
1013.018	2944.62
1013.235	2901.62
1013.452	2933.62
1013.669	2949.62
1013.885	2929.62
1014.102	2977.62
1014.318	2932.62
1014.535	2899.62
1014.751	2944.62
1014.968	2911.62
1015.184	2907.62
1015.401	2828.62
1015.617	2854.62
1015.833	2766.62
1016.049	2792.62
1016.266	2734.62
1016.482	2763.62
1016.698	2661.62
1016.914	2678.62
1017.13	2636.62
1017.346	2646.62
1017.562	2675.62
1017.778	2629.62
1017.993	2571.62
1018.209	2624.62
1018.425	2611.62
1018.641	2571.62
1018.856	2567.62
1019.072	2599.62
1019.288	2645.62
1019.503	2567.62
1019.719	2530.62
1019.934	2520.62
1020.149	2593.62
1020.365	2499.62
1020.58	2428.62
1020.795	2467.62
1021.011	2370.62
1021.226	2321.62
1021.441	2352.62
1021.656	2230.62
1021.871	2098.62
1022.086	2100.62
1022.301	2123.62
1022.516	2063.62
1022.731	2088.62
1022.946	2027.62
1023.16	1965.62
1023.375	1932.62
1023.59	1889.62
1023.804	1855.62
1024.019	1921.62
1024.234	1757.62
1024.448	1785.62
1024.663	1680.62
1024.877	1722.62
1025.092	1682.62
1025.306	1683.62
1025.52	1566.62
1025.734	1644.62
1025.949	1540.62
1026.163	1504.62
1026.377	1432.62
1026.591	1479.62
1026.805	1384.62
1027.019	1369.62
1027.233	1324.62
1027.447	1248.62
1027.661	1360.62
1027.875	1286.62
1028.088	1276.62
1028.302	1202.62
1028.516	1182.62
1028.73	1182.62
1028.943	1147.62
1029.157	1035.62
1029.37	991.62
1029.584	-4.38
1029.797	-2.38
1030.011	0.62
1030.224	-1.38
