Data from QEP037381__19__15-12-25-858.txt Node

Date: Fri Dec 16 15:12:25 EST 2022
User: dcclab
Spectrometer: QEP03738
Trigger mode: 4
Integration Time (sec): 1.000000E1
Scans to average: 1
Electric dark correction enabled: true
Nonlinearity correction enabled: false
Boxcar width: 0
XAxis mode: Wavelengths
Number of Pixels in Spectrum: 1044
>>>>>Begin Spectral Data<<<<<
784.041	10.5
784.3	-0.5
784.558	-3.5
784.817	-3.5
785.075	88099.5
785.334	15376.5
785.592	7151.5
785.851	4957.5
786.109	3757.5
786.368	2924.5
786.626	2395.5
786.884	1996.5
787.143	1689.5
787.401	1401.5
787.659	1249.5
787.917	1067.5
788.175	1015.5
788.433	891.5
788.691	797.5
788.949	764.5
789.207	727.5
789.465	635.5
789.723	635.5
789.98	576.5
790.238	599.5
790.496	571.5
790.753	560.5
791.011	599.5
791.268	540.5
791.526	536.5
791.783	565.5
792.041	512.5
792.298	442.5
792.556	512.5
792.813	481.5
793.07	474.5
793.327	460.5
793.584	525.5
793.841	465.5
794.099	473.5
794.356	546.5
794.613	442.5
794.869	484.5
795.126	446.5
795.383	442.5
795.64	453.5
795.897	400.5
796.153	461.5
796.41	465.5
796.667	432.5
796.923	456.5
797.18	446.5
797.436	487.5
797.693	440.5
797.949	495.5
798.206	526.5
798.462	445.5
798.718	486.5
798.974	480.5
799.231	513.5
799.487	515.5
799.743	527.5
799.999	554.5
800.255	554.5
800.511	552.5
800.767	599.5
801.023	585.5
801.279	642.5
801.534	682.5
801.79	730.5
802.046	790.5
802.302	973.5
802.557	1142.5
802.813	1413.5
803.068	1793.5
803.324	2482.5
803.579	3427.5
803.835	4798.5
804.09	6667.5
804.345	8751.5
804.601	11217.5
804.856	13700.5
805.111	16033.5
805.366	17739.5
805.621	18918.5
805.876	19965.5
806.131	20457.5
806.386	20821.5
806.641	21259.5
806.896	21596.5
807.151	22254.5
807.406	22467.5
807.661	22904.5
807.915	23419.5
808.17	23791.5
808.425	24004.5
808.679	24351.5
808.934	24678.5
809.188	24922.5
809.443	25176.5
809.697	25553.5
809.951	25832.5
810.206	25902.5
810.46	26308.5
810.714	26694.5
810.968	26973.5
811.223	27128.5
811.477	27419.5
811.731	27572.5
811.985	27771.5
812.239	27809.5
812.493	28197.5
812.747	28331.5
813	28359.5
813.254	28622.5
813.508	28680.5
813.762	28753.5
814.015	29011.5
814.269	29208.5
814.522	29488.5
814.776	29944.5
815.03	30266.5
815.283	30728.5
815.536	31359.5
815.79	31811.5
816.043	32302.5
816.296	32821.5
816.55	33287.5
816.803	33639.5
817.056	34140.5
817.309	34484.5
817.562	34821.5
817.815	35293.5
818.068	35388.5
818.321	35793.5
818.574	36378.5
818.827	37047.5
819.079	37491.5
819.332	38127.5
819.585	38453.5
819.838	39052.5
820.09	39374.5
820.343	39724.5
820.595	39857.5
820.848	40207.5
821.1	40506.5
821.353	40368.5
821.605	40623.5
821.857	40459.5
822.11	40235.5
822.362	40314.5
822.614	40153.5
822.866	40146.5
823.118	40105.5
823.37	40332.5
823.622	40452.5
823.874	40605.5
824.126	40906.5
824.378	40748.5
824.63	41099.5
824.882	41112.5
825.134	41068.5
825.385	41153.5
825.637	41037.5
825.888	41029.5
826.14	40791.5
826.392	40675.5
826.643	40528.5
826.895	40495.5
827.146	40332.5
827.397	40179.5
827.649	40365.5
827.9	40408.5
828.151	40407.5
828.402	40422.5
828.653	40725.5
828.905	40596.5
829.156	40730.5
829.407	40832.5
829.658	40856.5
829.909	40836.5
830.159	40913.5
830.41	40451.5
830.661	40381.5
830.912	40283.5
831.162	40054.5
831.413	40168.5
831.664	40304.5
831.914	39950.5
832.165	39991.5
832.415	40057.5
832.666	40056.5
832.916	40096.5
833.167	40085.5
833.417	40086.5
833.667	40023.5
833.917	39889.5
834.168	39744.5
834.418	39824.5
834.668	39548.5
834.918	39453.5
835.168	39191.5
835.418	39170.5
835.668	39003.5
835.918	39000.5
836.167	38921.5
836.417	38754.5
836.667	38754.5
836.917	38723.5
837.166	38796.5
837.416	38752.5
837.666	38661.5
837.915	38745.5
838.165	38638.5
838.414	38466.5
838.663	38297.5
838.913	38373.5
839.162	38235.5
839.411	38201.5
839.661	38025.5
839.91	37960.5
840.159	37902.5
840.408	38036.5
840.657	37915.5
840.906	38056.5
841.155	37989.5
841.404	37956.5
841.653	38080.5
841.902	38172.5
842.15	38205.5
842.399	38228.5
842.648	38013.5
842.897	37949.5
843.145	37787.5
843.394	37593.5
843.642	37374.5
843.891	37157.5
844.139	37109.5
844.388	36870.5
844.636	36719.5
844.884	36756.5
845.133	36697.5
845.381	36647.5
845.629	36711.5
845.877	36580.5
846.125	36586.5
846.373	36425.5
846.621	36447.5
846.869	36385.5
847.117	36124.5
847.365	36118.5
847.613	35819.5
847.861	35710.5
848.108	35678.5
848.356	35687.5
848.604	35680.5
848.851	35706.5
849.099	35605.5
849.346	35699.5
849.594	35910.5
849.841	36003.5
850.089	36206.5
850.336	36024.5
850.583	36113.5
850.831	35909.5
851.078	35670.5
851.325	35818.5
851.572	35866.5
851.819	35362.5
852.066	34809.5
852.313	34404.5
852.56	34185.5
852.807	34153.5
853.054	34048.5
853.301	33852.5
853.548	34005.5
853.794	34077.5
854.041	34237.5
854.288	34211.5
854.534	34758.5
854.781	34573.5
855.028	34448.5
855.274	34532.5
855.52	34263.5
855.767	34025.5
856.013	34171.5
856.26	34324.5
856.506	33766.5
856.752	33717.5
856.998	33908.5
857.244	33992.5
857.49	34260.5
857.736	33995.5
857.982	34141.5
858.228	33991.5
858.474	33914.5
858.72	33682.5
858.966	33374.5
859.212	33105.5
859.458	32790.5
859.703	32442.5
859.949	32151.5
860.195	31981.5
860.44	31913.5
860.686	31714.5
860.931	31609.5
861.177	31446.5
861.422	31386.5
861.667	31401.5
861.913	31246.5
862.158	31375.5
862.403	31591.5
862.648	31583.5
862.893	31654.5
863.138	31812.5
863.384	31529.5
863.629	31446.5
863.873	31461.5
864.118	31421.5
864.363	31316.5
864.608	31198.5
864.853	31031.5
865.098	31056.5
865.342	30823.5
865.587	30805.5
865.832	30792.5
866.076	30650.5
866.321	30625.5
866.565	30501.5
866.81	30437.5
867.054	30334.5
867.298	30093.5
867.543	30122.5
867.787	30099.5
868.031	29958.5
868.275	30001.5
868.519	29922.5
868.764	29860.5
869.008	29886.5
869.252	29824.5
869.496	29615.5
869.739	29556.5
869.983	29569.5
870.227	29429.5
870.471	29509.5
870.715	29757.5
870.958	29649.5
871.202	29761.5
871.446	29726.5
871.689	29856.5
871.933	29878.5
872.176	29803.5
872.42	29859.5
872.663	29729.5
872.906	29612.5
873.15	29468.5
873.393	29273.5
873.636	29199.5
873.879	28901.5
874.122	28609.5
874.366	28308.5
874.609	28336.5
874.852	28026.5
875.095	27927.5
875.337	27808.5
875.58	27787.5
875.823	27722.5
876.066	27603.5
876.309	27515.5
876.551	27431.5
876.794	27229.5
877.037	27372.5
877.279	26994.5
877.522	27243.5
877.764	27422.5
878.007	27107.5
878.249	27145.5
878.491	27018.5
878.734	27041.5
878.976	27005.5
879.218	26784.5
879.46	26579.5
879.702	26527.5
879.945	26392.5
880.187	26169.5
880.429	26064.5
880.671	25836.5
880.912	25852.5
881.154	25814.5
881.396	25664.5
881.638	25698.5
881.88	25755.5
882.121	25683.5
882.363	25550.5
882.605	25592.5
882.846	25456.5
883.088	25481.5
883.329	25309.5
883.571	25409.5
883.812	25364.5
884.053	25574.5
884.295	25984.5
884.536	26123.5
884.777	25944.5
885.018	25847.5
885.259	25863.5
885.5	25664.5
885.742	26023.5
885.982	25698.5
886.223	25510.5
886.464	25352.5
886.705	25193.5
886.946	25008.5
887.187	24721.5
887.428	24572.5
887.668	24290.5
887.909	23992.5
888.15	23721.5
888.39	23543.5
888.631	23480.5
888.871	23319.5
889.111	23220.5
889.352	23149.5
889.592	22839.5
889.833	22767.5
890.073	22623.5
890.313	22585.5
890.553	22241.5
890.793	22126.5
891.033	22245.5
891.273	21979.5
891.513	21962.5
891.753	21975.5
891.993	21910.5
892.233	22022.5
892.473	22099.5
892.713	21999.5
892.952	22075.5
893.192	22059.5
893.432	22091.5
893.671	22072.5
893.911	21848.5
894.15	21693.5
894.39	21731.5
894.629	21621.5
894.869	21455.5
895.108	21371.5
895.347	21171.5
895.587	21142.5
895.826	21105.5
896.065	21057.5
896.304	21233.5
896.543	21110.5
896.782	20894.5
897.021	21014.5
897.26	20929.5
897.499	20959.5
897.738	20890.5
897.977	20815.5
898.216	20685.5
898.454	20444.5
898.693	20452.5
898.932	20345.5
899.17	20225.5
899.409	20161.5
899.647	20110.5
899.886	20139.5
900.124	20212.5
900.363	20167.5
900.601	20194.5
900.839	20284.5
901.078	20283.5
901.316	20396.5
901.554	20382.5
901.792	20424.5
902.03	20406.5
902.268	20405.5
902.506	20348.5
902.744	20201.5
902.982	20084.5
903.22	19817.5
903.458	19518.5
903.695	19313.5
903.933	19113.5
904.171	18766.5
904.409	18497.5
904.646	18348.5
904.884	18006.5
905.121	17880.5
905.359	17703.5
905.596	17497.5
905.833	17288.5
906.071	17239.5
906.308	17242.5
906.545	17082.5
906.783	17033.5
907.02	17010.5
907.257	17032.5
907.494	17029.5
907.731	16918.5
907.968	16864.5
908.205	16722.5
908.442	16602.5
908.679	16586.5
908.915	16365.5
909.152	16193.5
909.389	16038.5
909.626	15978.5
909.862	15969.5
910.099	15781.5
910.335	15812.5
910.572	15651.5
910.808	15661.5
911.045	15645.5
911.281	15559.5
911.518	15562.5
911.754	15360.5
911.99	15296.5
912.226	15169.5
912.463	15033.5
912.699	15038.5
912.935	14865.5
913.171	14684.5
913.407	14658.5
913.643	14523.5
913.879	14367.5
914.114	14293.5
914.35	14193.5
914.586	14064.5
914.822	13937.5
915.057	13936.5
915.293	13778.5
915.529	13675.5
915.764	13776.5
916	13669.5
916.235	13621.5
916.471	13697.5
916.706	13539.5
916.941	13574.5
917.177	13516.5
917.412	13516.5
917.647	13445.5
917.882	13537.5
918.117	13502.5
918.352	13433.5
918.588	13383.5
918.823	13189.5
919.057	13196.5
919.292	12970.5
919.527	12961.5
919.762	12732.5
919.997	12663.5
920.232	12539.5
920.466	12445.5
920.701	12260.5
920.935	12204.5
921.17	12188.5
921.405	12065.5
921.639	12099.5
921.873	11994.5
922.108	11972.5
922.342	11921.5
922.576	11812.5
922.811	11843.5
923.045	11800.5
923.279	11791.5
923.513	11624.5
923.747	11601.5
923.981	11561.5
924.215	11513.5
924.449	11413.5
924.683	11252.5
924.917	11263.5
925.151	11154.5
925.385	11161.5
925.618	11132.5
925.852	11129.5
926.086	11019.5
926.319	11136.5
926.553	11053.5
926.786	11133.5
927.02	11030.5
927.253	11029.5
927.486	11130.5
927.72	10947.5
927.953	11040.5
928.186	10908.5
928.42	10885.5
928.653	10779.5
928.886	10750.5
929.119	10791.5
929.352	10795.5
929.585	10594.5
929.818	10531.5
930.051	10521.5
930.284	10457.5
930.516	10317.5
930.749	10200.5
930.982	10230.5
931.215	10149.5
931.447	10113.5
931.68	10102.5
931.912	10120.5
932.145	10070.5
932.377	10062.5
932.61	10207.5
932.842	9979.5
933.074	10049.5
933.307	9939.5
933.539	10047.5
933.771	10116.5
934.003	9942.5
934.236	10040.5
934.468	10016.5
934.7	9932.5
934.932	9884.5
935.164	9799.5
935.395	9800.5
935.627	9736.5
935.859	9817.5
936.091	9677.5
936.323	9728.5
936.554	9681.5
936.786	9628.5
937.017	9578.5
937.249	9583.5
937.481	9459.5
937.712	9475.5
937.943	9444.5
938.175	9466.5
938.406	9481.5
938.637	9500.5
938.869	9380.5
939.1	9412.5
939.331	9320.5
939.562	9312.5
939.793	9307.5
940.024	9283.5
940.255	9190.5
940.486	9104.5
940.717	9112.5
940.948	9075.5
941.179	8976.5
941.409	8975.5
941.64	9045.5
941.871	9028.5
942.102	8989.5
942.332	8955.5
942.563	9022.5
942.793	9014.5
943.024	8909.5
943.254	8940.5
943.484	8974.5
943.715	8998.5
943.945	8929.5
944.175	8861.5
944.405	8859.5
944.636	8882.5
944.866	8829.5
945.096	8878.5
945.326	8698.5
945.556	8762.5
945.786	8791.5
946.016	8697.5
946.245	8590.5
946.475	8560.5
946.705	8479.5
946.935	8428.5
947.164	8365.5
947.394	8381.5
947.624	8305.5
947.853	8316.5
948.083	8255.5
948.312	8226.5
948.542	8107.5
948.771	8089.5
949	8098.5
949.23	8082.5
949.459	8067.5
949.688	8164.5
949.917	8069.5
950.146	8032.5
950.375	8041.5
950.604	7954.5
950.833	8015.5
951.062	8027.5
951.291	7930.5
951.52	7897.5
951.749	7914.5
951.978	7849.5
952.206	7838.5
952.435	7812.5
952.664	7852.5
952.892	7756.5
953.121	7737.5
953.349	7714.5
953.578	7701.5
953.806	7608.5
954.035	7535.5
954.263	7538.5
954.491	7547.5
954.719	7503.5
954.948	7501.5
955.176	7373.5
955.404	7339.5
955.632	7363.5
955.86	7315.5
956.088	7270.5
956.316	7265.5
956.544	7233.5
956.772	7165.5
956.999	7092.5
957.227	7165.5
957.455	7053.5
957.683	7013.5
957.91	6950.5
958.138	6908.5
958.365	6870.5
958.593	6840.5
958.82	6791.5
959.048	6909.5
959.275	6820.5
959.502	6789.5
959.73	6754.5
959.957	6763.5
960.184	6800.5
960.411	6624.5
960.638	6727.5
960.865	6669.5
961.092	6716.5
961.319	6598.5
961.546	6710.5
961.773	6731.5
962	6627.5
962.227	6669.5
962.454	6587.5
962.68	6526.5
962.907	6567.5
963.134	6478.5
963.36	6504.5
963.587	6464.5
963.813	6345.5
964.04	6400.5
964.266	6277.5
964.493	6277.5
964.719	6294.5
964.945	6273.5
965.171	6093.5
965.398	6120.5
965.624	6135.5
965.85	6052.5
966.076	6048.5
966.302	6016.5
966.528	5968.5
966.754	5985.5
966.98	5997.5
967.206	5933.5
967.431	5863.5
967.657	5939.5
967.883	5935.5
968.109	5907.5
968.334	5770.5
968.56	5789.5
968.785	5817.5
969.011	5770.5
969.236	5764.5
969.462	5677.5
969.687	5664.5
969.912	5743.5
970.138	5740.5
970.363	5587.5
970.588	5657.5
970.813	5612.5
971.038	5550.5
971.263	5590.5
971.488	5558.5
971.713	5539.5
971.938	5526.5
972.163	5382.5
972.388	5397.5
972.613	5395.5
972.838	5413.5
973.062	5313.5
973.287	5347.5
973.512	5227.5
973.736	5216.5
973.961	5256.5
974.185	5265.5
974.41	5207.5
974.634	5113.5
974.858	5091.5
975.083	5087.5
975.307	5109.5
975.531	5034.5
975.755	4966.5
975.98	4941.5
976.204	4848.5
976.428	4864.5
976.652	4792.5
976.876	4814.5
977.1	4821.5
977.324	4782.5
977.547	4790.5
977.771	4796.5
977.995	4722.5
978.219	4696.5
978.442	4817.5
978.666	4701.5
978.89	4697.5
979.113	4708.5
979.337	4642.5
979.56	4613.5
979.783	4717.5
980.007	4587.5
980.23	4587.5
980.453	4456.5
980.677	4611.5
980.9	4553.5
981.123	4416.5
981.346	4466.5
981.569	4444.5
981.792	4489.5
982.015	4408.5
982.238	4345.5
982.461	4371.5
982.684	4298.5
982.907	4265.5
983.129	4200.5
983.352	4289.5
983.575	4216.5
983.797	4214.5
984.02	4186.5
984.242	4151.5
984.465	4101.5
984.687	4172.5
984.91	4141.5
985.132	4088.5
985.354	4074.5
985.577	4043.5
985.799	4059.5
986.021	3973.5
986.243	3980.5
986.465	3931.5
986.687	4009.5
986.909	4003.5
987.131	3910.5
987.353	3881.5
987.575	3904.5
987.797	3878.5
988.019	3799.5
988.241	3871.5
988.462	3772.5
988.684	3885.5
988.906	3895.5
989.127	3885.5
989.349	3728.5
989.57	3752.5
989.792	3754.5
990.013	3810.5
990.234	3805.5
990.456	3771.5
990.677	3794.5
990.898	3687.5
991.119	3679.5
991.341	3735.5
991.562	3643.5
991.783	3647.5
992.004	3576.5
992.225	3523.5
992.446	3557.5
992.667	3439.5
992.887	3555.5
993.108	3435.5
993.329	3535.5
993.55	3467.5
993.77	3375.5
993.991	3362.5
994.212	3368.5
994.432	3363.5
994.653	3375.5
994.873	3330.5
995.093	3237.5
995.314	3244.5
995.534	3315.5
995.754	3322.5
995.975	3313.5
996.195	3235.5
996.415	3259.5
996.635	3208.5
996.855	3215.5
997.075	3204.5
997.295	3221.5
997.515	3132.5
997.735	3166.5
997.955	3181.5
998.174	3131.5
998.394	3141.5
998.614	3206.5
998.834	3102.5
999.053	3166.5
999.273	3113.5
999.492	3162.5
999.712	3084.5
999.931	3015.5
1000.151	3080.5
1000.37	3039.5
1000.589	3099.5
1000.809	2987.5
1001.028	3089.5
1001.247	2993.5
1001.466	2904.5
1001.685	3005.5
1001.904	2953.5
1002.123	2940.5
1002.342	2903.5
1002.561	2852.5
1002.78	2845.5
1002.999	2909.5
1003.218	2850.5
1003.436	2800.5
1003.655	2835.5
1003.874	2782.5
1004.092	2821.5
1004.311	2849.5
1004.53	2742.5
1004.748	2835.5
1004.966	2738.5
1005.185	2785.5
1005.403	2787.5
1005.622	2742.5
1005.84	2831.5
1006.058	2685.5
1006.276	2758.5
1006.494	3216.5
1006.712	2696.5
1006.931	2757.5
1007.149	2679.5
1007.367	2670.5
1007.584	2752.5
1007.802	2796.5
1008.02	2688.5
1008.238	2756.5
1008.456	2808.5
1008.673	2685.5
1008.891	2782.5
1009.109	2738.5
1009.326	2851.5
1009.544	2902.5
1009.761	2824.5
1009.979	2931.5
1010.196	2979.5
1010.413	3105.5
1010.631	3157.5
1010.848	3218.5
1011.065	3230.5
1011.282	3183.5
1011.5	3112.5
1011.717	3240.5
1011.934	3200.5
1012.151	3170.5
1012.368	3168.5
1012.585	3118.5
1012.801	3178.5
1013.018	3129.5
1013.235	3156.5
1013.452	3118.5
1013.669	3155.5
1013.885	3112.5
1014.102	3168.5
1014.318	3122.5
1014.535	3075.5
1014.751	3090.5
1014.968	3114.5
1015.184	3107.5
1015.401	3024.5
1015.617	3071.5
1015.833	2957.5
1016.049	2938.5
1016.266	2918.5
1016.482	2925.5
1016.698	2826.5
1016.914	2886.5
1017.13	2837.5
1017.346	2815.5
1017.562	2882.5
1017.778	2807.5
1017.993	2775.5
1018.209	2870.5
1018.425	2794.5
1018.641	2795.5
1018.856	2738.5
1019.072	2785.5
1019.288	2814.5
1019.503	2807.5
1019.719	2694.5
1019.934	2706.5
1020.149	2807.5
1020.365	2667.5
1020.58	2612.5
1020.795	2668.5
1021.011	2557.5
1021.226	2517.5
1021.441	2495.5
1021.656	2431.5
1021.871	2308.5
1022.086	2300.5
1022.301	2295.5
1022.516	2251.5
1022.731	2262.5
1022.946	2211.5
1023.16	2151.5
1023.375	2103.5
1023.59	2092.5
1023.804	2024.5
1024.019	2100.5
1024.234	1926.5
1024.448	1973.5
1024.663	1877.5
1024.877	1871.5
1025.092	1836.5
1025.306	1834.5
1025.52	1752.5
1025.734	1809.5
1025.949	1708.5
1026.163	1646.5
1026.377	1553.5
1026.591	1616.5
1026.805	1547.5
1027.019	1500.5
1027.233	1445.5
1027.447	1394.5
1027.661	1505.5
1027.875	1437.5
1028.088	1418.5
1028.302	1324.5
1028.516	1294.5
1028.73	1258.5
1028.943	1231.5
1029.157	1152.5
1029.37	1088.5
1029.584	-0.5
1029.797	-0.5
1030.011	1.5
1030.224	-3.5
