Data from QEP037381__7__15-10-25-853.txt Node

Date: Fri Dec 16 15:10:25 EST 2022
User: dcclab
Spectrometer: QEP03738
Trigger mode: 4
Integration Time (sec): 1.000000E1
Scans to average: 1
Electric dark correction enabled: true
Nonlinearity correction enabled: false
Boxcar width: 0
XAxis mode: Wavelengths
Number of Pixels in Spectrum: 1044
>>>>>Begin Spectral Data<<<<<
784.041	14.75
784.3	-3.25
784.558	-3.25
784.817	-2.25
785.075	89654.75
785.334	15494.75
785.592	7282.75
785.851	5000.75
786.109	3773.75
786.368	2949.75
786.626	2434.75
786.884	1994.75
787.143	1697.75
787.401	1389.75
787.659	1271.75
787.917	1085.75
788.175	1009.75
788.433	897.75
788.691	800.75
788.949	745.75
789.207	737.75
789.465	622.75
789.723	621.75
789.98	572.75
790.238	609.75
790.496	573.75
790.753	544.75
791.011	570.75
791.268	539.75
791.526	516.75
791.783	533.75
792.041	514.75
792.298	425.75
792.556	494.75
792.813	481.75
793.07	451.75
793.327	448.75
793.584	529.75
793.841	463.75
794.099	489.75
794.356	534.75
794.613	450.75
794.869	464.75
795.126	418.75
795.383	421.75
795.64	438.75
795.897	395.75
796.153	451.75
796.41	439.75
796.667	436.75
796.923	444.75
797.18	439.75
797.436	450.75
797.693	426.75
797.949	472.75
798.206	518.75
798.462	415.75
798.718	478.75
798.974	458.75
799.231	500.75
799.487	492.75
799.743	509.75
799.999	536.75
800.255	543.75
800.511	544.75
800.767	593.75
801.023	587.75
801.279	580.75
801.534	642.75
801.79	690.75
802.046	730.75
802.302	861.75
802.557	1007.75
802.813	1210.75
803.068	1531.75
803.324	2128.75
803.579	2880.75
803.835	4011.75
804.09	5556.75
804.345	7347.75
804.601	9286.75
804.856	11340.75
805.111	13059.75
805.366	14492.75
805.621	15480.75
805.876	16303.75
806.131	16704.75
806.386	17076.75
806.641	17329.75
806.896	17642.75
807.151	18033.75
807.406	18483.75
807.661	18731.75
807.915	19089.75
808.17	19434.75
808.425	19656.75
808.679	19944.75
808.934	20176.75
809.188	20345.75
809.443	20605.75
809.697	20936.75
809.951	21150.75
810.206	21261.75
810.46	21511.75
810.714	21876.75
810.968	22085.75
811.223	22304.75
811.477	22391.75
811.731	22568.75
811.985	22652.75
812.239	22738.75
812.493	22989.75
812.747	23051.75
813	23181.75
813.254	23225.75
813.508	23332.75
813.762	23504.75
814.015	23744.75
814.269	23895.75
814.522	24173.75
814.776	24324.75
815.03	24774.75
815.283	25219.75
815.536	25466.75
815.79	26030.75
816.043	26389.75
816.296	26861.75
816.55	27057.75
816.803	27467.75
817.056	27751.75
817.309	28199.75
817.562	28405.75
817.815	28895.75
818.068	29171.75
818.321	29333.75
818.574	29682.75
818.827	30205.75
819.079	30446.75
819.332	31198.75
819.585	31462.75
819.838	31926.75
820.09	32147.75
820.343	32263.75
820.595	32505.75
820.848	32904.75
821.1	32941.75
821.353	33052.75
821.605	32945.75
821.857	33008.75
822.11	32749.75
822.362	32739.75
822.614	32806.75
822.866	32794.75
823.118	32847.75
823.37	32961.75
823.622	33003.75
823.874	33037.75
824.126	33236.75
824.378	33262.75
824.63	33507.75
824.882	33526.75
825.134	33585.75
825.385	33480.75
825.637	33414.75
825.888	33505.75
826.14	33261.75
826.392	33299.75
826.643	33025.75
826.895	32991.75
827.146	32928.75
827.397	32707.75
827.649	32836.75
827.9	32684.75
828.151	32778.75
828.402	32795.75
828.653	33035.75
828.905	33101.75
829.156	33154.75
829.407	33159.75
829.658	33223.75
829.909	33123.75
830.159	33048.75
830.41	32953.75
830.661	32900.75
830.912	32635.75
831.162	32623.75
831.413	32627.75
831.664	32591.75
831.914	32672.75
832.165	32514.75
832.415	32523.75
832.666	32425.75
832.916	32535.75
833.167	32511.75
833.417	32556.75
833.667	32508.75
833.917	32474.75
834.168	32311.75
834.418	32162.75
834.668	32003.75
834.918	31918.75
835.168	31752.75
835.418	31563.75
835.668	31549.75
835.918	31633.75
836.167	31469.75
836.417	31337.75
836.667	31384.75
836.917	31341.75
837.166	31277.75
837.416	31431.75
837.666	31388.75
837.915	31320.75
838.165	31304.75
838.414	31199.75
838.663	31171.75
838.913	31088.75
839.162	31001.75
839.411	31052.75
839.661	30919.75
839.91	30966.75
840.159	30746.75
840.408	30766.75
840.657	30819.75
840.906	30680.75
841.155	30822.75
841.404	30740.75
841.653	31013.75
841.902	30825.75
842.15	31005.75
842.399	30838.75
842.648	30843.75
842.897	30684.75
843.145	30592.75
843.394	30339.75
843.642	30071.75
843.891	30146.75
844.139	29985.75
844.388	29788.75
844.636	29761.75
844.884	29740.75
845.133	29609.75
845.381	29686.75
845.629	29623.75
845.877	29564.75
846.125	29716.75
846.373	29595.75
846.621	29446.75
846.869	29299.75
847.117	29105.75
847.365	28994.75
847.613	28884.75
847.861	28749.75
848.108	28723.75
848.356	28713.75
848.604	28626.75
848.851	28773.75
849.099	28778.75
849.346	28874.75
849.594	28821.75
849.841	29070.75
850.089	29114.75
850.336	29002.75
850.583	29025.75
850.831	28996.75
851.078	28831.75
851.325	28943.75
851.572	29151.75
851.819	28757.75
852.066	28183.75
852.313	27823.75
852.56	27703.75
852.807	27469.75
853.054	27394.75
853.301	27255.75
853.548	27405.75
853.794	27684.75
854.041	27586.75
854.288	27769.75
854.534	27925.75
854.781	27985.75
855.028	27977.75
855.274	27712.75
855.52	27623.75
855.767	27419.75
856.013	27530.75
856.26	27730.75
856.506	27201.75
856.752	27194.75
856.998	27224.75
857.244	27343.75
857.49	27395.75
857.736	27505.75
857.982	27537.75
858.228	27519.75
858.474	27266.75
858.72	27078.75
858.966	26805.75
859.212	26690.75
859.458	26343.75
859.703	25978.75
859.949	25821.75
860.195	25707.75
860.44	25603.75
860.686	25515.75
860.931	25531.75
861.177	25348.75
861.422	25154.75
861.667	25086.75
861.913	25159.75
862.158	25252.75
862.403	25336.75
862.648	25402.75
862.893	25519.75
863.138	25395.75
863.384	25379.75
863.629	25383.75
863.873	25309.75
864.118	25301.75
864.363	25203.75
864.608	25131.75
864.853	25157.75
865.098	24897.75
865.342	24846.75
865.587	24673.75
865.832	24716.75
866.076	24604.75
866.321	24511.75
866.565	24532.75
866.81	24398.75
867.054	24385.75
867.298	24252.75
867.543	24288.75
867.787	24250.75
868.031	24096.75
868.275	24123.75
868.519	23981.75
868.764	24004.75
869.008	24035.75
869.252	23960.75
869.496	23871.75
869.739	23839.75
869.983	23756.75
870.227	23811.75
870.471	23802.75
870.715	23947.75
870.958	23993.75
871.202	24025.75
871.446	24098.75
871.689	24033.75
871.933	24091.75
872.176	24108.75
872.42	23973.75
872.663	23934.75
872.906	23781.75
873.15	23726.75
873.393	23620.75
873.636	23568.75
873.879	23333.75
874.122	23147.75
874.366	22835.75
874.609	22815.75
874.852	22628.75
875.095	22512.75
875.337	22363.75
875.58	22225.75
875.823	22251.75
876.066	22288.75
876.309	22066.75
876.551	22089.75
876.794	21943.75
877.037	21935.75
877.279	21839.75
877.522	21907.75
877.764	21869.75
878.007	21803.75
878.249	21792.75
878.491	21753.75
878.734	21791.75
878.976	21659.75
879.218	21484.75
879.46	21442.75
879.702	21163.75
879.945	21148.75
880.187	20978.75
880.429	20928.75
880.671	20725.75
880.912	20743.75
881.154	20775.75
881.396	20637.75
881.638	20575.75
881.88	20438.75
882.121	20582.75
882.363	20458.75
882.605	20571.75
882.846	20389.75
883.088	20421.75
883.329	20352.75
883.571	20311.75
883.812	20544.75
884.053	20619.75
884.295	20887.75
884.536	21159.75
884.777	21092.75
885.018	20968.75
885.259	20808.75
885.5	20746.75
885.742	21029.75
885.982	20731.75
886.223	20598.75
886.464	20524.75
886.705	20309.75
886.946	20245.75
887.187	19876.75
887.428	19728.75
887.668	19444.75
887.909	19212.75
888.15	19000.75
888.39	18832.75
888.631	18818.75
888.871	18651.75
889.111	18603.75
889.352	18445.75
889.592	18337.75
889.833	18094.75
890.073	18202.75
890.313	17995.75
890.553	17909.75
890.793	17862.75
891.033	17755.75
891.273	17726.75
891.513	17675.75
891.753	17639.75
891.993	17590.75
892.233	17566.75
892.473	17760.75
892.713	17697.75
892.952	17783.75
893.192	17800.75
893.432	17626.75
893.671	17747.75
893.911	17517.75
894.15	17496.75
894.39	17368.75
894.629	17315.75
894.869	17261.75
895.108	17152.75
895.347	17056.75
895.587	17079.75
895.826	17014.75
896.065	16892.75
896.304	16997.75
896.543	16888.75
896.782	16856.75
897.021	16938.75
897.26	16929.75
897.499	17019.75
897.738	16886.75
897.977	16747.75
898.216	16498.75
898.454	16517.75
898.693	16478.75
898.932	16323.75
899.17	16301.75
899.409	16260.75
899.647	16209.75
899.886	16174.75
900.124	16297.75
900.363	16225.75
900.601	16313.75
900.839	16301.75
901.078	16334.75
901.316	16376.75
901.554	16525.75
901.792	16507.75
902.03	16509.75
902.268	16488.75
902.506	16481.75
902.744	16342.75
902.982	16215.75
903.22	15891.75
903.458	15749.75
903.695	15564.75
903.933	15309.75
904.171	15022.75
904.409	14843.75
904.646	14654.75
904.884	14513.75
905.121	14308.75
905.359	14220.75
905.596	14026.75
905.833	13873.75
906.071	13809.75
906.308	13804.75
906.545	13712.75
906.783	13628.75
907.02	13636.75
907.257	13541.75
907.494	13530.75
907.731	13505.75
907.968	13378.75
908.205	13336.75
908.442	13282.75
908.679	13194.75
908.915	13117.75
909.152	13015.75
909.389	12799.75
909.626	12836.75
909.862	12673.75
910.099	12616.75
910.335	12733.75
910.572	12560.75
910.808	12497.75
911.045	12406.75
911.281	12396.75
911.518	12428.75
911.754	12339.75
911.99	12258.75
912.226	12186.75
912.463	12019.75
912.699	12002.75
912.935	11927.75
913.171	11737.75
913.407	11698.75
913.643	11588.75
913.879	11442.75
914.114	11350.75
914.35	11240.75
914.586	11207.75
914.822	11061.75
915.057	11134.75
915.293	10926.75
915.529	10936.75
915.764	10938.75
916	10980.75
916.235	10915.75
916.471	10867.75
916.706	10725.75
916.941	10812.75
917.177	10716.75
917.412	10761.75
917.647	10732.75
917.882	10641.75
918.117	10700.75
918.352	10625.75
918.588	10692.75
918.823	10516.75
919.057	10430.75
919.292	10205.75
919.527	10266.75
919.762	10106.75
919.997	10106.75
920.232	9863.75
920.466	9927.75
920.701	9775.75
920.935	9697.75
921.17	9653.75
921.405	9594.75
921.639	9634.75
921.873	9520.75
922.108	9538.75
922.342	9460.75
922.576	9347.75
922.811	9441.75
923.045	9448.75
923.279	9420.75
923.513	9225.75
923.747	9276.75
923.981	9179.75
924.215	9144.75
924.449	9067.75
924.683	8954.75
924.917	8996.75
925.151	8967.75
925.385	8952.75
925.618	8847.75
925.852	8861.75
926.086	8792.75
926.319	8777.75
926.553	8845.75
926.786	8908.75
927.02	8752.75
927.253	8825.75
927.486	8860.75
927.72	8765.75
927.953	8804.75
928.186	8671.75
928.42	8714.75
928.653	8655.75
928.886	8590.75
929.119	8516.75
929.352	8489.75
929.585	8532.75
929.818	8382.75
930.051	8368.75
930.284	8331.75
930.516	8142.75
930.749	8088.75
930.982	8138.75
931.215	8079.75
931.447	7980.75
931.68	8010.75
931.912	7989.75
932.145	7933.75
932.377	8031.75
932.61	8099.75
932.842	7841.75
933.074	7971.75
933.307	7940.75
933.539	8016.75
933.771	8004.75
934.003	8001.75
934.236	7991.75
934.468	7950.75
934.7	7835.75
934.932	7921.75
935.164	7760.75
935.395	7801.75
935.627	7814.75
935.859	7761.75
936.091	7728.75
936.323	7747.75
936.554	7710.75
936.786	7646.75
937.017	7626.75
937.249	7617.75
937.481	7503.75
937.712	7639.75
937.943	7576.75
938.175	7478.75
938.406	7521.75
938.637	7559.75
938.869	7450.75
939.1	7508.75
939.331	7433.75
939.562	7435.75
939.793	7409.75
940.024	7394.75
940.255	7370.75
940.486	7224.75
940.717	7262.75
940.948	7232.75
941.179	7145.75
941.409	7155.75
941.64	7179.75
941.871	7196.75
942.102	7135.75
942.332	7163.75
942.563	7169.75
942.793	7199.75
943.024	7097.75
943.254	7119.75
943.484	7139.75
943.715	7143.75
943.945	7105.75
944.175	7024.75
944.405	6987.75
944.636	6972.75
944.866	7029.75
945.096	7045.75
945.326	6941.75
945.556	7059.75
945.786	6974.75
946.016	6884.75
946.245	6810.75
946.475	6826.75
946.705	6775.75
946.935	6749.75
947.164	6721.75
947.394	6663.75
947.624	6623.75
947.853	6637.75
948.083	6562.75
948.312	6522.75
948.542	6530.75
948.771	6471.75
949	6483.75
949.23	6496.75
949.459	6441.75
949.688	6498.75
949.917	6439.75
950.146	6413.75
950.375	6468.75
950.604	6309.75
950.833	6430.75
951.062	6396.75
951.291	6364.75
951.52	6318.75
951.749	6314.75
951.978	6334.75
952.206	6270.75
952.435	6257.75
952.664	6200.75
952.892	6211.75
953.121	6198.75
953.349	6195.75
953.578	6152.75
953.806	6125.75
954.035	6063.75
954.263	6059.75
954.491	6007.75
954.719	6020.75
954.948	5932.75
955.176	5891.75
955.404	5813.75
955.632	5894.75
955.86	5820.75
956.088	5811.75
956.316	5798.75
956.544	5803.75
956.772	5690.75
956.999	5672.75
957.227	5686.75
957.455	5608.75
957.683	5601.75
957.91	5524.75
958.138	5510.75
958.365	5481.75
958.593	5473.75
958.82	5376.75
959.048	5457.75
959.275	5404.75
959.502	5436.75
959.73	5390.75
959.957	5382.75
960.184	5432.75
960.411	5337.75
960.638	5356.75
960.865	5346.75
961.092	5339.75
961.319	5268.75
961.546	5292.75
961.773	5368.75
962	5284.75
962.227	5344.75
962.454	5285.75
962.68	5264.75
962.907	5240.75
963.134	5134.75
963.36	5130.75
963.587	5163.75
963.813	5051.75
964.04	5134.75
964.266	5041.75
964.493	5064.75
964.719	5010.75
964.945	4988.75
965.171	4925.75
965.398	4935.75
965.624	4941.75
965.85	4855.75
966.076	4847.75
966.302	4854.75
966.528	4785.75
966.754	4746.75
966.98	4779.75
967.206	4732.75
967.431	4650.75
967.657	4746.75
967.883	4763.75
968.109	4734.75
968.334	4633.75
968.56	4613.75
968.785	4634.75
969.011	4543.75
969.236	4682.75
969.462	4550.75
969.687	4540.75
969.912	4603.75
970.138	4613.75
970.363	4516.75
970.588	4509.75
970.813	4486.75
971.038	4451.75
971.263	4413.75
971.488	4460.75
971.713	4460.75
971.938	4435.75
972.163	4336.75
972.388	4378.75
972.613	4355.75
972.838	4340.75
973.062	4284.75
973.287	4302.75
973.512	4189.75
973.736	4245.75
973.961	4240.75
974.185	4151.75
974.41	4161.75
974.634	4132.75
974.858	4094.75
975.083	4097.75
975.307	4147.75
975.531	4076.75
975.755	3966.75
975.98	3974.75
976.204	3917.75
976.428	3892.75
976.652	3890.75
976.876	3911.75
977.1	3885.75
977.324	3870.75
977.547	3820.75
977.771	3878.75
977.995	3793.75
978.219	3786.75
978.442	3862.75
978.666	3839.75
978.89	3779.75
979.113	3793.75
979.337	3782.75
979.56	3699.75
979.783	3815.75
980.007	3688.75
980.23	3714.75
980.453	3670.75
980.677	3666.75
980.9	3696.75
981.123	3566.75
981.346	3656.75
981.569	3604.75
981.792	3591.75
982.015	3578.75
982.238	3529.75
982.461	3531.75
982.684	3500.75
982.907	3478.75
983.129	3446.75
983.352	3476.75
983.575	3435.75
983.797	3446.75
984.02	3391.75
984.242	3397.75
984.465	3362.75
984.687	3337.75
984.91	3402.75
985.132	3349.75
985.354	3337.75
985.577	3328.75
985.799	3274.75
986.021	3177.75
986.243	3218.75
986.465	3181.75
986.687	3225.75
986.909	3277.75
987.131	3227.75
987.353	3177.75
987.575	3209.75
987.797	3166.75
988.019	3079.75
988.241	3139.75
988.462	3068.75
988.684	3146.75
988.906	3179.75
989.127	3137.75
989.349	3028.75
989.57	3081.75
989.792	3114.75
990.013	3124.75
990.234	3089.75
990.456	3102.75
990.677	3095.75
990.898	3000.75
991.119	3049.75
991.341	3002.75
991.562	2931.75
991.783	3003.75
992.004	2910.75
992.225	2886.75
992.446	2918.75
992.667	2821.75
992.887	2903.75
993.108	2804.75
993.329	2858.75
993.55	2839.75
993.77	2749.75
993.991	2789.75
994.212	2771.75
994.432	2752.75
994.653	2777.75
994.873	2762.75
995.093	2640.75
995.314	2683.75
995.534	2775.75
995.754	2767.75
995.975	2737.75
996.195	2625.75
996.415	2675.75
996.635	2659.75
996.855	2648.75
997.075	2644.75
997.295	2633.75
997.515	2605.75
997.735	2667.75
997.955	2666.75
998.174	2591.75
998.394	2579.75
998.614	2631.75
998.834	2537.75
999.053	2645.75
999.273	2613.75
999.492	2639.75
999.712	2572.75
999.931	2504.75
1000.151	2546.75
1000.37	2502.75
1000.589	2585.75
1000.809	2499.75
1001.028	2601.75
1001.247	2508.75
1001.466	2379.75
1001.685	2525.75
1001.904	2449.75
1002.123	2448.75
1002.342	2433.75
1002.561	2409.75
1002.78	2401.75
1002.999	2469.75
1003.218	2391.75
1003.436	2370.75
1003.655	2403.75
1003.874	2307.75
1004.092	2359.75
1004.311	2386.75
1004.53	2341.75
1004.748	2418.75
1004.966	2309.75
1005.185	2374.75
1005.403	2352.75
1005.622	2301.75
1005.84	2383.75
1006.058	2275.75
1006.276	2319.75
1006.494	2803.75
1006.712	2325.75
1006.931	2356.75
1007.149	2277.75
1007.367	2265.75
1007.584	2288.75
1007.802	2340.75
1008.02	2271.75
1008.238	2387.75
1008.456	2338.75
1008.673	2253.75
1008.891	2351.75
1009.109	2341.75
1009.326	2400.75
1009.544	2474.75
1009.761	2400.75
1009.979	2509.75
1010.196	2546.75
1010.413	2662.75
1010.631	2730.75
1010.848	2765.75
1011.065	2800.75
1011.282	2701.75
1011.5	2678.75
1011.717	2802.75
1011.934	2739.75
1012.151	2758.75
1012.368	2736.75
1012.585	2670.75
1012.801	2751.75
1013.018	2724.75
1013.235	2779.75
1013.452	2810.75
1013.669	2873.75
1013.885	2808.75
1014.102	2803.75
1014.318	2749.75
1014.535	2677.75
1014.751	2707.75
1014.968	2678.75
1015.184	2694.75
1015.401	2618.75
1015.617	2639.75
1015.833	2553.75
1016.049	2566.75
1016.266	2538.75
1016.482	2535.75
1016.698	2443.75
1016.914	2537.75
1017.13	2446.75
1017.346	2442.75
1017.562	2532.75
1017.778	2453.75
1017.993	2419.75
1018.209	2502.75
1018.425	2447.75
1018.641	2395.75
1018.856	2393.75
1019.072	2429.75
1019.288	2473.75
1019.503	2419.75
1019.719	2334.75
1019.934	2337.75
1020.149	2354.75
1020.365	2339.75
1020.58	2270.75
1020.795	2302.75
1021.011	2220.75
1021.226	2193.75
1021.441	2189.75
1021.656	2086.75
1021.871	2019.75
1022.086	2009.75
1022.301	1961.75
1022.516	1963.75
1022.731	1996.75
1022.946	1891.75
1023.16	1891.75
1023.375	1836.75
1023.59	1811.75
1023.804	1739.75
1024.019	1827.75
1024.234	1663.75
1024.448	1709.75
1024.663	1625.75
1024.877	1678.75
1025.092	1630.75
1025.306	1613.75
1025.52	1509.75
1025.734	1579.75
1025.949	1471.75
1026.163	1431.75
1026.377	1373.75
1026.591	1427.75
1026.805	1325.75
1027.019	1307.75
1027.233	1288.75
1027.447	1203.75
1027.661	1334.75
1027.875	1225.75
1028.088	1237.75
1028.302	1156.75
1028.516	1134.75
1028.73	1086.75
1028.943	1104.75
1029.157	1015.75
1029.37	966.75
1029.584	-0.25
1029.797	-0.25
1030.011	-2.25
1030.224	-3.25
