Data from QEP037381__112__15-27-55-867.txt Node

Date: Fri Dec 16 15:27:55 EST 2022
User: dcclab
Spectrometer: QEP03738
Trigger mode: 4
Integration Time (sec): 1.000000E1
Scans to average: 1
Electric dark correction enabled: true
Nonlinearity correction enabled: false
Boxcar width: 0
XAxis mode: Wavelengths
Number of Pixels in Spectrum: 1044
>>>>>Begin Spectral Data<<<<<
784.041	10.38
784.3	1.38
784.558	-1.62
784.817	-4.62
785.075	91461.38
785.334	15986.38
785.592	7510.38
785.851	5262.38
786.109	3968.38
786.368	3117.38
786.626	2499.38
786.884	2100.38
787.143	1758.38
787.401	1478.38
787.659	1336.38
787.917	1151.38
788.175	1041.38
788.433	911.38
788.691	832.38
788.949	770.38
789.207	735.38
789.465	655.38
789.723	626.38
789.98	582.38
790.238	618.38
790.496	590.38
790.753	561.38
791.011	605.38
791.268	534.38
791.526	530.38
791.783	558.38
792.041	529.38
792.298	439.38
792.556	516.38
792.813	484.38
793.07	463.38
793.327	450.38
793.584	536.38
793.841	462.38
794.099	493.38
794.356	543.38
794.613	449.38
794.869	490.38
795.126	436.38
795.383	429.38
795.64	443.38
795.897	416.38
796.153	458.38
796.41	455.38
796.667	433.38
796.923	440.38
797.18	448.38
797.436	478.38
797.693	445.38
797.949	492.38
798.206	512.38
798.462	436.38
798.718	491.38
798.974	483.38
799.231	510.38
799.487	503.38
799.743	521.38
799.999	553.38
800.255	532.38
800.511	541.38
800.767	592.38
801.023	567.38
801.279	611.38
801.534	664.38
801.79	728.38
802.046	768.38
802.302	928.38
802.557	1057.38
802.813	1337.38
803.068	1656.38
803.324	2328.38
803.579	3177.38
803.835	4506.38
804.09	6218.38
804.345	8249.38
804.601	10556.38
804.856	12806.38
805.111	14902.38
805.366	16592.38
805.621	17711.38
805.876	18592.38
806.131	19114.38
806.386	19414.38
806.641	19893.38
806.896	20178.38
807.151	20601.38
807.406	20929.38
807.661	21422.38
807.915	21890.38
808.17	22111.38
808.425	22422.38
808.679	22766.38
808.934	22945.38
809.188	23213.38
809.443	23476.38
809.697	23784.38
809.951	24011.38
810.206	24162.38
810.46	24613.38
810.714	24576.38
810.968	24992.38
811.223	25206.38
811.477	25455.38
811.731	25602.38
811.985	25794.38
812.239	25955.38
812.493	26136.38
812.747	26311.38
813	26290.38
813.254	26563.38
813.508	26579.38
813.762	26843.38
814.015	26958.38
814.269	27071.38
814.522	27439.38
814.776	27717.38
815.03	28114.38
815.283	28527.38
815.536	29151.38
815.79	29534.38
816.043	30023.38
816.296	30483.38
816.55	30825.38
816.803	31283.38
817.056	31766.38
817.309	31956.38
817.562	32215.38
817.815	32641.38
818.068	32928.38
818.321	33254.38
818.574	33665.38
818.827	34266.38
819.079	34676.38
819.332	35282.38
819.585	35639.38
819.838	36184.38
820.09	36378.38
820.343	36780.38
820.595	36895.38
820.848	37177.38
821.1	37475.38
821.353	37489.38
821.605	37383.38
821.857	37459.38
822.11	37274.38
822.362	37377.38
822.614	37149.38
822.866	37190.38
823.118	37266.38
823.37	37390.38
823.622	37505.38
823.874	37661.38
824.126	37785.38
824.378	37707.38
824.63	38107.38
824.882	38025.38
825.134	38170.38
825.385	38086.38
825.637	38070.38
825.888	37973.38
826.14	38028.38
826.392	37811.38
826.643	37663.38
826.895	37471.38
827.146	37413.38
827.397	37317.38
827.649	37459.38
827.9	37287.38
828.151	37448.38
828.402	37527.38
828.653	37691.38
828.905	37924.38
829.156	38066.38
829.407	37856.38
829.658	37865.38
829.909	37955.38
830.159	38031.38
830.41	37905.38
830.661	37536.38
830.912	37449.38
831.162	37344.38
831.413	37302.38
831.664	37362.38
831.914	37304.38
832.165	37314.38
832.415	37424.38
832.666	37310.38
832.916	37278.38
833.167	37280.38
833.417	37377.38
833.667	37197.38
833.917	37102.38
834.168	37237.38
834.418	37060.38
834.668	36875.38
834.918	36673.38
835.168	36685.38
835.418	36442.38
835.668	36444.38
835.918	36239.38
836.167	36340.38
836.417	36154.38
836.667	36252.38
836.917	36089.38
837.166	36163.38
837.416	36129.38
837.666	36218.38
837.915	36100.38
838.165	36094.38
838.414	35993.38
838.663	35889.38
838.913	36048.38
839.162	35809.38
839.411	35924.38
839.661	35638.38
839.91	35636.38
840.159	35608.38
840.408	35599.38
840.657	35674.38
840.906	35602.38
841.155	35736.38
841.404	35749.38
841.653	35692.38
841.902	35682.38
842.15	35863.38
842.399	35630.38
842.648	35764.38
842.897	35637.38
843.145	35390.38
843.394	35181.38
843.642	35076.38
843.891	34971.38
844.139	34686.38
844.388	34575.38
844.636	34561.38
844.884	34422.38
845.133	34345.38
845.381	34444.38
845.629	34434.38
845.877	34414.38
846.125	34314.38
846.373	34272.38
846.621	34250.38
846.869	34291.38
847.117	34035.38
847.365	33848.38
847.613	33566.38
847.861	33567.38
848.108	33652.38
848.356	33482.38
848.604	33455.38
848.851	33479.38
849.099	33517.38
849.346	33575.38
849.594	33831.38
849.841	33897.38
850.089	33931.38
850.336	33908.38
850.583	34068.38
850.831	33782.38
851.078	33726.38
851.325	33694.38
851.572	33781.38
851.819	33503.38
852.066	32862.38
852.313	32624.38
852.56	32334.38
852.807	32136.38
853.054	32126.38
853.301	32001.38
853.548	32193.38
853.794	32429.38
854.041	32575.38
854.288	32490.38
854.534	32920.38
854.781	32875.38
855.028	32598.38
855.274	32661.38
855.52	32511.38
855.767	32203.38
856.013	32274.38
856.26	32608.38
856.506	31996.38
856.752	32003.38
856.998	32058.38
857.244	32229.38
857.49	32269.38
857.736	32400.38
857.982	32502.38
858.228	32481.38
858.474	32190.38
858.72	31890.38
858.966	31752.38
859.212	31425.38
859.458	31089.38
859.703	30888.38
859.949	30571.38
860.195	30424.38
860.44	30376.38
860.686	30237.38
860.931	30159.38
861.177	29950.38
861.422	29990.38
861.667	29877.38
861.913	29887.38
862.158	30051.38
862.403	29951.38
862.648	30275.38
862.893	30137.38
863.138	30064.38
863.384	30110.38
863.629	30119.38
863.873	30117.38
864.118	29881.38
864.363	29896.38
864.608	29825.38
864.853	29811.38
865.098	29546.38
865.342	29505.38
865.587	29314.38
865.832	29331.38
866.076	29387.38
866.321	29316.38
866.565	29199.38
866.81	28950.38
867.054	28970.38
867.298	28834.38
867.543	28781.38
867.787	28782.38
868.031	28658.38
868.275	28744.38
868.519	28653.38
868.764	28703.38
869.008	28655.38
869.252	28540.38
869.496	28501.38
869.739	28460.38
869.983	28384.38
870.227	28368.38
870.471	28370.38
870.715	28552.38
870.958	28597.38
871.202	28657.38
871.446	28751.38
871.689	28729.38
871.933	28783.38
872.176	28874.38
872.42	28696.38
872.663	28682.38
872.906	28488.38
873.15	28391.38
873.393	28326.38
873.636	28138.38
873.879	28056.38
874.122	27753.38
874.366	27415.38
874.609	27249.38
874.852	27115.38
875.095	27062.38
875.337	26798.38
875.58	26753.38
875.823	26639.38
876.066	26743.38
876.309	26633.38
876.551	26441.38
876.794	26387.38
877.037	26430.38
877.279	26283.38
877.522	26302.38
877.764	26284.38
878.007	26278.38
878.249	26307.38
878.491	26155.38
878.734	26233.38
878.976	26163.38
879.218	25989.38
879.46	25865.38
879.702	25741.38
879.945	25525.38
880.187	25368.38
880.429	25225.38
880.671	25069.38
880.912	25129.38
881.154	25031.38
881.396	24846.38
881.638	24888.38
881.88	24903.38
882.121	24864.38
882.363	24846.38
882.605	24882.38
882.846	24775.38
883.088	24780.38
883.329	24565.38
883.571	24572.38
883.812	24740.38
884.053	25117.38
884.295	25376.38
884.536	25570.38
884.777	25432.38
885.018	25393.38
885.259	25304.38
885.5	25081.38
885.742	25399.38
885.982	25187.38
886.223	24986.38
886.464	24884.38
886.705	24585.38
886.946	24424.38
887.187	24120.38
887.428	24063.38
887.668	23600.38
887.909	23569.38
888.15	23169.38
888.39	23117.38
888.631	22940.38
888.871	22762.38
889.111	22770.38
889.352	22500.38
889.592	22370.38
889.833	22233.38
890.073	22130.38
890.313	22096.38
890.553	22038.38
890.793	21772.38
891.033	21713.38
891.273	21752.38
891.513	21488.38
891.753	21559.38
891.993	21507.38
892.233	21578.38
892.473	21758.38
892.713	21716.38
892.952	21620.38
893.192	21663.38
893.432	21702.38
893.671	21737.38
893.911	21545.38
894.15	21327.38
894.39	21266.38
894.629	21185.38
894.869	21138.38
895.108	20916.38
895.347	20936.38
895.587	20949.38
895.826	20884.38
896.065	20897.38
896.304	20812.38
896.543	20795.38
896.782	20799.38
897.021	20830.38
897.26	20789.38
897.499	20628.38
897.738	20739.38
897.977	20600.38
898.216	20374.38
898.454	20305.38
898.693	20192.38
898.932	20180.38
899.17	20041.38
899.409	19966.38
899.647	20059.38
899.886	19936.38
900.124	19975.38
900.363	19952.38
900.601	20061.38
900.839	20053.38
901.078	20168.38
901.316	20152.38
901.554	20234.38
901.792	20453.38
902.03	20387.38
902.268	20194.38
902.506	20341.38
902.744	20109.38
902.982	20043.38
903.22	19762.38
903.458	19545.38
903.695	19270.38
903.933	18968.38
904.171	18731.38
904.409	18409.38
904.646	18230.38
904.884	17874.38
905.121	17707.38
905.359	17616.38
905.596	17512.38
905.833	17309.38
906.071	17228.38
906.308	17216.38
906.545	17020.38
906.783	16958.38
907.02	17036.38
907.257	17034.38
907.494	16842.38
907.731	16823.38
907.968	16698.38
908.205	16662.38
908.442	16493.38
908.679	16534.38
908.915	16384.38
909.152	16239.38
909.389	15994.38
909.626	16071.38
909.862	15870.38
910.099	15834.38
910.335	15818.38
910.572	15665.38
910.808	15632.38
911.045	15614.38
911.281	15510.38
911.518	15494.38
911.754	15386.38
911.99	15269.38
912.226	15287.38
912.463	15065.38
912.699	15000.38
912.935	14907.38
913.171	14693.38
913.407	14670.38
913.643	14558.38
913.879	14463.38
914.114	14262.38
914.35	14195.38
914.586	14056.38
914.822	13952.38
915.057	13923.38
915.293	13703.38
915.529	13652.38
915.764	13793.38
916	13726.38
916.235	13614.38
916.471	13668.38
916.706	13576.38
916.941	13535.38
917.177	13646.38
917.412	13618.38
917.647	13605.38
917.882	13511.38
918.117	13478.38
918.352	13431.38
918.588	13439.38
918.823	13234.38
919.057	13137.38
919.292	13002.38
919.527	13028.38
919.762	12702.38
919.997	12764.38
920.232	12502.38
920.466	12482.38
920.701	12386.38
920.935	12272.38
921.17	12191.38
921.405	12142.38
921.639	12126.38
921.873	12087.38
922.108	12114.38
922.342	12107.38
922.576	11918.38
922.811	11975.38
923.045	11911.38
923.279	11812.38
923.513	11711.38
923.747	11742.38
923.981	11743.38
924.215	11563.38
924.449	11512.38
924.683	11350.38
924.917	11266.38
925.151	11230.38
925.385	11333.38
925.618	11285.38
925.852	11269.38
926.086	11115.38
926.319	11252.38
926.553	11229.38
926.786	11160.38
927.02	11191.38
927.253	11157.38
927.486	11177.38
927.72	10997.38
927.953	11086.38
928.186	11056.38
928.42	11004.38
928.653	10942.38
928.886	10937.38
929.119	10917.38
929.352	10862.38
929.585	10743.38
929.818	10691.38
930.051	10611.38
930.284	10572.38
930.516	10466.38
930.749	10318.38
930.982	10331.38
931.215	10244.38
931.447	10221.38
931.68	10196.38
931.912	10106.38
932.145	10160.38
932.377	10226.38
932.61	10273.38
932.842	10056.38
933.074	10193.38
933.307	10042.38
933.539	10173.38
933.771	10150.38
934.003	10098.38
934.236	10159.38
934.468	10252.38
934.7	10033.38
934.932	10061.38
935.164	10073.38
935.395	9959.38
935.627	10022.38
935.859	9946.38
936.091	9908.38
936.323	9898.38
936.554	9854.38
936.786	9811.38
937.017	9717.38
937.249	9828.38
937.481	9645.38
937.712	9710.38
937.943	9646.38
938.175	9648.38
938.406	9613.38
938.637	9595.38
938.869	9625.38
939.1	9550.38
939.331	9479.38
939.562	9479.38
939.793	9544.38
940.024	9499.38
940.255	9407.38
940.486	9267.38
940.717	9228.38
940.948	9244.38
941.179	9224.38
941.409	9210.38
941.64	9139.38
941.871	9173.38
942.102	9144.38
942.332	9201.38
942.563	9223.38
942.793	9208.38
943.024	9122.38
943.254	9179.38
943.484	9174.38
943.715	9187.38
943.945	9091.38
944.175	9089.38
944.405	9032.38
944.636	9037.38
944.866	9056.38
945.096	9106.38
945.326	8937.38
945.556	8950.38
945.786	8922.38
946.016	8825.38
946.245	8769.38
946.475	8757.38
946.705	8698.38
946.935	8725.38
947.164	8663.38
947.394	8570.38
947.624	8610.38
947.853	8515.38
948.083	8468.38
948.312	8428.38
948.542	8310.38
948.771	8298.38
949	8276.38
949.23	8350.38
949.459	8327.38
949.688	8279.38
949.917	8274.38
950.146	8307.38
950.375	8305.38
950.604	8199.38
950.833	8241.38
951.062	8222.38
951.291	8231.38
951.52	8169.38
951.749	8130.38
951.978	8038.38
952.206	8075.38
952.435	8008.38
952.664	8106.38
952.892	8060.38
953.121	7990.38
953.349	8017.38
953.578	7987.38
953.806	7951.38
954.035	7789.38
954.263	7855.38
954.491	7781.38
954.719	7789.38
954.948	7673.38
955.176	7648.38
955.404	7646.38
955.632	7631.38
955.86	7626.38
956.088	7552.38
956.316	7483.38
956.544	7519.38
956.772	7405.38
956.999	7341.38
957.227	7436.38
957.455	7286.38
957.683	7197.38
957.91	7233.38
958.138	7152.38
958.365	7118.38
958.593	7141.38
958.82	7039.38
959.048	7119.38
959.275	7020.38
959.502	7048.38
959.73	7012.38
959.957	7030.38
960.184	7054.38
960.411	6935.38
960.638	7076.38
960.865	6935.38
961.092	6949.38
961.319	6854.38
961.546	6986.38
961.773	6964.38
962	6868.38
962.227	6887.38
962.454	6897.38
962.68	6809.38
962.907	6839.38
963.134	6679.38
963.36	6720.38
963.587	6690.38
963.813	6629.38
964.04	6646.38
964.266	6494.38
964.493	6592.38
964.719	6545.38
964.945	6483.38
965.171	6391.38
965.398	6363.38
965.624	6390.38
965.85	6292.38
966.076	6292.38
966.302	6284.38
966.528	6234.38
966.754	6257.38
966.98	6219.38
967.206	6183.38
967.431	6146.38
967.657	6145.38
967.883	6150.38
968.109	6156.38
968.334	6020.38
968.56	6033.38
968.785	6069.38
969.011	6007.38
969.236	5993.38
969.462	5952.38
969.687	5972.38
969.912	6005.38
970.138	6005.38
970.363	5899.38
970.588	5955.38
970.813	5872.38
971.038	5800.38
971.263	5824.38
971.488	5820.38
971.713	5849.38
971.938	5764.38
972.163	5651.38
972.388	5689.38
972.613	5664.38
972.838	5655.38
973.062	5612.38
973.287	5620.38
973.512	5509.38
973.736	5540.38
973.961	5456.38
974.185	5439.38
974.41	5475.38
974.634	5360.38
974.858	5342.38
975.083	5341.38
975.307	5364.38
975.531	5268.38
975.755	5225.38
975.98	5271.38
976.204	5132.38
976.428	5117.38
976.652	5057.38
976.876	5033.38
977.1	5084.38
977.324	5011.38
977.547	5058.38
977.771	5043.38
977.995	4996.38
978.219	4931.38
978.442	5000.38
978.666	4933.38
978.89	4944.38
979.113	4909.38
979.337	4883.38
979.56	4806.38
979.783	4930.38
980.007	4831.38
980.23	4833.38
980.453	4786.38
980.677	4815.38
980.9	4781.38
981.123	4646.38
981.346	4732.38
981.569	4745.38
981.792	4712.38
982.015	4627.38
982.238	4596.38
982.461	4598.38
982.684	4568.38
982.907	4537.38
983.129	4505.38
983.352	4515.38
983.575	4456.38
983.797	4492.38
984.02	4447.38
984.242	4393.38
984.465	4399.38
984.687	4419.38
984.91	4381.38
985.132	4369.38
985.354	4361.38
985.577	4327.38
985.799	4260.38
986.021	4181.38
986.243	4205.38
986.465	4214.38
986.687	4248.38
986.909	4257.38
987.131	4197.38
987.353	4159.38
987.575	4137.38
987.797	4092.38
988.019	4052.38
988.241	4143.38
988.462	4037.38
988.684	4110.38
988.906	4120.38
989.127	4144.38
989.349	4000.38
989.57	4001.38
989.792	4029.38
990.013	4040.38
990.234	3987.38
990.456	4044.38
990.677	4038.38
990.898	3951.38
991.119	3947.38
991.341	3933.38
991.562	3792.38
991.783	3853.38
992.004	3799.38
992.225	3730.38
992.446	3810.38
992.667	3704.38
992.887	3769.38
993.108	3615.38
993.329	3789.38
993.55	3706.38
993.77	3650.38
993.991	3571.38
994.212	3641.38
994.432	3555.38
994.653	3595.38
994.873	3562.38
995.093	3441.38
995.314	3502.38
995.534	3504.38
995.754	3548.38
995.975	3542.38
996.195	3465.38
996.415	3472.38
996.635	3445.38
996.855	3444.38
997.075	3425.38
997.295	3414.38
997.515	3382.38
997.735	3435.38
997.955	3425.38
998.174	3363.38
998.394	3361.38
998.614	3351.38
998.834	3391.38
999.053	3419.38
999.273	3323.38
999.492	3372.38
999.712	3313.38
999.931	3245.38
1000.151	3257.38
1000.37	3248.38
1000.589	3253.38
1000.809	3202.38
1001.028	3291.38
1001.247	3219.38
1001.466	3077.38
1001.685	3257.38
1001.904	3146.38
1002.123	3106.38
1002.342	3112.38
1002.561	3075.38
1002.78	3090.38
1002.999	3115.38
1003.218	3026.38
1003.436	3035.38
1003.655	3042.38
1003.874	2966.38
1004.092	2997.38
1004.311	3036.38
1004.53	2966.38
1004.748	3023.38
1004.966	2940.38
1005.185	2994.38
1005.403	2966.38
1005.622	2930.38
1005.84	3037.38
1006.058	2908.38
1006.276	2936.38
1006.494	3418.38
1006.712	2897.38
1006.931	2983.38
1007.149	2886.38
1007.367	2883.38
1007.584	2951.38
1007.802	2962.38
1008.02	2911.38
1008.238	2986.38
1008.456	3010.38
1008.673	2867.38
1008.891	3023.38
1009.109	2972.38
1009.326	3071.38
1009.544	3156.38
1009.761	3104.38
1009.979	3223.38
1010.196	3241.38
1010.413	3419.38
1010.631	3494.38
1010.848	3559.38
1011.065	3609.38
1011.282	3565.38
1011.5	3511.38
1011.717	3597.38
1011.934	3513.38
1012.151	3538.38
1012.368	3495.38
1012.585	3467.38
1012.801	3521.38
1013.018	3472.38
1013.235	3445.38
1013.452	3485.38
1013.669	3512.38
1013.885	3486.38
1014.102	3534.38
1014.318	3476.38
1014.535	3454.38
1014.751	3499.38
1014.968	3469.38
1015.184	3466.38
1015.401	3374.38
1015.617	3343.38
1015.833	3311.38
1016.049	3336.38
1016.266	3237.38
1016.482	3291.38
1016.698	3174.38
1016.914	3229.38
1017.13	3149.38
1017.346	3137.38
1017.562	3193.38
1017.778	3088.38
1017.993	3066.38
1018.209	3130.38
1018.425	3129.38
1018.641	3065.38
1018.856	3035.38
1019.072	3098.38
1019.288	3085.38
1019.503	3074.38
1019.719	2983.38
1019.934	3000.38
1020.149	3059.38
1020.365	2992.38
1020.58	2866.38
1020.795	2909.38
1021.011	2794.38
1021.226	2748.38
1021.441	2759.38
1021.656	2627.38
1021.871	2545.38
1022.086	2552.38
1022.301	2490.38
1022.516	2483.38
1022.731	2468.38
1022.946	2394.38
1023.16	2336.38
1023.375	2331.38
1023.59	2239.38
1023.804	2207.38
1024.019	2285.38
1024.234	2149.38
1024.448	2137.38
1024.663	2046.38
1024.877	2066.38
1025.092	2005.38
1025.306	2005.38
1025.52	1906.38
1025.734	1959.38
1025.949	1855.38
1026.163	1799.38
1026.377	1690.38
1026.591	1748.38
1026.805	1672.38
1027.019	1669.38
1027.233	1598.38
1027.447	1521.38
1027.661	1637.38
1027.875	1567.38
1028.088	1544.38
1028.302	1452.38
1028.516	1406.38
1028.73	1400.38
1028.943	1338.38
1029.157	1282.38
1029.37	1176.38
1029.584	-4.62
1029.797	0.38
1030.011	-0.62
1030.224	-0.62
