Data from QEP037381__97__15-25-25-865.txt Node

Date: Fri Dec 16 15:25:25 EST 2022
User: dcclab
Spectrometer: QEP03738
Trigger mode: 4
Integration Time (sec): 1.000000E1
Scans to average: 1
Electric dark correction enabled: true
Nonlinearity correction enabled: false
Boxcar width: 0
XAxis mode: Wavelengths
Number of Pixels in Spectrum: 1044
>>>>>Begin Spectral Data<<<<<
784.041	12.75
784.3	2.75
784.558	-2.25
784.817	-5.25
785.075	90785.75
785.334	15673.75
785.592	7353.75
785.851	5092.75
786.109	3805.75
786.368	2961.75
786.626	2432.75
786.884	2024.75
787.143	1696.75
787.401	1415.75
787.659	1291.75
787.917	1091.75
788.175	1017.75
788.433	870.75
788.691	796.75
788.949	743.75
789.207	715.75
789.465	620.75
789.723	603.75
789.98	568.75
790.238	600.75
790.496	543.75
790.753	540.75
791.011	593.75
791.268	523.75
791.526	492.75
791.783	530.75
792.041	488.75
792.298	436.75
792.556	492.75
792.813	483.75
793.07	456.75
793.327	430.75
793.584	528.75
793.841	430.75
794.099	459.75
794.356	528.75
794.613	418.75
794.869	458.75
795.126	434.75
795.383	403.75
795.64	426.75
795.897	373.75
796.153	435.75
796.41	435.75
796.667	405.75
796.923	416.75
797.18	423.75
797.436	441.75
797.693	403.75
797.949	471.75
798.206	502.75
798.462	404.75
798.718	463.75
798.974	433.75
799.231	493.75
799.487	471.75
799.743	476.75
799.999	495.75
800.255	492.75
800.511	485.75
800.767	522.75
801.023	510.75
801.279	563.75
801.534	594.75
801.79	645.75
802.046	660.75
802.302	812.75
802.557	913.75
802.813	1118.75
803.068	1384.75
803.324	1895.75
803.579	2566.75
803.835	3533.75
804.09	4901.75
804.345	6357.75
804.601	8127.75
804.856	9769.75
805.111	11317.75
805.366	12460.75
805.621	13280.75
805.876	13894.75
806.131	14245.75
806.386	14559.75
806.641	14723.75
806.896	14998.75
807.151	15418.75
807.406	15674.75
807.661	15896.75
807.915	16220.75
808.17	16402.75
808.425	16731.75
808.679	16701.75
808.934	17059.75
809.188	17266.75
809.443	17340.75
809.697	17660.75
809.951	17776.75
810.206	17981.75
810.46	18122.75
810.714	18358.75
810.968	18600.75
811.223	18779.75
811.477	18887.75
811.731	19064.75
811.985	19135.75
812.239	19227.75
812.493	19355.75
812.747	19476.75
813	19517.75
813.254	19569.75
813.508	19636.75
813.762	19788.75
814.015	19911.75
814.269	20096.75
814.522	20247.75
814.776	20476.75
815.03	20686.75
815.283	21081.75
815.536	21458.75
815.79	21736.75
816.043	22062.75
816.296	22415.75
816.55	22717.75
816.803	22988.75
817.056	23295.75
817.309	23455.75
817.562	23702.75
817.815	24031.75
818.068	24155.75
818.321	24444.75
818.574	24760.75
818.827	25223.75
819.079	25386.75
819.332	25932.75
819.585	26277.75
819.838	26712.75
820.09	26723.75
820.343	27164.75
820.595	27006.75
820.848	27311.75
821.1	27422.75
821.353	27399.75
821.605	27392.75
821.857	27439.75
822.11	27266.75
822.362	27260.75
822.614	27195.75
822.866	27232.75
823.118	27249.75
823.37	27365.75
823.622	27404.75
823.874	27542.75
824.126	27781.75
824.378	27765.75
824.63	27874.75
824.882	27924.75
825.134	27766.75
825.385	27854.75
825.637	27693.75
825.888	27655.75
826.14	27565.75
826.392	27556.75
826.643	27402.75
826.895	27435.75
827.146	27139.75
827.397	27153.75
827.649	27278.75
827.9	27097.75
828.151	27157.75
828.402	27264.75
828.653	27405.75
828.905	27553.75
829.156	27644.75
829.407	27520.75
829.658	27586.75
829.909	27597.75
830.159	27530.75
830.41	27471.75
830.661	27355.75
830.912	27306.75
831.162	27263.75
831.413	27137.75
831.664	27228.75
831.914	27134.75
832.165	27078.75
832.415	27049.75
832.666	27125.75
832.916	27237.75
833.167	27146.75
833.417	27144.75
833.667	27046.75
833.917	26906.75
834.168	26943.75
834.418	26849.75
834.668	26725.75
834.918	26415.75
835.168	26606.75
835.418	26406.75
835.668	26381.75
835.918	26328.75
836.167	26258.75
836.417	26161.75
836.667	26248.75
836.917	26103.75
837.166	26231.75
837.416	26068.75
837.666	26182.75
837.915	26037.75
838.165	26141.75
838.414	26029.75
838.663	25944.75
838.913	26105.75
839.162	26059.75
839.411	26019.75
839.661	25847.75
839.91	25861.75
840.159	25715.75
840.408	25752.75
840.657	25762.75
840.906	25897.75
841.155	25875.75
841.404	25851.75
841.653	25781.75
841.902	25912.75
842.15	26016.75
842.399	25932.75
842.648	25889.75
842.897	25744.75
843.145	25660.75
843.394	25527.75
843.642	25342.75
843.891	25118.75
844.139	25062.75
844.388	24966.75
844.636	24886.75
844.884	24923.75
845.133	24920.75
845.381	24886.75
845.629	24896.75
845.877	24868.75
846.125	24846.75
846.373	24836.75
846.621	24668.75
846.869	24679.75
847.117	24593.75
847.365	24458.75
847.613	24352.75
847.861	24287.75
848.108	24236.75
848.356	24234.75
848.604	24043.75
848.851	24202.75
849.099	24209.75
849.346	24203.75
849.594	24385.75
849.841	24493.75
850.089	24504.75
850.336	24526.75
850.583	24444.75
850.831	24401.75
851.078	24271.75
851.325	24346.75
851.572	24386.75
851.819	24349.75
852.066	23785.75
852.313	23559.75
852.56	23243.75
852.807	23206.75
853.054	23020.75
853.301	23114.75
853.548	23210.75
853.794	23377.75
854.041	23353.75
854.288	23533.75
854.534	23690.75
854.781	23486.75
855.028	23614.75
855.274	23506.75
855.52	23411.75
855.767	23324.75
856.013	23305.75
856.26	23684.75
856.506	23117.75
856.752	23063.75
856.998	23134.75
857.244	23356.75
857.49	23427.75
857.736	23386.75
857.982	23445.75
858.228	23428.75
858.474	23180.75
858.72	22966.75
858.966	22771.75
859.212	22587.75
859.458	22321.75
859.703	22140.75
859.949	21995.75
860.195	21795.75
860.44	21783.75
860.686	21776.75
860.931	21772.75
861.177	21536.75
861.422	21394.75
861.667	21364.75
861.913	21343.75
862.158	21398.75
862.403	21476.75
862.648	21644.75
862.893	21683.75
863.138	21595.75
863.384	21587.75
863.629	21554.75
863.873	21472.75
864.118	21454.75
864.363	21459.75
864.608	21420.75
864.853	21156.75
865.098	21177.75
865.342	21102.75
865.587	21049.75
865.832	21056.75
866.076	20977.75
866.321	20813.75
866.565	20928.75
866.81	20753.75
867.054	20699.75
867.298	20770.75
867.543	20688.75
867.787	20676.75
868.031	20642.75
868.275	20615.75
868.519	20618.75
868.764	20491.75
869.008	20495.75
869.252	20540.75
869.496	20521.75
869.739	20390.75
869.983	20458.75
870.227	20602.75
870.471	20402.75
870.715	20547.75
870.958	20705.75
871.202	20607.75
871.446	20701.75
871.689	20772.75
871.933	20694.75
872.176	20785.75
872.42	20659.75
872.663	20541.75
872.906	20618.75
873.15	20559.75
873.393	20464.75
873.636	20466.75
873.879	20274.75
874.122	20125.75
874.366	19775.75
874.609	19611.75
874.852	19509.75
875.095	19330.75
875.337	19466.75
875.58	19198.75
875.823	19266.75
876.066	19115.75
876.309	19161.75
876.551	18957.75
876.794	18906.75
877.037	18985.75
877.279	18898.75
877.522	18880.75
877.764	18800.75
878.007	18771.75
878.249	18728.75
878.491	18628.75
878.734	18739.75
878.976	18567.75
879.218	18421.75
879.46	18493.75
879.702	18301.75
879.945	18246.75
880.187	18047.75
880.429	18035.75
880.671	17786.75
880.912	17812.75
881.154	17742.75
881.396	17734.75
881.638	17732.75
881.88	17731.75
882.121	17746.75
882.363	17664.75
882.605	17827.75
882.846	17693.75
883.088	17679.75
883.329	17659.75
883.571	17686.75
883.812	17808.75
884.053	18056.75
884.295	18448.75
884.536	18647.75
884.777	18609.75
885.018	18445.75
885.259	18483.75
885.5	18215.75
885.742	18679.75
885.982	18273.75
886.223	17991.75
886.464	17926.75
886.705	17830.75
886.946	17542.75
887.187	17332.75
887.428	17147.75
887.668	16820.75
887.909	16556.75
888.15	16477.75
888.39	16336.75
888.631	16271.75
888.871	16117.75
889.111	16065.75
889.352	15914.75
889.592	15871.75
889.833	15697.75
890.073	15609.75
890.313	15471.75
890.553	15446.75
890.793	15306.75
891.033	15410.75
891.273	15255.75
891.513	15214.75
891.753	15270.75
891.993	15155.75
892.233	15188.75
892.473	15314.75
892.713	15325.75
892.952	15264.75
893.192	15356.75
893.432	15288.75
893.671	15293.75
893.911	15266.75
894.15	15168.75
894.39	14959.75
894.629	14963.75
894.869	14898.75
895.108	14839.75
895.347	14738.75
895.587	14821.75
895.826	14687.75
896.065	14692.75
896.304	14771.75
896.543	14721.75
896.782	14672.75
897.021	14665.75
897.26	14722.75
897.499	14790.75
897.738	14723.75
897.977	14644.75
898.216	14487.75
898.454	14430.75
898.693	14318.75
898.932	14361.75
899.17	14310.75
899.409	14246.75
899.647	14236.75
899.886	14267.75
900.124	14298.75
900.363	14292.75
900.601	14395.75
900.839	14401.75
901.078	14507.75
901.316	14537.75
901.554	14569.75
901.792	14714.75
902.03	14657.75
902.268	14718.75
902.506	14688.75
902.744	14596.75
902.982	14379.75
903.22	14076.75
903.458	13941.75
903.695	13712.75
903.933	13573.75
904.171	13331.75
904.409	13069.75
904.646	12876.75
904.884	12738.75
905.121	12619.75
905.359	12366.75
905.596	12271.75
905.833	12198.75
906.071	12120.75
906.308	12070.75
906.545	12040.75
906.783	11917.75
907.02	11861.75
907.257	11874.75
907.494	11828.75
907.731	11760.75
907.968	11759.75
908.205	11621.75
908.442	11562.75
908.679	11535.75
908.915	11431.75
909.152	11359.75
909.389	11199.75
909.626	11094.75
909.862	10996.75
910.099	11051.75
910.335	11048.75
910.572	10881.75
910.808	10895.75
911.045	10833.75
911.281	10826.75
911.518	10864.75
911.754	10729.75
911.99	10664.75
912.226	10565.75
912.463	10489.75
912.699	10502.75
912.935	10425.75
913.171	10292.75
913.407	10146.75
913.643	10077.75
913.879	10102.75
914.114	9974.75
914.35	9849.75
914.586	9763.75
914.822	9656.75
915.057	9676.75
915.293	9553.75
915.529	9511.75
915.764	9578.75
916	9549.75
916.235	9551.75
916.471	9515.75
916.706	9418.75
916.941	9439.75
917.177	9469.75
917.412	9476.75
917.647	9387.75
917.882	9314.75
918.117	9498.75
918.352	9395.75
918.588	9367.75
918.823	9274.75
919.057	9148.75
919.292	9036.75
919.527	9011.75
919.762	8888.75
919.997	8888.75
920.232	8731.75
920.466	8647.75
920.701	8560.75
920.935	8604.75
921.17	8576.75
921.405	8432.75
921.639	8462.75
921.873	8394.75
922.108	8428.75
922.342	8376.75
922.576	8337.75
922.811	8267.75
923.045	8319.75
923.279	8289.75
923.513	8111.75
923.747	8235.75
923.981	8115.75
924.215	8039.75
924.449	8009.75
924.683	7900.75
924.917	7895.75
925.151	7907.75
925.385	7966.75
925.618	7813.75
925.852	7904.75
926.086	7799.75
926.319	7781.75
926.553	7820.75
926.786	7778.75
927.02	7804.75
927.253	7794.75
927.486	7829.75
927.72	7703.75
927.953	7794.75
928.186	7676.75
928.42	7789.75
928.653	7649.75
928.886	7611.75
929.119	7603.75
929.352	7580.75
929.585	7528.75
929.818	7466.75
930.051	7394.75
930.284	7418.75
930.516	7246.75
930.749	7303.75
930.982	7246.75
931.215	7264.75
931.447	7113.75
931.68	7140.75
931.912	7107.75
932.145	7121.75
932.377	7139.75
932.61	7240.75
932.842	7012.75
933.074	7104.75
933.307	7078.75
933.539	7168.75
933.771	7200.75
934.003	7055.75
934.236	7191.75
934.468	7141.75
934.7	7052.75
934.932	7103.75
935.164	6953.75
935.395	7042.75
935.627	7023.75
935.859	6950.75
936.091	6916.75
936.323	6920.75
936.554	6919.75
936.786	6894.75
937.017	6800.75
937.249	6847.75
937.481	6750.75
937.712	6812.75
937.943	6772.75
938.175	6783.75
938.406	6711.75
938.637	6778.75
938.869	6710.75
939.1	6750.75
939.331	6668.75
939.562	6727.75
939.793	6666.75
940.024	6681.75
940.255	6648.75
940.486	6559.75
940.717	6525.75
940.948	6541.75
941.179	6522.75
941.409	6457.75
941.64	6470.75
941.871	6518.75
942.102	6464.75
942.332	6441.75
942.563	6486.75
942.793	6490.75
943.024	6371.75
943.254	6451.75
943.484	6475.75
943.715	6449.75
943.945	6360.75
944.175	6323.75
944.405	6360.75
944.636	6367.75
944.866	6419.75
945.096	6346.75
945.326	6286.75
945.556	6357.75
945.786	6313.75
946.016	6217.75
946.245	6178.75
946.475	6186.75
946.705	6124.75
946.935	6134.75
947.164	6084.75
947.394	5978.75
947.624	5995.75
947.853	6023.75
948.083	5995.75
948.312	5898.75
948.542	5868.75
948.771	5868.75
949	5829.75
949.23	5837.75
949.459	5873.75
949.688	5892.75
949.917	5838.75
950.146	5811.75
950.375	5865.75
950.604	5783.75
950.833	5852.75
951.062	5784.75
951.291	5767.75
951.52	5710.75
951.749	5736.75
951.978	5673.75
952.206	5683.75
952.435	5701.75
952.664	5640.75
952.892	5679.75
953.121	5606.75
953.349	5585.75
953.578	5603.75
953.806	5511.75
954.035	5499.75
954.263	5541.75
954.491	5418.75
954.719	5483.75
954.948	5367.75
955.176	5408.75
955.404	5330.75
955.632	5366.75
955.86	5351.75
956.088	5364.75
956.316	5280.75
956.544	5292.75
956.772	5199.75
956.999	5166.75
957.227	5243.75
957.455	5138.75
957.683	5133.75
957.91	5053.75
958.138	5055.75
958.365	5030.75
958.593	5010.75
958.82	4927.75
959.048	5017.75
959.275	4926.75
959.502	4955.75
959.73	4915.75
959.957	4960.75
960.184	5001.75
960.411	4877.75
960.638	4957.75
960.865	4911.75
961.092	4952.75
961.319	4757.75
961.546	4933.75
961.773	4917.75
962	4844.75
962.227	4851.75
962.454	4863.75
962.68	4841.75
962.907	4755.75
963.134	4694.75
963.36	4701.75
963.587	4728.75
963.813	4631.75
964.04	4694.75
964.266	4573.75
964.493	4657.75
964.719	4635.75
964.945	4598.75
965.171	4507.75
965.398	4572.75
965.624	4554.75
965.85	4510.75
966.076	4441.75
966.302	4447.75
966.528	4369.75
966.754	4430.75
966.98	4414.75
967.206	4374.75
967.431	4313.75
967.657	4431.75
967.883	4360.75
968.109	4333.75
968.334	4266.75
968.56	4228.75
968.785	4303.75
969.011	4214.75
969.236	4272.75
969.462	4195.75
969.687	4144.75
969.912	4270.75
970.138	4233.75
970.363	4202.75
970.588	4180.75
970.813	4130.75
971.038	4091.75
971.263	4157.75
971.488	4163.75
971.713	4121.75
971.938	4152.75
972.163	3996.75
972.388	4059.75
972.613	3997.75
972.838	3993.75
973.062	3974.75
973.287	3965.75
973.512	3867.75
973.736	3902.75
973.961	3880.75
974.185	3904.75
974.41	3850.75
974.634	3792.75
974.858	3791.75
975.083	3831.75
975.307	3842.75
975.531	3723.75
975.755	3705.75
975.98	3699.75
976.204	3648.75
976.428	3610.75
976.652	3631.75
976.876	3615.75
977.1	3571.75
977.324	3610.75
977.547	3599.75
977.771	3579.75
977.995	3577.75
978.219	3521.75
978.442	3613.75
978.666	3542.75
978.89	3529.75
979.113	3513.75
979.337	3494.75
979.56	3474.75
979.783	3524.75
980.007	3407.75
980.23	3444.75
980.453	3448.75
980.677	3425.75
980.9	3407.75
981.123	3306.75
981.346	3398.75
981.569	3346.75
981.792	3376.75
982.015	3335.75
982.238	3287.75
982.461	3274.75
982.684	3238.75
982.907	3215.75
983.129	3192.75
983.352	3240.75
983.575	3205.75
983.797	3217.75
984.02	3188.75
984.242	3139.75
984.465	3153.75
984.687	3156.75
984.91	3161.75
985.132	3148.75
985.354	3153.75
985.577	3091.75
985.799	3091.75
986.021	3017.75
986.243	3026.75
986.465	3014.75
986.687	3048.75
986.909	3096.75
987.131	3042.75
987.353	2997.75
987.575	3010.75
987.797	2982.75
988.019	2913.75
988.241	2975.75
988.462	2888.75
988.684	2959.75
988.906	3000.75
989.127	3019.75
989.349	2856.75
989.57	2906.75
989.792	2912.75
990.013	2914.75
990.234	2969.75
990.456	2954.75
990.677	2894.75
990.898	2861.75
991.119	2826.75
991.341	2859.75
991.562	2831.75
991.783	2839.75
992.004	2769.75
992.225	2714.75
992.446	2777.75
992.667	2656.75
992.887	2766.75
993.108	2648.75
993.329	2753.75
993.55	2698.75
993.77	2622.75
993.991	2615.75
994.212	2680.75
994.432	2646.75
994.653	2647.75
994.873	2630.75
995.093	2500.75
995.314	2582.75
995.534	2609.75
995.754	2620.75
995.975	2669.75
996.195	2527.75
996.415	2549.75
996.635	2556.75
996.855	2561.75
997.075	2523.75
997.295	2534.75
997.515	2504.75
997.735	2566.75
997.955	2526.75
998.174	2496.75
998.394	2482.75
998.614	2515.75
998.834	2495.75
999.053	2533.75
999.273	2530.75
999.492	2538.75
999.712	2471.75
999.931	2409.75
1000.151	2438.75
1000.37	2440.75
1000.589	2468.75
1000.809	2389.75
1001.028	2495.75
1001.247	2427.75
1001.466	2290.75
1001.685	2420.75
1001.904	2399.75
1002.123	2332.75
1002.342	2315.75
1002.561	2278.75
1002.78	2323.75
1002.999	2340.75
1003.218	2322.75
1003.436	2312.75
1003.655	2285.75
1003.874	2270.75
1004.092	2288.75
1004.311	2302.75
1004.53	2266.75
1004.748	2330.75
1004.966	2243.75
1005.185	2294.75
1005.403	2255.75
1005.622	2255.75
1005.84	2323.75
1006.058	2170.75
1006.276	2234.75
1006.494	2740.75
1006.712	2238.75
1006.931	2315.75
1007.149	2192.75
1007.367	2236.75
1007.584	2236.75
1007.802	2311.75
1008.02	2226.75
1008.238	2355.75
1008.456	2348.75
1008.673	2262.75
1008.891	2373.75
1009.109	2323.75
1009.326	2387.75
1009.544	2514.75
1009.761	2442.75
1009.979	2534.75
1010.196	2585.75
1010.413	2752.75
1010.631	2804.75
1010.848	2930.75
1011.065	2959.75
1011.282	2913.75
1011.5	2879.75
1011.717	2931.75
1011.934	2903.75
1012.151	2950.75
1012.368	2913.75
1012.585	2829.75
1012.801	2885.75
1013.018	2846.75
1013.235	2864.75
1013.452	2891.75
1013.669	2873.75
1013.885	2918.75
1014.102	2923.75
1014.318	2920.75
1014.535	2871.75
1014.751	2849.75
1014.968	2894.75
1015.184	2925.75
1015.401	2795.75
1015.617	2835.75
1015.833	2767.75
1016.049	2748.75
1016.266	2725.75
1016.482	2719.75
1016.698	2625.75
1016.914	2704.75
1017.13	2629.75
1017.346	2618.75
1017.562	2686.75
1017.778	2587.75
1017.993	2568.75
1018.209	2645.75
1018.425	2616.75
1018.641	2557.75
1018.856	2549.75
1019.072	2555.75
1019.288	2637.75
1019.503	2600.75
1019.719	2513.75
1019.934	2475.75
1020.149	2608.75
1020.365	2506.75
1020.58	2431.75
1020.795	2479.75
1021.011	2384.75
1021.226	2303.75
1021.441	2340.75
1021.656	2243.75
1021.871	2125.75
1022.086	2143.75
1022.301	2088.75
1022.516	2056.75
1022.731	2075.75
1022.946	2016.75
1023.16	1965.75
1023.375	1926.75
1023.59	1880.75
1023.804	1822.75
1024.019	1898.75
1024.234	1766.75
1024.448	1774.75
1024.663	1703.75
1024.877	1672.75
1025.092	1680.75
1025.306	1715.75
1025.52	1535.75
1025.734	1641.75
1025.949	1537.75
1026.163	1508.75
1026.377	1445.75
1026.591	1449.75
1026.805	1377.75
1027.019	1345.75
1027.233	1301.75
1027.447	1241.75
1027.661	1349.75
1027.875	1253.75
1028.088	1254.75
1028.302	1186.75
1028.516	1146.75
1028.73	1138.75
1028.943	1111.75
1029.157	1044.75
1029.37	961.75
1029.584	-5.25
1029.797	-2.25
1030.011	-2.25
1030.224	1.75
