Data from QEP037381__37__15-15-25-858.txt Node

Date: Fri Dec 16 15:15:25 EST 2022
User: dcclab
Spectrometer: QEP03738
Trigger mode: 4
Integration Time (sec): 1.000000E1
Scans to average: 1
Electric dark correction enabled: true
Nonlinearity correction enabled: false
Boxcar width: 0
XAxis mode: Wavelengths
Number of Pixels in Spectrum: 1044
>>>>>Begin Spectral Data<<<<<
784.041	10.62
784.3	3.62
784.558	-1.38
784.817	-2.38
785.075	89086.62
785.334	15489.62
785.592	7372.62
785.851	4988.62
786.109	3820.62
786.368	2943.62
786.626	2380.62
786.884	1999.62
787.143	1685.62
787.401	1387.62
787.659	1286.62
787.917	1079.62
788.175	1005.62
788.433	903.62
788.691	812.62
788.949	741.62
789.207	748.62
789.465	635.62
789.723	600.62
789.98	572.62
790.238	620.62
790.496	551.62
790.753	530.62
791.011	600.62
791.268	519.62
791.526	514.62
791.783	537.62
792.041	519.62
792.298	435.62
792.556	497.62
792.813	472.62
793.07	457.62
793.327	438.62
793.584	524.62
793.841	452.62
794.099	472.62
794.356	518.62
794.613	429.62
794.869	465.62
795.126	425.62
795.383	401.62
795.64	433.62
795.897	388.62
796.153	448.62
796.41	430.62
796.667	417.62
796.923	438.62
797.18	441.62
797.436	455.62
797.693	419.62
797.949	474.62
798.206	505.62
798.462	409.62
798.718	490.62
798.974	445.62
799.231	496.62
799.487	488.62
799.743	493.62
799.999	513.62
800.255	511.62
800.511	497.62
800.767	554.62
801.023	539.62
801.279	576.62
801.534	635.62
801.79	679.62
802.046	714.62
802.302	847.62
802.557	967.62
802.813	1208.62
803.068	1515.62
803.324	2053.62
803.579	2840.62
803.835	3933.62
804.09	5368.62
804.345	7061.62
804.601	8996.62
804.856	10860.62
805.111	12436.62
805.366	13774.62
805.621	14791.62
805.876	15368.62
806.131	15729.62
806.386	16137.62
806.641	16379.62
806.896	16631.62
807.151	16955.62
807.406	17326.62
807.661	17683.62
807.915	17891.62
808.17	18276.62
808.425	18382.62
808.679	18614.62
808.934	18850.62
809.188	19037.62
809.443	19290.62
809.697	19590.62
809.951	19772.62
810.206	19912.62
810.46	20123.62
810.714	20327.62
810.968	20603.62
811.223	20778.62
811.477	20859.62
811.731	21136.62
811.985	21254.62
812.239	21241.62
812.493	21460.62
812.747	21526.62
813	21519.62
813.254	21768.62
813.508	21820.62
813.762	21876.62
814.015	22124.62
814.269	22296.62
814.522	22414.62
814.776	22751.62
815.03	23117.62
815.283	23456.62
815.536	23719.62
815.79	24160.62
816.043	24523.62
816.296	24824.62
816.55	25218.62
816.803	25415.62
817.056	25843.62
817.309	26094.62
817.562	26351.62
817.815	26670.62
818.068	26828.62
818.321	27308.62
818.574	27476.62
818.827	27907.62
819.079	28317.62
819.332	28691.62
819.585	28980.62
819.838	29340.62
820.09	29650.62
820.343	29925.62
820.595	30016.62
820.848	30189.62
821.1	30384.62
821.353	30393.62
821.605	30419.62
821.857	30435.62
822.11	30210.62
822.362	30325.62
822.614	30221.62
822.866	30318.62
823.118	30211.62
823.37	30304.62
823.622	30415.62
823.874	30605.62
824.126	30681.62
824.378	30812.62
824.63	30810.62
824.882	30897.62
825.134	30811.62
825.385	30804.62
825.637	30711.62
825.888	30655.62
826.14	30691.62
826.392	30547.62
826.643	30359.62
826.895	30295.62
827.146	30100.62
827.397	30197.62
827.649	30002.62
827.9	30024.62
828.151	30145.62
828.402	30150.62
828.653	30479.62
828.905	30369.62
829.156	30581.62
829.407	30602.62
829.658	30503.62
829.909	30646.62
830.159	30459.62
830.41	30429.62
830.661	30249.62
830.912	30115.62
831.162	30040.62
831.413	30055.62
831.664	29970.62
831.914	29913.62
832.165	29926.62
832.415	29897.62
832.666	29901.62
832.916	29844.62
833.167	29743.62
833.417	29815.62
833.667	29768.62
833.917	29739.62
834.168	29742.62
834.418	29630.62
834.668	29497.62
834.918	29194.62
835.168	29380.62
835.418	29195.62
835.668	28978.62
835.918	28797.62
836.167	28891.62
836.417	28892.62
836.667	28887.62
836.917	28770.62
837.166	28629.62
837.416	28801.62
837.666	28708.62
837.915	28793.62
838.165	28700.62
838.414	28469.62
838.663	28462.62
838.913	28693.62
839.162	28509.62
839.411	28470.62
839.661	28367.62
839.91	28225.62
840.159	28143.62
840.408	28272.62
840.657	28201.62
840.906	28172.62
841.155	28427.62
841.404	28284.62
841.653	28314.62
841.902	28358.62
842.15	28329.62
842.399	28347.62
842.648	28419.62
842.897	28166.62
843.145	27996.62
843.394	27867.62
843.642	27733.62
843.891	27662.62
844.139	27637.62
844.388	27374.62
844.636	27228.62
844.884	27233.62
845.133	27344.62
845.381	27163.62
845.629	27219.62
845.877	27108.62
846.125	27234.62
846.373	27189.62
846.621	26992.62
846.869	26976.62
847.117	26853.62
847.365	26681.62
847.613	26636.62
847.861	26459.62
848.108	26488.62
848.356	26395.62
848.604	26394.62
848.851	26334.62
849.099	26404.62
849.346	26416.62
849.594	26593.62
849.841	26636.62
850.089	26687.62
850.336	26693.62
850.583	26647.62
850.831	26570.62
851.078	26406.62
851.325	26536.62
851.572	26593.62
851.819	26395.62
852.066	25912.62
852.313	25536.62
852.56	25317.62
852.807	25227.62
853.054	25101.62
853.301	25100.62
853.548	25001.62
853.794	25299.62
854.041	25319.62
854.288	25336.62
854.534	25663.62
854.781	25647.62
855.028	25523.62
855.274	25496.62
855.52	25401.62
855.767	25271.62
856.013	25294.62
856.26	25473.62
856.506	25060.62
856.752	25038.62
856.998	25133.62
857.244	25125.62
857.49	25240.62
857.736	25304.62
857.982	25300.62
858.228	25258.62
858.474	25095.62
858.72	24902.62
858.966	24750.62
859.212	24355.62
859.458	24251.62
859.703	24078.62
859.949	23716.62
860.195	23757.62
860.44	23517.62
860.686	23390.62
860.931	23397.62
861.177	23203.62
861.422	23131.62
861.667	23096.62
861.913	23072.62
862.158	23151.62
862.403	23188.62
862.648	23405.62
862.893	23395.62
863.138	23371.62
863.384	23212.62
863.629	23228.62
863.873	23176.62
864.118	23141.62
864.363	22868.62
864.608	22945.62
864.853	22874.62
865.098	22761.62
865.342	22658.62
865.587	22670.62
865.832	22619.62
866.076	22606.62
866.321	22556.62
866.565	22515.62
866.81	22331.62
867.054	22355.62
867.298	22162.62
867.543	22225.62
867.787	22192.62
868.031	22083.62
868.275	22017.62
868.519	22190.62
868.764	22108.62
869.008	22002.62
869.252	21861.62
869.496	21995.62
869.739	21834.62
869.983	21938.62
870.227	21853.62
870.471	21787.62
870.715	22039.62
870.958	22051.62
871.202	22052.62
871.446	22178.62
871.689	22122.62
871.933	22197.62
872.176	22153.62
872.42	21907.62
872.663	21889.62
872.906	21839.62
873.15	21883.62
873.393	21721.62
873.636	21727.62
873.879	21557.62
874.122	21333.62
874.366	20961.62
874.609	20953.62
874.852	20764.62
875.095	20662.62
875.337	20535.62
875.58	20409.62
875.823	20407.62
876.066	20324.62
876.309	20331.62
876.551	20167.62
876.794	20120.62
877.037	20095.62
877.279	20096.62
877.522	20116.62
877.764	19972.62
878.007	19992.62
878.249	19924.62
878.491	19822.62
878.734	19978.62
878.976	19785.62
879.218	19701.62
879.46	19607.62
879.702	19464.62
879.945	19356.62
880.187	19200.62
880.429	19134.62
880.671	18955.62
880.912	18936.62
881.154	18877.62
881.396	18727.62
881.638	18844.62
881.88	18782.62
882.121	18688.62
882.363	18845.62
882.605	18873.62
882.846	18846.62
883.088	18719.62
883.329	18666.62
883.571	18774.62
883.812	18738.62
884.053	19119.62
884.295	19444.62
884.536	19603.62
884.777	19567.62
885.018	19449.62
885.259	19413.62
885.5	19428.62
885.742	19615.62
885.982	19246.62
886.223	19057.62
886.464	18886.62
886.705	18718.62
886.946	18499.62
887.187	18279.62
887.428	18131.62
887.668	17803.62
887.909	17610.62
888.15	17418.62
888.39	17280.62
888.631	17227.62
888.871	17042.62
889.111	17006.62
889.352	16794.62
889.592	16645.62
889.833	16552.62
890.073	16568.62
890.313	16479.62
890.553	16211.62
890.793	16189.62
891.033	16163.62
891.273	16005.62
891.513	16119.62
891.753	16139.62
891.993	15965.62
892.233	16070.62
892.473	16009.62
892.713	16224.62
892.952	16040.62
893.192	16112.62
893.432	16097.62
893.671	16086.62
893.911	16020.62
894.15	15956.62
894.39	15824.62
894.629	15783.62
894.869	15664.62
895.108	15549.62
895.347	15511.62
895.587	15528.62
895.826	15467.62
896.065	15424.62
896.304	15540.62
896.543	15478.62
896.782	15388.62
897.021	15379.62
897.26	15449.62
897.499	15462.62
897.738	15453.62
897.977	15297.62
898.216	15087.62
898.454	15025.62
898.693	14936.62
898.932	15098.62
899.17	14874.62
899.409	14872.62
899.647	14796.62
899.886	14959.62
900.124	14948.62
900.363	14940.62
900.601	14857.62
900.839	14987.62
901.078	15072.62
901.316	15089.62
901.554	15132.62
901.792	15341.62
902.03	15283.62
902.268	15273.62
902.506	15203.62
902.744	15145.62
902.982	14929.62
903.22	14731.62
903.458	14485.62
903.695	14258.62
903.933	14056.62
904.171	13819.62
904.409	13538.62
904.646	13481.62
904.884	13245.62
905.121	13065.62
905.359	12942.62
905.596	12805.62
905.833	12636.62
906.071	12566.62
906.308	12649.62
906.545	12524.62
906.783	12425.62
907.02	12361.62
907.257	12337.62
907.494	12335.62
907.731	12358.62
907.968	12248.62
908.205	12115.62
908.442	12081.62
908.679	11922.62
908.915	11908.62
909.152	11849.62
909.389	11624.62
909.626	11707.62
909.862	11458.62
910.099	11572.62
910.335	11548.62
910.572	11343.62
910.808	11372.62
911.045	11343.62
911.281	11250.62
911.518	11266.62
911.754	11177.62
911.99	11193.62
912.226	10929.62
912.463	10903.62
912.699	10843.62
912.935	10748.62
913.171	10658.62
913.407	10551.62
913.643	10525.62
913.879	10436.62
914.114	10329.62
914.35	10228.62
914.586	10168.62
914.822	10027.62
915.057	10078.62
915.293	9835.62
915.529	9893.62
915.764	9990.62
916	9889.62
916.235	9891.62
916.471	9905.62
916.706	9763.62
916.941	9788.62
917.177	9742.62
917.412	9746.62
917.647	9848.62
917.882	9729.62
918.117	9742.62
918.352	9720.62
918.588	9666.62
918.823	9571.62
919.057	9423.62
919.292	9312.62
919.527	9385.62
919.762	9227.62
919.997	9167.62
920.232	9025.62
920.466	9000.62
920.701	8852.62
920.935	8829.62
921.17	8793.62
921.405	8722.62
921.639	8713.62
921.873	8734.62
922.108	8744.62
922.342	8637.62
922.576	8504.62
922.811	8575.62
923.045	8573.62
923.279	8539.62
923.513	8390.62
923.747	8435.62
923.981	8361.62
924.215	8289.62
924.449	8282.62
924.683	8169.62
924.917	8161.62
925.151	8118.62
925.385	8182.62
925.618	8087.62
925.852	8008.62
926.086	7935.62
926.319	8021.62
926.553	8023.62
926.786	8019.62
927.02	7977.62
927.253	8066.62
927.486	8063.62
927.72	7936.62
927.953	8013.62
928.186	7995.62
928.42	7925.62
928.653	7831.62
928.886	7805.62
929.119	7816.62
929.352	7697.62
929.585	7700.62
929.818	7557.62
930.051	7650.62
930.284	7536.62
930.516	7447.62
930.749	7448.62
930.982	7408.62
931.215	7342.62
931.447	7336.62
931.68	7293.62
931.912	7324.62
932.145	7294.62
932.377	7300.62
932.61	7374.62
932.842	7224.62
933.074	7200.62
933.307	7170.62
933.539	7242.62
933.771	7262.62
934.003	7203.62
934.236	7259.62
934.468	7225.62
934.7	7177.62
934.932	7170.62
935.164	7119.62
935.395	7135.62
935.627	7089.62
935.859	7116.62
936.091	6993.62
936.323	7025.62
936.554	6997.62
936.786	6967.62
937.017	6924.62
937.249	6933.62
937.481	6874.62
937.712	6975.62
937.943	6912.62
938.175	6911.62
938.406	6816.62
938.637	6933.62
938.869	6731.62
939.1	6809.62
939.331	6772.62
939.562	6793.62
939.793	6739.62
940.024	6746.62
940.255	6708.62
940.486	6588.62
940.717	6615.62
940.948	6588.62
941.179	6573.62
941.409	6528.62
941.64	6556.62
941.871	6562.62
942.102	6465.62
942.332	6540.62
942.563	6512.62
942.793	6526.62
943.024	6491.62
943.254	6501.62
943.484	6553.62
943.715	6538.62
943.945	6468.62
944.175	6435.62
944.405	6397.62
944.636	6396.62
944.866	6435.62
945.096	6432.62
945.326	6296.62
945.556	6347.62
945.786	6375.62
946.016	6324.62
946.245	6184.62
946.475	6215.62
946.705	6230.62
946.935	6120.62
947.164	6074.62
947.394	6055.62
947.624	6009.62
947.853	6106.62
948.083	6034.62
948.312	5933.62
948.542	5886.62
948.771	5865.62
949	5845.62
949.23	5889.62
949.459	5872.62
949.688	5952.62
949.917	5852.62
950.146	5809.62
950.375	5929.62
950.604	5785.62
950.833	5868.62
951.062	5832.62
951.291	5826.62
951.52	5771.62
951.749	5796.62
951.978	5666.62
952.206	5709.62
952.435	5619.62
952.664	5700.62
952.892	5671.62
953.121	5684.62
953.349	5625.62
953.578	5640.62
953.806	5540.62
954.035	5459.62
954.263	5519.62
954.491	5437.62
954.719	5492.62
954.948	5377.62
955.176	5400.62
955.404	5357.62
955.632	5373.62
955.86	5368.62
956.088	5315.62
956.316	5314.62
956.544	5236.62
956.772	5188.62
956.999	5177.62
957.227	5205.62
957.455	5067.62
957.683	5074.62
957.91	5080.62
958.138	5048.62
958.365	5027.62
958.593	5038.62
958.82	4972.62
959.048	5047.62
959.275	4974.62
959.502	4907.62
959.73	4888.62
959.957	4930.62
960.184	4935.62
960.411	4891.62
960.638	4943.62
960.865	4856.62
961.092	4948.62
961.319	4781.62
961.546	4867.62
961.773	4878.62
962	4867.62
962.227	4855.62
962.454	4776.62
962.68	4794.62
962.907	4786.62
963.134	4706.62
963.36	4746.62
963.587	4719.62
963.813	4645.62
964.04	4655.62
964.266	4583.62
964.493	4643.62
964.719	4606.62
964.945	4553.62
965.171	4506.62
965.398	4503.62
965.624	4529.62
965.85	4453.62
966.076	4445.62
966.302	4414.62
966.528	4370.62
966.754	4361.62
966.98	4419.62
967.206	4359.62
967.431	4286.62
967.657	4350.62
967.883	4324.62
968.109	4302.62
968.334	4235.62
968.56	4218.62
968.785	4241.62
969.011	4210.62
969.236	4286.62
969.462	4167.62
969.687	4207.62
969.912	4230.62
970.138	4201.62
970.363	4089.62
970.588	4174.62
970.813	4090.62
971.038	4062.62
971.263	4077.62
971.488	4112.62
971.713	4081.62
971.938	4075.62
972.163	3925.62
972.388	3964.62
972.613	3975.62
972.838	3962.62
973.062	3955.62
973.287	3920.62
973.512	3854.62
973.736	3872.62
973.961	3853.62
974.185	3800.62
974.41	3863.62
974.634	3718.62
974.858	3757.62
975.083	3768.62
975.307	3734.62
975.531	3693.62
975.755	3641.62
975.98	3633.62
976.204	3560.62
976.428	3573.62
976.652	3519.62
976.876	3551.62
977.1	3548.62
977.324	3497.62
977.547	3525.62
977.771	3566.62
977.995	3521.62
978.219	3450.62
978.442	3519.62
978.666	3476.62
978.89	3470.62
979.113	3448.62
979.337	3438.62
979.56	3386.62
979.783	3485.62
980.007	3350.62
980.23	3407.62
980.453	3323.62
980.677	3383.62
980.9	3336.62
981.123	3272.62
981.346	3299.62
981.569	3347.62
981.792	3344.62
982.015	3267.62
982.238	3235.62
982.461	3266.62
982.684	3169.62
982.907	3148.62
983.129	3179.62
983.352	3233.62
983.575	3154.62
983.797	3159.62
984.02	3083.62
984.242	3093.62
984.465	3126.62
984.687	3105.62
984.91	3135.62
985.132	3072.62
985.354	3071.62
985.577	3034.62
985.799	2997.62
986.021	2928.62
986.243	2987.62
986.465	2954.62
986.687	3019.62
986.909	3046.62
987.131	2973.62
987.353	2939.62
987.575	2944.62
987.797	2965.62
988.019	2853.62
988.241	2880.62
988.462	2842.62
988.684	2895.62
988.906	2928.62
989.127	2945.62
989.349	2837.62
989.57	2819.62
989.792	2872.62
990.013	2852.62
990.234	2841.62
990.456	2871.62
990.677	2847.62
990.898	2795.62
991.119	2778.62
991.341	2801.62
991.562	2707.62
991.783	2778.62
992.004	2696.62
992.225	2648.62
992.446	2715.62
992.667	2631.62
992.887	2686.62
993.108	2564.62
993.329	2701.62
993.55	2628.62
993.77	2558.62
993.991	2532.62
994.212	2546.62
994.432	2552.62
994.653	2575.62
994.873	2600.62
995.093	2443.62
995.314	2444.62
995.534	2552.62
995.754	2544.62
995.975	2553.62
996.195	2446.62
996.415	2481.62
996.635	2444.62
996.855	2501.62
997.075	2497.62
997.295	2414.62
997.515	2428.62
997.735	2470.62
997.955	2498.62
998.174	2438.62
998.394	2407.62
998.614	2471.62
998.834	2403.62
999.053	2457.62
999.273	2450.62
999.492	2458.62
999.712	2375.62
999.931	2345.62
1000.151	2367.62
1000.37	2358.62
1000.589	2435.62
1000.809	2320.62
1001.028	2411.62
1001.247	2354.62
1001.466	2236.62
1001.685	2388.62
1001.904	2293.62
1002.123	2284.62
1002.342	2307.62
1002.561	2248.62
1002.78	2228.62
1002.999	2299.62
1003.218	2252.62
1003.436	2216.62
1003.655	2261.62
1003.874	2193.62
1004.092	2192.62
1004.311	2239.62
1004.53	2189.62
1004.748	2286.62
1004.966	2157.62
1005.185	2218.62
1005.403	2187.62
1005.622	2213.62
1005.84	2249.62
1006.058	2159.62
1006.276	2183.62
1006.494	2653.62
1006.712	2157.62
1006.931	2230.62
1007.149	2151.62
1007.367	2122.62
1007.584	2173.62
1007.802	2248.62
1008.02	2191.62
1008.238	2298.62
1008.456	2295.62
1008.673	2146.62
1008.891	2299.62
1009.109	2234.62
1009.326	2301.62
1009.544	2419.62
1009.761	2305.62
1009.979	2453.62
1010.196	2467.62
1010.413	2621.62
1010.631	2707.62
1010.848	2729.62
1011.065	2777.62
1011.282	2710.62
1011.5	2682.62
1011.717	2804.62
1011.934	2746.62
1012.151	2717.62
1012.368	2738.62
1012.585	2690.62
1012.801	2727.62
1013.018	2703.62
1013.235	2688.62
1013.452	2706.62
1013.669	2741.62
1013.885	2727.62
1014.102	2781.62
1014.318	2723.62
1014.535	2702.62
1014.751	2699.62
1014.968	2696.62
1015.184	2735.62
1015.401	2633.62
1015.617	2664.62
1015.833	2586.62
1016.049	2591.62
1016.266	2574.62
1016.482	2564.62
1016.698	2467.62
1016.914	2544.62
1017.13	2488.62
1017.346	2442.62
1017.562	2521.62
1017.778	2449.62
1017.993	2446.62
1018.209	2464.62
1018.425	2446.62
1018.641	2445.62
1018.856	2421.62
1019.072	2456.62
1019.288	2502.62
1019.503	2463.62
1019.719	2371.62
1019.934	2392.62
1020.149	2436.62
1020.365	2354.62
1020.58	2307.62
1020.795	2313.62
1021.011	2229.62
1021.226	2187.62
1021.441	2181.62
1021.656	2082.62
1021.871	2001.62
1022.086	1994.62
1022.301	1952.62
1022.516	1947.62
1022.731	1980.62
1022.946	1868.62
1023.16	1850.62
1023.375	1787.62
1023.59	1775.62
1023.804	1737.62
1024.019	1796.62
1024.234	1663.62
1024.448	1658.62
1024.663	1613.62
1024.877	1624.62
1025.092	1606.62
1025.306	1586.62
1025.52	1469.62
1025.734	1530.62
1025.949	1428.62
1026.163	1416.62
1026.377	1328.62
1026.591	1395.62
1026.805	1301.62
1027.019	1278.62
1027.233	1236.62
1027.447	1190.62
1027.661	1291.62
1027.875	1183.62
1028.088	1192.62
1028.302	1121.62
1028.516	1085.62
1028.73	1075.62
1028.943	1069.62
1029.157	997.62
1029.37	935.62
1029.584	-4.38
1029.797	-1.38
1030.011	-4.38
1030.224	-0.38
