Data from QEP037381__39__15-15-45-858.txt Node

Date: Fri Dec 16 15:15:45 EST 2022
User: dcclab
Spectrometer: QEP03738
Trigger mode: 4
Integration Time (sec): 1.000000E1
Scans to average: 1
Electric dark correction enabled: true
Nonlinearity correction enabled: false
Boxcar width: 0
XAxis mode: Wavelengths
Number of Pixels in Spectrum: 1044
>>>>>Begin Spectral Data<<<<<
784.041	12.25
784.3	3.25
784.558	-0.75
784.817	-3.75
785.075	89187.25
785.334	15272.25
785.592	7153.25
785.851	4893.25
786.109	3730.25
786.368	2893.25
786.626	2382.25
786.884	1968.25
787.143	1715.25
787.401	1427.25
787.659	1269.25
787.917	1104.25
788.175	1023.25
788.433	897.25
788.691	828.25
788.949	788.25
789.207	723.25
789.465	658.25
789.723	635.25
789.98	581.25
790.238	623.25
790.496	596.25
790.753	556.25
791.011	599.25
791.268	543.25
791.526	547.25
791.783	555.25
792.041	557.25
792.298	456.25
792.556	513.25
792.813	494.25
793.07	489.25
793.327	475.25
793.584	551.25
793.841	481.25
794.099	506.25
794.356	548.25
794.613	464.25
794.869	491.25
795.126	464.25
795.383	456.25
795.64	475.25
795.897	431.25
796.153	498.25
796.41	478.25
796.667	463.25
796.923	465.25
797.18	451.25
797.436	484.25
797.693	455.25
797.949	525.25
798.206	550.25
798.462	462.25
798.718	528.25
798.974	526.25
799.231	557.25
799.487	549.25
799.743	588.25
799.999	608.25
800.255	596.25
800.511	590.25
800.767	638.25
801.023	642.25
801.279	691.25
801.534	752.25
801.79	805.25
802.046	889.25
802.302	1089.25
802.557	1271.25
802.813	1623.25
803.068	2088.25
803.324	2922.25
803.579	4098.25
803.835	5849.25
804.09	8148.25
804.345	10894.25
804.601	13877.25
804.856	16875.25
805.111	19544.25
805.366	21558.25
805.621	22982.25
805.876	23942.25
806.131	24665.25
806.386	25185.25
806.641	25622.25
806.896	26079.25
807.151	26517.25
807.406	27177.25
807.661	27662.25
807.915	28060.25
808.17	28666.25
808.425	29010.25
808.679	29290.25
808.934	29803.25
809.188	30019.25
809.443	30444.25
809.697	30861.25
809.951	31167.25
810.206	31434.25
810.46	31809.25
810.714	32252.25
810.968	32479.25
811.223	32838.25
811.477	33073.25
811.731	33359.25
811.985	33708.25
812.239	33882.25
812.493	34160.25
812.747	34253.25
813	34481.25
813.254	34545.25
813.508	34878.25
813.762	35065.25
814.015	35265.25
814.269	35623.25
814.522	35862.25
814.776	36327.25
815.03	36849.25
815.283	37415.25
815.536	38033.25
815.79	38724.25
816.043	39293.25
816.296	39965.25
816.55	40513.25
816.803	41033.25
817.056	41668.25
817.309	42056.25
817.562	42466.25
817.815	42962.25
818.068	43458.25
818.321	44039.25
818.574	44669.25
818.827	45375.25
819.079	45847.25
819.332	46728.25
819.585	47252.25
819.838	47812.25
820.09	48228.25
820.343	48842.25
820.595	49235.25
820.848	49522.25
821.1	49596.25
821.353	49658.25
821.605	49896.25
821.857	49791.25
822.11	49885.25
822.362	49646.25
822.614	49466.25
822.866	49634.25
823.118	49455.25
823.37	49691.25
823.622	50050.25
823.874	49980.25
824.126	50473.25
824.378	50443.25
824.63	50859.25
824.882	50809.25
825.134	50813.25
825.385	50801.25
825.637	50853.25
825.888	50667.25
826.14	50671.25
826.392	50452.25
826.643	50382.25
826.895	50252.25
827.146	50053.25
827.397	50071.25
827.649	50143.25
827.9	49954.25
828.151	50076.25
828.402	50403.25
828.653	50332.25
828.905	50644.25
829.156	50721.25
829.407	50704.25
829.658	50851.25
829.909	50990.25
830.159	50900.25
830.41	50572.25
830.661	50211.25
830.912	49897.25
831.162	49996.25
831.413	49771.25
831.664	49773.25
831.914	49872.25
832.165	49773.25
832.415	49775.25
832.666	50002.25
832.916	50028.25
833.167	49984.25
833.417	49986.25
833.667	49653.25
833.917	49787.25
834.168	49647.25
834.418	49369.25
834.668	49287.25
834.918	49182.25
835.168	48952.25
835.418	48712.25
835.668	48792.25
835.918	48637.25
836.167	48709.25
836.417	48494.25
836.667	48567.25
836.917	48398.25
837.166	48508.25
837.416	48484.25
837.666	48465.25
837.915	48455.25
838.165	48304.25
838.414	48288.25
838.663	48062.25
838.913	48149.25
839.162	47847.25
839.411	47897.25
839.661	47639.25
839.91	47638.25
840.159	47555.25
840.408	47435.25
840.657	47652.25
840.906	47672.25
841.155	47747.25
841.404	47858.25
841.653	47811.25
841.902	47778.25
842.15	47894.25
842.399	47966.25
842.648	47867.25
842.897	47643.25
843.145	47558.25
843.394	47202.25
843.642	46970.25
843.891	46936.25
844.139	46674.25
844.388	46410.25
844.636	46324.25
844.884	46212.25
845.133	46191.25
845.381	46085.25
845.629	46211.25
845.877	46237.25
846.125	46186.25
846.373	46208.25
846.621	45983.25
846.869	46072.25
847.117	45673.25
847.365	45446.25
847.613	45142.25
847.861	45132.25
848.108	45059.25
848.356	45033.25
848.604	44805.25
848.851	44931.25
849.099	45095.25
849.346	45333.25
849.594	45412.25
849.841	45647.25
850.089	45796.25
850.336	45752.25
850.583	45866.25
850.831	45494.25
851.078	45329.25
851.325	45214.25
851.572	45313.25
851.819	44843.25
852.066	44087.25
852.313	43916.25
852.56	43424.25
852.807	43203.25
853.054	43075.25
853.301	43023.25
853.548	43011.25
853.794	43281.25
854.041	43387.25
854.288	43601.25
854.534	44044.25
854.781	43995.25
855.028	43715.25
855.274	43805.25
855.52	43490.25
855.767	43200.25
856.013	43239.25
856.26	43519.25
856.506	43060.25
856.752	42806.25
856.998	43206.25
857.244	43162.25
857.49	43281.25
857.736	43457.25
857.982	43368.25
858.228	43388.25
858.474	43225.25
858.72	42908.25
858.966	42457.25
859.212	42172.25
859.458	41716.25
859.703	41487.25
859.949	41131.25
860.195	40844.25
860.44	40574.25
860.686	40471.25
860.931	40423.25
861.177	40261.25
861.422	40187.25
861.667	40075.25
861.913	40078.25
862.158	40244.25
862.403	40355.25
862.648	40596.25
862.893	40853.25
863.138	40723.25
863.384	40502.25
863.629	40546.25
863.873	40524.25
864.118	40347.25
864.363	40102.25
864.608	39972.25
864.853	39884.25
865.098	39703.25
865.342	39750.25
865.587	39404.25
865.832	39404.25
866.076	39381.25
866.321	39414.25
866.565	39219.25
866.81	39125.25
867.054	38975.25
867.298	38939.25
867.543	38710.25
867.787	38750.25
868.031	38611.25
868.275	38658.25
868.519	38502.25
868.764	38362.25
869.008	38353.25
869.252	38442.25
869.496	38271.25
869.739	38221.25
869.983	38161.25
870.227	38133.25
870.471	38073.25
870.715	38222.25
870.958	38367.25
871.202	38413.25
871.446	38445.25
871.689	38374.25
871.933	38491.25
872.176	38538.25
872.42	38321.25
872.663	38338.25
872.906	38064.25
873.15	38025.25
873.393	37685.25
873.636	37541.25
873.879	37097.25
874.122	36950.25
874.366	36583.25
874.609	36441.25
874.852	36206.25
875.095	35999.25
875.337	35894.25
875.58	35936.25
875.823	35839.25
876.066	35735.25
876.309	35624.25
876.551	35407.25
876.794	35323.25
877.037	35273.25
877.279	35232.25
877.522	35186.25
877.764	35272.25
878.007	35221.25
878.249	35175.25
878.491	35203.25
878.734	35189.25
878.976	35080.25
879.218	34792.25
879.46	34743.25
879.702	34470.25
879.945	34172.25
880.187	33971.25
880.429	33801.25
880.671	33648.25
880.912	33739.25
881.154	33579.25
881.396	33431.25
881.638	33397.25
881.88	33597.25
882.121	33482.25
882.363	33463.25
882.605	33321.25
882.846	33222.25
883.088	33177.25
883.329	33032.25
883.571	32854.25
883.812	33105.25
884.053	33268.25
884.295	33512.25
884.536	33731.25
884.777	33710.25
885.018	33453.25
885.259	33509.25
885.5	33335.25
885.742	33589.25
885.982	33356.25
886.223	33206.25
886.464	33044.25
886.705	32744.25
886.946	32796.25
887.187	32333.25
887.428	32165.25
887.668	31792.25
887.909	31454.25
888.15	31246.25
888.39	31004.25
888.631	30952.25
888.871	30637.25
889.111	30409.25
889.352	30373.25
889.592	30012.25
889.833	29960.25
890.073	29644.25
890.313	29585.25
890.553	29425.25
890.793	29310.25
891.033	29257.25
891.273	29158.25
891.513	29200.25
891.753	29086.25
891.993	28962.25
892.233	29083.25
892.473	29214.25
892.713	29291.25
892.952	29270.25
893.192	29223.25
893.432	29170.25
893.671	29166.25
893.911	29023.25
894.15	28888.25
894.39	28712.25
894.629	28591.25
894.869	28293.25
895.108	28380.25
895.347	28110.25
895.587	28118.25
895.826	28142.25
896.065	28024.25
896.304	27990.25
896.543	27926.25
896.782	27966.25
897.021	27795.25
897.26	27760.25
897.499	27685.25
897.738	27562.25
897.977	27430.25
898.216	27197.25
898.454	26945.25
898.693	26949.25
898.932	26791.25
899.17	26726.25
899.409	26645.25
899.647	26612.25
899.886	26508.25
900.124	26577.25
900.363	26679.25
900.601	26631.25
900.839	26616.25
901.078	26633.25
901.316	26751.25
901.554	27013.25
901.792	27016.25
902.03	26922.25
902.268	26827.25
902.506	26738.25
902.744	26545.25
902.982	26487.25
903.22	26159.25
903.458	25936.25
903.695	25682.25
903.933	25326.25
904.171	24823.25
904.409	24477.25
904.646	24383.25
904.884	23974.25
905.121	23848.25
905.359	23534.25
905.596	23405.25
905.833	23155.25
906.071	23003.25
906.308	22991.25
906.545	23000.25
906.783	22790.25
907.02	22937.25
907.257	22676.25
907.494	22769.25
907.731	22676.25
907.968	22636.25
908.205	22363.25
908.442	22186.25
908.679	22014.25
908.915	21910.25
909.152	21910.25
909.389	21559.25
909.626	21500.25
909.862	21334.25
910.099	21235.25
910.335	21322.25
910.572	21178.25
910.808	21146.25
911.045	21002.25
911.281	20889.25
911.518	20907.25
911.754	20668.25
911.99	20677.25
912.226	20580.25
912.463	20352.25
912.699	20275.25
912.935	20009.25
913.171	19972.25
913.407	19722.25
913.643	19565.25
913.879	19375.25
914.114	19285.25
914.35	19221.25
914.586	19013.25
914.822	18783.25
915.057	18736.25
915.293	18575.25
915.529	18414.25
915.764	18488.25
916	18472.25
916.235	18482.25
916.471	18402.25
916.706	18268.25
916.941	18201.25
917.177	18189.25
917.412	18238.25
917.647	18176.25
917.882	18143.25
918.117	18285.25
918.352	18054.25
918.588	18070.25
918.823	17856.25
919.057	17822.25
919.292	17441.25
919.527	17455.25
919.762	17220.25
919.997	17073.25
920.232	16953.25
920.466	16846.25
920.701	16532.25
920.935	16486.25
921.17	16471.25
921.405	16348.25
921.639	16307.25
921.873	16331.25
922.108	16222.25
922.342	16165.25
922.576	16094.25
922.811	16067.25
923.045	15995.25
923.279	16022.25
923.513	15779.25
923.747	15763.25
923.981	15704.25
924.215	15541.25
924.449	15436.25
924.683	15323.25
924.917	15283.25
925.151	15232.25
925.385	15277.25
925.618	15145.25
925.852	15138.25
926.086	15010.25
926.319	14988.25
926.553	15014.25
926.786	15026.25
927.02	14976.25
927.253	14963.25
927.486	14939.25
927.72	14865.25
927.953	14918.25
928.186	14882.25
928.42	14786.25
928.653	14783.25
928.886	14661.25
929.119	14638.25
929.352	14608.25
929.585	14391.25
929.818	14365.25
930.051	14218.25
930.284	14197.25
930.516	13916.25
930.749	13842.25
930.982	13784.25
931.215	13842.25
931.447	13720.25
931.68	13687.25
931.912	13640.25
932.145	13633.25
932.377	13703.25
932.61	13717.25
932.842	13580.25
933.074	13679.25
933.307	13539.25
933.539	13687.25
933.771	13621.25
934.003	13600.25
934.236	13673.25
934.468	13530.25
934.7	13476.25
934.932	13513.25
935.164	13490.25
935.395	13416.25
935.627	13394.25
935.859	13299.25
936.091	13222.25
936.323	13282.25
936.554	13157.25
936.786	13085.25
937.017	13065.25
937.249	13098.25
937.481	12993.25
937.712	13069.25
937.943	12947.25
938.175	12952.25
938.406	12929.25
938.637	12941.25
938.869	12813.25
939.1	12879.25
939.331	12727.25
939.562	12835.25
939.793	12768.25
940.024	12650.25
940.255	12598.25
940.486	12497.25
940.717	12508.25
940.948	12427.25
941.179	12337.25
941.409	12414.25
941.64	12375.25
941.871	12355.25
942.102	12242.25
942.332	12292.25
942.563	12319.25
942.793	12347.25
943.024	12252.25
943.254	12318.25
943.484	12317.25
943.715	12311.25
943.945	12269.25
944.175	12189.25
944.405	12150.25
944.636	12127.25
944.866	12148.25
945.096	12173.25
945.326	12182.25
945.556	12016.25
945.786	11963.25
946.016	11903.25
946.245	11828.25
946.475	11826.25
946.705	11657.25
946.935	11615.25
947.164	11554.25
947.394	11473.25
947.624	11449.25
947.853	11434.25
948.083	11351.25
948.312	11311.25
948.542	11183.25
948.771	11139.25
949	11179.25
949.23	11076.25
949.459	11164.25
949.688	11210.25
949.917	11170.25
950.146	11082.25
950.375	11110.25
950.604	11028.25
950.833	11056.25
951.062	11078.25
951.291	11015.25
951.52	10889.25
951.749	10973.25
951.978	10824.25
952.206	10809.25
952.435	10782.25
952.664	10823.25
952.892	10808.25
953.121	10683.25
953.349	10693.25
953.578	10652.25
953.806	10632.25
954.035	10486.25
954.263	10442.25
954.491	10382.25
954.719	10426.25
954.948	10320.25
955.176	10287.25
955.404	10219.25
955.632	10235.25
955.86	10120.25
956.088	10128.25
956.316	10130.25
956.544	10091.25
956.772	9909.25
956.999	9876.25
957.227	9883.25
957.455	9785.25
957.683	9741.25
957.91	9594.25
958.138	9680.25
958.365	9607.25
958.593	9569.25
958.82	9513.25
959.048	9510.25
959.275	9464.25
959.502	9408.25
959.73	9374.25
959.957	9421.25
960.184	9367.25
960.411	9332.25
960.638	9377.25
960.865	9238.25
961.092	9405.25
961.319	9283.25
961.546	9270.25
961.773	9306.25
962	9233.25
962.227	9295.25
962.454	9254.25
962.68	9145.25
962.907	9103.25
963.134	9004.25
963.36	9039.25
963.587	8976.25
963.813	8831.25
964.04	8838.25
964.266	8698.25
964.493	8789.25
964.719	8725.25
964.945	8633.25
965.171	8512.25
965.398	8543.25
965.624	8543.25
965.85	8464.25
966.076	8323.25
966.302	8386.25
966.528	8337.25
966.754	8375.25
966.98	8236.25
967.206	8285.25
967.431	8173.25
967.657	8222.25
967.883	8204.25
968.109	8175.25
968.334	8124.25
968.56	8030.25
968.785	8062.25
969.011	7975.25
969.236	8013.25
969.462	7964.25
969.687	7936.25
969.912	8015.25
970.138	7989.25
970.363	7878.25
970.588	7882.25
970.813	7868.25
971.038	7749.25
971.263	7741.25
971.488	7719.25
971.713	7744.25
971.938	7676.25
972.163	7577.25
972.388	7572.25
972.613	7575.25
972.838	7547.25
973.062	7496.25
973.287	7391.25
973.512	7321.25
973.736	7388.25
973.961	7375.25
974.185	7242.25
974.41	7290.25
974.634	7172.25
974.858	7177.25
975.083	7137.25
975.307	7099.25
975.531	6981.25
975.755	6967.25
975.98	6940.25
976.204	6883.25
976.428	6851.25
976.652	6854.25
976.876	6780.25
977.1	6809.25
977.324	6710.25
977.547	6758.25
977.771	6737.25
977.995	6635.25
978.219	6556.25
978.442	6620.25
978.666	6614.25
978.89	6638.25
979.113	6616.25
979.337	6495.25
979.56	6517.25
979.783	6530.25
980.007	6444.25
980.23	6426.25
980.453	6327.25
980.677	6388.25
980.9	6373.25
981.123	6207.25
981.346	6303.25
981.569	6304.25
981.792	6221.25
982.015	6174.25
982.238	6063.25
982.461	6081.25
982.684	6057.25
982.907	5999.25
983.129	5982.25
983.352	5999.25
983.575	5994.25
983.797	5901.25
984.02	5853.25
984.242	5792.25
984.465	5861.25
984.687	5773.25
984.91	5736.25
985.132	5742.25
985.354	5730.25
985.577	5671.25
985.799	5619.25
986.021	5494.25
986.243	5533.25
986.465	5547.25
986.687	5583.25
986.909	5623.25
987.131	5482.25
987.353	5436.25
987.575	5537.25
987.797	5441.25
988.019	5348.25
988.241	5426.25
988.462	5325.25
988.684	5384.25
988.906	5416.25
989.127	5392.25
989.349	5298.25
989.57	5280.25
989.792	5344.25
990.013	5268.25
990.234	5246.25
990.456	5258.25
990.677	5235.25
990.898	5156.25
991.119	5052.25
991.341	5144.25
991.562	5026.25
991.783	5046.25
992.004	5000.25
992.225	4913.25
992.446	4985.25
992.667	4826.25
992.887	4858.25
993.108	4792.25
993.329	4868.25
993.55	4814.25
993.77	4691.25
993.991	4672.25
994.212	4717.25
994.432	4696.25
994.653	4696.25
994.873	4605.25
995.093	4487.25
995.314	4549.25
995.534	4575.25
995.754	4539.25
995.975	4543.25
996.195	4415.25
996.415	4473.25
996.635	4417.25
996.855	4436.25
997.075	4437.25
997.295	4419.25
997.515	4357.25
997.735	4424.25
997.955	4361.25
998.174	4372.25
998.394	4294.25
998.614	4374.25
998.834	4298.25
999.053	4361.25
999.273	4260.25
999.492	4337.25
999.712	4238.25
999.931	4173.25
1000.151	4233.25
1000.37	4171.25
1000.589	4224.25
1000.809	4084.25
1001.028	4204.25
1001.247	4089.25
1001.466	3994.25
1001.685	4081.25
1001.904	3998.25
1002.123	3990.25
1002.342	3992.25
1002.561	3878.25
1002.78	3872.25
1002.999	3933.25
1003.218	3876.25
1003.436	3793.25
1003.655	3852.25
1003.874	3783.25
1004.092	3744.25
1004.311	3815.25
1004.53	3796.25
1004.748	3780.25
1004.966	3728.25
1005.185	3790.25
1005.403	3720.25
1005.622	3702.25
1005.84	3770.25
1006.058	3650.25
1006.276	3684.25
1006.494	4131.25
1006.712	3643.25
1006.931	3687.25
1007.149	3622.25
1007.367	3617.25
1007.584	3610.25
1007.802	3670.25
1008.02	3605.25
1008.238	3681.25
1008.456	3696.25
1008.673	3563.25
1008.891	3669.25
1009.109	3627.25
1009.326	3687.25
1009.544	3750.25
1009.761	3677.25
1009.979	3797.25
1010.196	3782.25
1010.413	3932.25
1010.631	4039.25
1010.848	4079.25
1011.065	4087.25
1011.282	4050.25
1011.5	3974.25
1011.717	4048.25
1011.934	4008.25
1012.151	4035.25
1012.368	3975.25
1012.585	3917.25
1012.801	3999.25
1013.018	3985.25
1013.235	3943.25
1013.452	3974.25
1013.669	3906.25
1013.885	3903.25
1014.102	3925.25
1014.318	3908.25
1014.535	3845.25
1014.751	3892.25
1014.968	3850.25
1015.184	3845.25
1015.401	3767.25
1015.617	3827.25
1015.833	3720.25
1016.049	3733.25
1016.266	3659.25
1016.482	3675.25
1016.698	3596.25
1016.914	3600.25
1017.13	3542.25
1017.346	3569.25
1017.562	3597.25
1017.778	3497.25
1017.993	3461.25
1018.209	3527.25
1018.425	3490.25
1018.641	3486.25
1018.856	3413.25
1019.072	3462.25
1019.288	3489.25
1019.503	3445.25
1019.719	3345.25
1019.934	3416.25
1020.149	3416.25
1020.365	3338.25
1020.58	3274.25
1020.795	3275.25
1021.011	3164.25
1021.226	3132.25
1021.441	3126.25
1021.656	3029.25
1021.871	2949.25
1022.086	2910.25
1022.301	2873.25
1022.516	2857.25
1022.731	2835.25
1022.946	2722.25
1023.16	2735.25
1023.375	2655.25
1023.59	2616.25
1023.804	2555.25
1024.019	2661.25
1024.234	2454.25
1024.448	2462.25
1024.663	2372.25
1024.877	2379.25
1025.092	2377.25
1025.306	2364.25
1025.52	2225.25
1025.734	2272.25
1025.949	2155.25
1026.163	2101.25
1026.377	2012.25
1026.591	2070.25
1026.805	1953.25
1027.019	1927.25
1027.233	1882.25
1027.447	1837.25
1027.661	1907.25
1027.875	1799.25
1028.088	1795.25
1028.302	1721.25
1028.516	1661.25
1028.73	1607.25
1028.943	1569.25
1029.157	1477.25
1029.37	1389.25
1029.584	-3.75
1029.797	-3.75
1030.011	-0.75
1030.224	-2.75
