Data from QEP037381__63__15-19-45-861.txt Node

Date: Fri Dec 16 15:19:45 EST 2022
User: dcclab
Spectrometer: QEP03738
Trigger mode: 4
Integration Time (sec): 1.000000E1
Scans to average: 1
Electric dark correction enabled: true
Nonlinearity correction enabled: false
Boxcar width: 0
XAxis mode: Wavelengths
Number of Pixels in Spectrum: 1044
>>>>>Begin Spectral Data<<<<<
784.041	14
784.3	-1
784.558	0
784.817	-2
785.075	91421
785.334	16091
785.592	7547
785.851	5286
786.109	3956
786.368	3109
786.626	2494
786.884	2064
787.143	1763
787.401	1477
787.659	1330
787.917	1123
788.175	1066
788.433	931
788.691	833
788.949	762
789.207	734
789.465	643
789.723	623
789.98	584
790.238	610
790.496	591
790.753	565
791.011	614
791.268	532
791.526	534
791.783	568
792.041	526
792.298	460
792.556	524
792.813	494
793.07	477
793.327	481
793.584	527
793.841	473
794.099	489
794.356	547
794.613	453
794.869	495
795.126	466
795.383	442
795.64	447
795.897	420
796.153	486
796.41	450
796.667	437
796.923	445
797.18	458
797.436	469
797.693	446
797.949	496
798.206	532
798.462	450
798.718	527
798.974	481
799.231	529
799.487	535
799.743	528
799.999	583
800.255	561
800.511	553
800.767	604
801.023	609
801.279	653
801.534	708
801.79	761
802.046	817
802.302	1003
802.557	1181
802.813	1460
803.068	1862
803.324	2640
803.579	3598
803.835	5119
804.09	7095
804.345	9357
804.601	11842
804.856	14239
805.111	16437
805.366	18056
805.621	19200
805.876	20194
806.131	20595
806.386	20980
806.641	21450
806.896	21834
807.151	22226
807.406	22655
807.661	23043
807.915	23537
808.17	23895
808.425	24215
808.679	24475
808.934	24932
809.188	25108
809.443	25422
809.697	25807
809.951	25904
810.206	26198
810.46	26408
810.714	26939
810.968	27074
811.223	27246
811.477	27637
811.731	27879
811.985	28075
812.239	28192
812.493	28450
812.747	28519
813	28730
813.254	28785
813.508	28936
813.762	29125
814.015	29194
814.269	29483
814.522	29937
814.776	30214
815.03	30584
815.283	30958
815.536	31581
815.79	32051
816.043	32628
816.296	33014
816.55	33469
816.803	33869
817.056	34549
817.309	34849
817.562	35046
817.815	35458
818.068	35837
818.321	36276
818.574	36761
818.827	37321
819.079	37758
819.332	38404
819.585	38960
819.838	39538
820.09	39773
820.343	40306
820.595	40376
820.848	40562
821.1	40881
821.353	40927
821.605	40916
821.857	40909
822.11	40736
822.362	40842
822.614	40680
822.866	40810
823.118	40814
823.37	41026
823.622	40979
823.874	41108
824.126	41390
824.378	41611
824.63	41678
824.882	41616
825.134	41659
825.385	41775
825.637	41774
825.888	41571
826.14	41393
826.392	41416
826.643	41125
826.895	41181
827.146	40964
827.397	40954
827.649	40978
827.9	41022
828.151	40967
828.402	41189
828.653	41370
828.905	41452
829.156	41641
829.407	41497
829.658	41582
829.909	41608
830.159	41723
830.41	41337
830.661	41037
830.912	40841
831.162	40661
831.413	40803
831.664	40865
831.914	40793
832.165	40742
832.415	40893
832.666	40798
832.916	40943
833.167	40938
833.417	40797
833.667	40640
833.917	40551
834.168	40470
834.418	40416
834.668	40370
834.918	40112
835.168	40064
835.418	39791
835.668	39882
835.918	39745
836.167	39737
836.417	39689
836.667	39517
836.917	39673
837.166	39460
837.416	39651
837.666	39592
837.915	39378
838.165	39418
838.414	39397
838.663	39283
838.913	39442
839.162	39238
839.411	39172
839.661	39073
839.91	38899
840.159	38918
840.408	38856
840.657	38901
840.906	38950
841.155	38973
841.404	38970
841.653	39247
841.902	39100
842.15	39154
842.399	39282
842.648	39131
842.897	38949
843.145	38738
843.394	38493
843.642	38356
843.891	38196
844.139	38113
844.388	37903
844.636	37949
844.884	37834
845.133	37654
845.381	37648
845.629	37716
845.877	37751
846.125	37722
846.373	37655
846.621	37591
846.869	37316
847.117	37391
847.365	37016
847.613	36871
847.861	36810
848.108	36721
848.356	36669
848.604	36594
848.851	36726
849.099	36791
849.346	36893
849.594	37035
849.841	37108
850.089	37360
850.336	37305
850.583	37142
850.831	36943
851.078	36977
851.325	36807
851.572	37020
851.819	36661
852.066	36056
852.313	35584
852.56	35345
852.807	35184
853.054	35045
853.301	35138
853.548	35212
853.794	35336
854.041	35354
854.288	35649
854.534	35856
854.781	35968
855.028	35574
855.274	35746
855.52	35548
855.767	35345
856.013	35326
856.26	35684
856.506	34984
856.752	35039
856.998	34993
857.244	35091
857.49	35373
857.736	35535
857.982	35502
858.228	35182
858.474	35286
858.72	35097
858.966	34686
859.212	34350
859.458	34000
859.703	33685
859.949	33508
860.195	33262
860.44	33009
860.686	32858
860.931	33059
861.177	32768
861.422	32640
861.667	32575
861.913	32645
862.158	32795
862.403	32856
862.648	32991
862.893	32905
863.138	32955
863.384	32872
863.629	32848
863.873	32861
864.118	32850
864.363	32661
864.608	32556
864.853	32539
865.098	32350
865.342	32340
865.587	32094
865.832	32068
866.076	32099
866.321	32022
866.565	31900
866.81	31760
867.054	31734
867.298	31637
867.543	31628
867.787	31591
868.031	31438
868.275	31389
868.519	31390
868.764	31243
869.008	31343
869.252	31370
869.496	31092
869.739	31024
869.983	31231
870.227	31070
870.471	31004
870.715	31299
870.958	31264
871.202	31423
871.446	31485
871.689	31459
871.933	31414
872.176	31433
872.42	31369
872.663	31244
872.906	31265
873.15	30982
873.393	30887
873.636	30835
873.879	30535
874.122	30267
874.366	29982
874.609	29798
874.852	29710
875.095	29519
875.337	29523
875.58	29310
875.823	29379
876.066	29096
876.309	29173
876.551	28979
876.794	28777
877.037	28719
877.279	28630
877.522	28799
877.764	28779
878.007	28785
878.249	28715
878.491	28704
878.734	28489
878.976	28596
879.218	28297
879.46	28292
879.702	28132
879.945	27988
880.187	27737
880.429	27502
880.671	27385
880.912	27330
881.154	27135
881.396	27119
881.638	27337
881.88	27206
882.121	27191
882.363	27076
882.605	26998
882.846	27076
883.088	26961
883.329	26973
883.571	26953
883.812	27048
884.053	27260
884.295	27531
884.536	27877
884.777	27733
885.018	27593
885.259	27482
885.5	27438
885.742	27651
885.982	27452
886.223	27241
886.464	27138
886.705	26848
886.946	26645
887.187	26327
887.428	26163
887.668	25792
887.909	25476
888.15	25218
888.39	25185
888.631	25079
888.871	24877
889.111	24711
889.352	24415
889.592	24256
889.833	24164
890.073	24078
890.313	23895
890.553	23721
890.793	23635
891.033	23611
891.273	23603
891.513	23498
891.753	23415
891.993	23408
892.233	23422
892.473	23581
892.713	23568
892.952	23439
893.192	23538
893.432	23560
893.671	23561
893.911	23498
894.15	23410
894.39	23095
894.629	23065
894.869	22894
895.108	22782
895.347	22679
895.587	22697
895.826	22666
896.065	22640
896.304	22665
896.543	22549
896.782	22509
897.021	22434
897.26	22442
897.499	22427
897.738	22317
897.977	22211
898.216	22098
898.454	21941
898.693	21825
898.932	21741
899.17	21593
899.409	21662
899.647	21584
899.886	21562
900.124	21742
900.363	21598
900.601	21682
900.839	21739
901.078	21830
901.316	21865
901.554	21812
901.792	22044
902.03	21978
902.268	22019
902.506	21937
902.744	21769
902.982	21689
903.22	21342
903.458	21114
903.695	20771
903.933	20494
904.171	20144
904.409	19889
904.646	19709
904.884	19301
905.121	19240
905.359	19002
905.596	18811
905.833	18676
906.071	18682
906.308	18596
906.545	18503
906.783	18379
907.02	18398
907.257	18222
907.494	18281
907.731	18267
907.968	18129
908.205	17980
908.442	17885
908.679	17851
908.915	17663
909.152	17545
909.389	17386
909.626	17392
909.862	17207
910.099	17224
910.335	17142
910.572	16919
910.808	16980
911.045	16865
911.281	16739
911.518	16753
911.754	16518
911.99	16643
912.226	16408
912.463	16329
912.699	16336
912.935	16156
913.171	16034
913.407	15923
913.643	15812
913.879	15637
914.114	15543
914.35	15392
914.586	15223
914.822	15196
915.057	15076
915.293	14807
915.529	14777
915.764	14860
916	14793
916.235	14850
916.471	14860
916.706	14678
916.941	14713
917.177	14681
917.412	14702
917.647	14652
917.882	14649
918.117	14619
918.352	14637
918.588	14571
918.823	14314
919.057	14318
919.292	14060
919.527	14091
919.762	13818
919.997	13746
920.232	13627
920.466	13646
920.701	13358
920.935	13355
921.17	13293
921.405	13177
921.639	13085
921.873	13052
922.108	13020
922.342	12992
922.576	12995
922.811	12848
923.045	12899
923.279	12796
923.513	12709
923.747	12692
923.981	12639
924.215	12509
924.449	12554
924.683	12401
924.917	12336
925.151	12273
925.385	12256
925.618	12267
925.852	12254
926.086	12141
926.319	12145
926.553	12201
926.786	12139
927.02	12162
927.253	12192
927.486	12146
927.72	12082
927.953	12103
928.186	12011
928.42	11984
928.653	11922
928.886	11914
929.119	11869
929.352	11814
929.585	11706
929.818	11546
930.051	11493
930.284	11482
930.516	11320
930.749	11207
930.982	11239
931.215	11181
931.447	11074
931.68	11050
931.912	11040
932.145	11067
932.377	11066
932.61	11140
932.842	10957
933.074	11011
933.307	10942
933.539	11100
933.771	11025
934.003	10964
934.236	11113
934.468	11103
934.7	10912
934.932	10902
935.164	10802
935.395	10872
935.627	10886
935.859	10795
936.091	10728
936.323	10656
936.554	10739
936.786	10626
937.017	10604
937.249	10560
937.481	10464
937.712	10437
937.943	10510
938.175	10463
938.406	10482
938.637	10558
938.869	10413
939.1	10432
939.331	10317
939.562	10389
939.793	10292
940.024	10280
940.255	10219
940.486	10132
940.717	10157
940.948	10071
941.179	9969
941.409	10019
941.64	9940
941.871	9998
942.102	10010
942.332	10046
942.563	10050
942.793	9956
943.024	9925
943.254	9977
943.484	9997
943.715	10025
943.945	9980
944.175	9821
944.405	9834
944.636	9863
944.866	9917
945.096	9915
945.326	9783
945.556	9846
945.786	9845
946.016	9681
946.245	9649
946.475	9582
946.705	9508
946.935	9394
947.164	9415
947.394	9363
947.624	9237
947.853	9320
948.083	9195
948.312	9098
948.542	9115
948.771	9088
949	9056
949.23	9060
949.459	9053
949.688	9122
949.917	9041
950.146	8985
950.375	9048
950.604	8957
950.833	8989
951.062	9012
951.291	8934
951.52	8882
951.749	8889
951.978	8842
952.206	8819
952.435	8752
952.664	8837
952.892	8824
953.121	8707
953.349	8747
953.578	8707
953.806	8627
954.035	8566
954.263	8551
954.491	8453
954.719	8410
954.948	8410
955.176	8343
955.404	8307
955.632	8283
955.86	8280
956.088	8276
956.316	8256
956.544	8229
956.772	8069
956.999	8057
957.227	8111
957.455	7961
957.683	7942
957.91	7838
958.138	7937
958.365	7771
958.593	7794
958.82	7695
959.048	7762
959.275	7691
959.502	7671
959.73	7621
959.957	7655
960.184	7716
960.411	7597
960.638	7631
960.865	7638
961.092	7617
961.319	7487
961.546	7598
961.773	7566
962	7579
962.227	7545
962.454	7521
962.68	7385
962.907	7381
963.134	7364
963.36	7370
963.587	7325
963.813	7209
964.04	7220
964.266	7134
964.493	7135
964.719	7142
964.945	7099
965.171	7005
965.398	7074
965.624	6961
965.85	6866
966.076	6864
966.302	6858
966.528	6779
966.754	6795
966.98	6730
967.206	6825
967.431	6680
967.657	6782
967.883	6666
968.109	6671
968.334	6581
968.56	6596
968.785	6616
969.011	6580
969.236	6605
969.462	6469
969.687	6524
969.912	6513
970.138	6500
970.363	6411
970.588	6417
970.813	6393
971.038	6338
971.263	6349
971.488	6364
971.713	6335
971.938	6285
972.163	6210
972.388	6206
972.613	6183
972.838	6136
973.062	6144
973.287	6072
973.512	6007
973.736	6072
973.961	5989
974.185	5971
974.41	5976
974.634	5859
974.858	5842
975.083	5854
975.307	5860
975.531	5743
975.755	5690
975.98	5666
976.204	5602
976.428	5630
976.652	5550
976.876	5513
977.1	5528
977.324	5513
977.547	5526
977.771	5520
977.995	5466
978.219	5439
978.442	5480
978.666	5445
978.89	5365
979.113	5367
979.337	5391
979.56	5290
979.783	5414
980.007	5272
980.23	5261
980.453	5161
980.677	5237
980.9	5258
981.123	5123
981.346	5180
981.569	5115
981.792	5136
982.015	5105
982.238	4968
982.461	5057
982.684	4991
982.907	4885
983.129	4852
983.352	4923
983.575	4866
983.797	4926
984.02	4819
984.242	4785
984.465	4739
984.687	4782
984.91	4796
985.132	4735
985.354	4790
985.577	4706
985.799	4652
986.021	4584
986.243	4568
986.465	4575
986.687	4614
986.909	4633
987.131	4541
987.353	4524
987.575	4542
987.797	4471
988.019	4428
988.241	4432
988.462	4423
988.684	4458
988.906	4426
989.127	4506
989.349	4317
989.57	4347
989.792	4396
990.013	4368
990.234	4413
990.456	4374
990.677	4335
990.898	4284
991.119	4275
991.341	4240
991.562	4159
991.783	4208
992.004	4163
992.225	4051
992.446	4108
992.667	4037
992.887	4050
993.108	3932
993.329	4080
993.55	3995
993.77	3926
993.991	3902
994.212	3887
994.432	3902
994.653	3878
994.873	3840
995.093	3729
995.314	3762
995.534	3811
995.754	3829
995.975	3794
996.195	3688
996.415	3754
996.635	3706
996.855	3705
997.075	3669
997.295	3696
997.515	3649
997.735	3686
997.955	3677
998.174	3662
998.394	3598
998.614	3663
998.834	3576
999.053	3670
999.273	3587
999.492	3633
999.712	3557
999.931	3536
1000.151	3526
1000.37	3497
1000.589	3546
1000.809	3430
1001.028	3527
1001.247	3482
1001.466	3319
1001.685	3442
1001.904	3405
1002.123	3365
1002.342	3364
1002.561	3300
1002.78	3306
1002.999	3386
1003.218	3246
1003.436	3198
1003.655	3288
1003.874	3189
1004.092	3218
1004.311	3245
1004.53	3162
1004.748	3260
1004.966	3144
1005.185	3180
1005.403	3198
1005.622	3153
1005.84	3226
1006.058	3123
1006.276	3070
1006.494	3633
1006.712	3123
1006.931	3156
1007.149	3063
1007.367	3058
1007.584	3114
1007.802	3151
1008.02	3099
1008.238	3193
1008.456	3186
1008.673	3068
1008.891	3193
1009.109	3147
1009.326	3166
1009.544	3302
1009.761	3199
1009.979	3373
1010.196	3362
1010.413	3515
1010.631	3645
1010.848	3690
1011.065	3717
1011.282	3634
1011.5	3589
1011.717	3717
1011.934	3644
1012.151	3632
1012.368	3624
1012.585	3534
1012.801	3632
1013.018	3601
1013.235	3601
1013.452	3571
1013.669	3600
1013.885	3581
1014.102	3637
1014.318	3653
1014.535	3548
1014.751	3601
1014.968	3557
1015.184	3573
1015.401	3463
1015.617	3447
1015.833	3437
1016.049	3426
1016.266	3404
1016.482	3384
1016.698	3278
1016.914	3309
1017.13	3251
1017.346	3212
1017.562	3320
1017.778	3210
1017.993	3213
1018.209	3297
1018.425	3213
1018.641	3202
1018.856	3178
1019.072	3179
1019.288	3225
1019.503	3197
1019.719	3165
1019.934	3107
1020.149	3160
1020.365	3104
1020.58	3025
1020.795	3059
1021.011	2938
1021.226	2867
1021.441	2882
1021.656	2741
1021.871	2690
1022.086	2652
1022.301	2634
1022.516	2590
1022.731	2600
1022.946	2509
1023.16	2480
1023.375	2466
1023.59	2374
1023.804	2322
1024.019	2378
1024.234	2251
1024.448	2238
1024.663	2155
1024.877	2139
1025.092	2149
1025.306	2120
1025.52	2003
1025.734	2053
1025.949	1941
1026.163	1877
1026.377	1790
1026.591	1826
1026.805	1754
1027.019	1726
1027.233	1681
1027.447	1609
1027.661	1715
1027.875	1613
1028.088	1619
1028.302	1512
1028.516	1476
1028.73	1430
1028.943	1405
1029.157	1320
1029.37	1239
1029.584	-2
1029.797	-6
1030.011	0
1030.224	-3
