Data from QEP037381__83__15-23-05-864.txt Node

Date: Fri Dec 16 15:23:05 EST 2022
User: dcclab
Spectrometer: QEP03738
Trigger mode: 4
Integration Time (sec): 1.000000E1
Scans to average: 1
Electric dark correction enabled: true
Nonlinearity correction enabled: false
Boxcar width: 0
XAxis mode: Wavelengths
Number of Pixels in Spectrum: 1044
>>>>>Begin Spectral Data<<<<<
784.041	12.75
784.3	-1.25
784.558	-3.25
784.817	-4.25
785.075	95283.75
785.334	16250.75
785.592	7550.75
785.851	5223.75
786.109	3948.75
786.368	3072.75
786.626	2471.75
786.884	2070.75
787.143	1728.75
787.401	1463.75
787.659	1331.75
787.917	1122.75
788.175	1046.75
788.433	935.75
788.691	843.75
788.949	758.75
789.207	737.75
789.465	646.75
789.723	622.75
789.98	573.75
790.238	613.75
790.496	575.75
790.753	567.75
791.011	605.75
791.268	526.75
791.526	528.75
791.783	539.75
792.041	527.75
792.298	441.75
792.556	500.75
792.813	484.75
793.07	458.75
793.327	454.75
793.584	538.75
793.841	470.75
794.099	482.75
794.356	522.75
794.613	432.75
794.869	479.75
795.126	432.75
795.383	415.75
795.64	434.75
795.897	395.75
796.153	457.75
796.41	446.75
796.667	443.75
796.923	443.75
797.18	439.75
797.436	462.75
797.693	412.75
797.949	479.75
798.206	501.75
798.462	426.75
798.718	481.75
798.974	455.75
799.231	517.75
799.487	492.75
799.743	505.75
799.999	537.75
800.255	519.75
800.511	509.75
800.767	564.75
801.023	557.75
801.279	598.75
801.534	634.75
801.79	708.75
802.046	721.75
802.302	887.75
802.557	1013.75
802.813	1263.75
803.068	1572.75
803.324	2187.75
803.579	3000.75
803.835	4125.75
804.09	5668.75
804.345	7441.75
804.601	9440.75
804.856	11444.75
805.111	13212.75
805.366	14558.75
805.621	15615.75
805.876	16378.75
806.131	16809.75
806.386	17158.75
806.641	17465.75
806.896	17708.75
807.151	18119.75
807.406	18418.75
807.661	18785.75
807.915	19044.75
808.17	19497.75
808.425	19634.75
808.679	19932.75
808.934	20179.75
809.188	20304.75
809.443	20552.75
809.697	20784.75
809.951	20989.75
810.206	21122.75
810.46	21379.75
810.714	21661.75
810.968	21869.75
811.223	22035.75
811.477	22232.75
811.731	22355.75
811.985	22531.75
812.239	22716.75
812.493	22761.75
812.747	22833.75
813	22923.75
813.254	23156.75
813.508	23289.75
813.762	23283.75
814.015	23596.75
814.269	23684.75
814.522	23800.75
814.776	24101.75
815.03	24637.75
815.283	24999.75
815.536	25354.75
815.79	25694.75
816.043	26095.75
816.296	26565.75
816.55	26864.75
816.803	27117.75
817.056	27564.75
817.309	27809.75
817.562	28106.75
817.815	28222.75
818.068	28637.75
818.321	28950.75
818.574	29379.75
818.827	29678.75
819.079	30076.75
819.332	30570.75
819.585	30941.75
819.838	31467.75
820.09	31657.75
820.343	31643.75
820.595	32074.75
820.848	32332.75
821.1	32450.75
821.353	32534.75
821.605	32419.75
821.857	32461.75
822.11	32330.75
822.362	32252.75
822.614	32354.75
822.866	32290.75
823.118	32112.75
823.37	32459.75
823.622	32481.75
823.874	32505.75
824.126	32824.75
824.378	32896.75
824.63	32960.75
824.882	33026.75
825.134	32982.75
825.385	33001.75
825.637	32904.75
825.888	32780.75
826.14	32719.75
826.392	32729.75
826.643	32422.75
826.895	32405.75
827.146	32287.75
827.397	32317.75
827.649	32407.75
827.9	32263.75
828.151	32393.75
828.402	32457.75
828.653	32548.75
828.905	32587.75
829.156	32763.75
829.407	32668.75
829.658	32825.75
829.909	32812.75
830.159	32882.75
830.41	32674.75
830.661	32428.75
830.912	32210.75
831.162	32064.75
831.413	32063.75
831.664	32184.75
831.914	32122.75
832.165	32116.75
832.415	32070.75
832.666	32120.75
832.916	32270.75
833.167	32172.75
833.417	32238.75
833.667	32095.75
833.917	32041.75
834.168	31851.75
834.418	31854.75
834.668	31815.75
834.918	31684.75
835.168	31637.75
835.418	31266.75
835.668	31322.75
835.918	31122.75
836.167	31202.75
836.417	31105.75
836.667	31164.75
836.917	31141.75
837.166	31079.75
837.416	31264.75
837.666	31112.75
837.915	31173.75
838.165	31053.75
838.414	30879.75
838.663	30865.75
838.913	30844.75
839.162	30836.75
839.411	30889.75
839.661	30715.75
839.91	30633.75
840.159	30581.75
840.408	30624.75
840.657	30674.75
840.906	30635.75
841.155	30746.75
841.404	30625.75
841.653	30726.75
841.902	30760.75
842.15	30740.75
842.399	30719.75
842.648	30668.75
842.897	30572.75
843.145	30389.75
843.394	30184.75
843.642	30126.75
843.891	30024.75
844.139	29939.75
844.388	29712.75
844.636	29528.75
844.884	29668.75
845.133	29582.75
845.381	29567.75
845.629	29640.75
845.877	29575.75
846.125	29437.75
846.373	29616.75
846.621	29363.75
846.869	29318.75
847.117	29132.75
847.365	28958.75
847.613	28843.75
847.861	28832.75
848.108	28769.75
848.356	28754.75
848.604	28636.75
848.851	28669.75
849.099	28667.75
849.346	28795.75
849.594	28903.75
849.841	28990.75
850.089	29028.75
850.336	29137.75
850.583	29087.75
850.831	28957.75
851.078	28991.75
851.325	28864.75
851.572	28970.75
851.819	28748.75
852.066	28160.75
852.313	27889.75
852.56	27687.75
852.807	27617.75
853.054	27477.75
853.301	27429.75
853.548	27534.75
853.794	27741.75
854.041	27699.75
854.288	27801.75
854.534	28172.75
854.781	28091.75
855.028	27927.75
855.274	28044.75
855.52	27878.75
855.767	27862.75
856.013	27815.75
856.26	28014.75
856.506	27415.75
856.752	27552.75
856.998	27592.75
857.244	27516.75
857.49	27772.75
857.736	27766.75
857.982	27866.75
858.228	27735.75
858.474	27579.75
858.72	27454.75
858.966	27085.75
859.212	26956.75
859.458	26572.75
859.703	26353.75
859.949	26196.75
860.195	26086.75
860.44	26066.75
860.686	25807.75
860.931	25970.75
861.177	25688.75
861.422	25555.75
861.667	25594.75
861.913	25566.75
862.158	25609.75
862.403	25682.75
862.648	25797.75
862.893	25914.75
863.138	25715.75
863.384	25681.75
863.629	25594.75
863.873	25659.75
864.118	25525.75
864.363	25380.75
864.608	25466.75
864.853	25400.75
865.098	25234.75
865.342	25176.75
865.587	24998.75
865.832	25072.75
866.076	25096.75
866.321	24863.75
866.565	24928.75
866.81	24727.75
867.054	24730.75
867.298	24547.75
867.543	24656.75
867.787	24549.75
868.031	24494.75
868.275	24532.75
868.519	24508.75
868.764	24479.75
869.008	24431.75
869.252	24440.75
869.496	24296.75
869.739	24279.75
869.983	24323.75
870.227	24252.75
870.471	24234.75
870.715	24304.75
870.958	24469.75
871.202	24552.75
871.446	24586.75
871.689	24506.75
871.933	24607.75
872.176	24527.75
872.42	24506.75
872.663	24422.75
872.906	24462.75
873.15	24403.75
873.393	24292.75
873.636	24247.75
873.879	24104.75
874.122	23807.75
874.366	23410.75
874.609	23377.75
874.852	23014.75
875.095	23053.75
875.337	22983.75
875.58	22768.75
875.823	22885.75
876.066	22746.75
876.309	22795.75
876.551	22507.75
876.794	22344.75
877.037	22418.75
877.279	22385.75
877.522	22446.75
877.764	22447.75
878.007	22358.75
878.249	22416.75
878.491	22153.75
878.734	22223.75
878.976	22221.75
879.218	22198.75
879.46	21976.75
879.702	21929.75
879.945	21740.75
880.187	21497.75
880.429	21408.75
880.671	21224.75
880.912	21182.75
881.154	21157.75
881.396	21114.75
881.638	21119.75
881.88	21160.75
882.121	21067.75
882.363	21084.75
882.605	21046.75
882.846	20942.75
883.088	20937.75
883.329	21050.75
883.571	20939.75
883.812	21165.75
884.053	21414.75
884.295	21839.75
884.536	22060.75
884.777	21858.75
885.018	21689.75
885.259	21656.75
885.5	21623.75
885.742	21910.75
885.982	21474.75
886.223	21349.75
886.464	21244.75
886.705	21001.75
886.946	20855.75
887.187	20590.75
887.428	20264.75
887.668	20082.75
887.909	19880.75
888.15	19640.75
888.39	19556.75
888.631	19458.75
888.871	19278.75
889.111	19156.75
889.352	19012.75
889.592	18790.75
889.833	18783.75
890.073	18619.75
890.313	18646.75
890.553	18489.75
890.793	18371.75
891.033	18400.75
891.273	18204.75
891.513	18226.75
891.753	18212.75
891.993	18140.75
892.233	18262.75
892.473	18286.75
892.713	18198.75
892.952	18267.75
893.192	18294.75
893.432	18202.75
893.671	18249.75
893.911	18107.75
894.15	18016.75
894.39	17874.75
894.629	17848.75
894.869	17853.75
895.108	17731.75
895.347	17645.75
895.587	17588.75
895.826	17529.75
896.065	17522.75
896.304	17518.75
896.543	17543.75
896.782	17471.75
897.021	17466.75
897.26	17437.75
897.499	17496.75
897.738	17515.75
897.977	17304.75
898.216	17268.75
898.454	17067.75
898.693	16957.75
898.932	16848.75
899.17	16920.75
899.409	16870.75
899.647	16780.75
899.886	16854.75
900.124	16940.75
900.363	16847.75
900.601	16844.75
900.839	16887.75
901.078	16854.75
901.316	17043.75
901.554	17120.75
901.792	17160.75
902.03	17120.75
902.268	17155.75
902.506	17114.75
902.744	16949.75
902.982	16898.75
903.22	16689.75
903.458	16476.75
903.695	16226.75
903.933	16035.75
904.171	15714.75
904.409	15518.75
904.646	15299.75
904.884	15143.75
905.121	14982.75
905.359	14753.75
905.596	14700.75
905.833	14524.75
906.071	14395.75
906.308	14402.75
906.545	14381.75
906.783	14291.75
907.02	14222.75
907.257	14193.75
907.494	14167.75
907.731	14142.75
907.968	14039.75
908.205	13915.75
908.442	13819.75
908.679	13822.75
908.915	13702.75
909.152	13676.75
909.389	13465.75
909.626	13309.75
909.862	13235.75
910.099	13278.75
910.335	13189.75
910.572	13117.75
910.808	13096.75
911.045	13028.75
911.281	12960.75
911.518	13007.75
911.754	12968.75
911.99	12841.75
912.226	12761.75
912.463	12621.75
912.699	12521.75
912.935	12467.75
913.171	12318.75
913.407	12182.75
913.643	12240.75
913.879	12083.75
914.114	11997.75
914.35	11785.75
914.586	11753.75
914.822	11651.75
915.057	11662.75
915.293	11556.75
915.529	11542.75
915.764	11495.75
916	11461.75
916.235	11466.75
916.471	11439.75
916.706	11297.75
916.941	11311.75
917.177	11301.75
917.412	11326.75
917.647	11342.75
917.882	11304.75
918.117	11309.75
918.352	11253.75
918.588	11245.75
918.823	11126.75
919.057	11018.75
919.292	10860.75
919.527	10844.75
919.762	10673.75
919.997	10668.75
920.232	10519.75
920.466	10489.75
920.701	10286.75
920.935	10317.75
921.17	10298.75
921.405	10116.75
921.639	10225.75
921.873	10044.75
922.108	10117.75
922.342	10051.75
922.576	10071.75
922.811	9994.75
923.045	9985.75
923.279	9884.75
923.513	9872.75
923.747	9873.75
923.981	9819.75
924.215	9669.75
924.449	9601.75
924.683	9562.75
924.917	9481.75
925.151	9463.75
925.385	9453.75
925.618	9436.75
925.852	9413.75
926.086	9306.75
926.319	9414.75
926.553	9321.75
926.786	9345.75
927.02	9351.75
927.253	9396.75
927.486	9352.75
927.72	9272.75
927.953	9297.75
928.186	9278.75
928.42	9314.75
928.653	9165.75
928.886	9081.75
929.119	9152.75
929.352	9075.75
929.585	9000.75
929.818	8917.75
930.051	8903.75
930.284	8808.75
930.516	8686.75
930.749	8648.75
930.982	8682.75
931.215	8589.75
931.447	8605.75
931.68	8597.75
931.912	8443.75
932.145	8516.75
932.377	8462.75
932.61	8686.75
932.842	8462.75
933.074	8462.75
933.307	8444.75
933.539	8536.75
933.771	8555.75
934.003	8461.75
934.236	8585.75
934.468	8495.75
934.7	8438.75
934.932	8476.75
935.164	8431.75
935.395	8343.75
935.627	8374.75
935.859	8335.75
936.091	8244.75
936.323	8326.75
936.554	8313.75
936.786	8206.75
937.017	8131.75
937.249	8146.75
937.481	8143.75
937.712	8132.75
937.943	8126.75
938.175	8079.75
938.406	8054.75
938.637	8100.75
938.869	8052.75
939.1	8077.75
939.331	7944.75
939.562	8013.75
939.793	7932.75
940.024	8004.75
940.255	7935.75
940.486	7880.75
940.717	7846.75
940.948	7750.75
941.179	7730.75
941.409	7751.75
941.64	7709.75
941.871	7722.75
942.102	7671.75
942.332	7677.75
942.563	7776.75
942.793	7728.75
943.024	7662.75
943.254	7658.75
943.484	7719.75
943.715	7679.75
943.945	7646.75
944.175	7596.75
944.405	7624.75
944.636	7622.75
944.866	7632.75
945.096	7564.75
945.326	7515.75
945.556	7581.75
945.786	7552.75
946.016	7454.75
946.245	7365.75
946.475	7321.75
946.705	7315.75
946.935	7299.75
947.164	7272.75
947.394	7175.75
947.624	7190.75
947.853	7262.75
948.083	7098.75
948.312	7084.75
948.542	7033.75
948.771	7011.75
949	6968.75
949.23	7001.75
949.459	6994.75
949.688	7027.75
949.917	6981.75
950.146	6935.75
950.375	6971.75
950.604	6866.75
950.833	6980.75
951.062	6987.75
951.291	6829.75
951.52	6874.75
951.749	6850.75
951.978	6773.75
952.206	6761.75
952.435	6752.75
952.664	6790.75
952.892	6787.75
953.121	6743.75
953.349	6716.75
953.578	6658.75
953.806	6599.75
954.035	6522.75
954.263	6575.75
954.491	6487.75
954.719	6497.75
954.948	6487.75
955.176	6436.75
955.404	6380.75
955.632	6416.75
955.86	6338.75
956.088	6333.75
956.316	6313.75
956.544	6332.75
956.772	6243.75
956.999	6171.75
957.227	6257.75
957.455	6105.75
957.683	6116.75
957.91	6081.75
958.138	6062.75
958.365	6024.75
958.593	5913.75
958.82	5909.75
959.048	5946.75
959.275	5961.75
959.502	5855.75
959.73	5904.75
959.957	5850.75
960.184	5940.75
960.411	5818.75
960.638	5907.75
960.865	5812.75
961.092	5840.75
961.319	5715.75
961.546	5863.75
961.773	5815.75
962	5712.75
962.227	5795.75
962.454	5744.75
962.68	5729.75
962.907	5756.75
963.134	5664.75
963.36	5650.75
963.587	5665.75
963.813	5519.75
964.04	5525.75
964.266	5480.75
964.493	5584.75
964.719	5478.75
964.945	5453.75
965.171	5327.75
965.398	5395.75
965.624	5391.75
965.85	5274.75
966.076	5307.75
966.302	5300.75
966.528	5257.75
966.754	5244.75
966.98	5257.75
967.206	5203.75
967.431	5129.75
967.657	5186.75
967.883	5136.75
968.109	5102.75
968.334	5084.75
968.56	5050.75
968.785	5110.75
969.011	5041.75
969.236	5032.75
969.462	4990.75
969.687	4972.75
969.912	5016.75
970.138	5049.75
970.363	4919.75
970.588	4932.75
970.813	4917.75
971.038	4879.75
971.263	4920.75
971.488	4878.75
971.713	4952.75
971.938	4876.75
972.163	4748.75
972.388	4783.75
972.613	4729.75
972.838	4767.75
973.062	4700.75
973.287	4680.75
973.512	4625.75
973.736	4634.75
973.961	4609.75
974.185	4559.75
974.41	4618.75
974.634	4514.75
974.858	4503.75
975.083	4501.75
975.307	4549.75
975.531	4504.75
975.755	4390.75
975.98	4360.75
976.204	4278.75
976.428	4285.75
976.652	4306.75
976.876	4288.75
977.1	4248.75
977.324	4179.75
977.547	4257.75
977.771	4280.75
977.995	4210.75
978.219	4154.75
978.442	4249.75
978.666	4200.75
978.89	4182.75
979.113	4196.75
979.337	4185.75
979.56	4140.75
979.783	4209.75
980.007	4043.75
980.23	4097.75
980.453	3986.75
980.677	4054.75
980.9	4037.75
981.123	3918.75
981.346	4031.75
981.569	3977.75
981.792	4019.75
982.015	3892.75
982.238	3868.75
982.461	3909.75
982.684	3819.75
982.907	3787.75
983.129	3780.75
983.352	3818.75
983.575	3784.75
983.797	3786.75
984.02	3715.75
984.242	3732.75
984.465	3719.75
984.687	3731.75
984.91	3699.75
985.132	3655.75
985.354	3680.75
985.577	3599.75
985.799	3577.75
986.021	3545.75
986.243	3563.75
986.465	3559.75
986.687	3597.75
986.909	3605.75
987.131	3553.75
987.353	3511.75
987.575	3526.75
987.797	3491.75
988.019	3423.75
988.241	3436.75
988.462	3383.75
988.684	3454.75
988.906	3479.75
989.127	3469.75
989.349	3358.75
989.57	3436.75
989.792	3428.75
990.013	3430.75
990.234	3427.75
990.456	3445.75
990.677	3400.75
990.898	3351.75
991.119	3304.75
991.341	3333.75
991.562	3251.75
991.783	3281.75
992.004	3207.75
992.225	3156.75
992.446	3212.75
992.667	3143.75
992.887	3211.75
993.108	3113.75
993.329	3194.75
993.55	3138.75
993.77	3097.75
993.991	3052.75
994.212	3119.75
994.432	3060.75
994.653	3067.75
994.873	3073.75
995.093	2925.75
995.314	2946.75
995.534	3006.75
995.754	3037.75
995.975	3041.75
996.195	2918.75
996.415	2949.75
996.635	2957.75
996.855	2933.75
997.075	2885.75
997.295	2891.75
997.515	2936.75
997.735	2940.75
997.955	2912.75
998.174	2910.75
998.394	2859.75
998.614	2891.75
998.834	2885.75
999.053	2923.75
999.273	2862.75
999.492	2903.75
999.712	2850.75
999.931	2773.75
1000.151	2822.75
1000.37	2753.75
1000.589	2836.75
1000.809	2765.75
1001.028	2811.75
1001.247	2757.75
1001.466	2661.75
1001.685	2780.75
1001.904	2699.75
1002.123	2683.75
1002.342	2660.75
1002.561	2613.75
1002.78	2622.75
1002.999	2678.75
1003.218	2625.75
1003.436	2600.75
1003.655	2625.75
1003.874	2554.75
1004.092	2544.75
1004.311	2604.75
1004.53	2548.75
1004.748	2613.75
1004.966	2545.75
1005.185	2610.75
1005.403	2574.75
1005.622	2548.75
1005.84	2620.75
1006.058	2507.75
1006.276	2558.75
1006.494	2996.75
1006.712	2520.75
1006.931	2588.75
1007.149	2491.75
1007.367	2500.75
1007.584	2547.75
1007.802	2558.75
1008.02	2526.75
1008.238	2629.75
1008.456	2678.75
1008.673	2518.75
1008.891	2613.75
1009.109	2600.75
1009.326	2655.75
1009.544	2767.75
1009.761	2681.75
1009.979	2811.75
1010.196	2849.75
1010.413	3010.75
1010.631	3069.75
1010.848	3129.75
1011.065	3201.75
1011.282	3120.75
1011.5	3063.75
1011.717	3164.75
1011.934	3084.75
1012.151	3139.75
1012.368	3118.75
1012.585	3070.75
1012.801	3069.75
1013.018	3131.75
1013.235	3070.75
1013.452	3065.75
1013.669	3080.75
1013.885	3083.75
1014.102	3094.75
1014.318	3078.75
1014.535	3011.75
1014.751	3050.75
1014.968	3057.75
1015.184	3060.75
1015.401	2945.75
1015.617	3013.75
1015.833	2912.75
1016.049	2926.75
1016.266	2863.75
1016.482	2848.75
1016.698	2793.75
1016.914	2796.75
1017.13	2733.75
1017.346	2751.75
1017.562	2818.75
1017.778	2737.75
1017.993	2690.75
1018.209	2717.75
1018.425	2722.75
1018.641	2680.75
1018.856	2673.75
1019.072	2671.75
1019.288	2716.75
1019.503	2684.75
1019.719	2580.75
1019.934	2609.75
1020.149	2680.75
1020.365	2578.75
1020.58	2529.75
1020.795	2543.75
1021.011	2462.75
1021.226	2426.75
1021.441	2416.75
1021.656	2321.75
1021.871	2206.75
1022.086	2178.75
1022.301	2181.75
1022.516	2141.75
1022.731	2161.75
1022.946	2070.75
1023.16	2056.75
1023.375	2024.75
1023.59	1964.75
1023.804	1900.75
1024.019	2003.75
1024.234	1833.75
1024.448	1883.75
1024.663	1767.75
1024.877	1766.75
1025.092	1775.75
1025.306	1765.75
1025.52	1645.75
1025.734	1704.75
1025.949	1592.75
1026.163	1583.75
1026.377	1494.75
1026.591	1534.75
1026.805	1453.75
1027.019	1419.75
1027.233	1383.75
1027.447	1315.75
1027.661	1393.75
1027.875	1364.75
1028.088	1330.75
1028.302	1248.75
1028.516	1244.75
1028.73	1192.75
1028.943	1176.75
1029.157	1097.75
1029.37	1042.75
1029.584	0.75
1029.797	0.75
1030.011	-1.25
1030.224	-4.25
