Data from QEP037381__110__15-27-35-867.txt Node

Date: Fri Dec 16 15:27:35 EST 2022
User: dcclab
Spectrometer: QEP03738
Trigger mode: 4
Integration Time (sec): 1.000000E1
Scans to average: 1
Electric dark correction enabled: true
Nonlinearity correction enabled: false
Boxcar width: 0
XAxis mode: Wavelengths
Number of Pixels in Spectrum: 1044
>>>>>Begin Spectral Data<<<<<
784.041	13.62
784.3	-0.38
784.558	-3.38
784.817	-4.38
785.075	93157.62
785.334	16117.62
785.592	7515.62
785.851	5187.62
786.109	3954.62
786.368	3072.62
786.626	2474.62
786.884	2069.62
787.143	1757.62
787.401	1434.62
787.659	1319.62
787.917	1126.62
788.175	1028.62
788.433	907.62
788.691	828.62
788.949	780.62
789.207	735.62
789.465	640.62
789.723	634.62
789.98	576.62
790.238	620.62
790.496	588.62
790.753	558.62
791.011	602.62
791.268	533.62
791.526	523.62
791.783	523.62
792.041	525.62
792.298	441.62
792.556	505.62
792.813	479.62
793.07	466.62
793.327	448.62
793.584	544.62
793.841	462.62
794.099	475.62
794.356	537.62
794.613	449.62
794.869	481.62
795.126	424.62
795.383	425.62
795.64	452.62
795.897	391.62
796.153	460.62
796.41	436.62
796.667	428.62
796.923	436.62
797.18	438.62
797.436	470.62
797.693	438.62
797.949	475.62
798.206	535.62
798.462	439.62
798.718	485.62
798.974	458.62
799.231	505.62
799.487	513.62
799.743	493.62
799.999	527.62
800.255	539.62
800.511	525.62
800.767	568.62
801.023	560.62
801.279	599.62
801.534	634.62
801.79	689.62
802.046	732.62
802.302	898.62
802.557	1009.62
802.813	1256.62
803.068	1609.62
803.324	2219.62
803.579	2999.62
803.835	4192.62
804.09	5811.62
804.345	7625.62
804.601	9648.62
804.856	11808.62
805.111	13483.62
805.366	15054.62
805.621	16037.62
805.876	16762.62
806.131	17255.62
806.386	17619.62
806.641	17907.62
806.896	18336.62
807.151	18645.62
807.406	18867.62
807.661	19367.62
807.915	19652.62
808.17	20045.62
808.425	20285.62
808.679	20414.62
808.934	20564.62
809.188	20916.62
809.443	21126.62
809.697	21422.62
809.951	21578.62
810.206	21829.62
810.46	22061.62
810.714	22284.62
810.968	22555.62
811.223	22681.62
811.477	22817.62
811.731	23077.62
811.985	23189.62
812.239	23237.62
812.493	23527.62
812.747	23594.62
813	23618.62
813.254	23732.62
813.508	23913.62
813.762	23995.62
814.015	24137.62
814.269	24294.62
814.522	24571.62
814.776	24913.62
815.03	25062.62
815.283	25518.62
815.536	25953.62
815.79	26384.62
816.043	26803.62
816.296	27224.62
816.55	27501.62
816.803	28001.62
817.056	28296.62
817.309	28413.62
817.562	28833.62
817.815	29164.62
818.068	29377.62
818.321	29626.62
818.574	30139.62
818.827	30356.62
819.079	30724.62
819.332	31445.62
819.585	31702.62
819.838	32244.62
820.09	32416.62
820.343	32671.62
820.595	32891.62
820.848	33054.62
821.1	33189.62
821.353	33242.62
821.605	33176.62
821.857	33198.62
822.11	33215.62
822.362	33006.62
822.614	32926.62
822.866	33045.62
823.118	33198.62
823.37	33295.62
823.622	33258.62
823.874	33392.62
824.126	33586.62
824.378	33629.62
824.63	33780.62
824.882	33857.62
825.134	33817.62
825.385	33958.62
825.637	33647.62
825.888	33700.62
826.14	33462.62
826.392	33421.62
826.643	33369.62
826.895	33340.62
827.146	33153.62
827.397	33093.62
827.649	33033.62
827.9	33166.62
828.151	33188.62
828.402	33324.62
828.653	33299.62
828.905	33430.62
829.156	33579.62
829.407	33436.62
829.658	33544.62
829.909	33480.62
830.159	33342.62
830.41	33421.62
830.661	33135.62
830.912	32987.62
831.162	32758.62
831.413	32739.62
831.664	32918.62
831.914	32920.62
832.165	32883.62
832.415	32893.62
832.666	32810.62
832.916	32956.62
833.167	32961.62
833.417	32934.62
833.667	32807.62
833.917	32754.62
834.168	32568.62
834.418	32570.62
834.668	32508.62
834.918	32154.62
835.168	32213.62
835.418	32071.62
835.668	32061.62
835.918	31809.62
836.167	31754.62
836.417	31742.62
836.667	31863.62
836.917	31847.62
837.166	31823.62
837.416	31777.62
837.666	31724.62
837.915	31679.62
838.165	31640.62
838.414	31520.62
838.663	31492.62
838.913	31604.62
839.162	31306.62
839.411	31497.62
839.661	31230.62
839.91	31280.62
840.159	31083.62
840.408	31154.62
840.657	31147.62
840.906	31132.62
841.155	31125.62
841.404	31144.62
841.653	31266.62
841.902	31247.62
842.15	31252.62
842.399	31124.62
842.648	31242.62
842.897	31035.62
843.145	30895.62
843.394	30706.62
843.642	30575.62
843.891	30408.62
844.139	30338.62
844.388	30094.62
844.636	29939.62
844.884	30100.62
845.133	30105.62
845.381	29986.62
845.629	29960.62
845.877	29996.62
846.125	29998.62
846.373	29884.62
846.621	29774.62
846.869	29684.62
847.117	29546.62
847.365	29363.62
847.613	29318.62
847.861	29226.62
848.108	29204.62
848.356	29282.62
848.604	29040.62
848.851	29030.62
849.099	29160.62
849.346	29344.62
849.594	29411.62
849.841	29437.62
850.089	29494.62
850.336	29562.62
850.583	29401.62
850.831	29283.62
851.078	29272.62
851.325	29289.62
851.572	29405.62
851.819	29090.62
852.066	28615.62
852.313	28206.62
852.56	27936.62
852.807	27807.62
853.054	27829.62
853.301	27789.62
853.548	27744.62
853.794	28105.62
854.041	27997.62
854.288	28181.62
854.534	28511.62
854.781	28428.62
855.028	28399.62
855.274	28289.62
855.52	28096.62
855.767	27812.62
856.013	28016.62
856.26	28246.62
856.506	27634.62
856.752	27656.62
856.998	27712.62
857.244	27886.62
857.49	28100.62
857.736	27936.62
857.982	27936.62
858.228	27981.62
858.474	27791.62
858.72	27722.62
858.966	27364.62
859.212	27131.62
859.458	26868.62
859.703	26761.62
859.949	26368.62
860.195	26210.62
860.44	26266.62
860.686	26027.62
860.931	26165.62
861.177	25870.62
861.422	25788.62
861.667	25747.62
861.913	25645.62
862.158	25744.62
862.403	25994.62
862.648	26018.62
862.893	25976.62
863.138	26014.62
863.384	25926.62
863.629	25914.62
863.873	25843.62
864.118	25774.62
864.363	25719.62
864.608	25674.62
864.853	25618.62
865.098	25426.62
865.342	25433.62
865.587	25254.62
865.832	25372.62
866.076	25230.62
866.321	25185.62
866.565	24995.62
866.81	25015.62
867.054	24883.62
867.298	24989.62
867.543	24796.62
867.787	24787.62
868.031	24793.62
868.275	24732.62
868.519	24615.62
868.764	24596.62
869.008	24688.62
869.252	24573.62
869.496	24475.62
869.739	24413.62
869.983	24487.62
870.227	24460.62
870.471	24406.62
870.715	24559.62
870.958	24652.62
871.202	24711.62
871.446	24619.62
871.689	24669.62
871.933	24677.62
872.176	24699.62
872.42	24620.62
872.663	24509.62
872.906	24489.62
873.15	24392.62
873.393	24126.62
873.636	24188.62
873.879	24141.62
874.122	23839.62
874.366	23448.62
874.609	23390.62
874.852	23298.62
875.095	23194.62
875.337	23080.62
875.58	22940.62
875.823	22932.62
876.066	23009.62
876.309	22883.62
876.551	22529.62
876.794	22566.62
877.037	22657.62
877.279	22471.62
877.522	22513.62
877.764	22529.62
878.007	22421.62
878.249	22366.62
878.491	22328.62
878.734	22388.62
878.976	22311.62
879.218	22252.62
879.46	22171.62
879.702	21956.62
879.945	21867.62
880.187	21639.62
880.429	21517.62
880.671	21343.62
880.912	21401.62
881.154	21224.62
881.396	21209.62
881.638	21206.62
881.88	21264.62
882.121	21148.62
882.363	21260.62
882.605	21234.62
882.846	21269.62
883.088	21221.62
883.329	21000.62
883.571	21039.62
883.812	21192.62
884.053	21384.62
884.295	21697.62
884.536	21874.62
884.777	21732.62
885.018	21660.62
885.259	21656.62
885.5	21512.62
885.742	21723.62
885.982	21534.62
886.223	21337.62
886.464	21211.62
886.705	21013.62
886.946	21028.62
887.187	20627.62
887.428	20552.62
887.668	20254.62
887.909	20043.62
888.15	19768.62
888.39	19723.62
888.631	19591.62
888.871	19540.62
889.111	19367.62
889.352	19179.62
889.592	19066.62
889.833	18968.62
890.073	18721.62
890.313	18786.62
890.553	18601.62
890.793	18496.62
891.033	18504.62
891.273	18458.62
891.513	18354.62
891.753	18266.62
891.993	18322.62
892.233	18356.62
892.473	18408.62
892.713	18541.62
892.952	18458.62
893.192	18435.62
893.432	18392.62
893.671	18418.62
893.911	18296.62
894.15	18107.62
894.39	18163.62
894.629	18010.62
894.869	17906.62
895.108	17910.62
895.347	17874.62
895.587	17872.62
895.826	17746.62
896.065	17710.62
896.304	17755.62
896.543	17690.62
896.782	17619.62
897.021	17576.62
897.26	17610.62
897.499	17546.62
897.738	17649.62
897.977	17429.62
898.216	17375.62
898.454	17374.62
898.693	17178.62
898.932	17142.62
899.17	17121.62
899.409	16972.62
899.647	17003.62
899.886	16988.62
900.124	17005.62
900.363	16982.62
900.601	17107.62
900.839	17104.62
901.078	17071.62
901.316	17250.62
901.554	17195.62
901.792	17426.62
902.03	17284.62
902.268	17271.62
902.506	17366.62
902.744	17120.62
902.982	16914.62
903.22	16671.62
903.458	16564.62
903.695	16318.62
903.933	16064.62
904.171	15764.62
904.409	15578.62
904.646	15476.62
904.884	15141.62
905.121	15086.62
905.359	14879.62
905.596	14689.62
905.833	14557.62
906.071	14590.62
906.308	14553.62
906.545	14433.62
906.783	14342.62
907.02	14379.62
907.257	14236.62
907.494	14331.62
907.731	14255.62
907.968	14086.62
908.205	14052.62
908.442	13951.62
908.679	13900.62
908.915	13829.62
909.152	13759.62
909.389	13470.62
909.626	13549.62
909.862	13403.62
910.099	13285.62
910.335	13385.62
910.572	13169.62
910.808	13157.62
911.045	13119.62
911.281	13054.62
911.518	13051.62
911.754	13035.62
911.99	12826.62
912.226	12771.62
912.463	12667.62
912.699	12627.62
912.935	12512.62
913.171	12473.62
913.407	12251.62
913.643	12262.62
913.879	12155.62
914.114	12092.62
914.35	11965.62
914.586	11852.62
914.822	11755.62
915.057	11723.62
915.293	11554.62
915.529	11514.62
915.764	11520.62
916	11551.62
916.235	11534.62
916.471	11545.62
916.706	11419.62
916.941	11438.62
917.177	11340.62
917.412	11382.62
917.647	11371.62
917.882	11329.62
918.117	11344.62
918.352	11254.62
918.588	11306.62
918.823	11151.62
919.057	11078.62
919.292	10888.62
919.527	10928.62
919.762	10764.62
919.997	10729.62
920.232	10592.62
920.466	10532.62
920.701	10303.62
920.935	10341.62
921.17	10282.62
921.405	10223.62
921.639	10177.62
921.873	10176.62
922.108	10145.62
922.342	10090.62
922.576	10065.62
922.811	10046.62
923.045	9979.62
923.279	9921.62
923.513	9865.62
923.747	9908.62
923.981	9761.62
924.215	9711.62
924.449	9704.62
924.683	9544.62
924.917	9521.62
925.151	9523.62
925.385	9529.62
925.618	9452.62
925.852	9476.62
926.086	9360.62
926.319	9440.62
926.553	9406.62
926.786	9383.62
927.02	9402.62
927.253	9367.62
927.486	9437.62
927.72	9363.62
927.953	9331.62
928.186	9270.62
928.42	9243.62
928.653	9220.62
928.886	9190.62
929.119	9137.62
929.352	9134.62
929.585	9111.62
929.818	8970.62
930.051	9026.62
930.284	8860.62
930.516	8698.62
930.749	8654.62
930.982	8668.62
931.215	8669.62
931.447	8569.62
931.68	8584.62
931.912	8572.62
932.145	8536.62
932.377	8518.62
932.61	8656.62
932.842	8486.62
933.074	8512.62
933.307	8538.62
933.539	8698.62
933.771	8592.62
934.003	8421.62
934.236	8631.62
934.468	8606.62
934.7	8489.62
934.932	8497.62
935.164	8399.62
935.395	8384.62
935.627	8365.62
935.859	8398.62
936.091	8266.62
936.323	8286.62
936.554	8352.62
936.786	8235.62
937.017	8181.62
937.249	8234.62
937.481	8136.62
937.712	8158.62
937.943	8105.62
938.175	8121.62
938.406	8056.62
938.637	8167.62
938.869	8082.62
939.1	8069.62
939.331	7955.62
939.562	7924.62
939.793	7954.62
940.024	7947.62
940.255	7954.62
940.486	7856.62
940.717	7829.62
940.948	7840.62
941.179	7739.62
941.409	7766.62
941.64	7781.62
941.871	7755.62
942.102	7752.62
942.332	7744.62
942.563	7732.62
942.793	7765.62
943.024	7686.62
943.254	7698.62
943.484	7721.62
943.715	7770.62
943.945	7698.62
944.175	7629.62
944.405	7614.62
944.636	7602.62
944.866	7641.62
945.096	7585.62
945.326	7521.62
945.556	7554.62
945.786	7594.62
946.016	7472.62
946.245	7399.62
946.475	7360.62
946.705	7317.62
946.935	7317.62
947.164	7283.62
947.394	7196.62
947.624	7194.62
947.853	7268.62
948.083	7139.62
948.312	7111.62
948.542	7047.62
948.771	6971.62
949	6975.62
949.23	7006.62
949.459	7003.62
949.688	7061.62
949.917	7002.62
950.146	6970.62
950.375	7002.62
950.604	6927.62
950.833	6973.62
951.062	6904.62
951.291	6904.62
951.52	6858.62
951.749	6850.62
951.978	6827.62
952.206	6791.62
952.435	6755.62
952.664	6743.62
952.892	6780.62
953.121	6646.62
953.349	6711.62
953.578	6702.62
953.806	6628.62
954.035	6579.62
954.263	6592.62
954.491	6477.62
954.719	6591.62
954.948	6458.62
955.176	6488.62
955.404	6363.62
955.632	6393.62
955.86	6437.62
956.088	6382.62
956.316	6328.62
956.544	6332.62
956.772	6247.62
956.999	6199.62
957.227	6251.62
957.455	6109.62
957.683	6091.62
957.91	6061.62
958.138	6002.62
958.365	6055.62
958.593	5983.62
958.82	5888.62
959.048	5978.62
959.275	5956.62
959.502	5909.62
959.73	5900.62
959.957	5909.62
960.184	5889.62
960.411	5786.62
960.638	5904.62
960.865	5791.62
961.092	5864.62
961.319	5746.62
961.546	5859.62
961.773	5823.62
962	5796.62
962.227	5835.62
962.454	5732.62
962.68	5723.62
962.907	5740.62
963.134	5688.62
963.36	5646.62
963.587	5620.62
963.813	5548.62
964.04	5550.62
964.266	5456.62
964.493	5538.62
964.719	5423.62
964.945	5476.62
965.171	5324.62
965.398	5372.62
965.624	5420.62
965.85	5323.62
966.076	5281.62
966.302	5287.62
966.528	5273.62
966.754	5249.62
966.98	5244.62
967.206	5218.62
967.431	5144.62
967.657	5227.62
967.883	5185.62
968.109	5116.62
968.334	5095.62
968.56	5063.62
968.785	5085.62
969.011	5028.62
969.236	5052.62
969.462	5012.62
969.687	5014.62
969.912	5048.62
970.138	5061.62
970.363	4931.62
970.588	4937.62
970.813	4921.62
971.038	4858.62
971.263	4895.62
971.488	4902.62
971.713	4969.62
971.938	4882.62
972.163	4759.62
972.388	4772.62
972.613	4752.62
972.838	4745.62
973.062	4722.62
973.287	4703.62
973.512	4628.62
973.736	4632.62
973.961	4616.62
974.185	4587.62
974.41	4633.62
974.634	4459.62
974.858	4518.62
975.083	4517.62
975.307	4455.62
975.531	4442.62
975.755	4414.62
975.98	4410.62
976.204	4284.62
976.428	4238.62
976.652	4288.62
976.876	4266.62
977.1	4248.62
977.324	4250.62
977.547	4270.62
977.771	4246.62
977.995	4193.62
978.219	4170.62
978.442	4236.62
978.666	4196.62
978.89	4186.62
979.113	4153.62
979.337	4184.62
979.56	4059.62
979.783	4173.62
980.007	4032.62
980.23	4092.62
980.453	4032.62
980.677	4027.62
980.9	4024.62
981.123	3942.62
981.346	4026.62
981.569	3931.62
981.792	3970.62
982.015	3943.62
982.238	3843.62
982.461	3873.62
982.684	3785.62
982.907	3813.62
983.129	3795.62
983.352	3816.62
983.575	3766.62
983.797	3786.62
984.02	3737.62
984.242	3691.62
984.465	3697.62
984.687	3689.62
984.91	3727.62
985.132	3683.62
985.354	3656.62
985.577	3621.62
985.799	3624.62
986.021	3499.62
986.243	3526.62
986.465	3573.62
986.687	3585.62
986.909	3610.62
987.131	3582.62
987.353	3515.62
987.575	3498.62
987.797	3491.62
988.019	3360.62
988.241	3450.62
988.462	3416.62
988.684	3430.62
988.906	3508.62
989.127	3457.62
989.349	3370.62
989.57	3395.62
989.792	3444.62
990.013	3389.62
990.234	3441.62
990.456	3391.62
990.677	3392.62
990.898	3319.62
991.119	3294.62
991.341	3330.62
991.562	3249.62
991.783	3284.62
992.004	3198.62
992.225	3156.62
992.446	3265.62
992.667	3128.62
992.887	3208.62
993.108	3071.62
993.329	3202.62
993.55	3122.62
993.77	3019.62
993.991	3079.62
994.212	3110.62
994.432	3036.62
994.653	3064.62
994.873	3033.62
995.093	2926.62
995.314	2973.62
995.534	3001.62
995.754	3013.62
995.975	3018.62
996.195	2904.62
996.415	2960.62
996.635	2966.62
996.855	2946.62
997.075	2895.62
997.295	2918.62
997.515	2912.62
997.735	2923.62
997.955	2882.62
998.174	2894.62
998.394	2830.62
998.614	2878.62
998.834	2867.62
999.053	2888.62
999.273	2854.62
999.492	2865.62
999.712	2803.62
999.931	2739.62
1000.151	2826.62
1000.37	2733.62
1000.589	2852.62
1000.809	2734.62
1001.028	2833.62
1001.247	2760.62
1001.466	2631.62
1001.685	2803.62
1001.904	2721.62
1002.123	2708.62
1002.342	2657.62
1002.561	2604.62
1002.78	2684.62
1002.999	2694.62
1003.218	2608.62
1003.436	2619.62
1003.655	2617.62
1003.874	2560.62
1004.092	2601.62
1004.311	2623.62
1004.53	2591.62
1004.748	2619.62
1004.966	2528.62
1005.185	2575.62
1005.403	2576.62
1005.622	2544.62
1005.84	2622.62
1006.058	2516.62
1006.276	2516.62
1006.494	3017.62
1006.712	2516.62
1006.931	2628.62
1007.149	2520.62
1007.367	2490.62
1007.584	2540.62
1007.802	2544.62
1008.02	2530.62
1008.238	2614.62
1008.456	2622.62
1008.673	2480.62
1008.891	2632.62
1009.109	2573.62
1009.326	2652.62
1009.544	2760.62
1009.761	2692.62
1009.979	2832.62
1010.196	2842.62
1010.413	2967.62
1010.631	3074.62
1010.848	3098.62
1011.065	3152.62
1011.282	3139.62
1011.5	3041.62
1011.717	3123.62
1011.934	3075.62
1012.151	3105.62
1012.368	3065.62
1012.585	3062.62
1012.801	3075.62
1013.018	3064.62
1013.235	3019.62
1013.452	3059.62
1013.669	3075.62
1013.885	3019.62
1014.102	3091.62
1014.318	3042.62
1014.535	3002.62
1014.751	3027.62
1014.968	3039.62
1015.184	3040.62
1015.401	2957.62
1015.617	2968.62
1015.833	2911.62
1016.049	2899.62
1016.266	2896.62
1016.482	2862.62
1016.698	2805.62
1016.914	2820.62
1017.13	2748.62
1017.346	2750.62
1017.562	2815.62
1017.778	2761.62
1017.993	2685.62
1018.209	2757.62
1018.425	2737.62
1018.641	2701.62
1018.856	2656.62
1019.072	2714.62
1019.288	2751.62
1019.503	2712.62
1019.719	2647.62
1019.934	2615.62
1020.149	2709.62
1020.365	2615.62
1020.58	2495.62
1020.795	2563.62
1021.011	2467.62
1021.226	2402.62
1021.441	2448.62
1021.656	2338.62
1021.871	2261.62
1022.086	2208.62
1022.301	2220.62
1022.516	2169.62
1022.731	2199.62
1022.946	2091.62
1023.16	2069.62
1023.375	2052.62
1023.59	2009.62
1023.804	1938.62
1024.019	1998.62
1024.234	1887.62
1024.448	1906.62
1024.663	1804.62
1024.877	1822.62
1025.092	1805.62
1025.306	1786.62
1025.52	1697.62
1025.734	1752.62
1025.949	1611.62
1026.163	1604.62
1026.377	1518.62
1026.591	1574.62
1026.805	1480.62
1027.019	1444.62
1027.233	1432.62
1027.447	1375.62
1027.661	1472.62
1027.875	1380.62
1028.088	1374.62
1028.302	1289.62
1028.516	1270.62
1028.73	1236.62
1028.943	1205.62
1029.157	1141.62
1029.37	1076.62
1029.584	-1.38
1029.797	-1.38
1030.011	-1.38
1030.224	-1.38
