Data from QEP037381__9__15-10-45-854.txt Node

Date: Fri Dec 16 15:10:45 EST 2022
User: dcclab
Spectrometer: QEP03738
Trigger mode: 4
Integration Time (sec): 1.000000E1
Scans to average: 1
Electric dark correction enabled: true
Nonlinearity correction enabled: false
Boxcar width: 0
XAxis mode: Wavelengths
Number of Pixels in Spectrum: 1044
>>>>>Begin Spectral Data<<<<<
784.041	10.75
784.3	0.75
784.558	-1.25
784.817	-3.25
785.075	92026.75
785.334	15818.75
785.592	7368.75
785.851	5109.75
786.109	3826.75
786.368	2985.75
786.626	2405.75
786.884	2036.75
787.143	1716.75
787.401	1390.75
787.659	1287.75
787.917	1082.75
788.175	1040.75
788.433	883.75
788.691	809.75
788.949	741.75
789.207	745.75
789.465	648.75
789.723	624.75
789.98	575.75
790.238	616.75
790.496	571.75
790.753	553.75
791.011	605.75
791.268	551.75
791.526	526.75
791.783	554.75
792.041	529.75
792.298	448.75
792.556	511.75
792.813	491.75
793.07	480.75
793.327	455.75
793.584	541.75
793.841	476.75
794.099	506.75
794.356	567.75
794.613	456.75
794.869	496.75
795.126	448.75
795.383	429.75
795.64	461.75
795.897	425.75
796.153	480.75
796.41	459.75
796.667	441.75
796.923	446.75
797.18	468.75
797.436	492.75
797.693	445.75
797.949	499.75
798.206	532.75
798.462	447.75
798.718	531.75
798.974	497.75
799.231	530.75
799.487	513.75
799.743	564.75
799.999	579.75
800.255	576.75
800.511	577.75
800.767	639.75
801.023	612.75
801.279	663.75
801.534	694.75
801.79	748.75
802.046	808.75
802.302	966.75
802.557	1110.75
802.813	1382.75
803.068	1766.75
803.324	2426.75
803.579	3336.75
803.835	4676.75
804.09	6458.75
804.345	8602.75
804.601	10939.75
804.856	13482.75
805.111	15658.75
805.366	17478.75
805.621	18852.75
805.876	19550.75
806.131	20251.75
806.386	20634.75
806.641	21150.75
806.896	21471.75
807.151	22001.75
807.406	22380.75
807.661	22901.75
807.915	23293.75
808.17	23820.75
808.425	24002.75
808.679	24254.75
808.934	24636.75
809.188	24823.75
809.443	25175.75
809.697	25691.75
809.951	25827.75
810.206	26014.75
810.46	26393.75
810.714	26678.75
810.968	27016.75
811.223	27068.75
811.477	27333.75
811.731	27605.75
811.985	27841.75
812.239	27961.75
812.493	28158.75
812.747	28330.75
813	28537.75
813.254	28540.75
813.508	28729.75
813.762	28980.75
814.015	29078.75
814.269	29416.75
814.522	29696.75
814.776	30041.75
815.03	30595.75
815.283	30978.75
815.536	31478.75
815.79	31993.75
816.043	32614.75
816.296	33048.75
816.55	33513.75
816.803	33884.75
817.056	34414.75
817.309	34704.75
817.562	35214.75
817.815	35650.75
818.068	35860.75
818.321	36325.75
818.574	36711.75
818.827	37286.75
819.079	37837.75
819.332	38418.75
819.585	38950.75
819.838	39484.75
820.09	39870.75
820.343	40253.75
820.595	40437.75
820.848	40753.75
821.1	40942.75
821.353	41026.75
821.605	40988.75
821.857	41026.75
822.11	41080.75
822.362	40778.75
822.614	40689.75
822.866	40866.75
823.118	40696.75
823.37	40856.75
823.622	41071.75
823.874	41288.75
824.126	41319.75
824.378	41488.75
824.63	41657.75
824.882	41716.75
825.134	41757.75
825.385	41642.75
825.637	41589.75
825.888	41566.75
826.14	41602.75
826.392	41410.75
826.643	41218.75
826.895	41274.75
827.146	40997.75
827.397	40923.75
827.649	41023.75
827.9	40793.75
828.151	40972.75
828.402	41092.75
828.653	41198.75
828.905	41558.75
829.156	41671.75
829.407	41560.75
829.658	41568.75
829.909	41468.75
830.159	41544.75
830.41	41388.75
830.661	41136.75
830.912	41027.75
831.162	40912.75
831.413	40833.75
831.664	40794.75
831.914	40919.75
832.165	40795.75
832.415	40773.75
832.666	40771.75
832.916	40839.75
833.167	40805.75
833.417	40804.75
833.667	40634.75
833.917	40649.75
834.168	40668.75
834.418	40493.75
834.668	40167.75
834.918	40098.75
835.168	40018.75
835.418	39713.75
835.668	39784.75
835.918	39622.75
836.167	39741.75
836.417	39561.75
836.667	39449.75
836.917	39420.75
837.166	39332.75
837.416	39450.75
837.666	39459.75
837.915	39420.75
838.165	39364.75
838.414	39204.75
838.663	39183.75
838.913	39133.75
839.162	39204.75
839.411	39122.75
839.661	38946.75
839.91	38940.75
840.159	38737.75
840.408	38712.75
840.657	38769.75
840.906	38818.75
841.155	38813.75
841.404	39006.75
841.653	39032.75
841.902	38978.75
842.15	39048.75
842.399	39000.75
842.648	38951.75
842.897	38733.75
843.145	38472.75
843.394	38379.75
843.642	38237.75
843.891	38046.75
844.139	37927.75
844.388	37802.75
844.636	37685.75
844.884	37706.75
845.133	37586.75
845.381	37627.75
845.629	37544.75
845.877	37514.75
846.125	37467.75
846.373	37459.75
846.621	37343.75
846.869	37174.75
847.117	36920.75
847.365	36835.75
847.613	36661.75
847.861	36597.75
848.108	36543.75
848.356	36377.75
848.604	36366.75
848.851	36432.75
849.099	36437.75
849.346	36551.75
849.594	36753.75
849.841	36954.75
850.089	36920.75
850.336	36870.75
850.583	36843.75
850.831	36662.75
851.078	36525.75
851.325	36585.75
851.572	36660.75
851.819	36350.75
852.066	35681.75
852.313	35245.75
852.56	35002.75
852.807	34812.75
853.054	34658.75
853.301	34685.75
853.548	34617.75
853.794	34910.75
854.041	34934.75
854.288	35134.75
854.534	35374.75
854.781	35315.75
855.028	35132.75
855.274	35305.75
855.52	35023.75
855.767	34696.75
856.013	34843.75
856.26	35104.75
856.506	34514.75
856.752	34505.75
856.998	34500.75
857.244	34629.75
857.49	34803.75
857.736	34805.75
857.982	34928.75
858.228	34749.75
858.474	34599.75
858.72	34423.75
858.966	34009.75
859.212	33753.75
859.458	33340.75
859.703	33010.75
859.949	32828.75
860.195	32557.75
860.44	32525.75
860.686	32164.75
860.931	32318.75
861.177	32151.75
861.422	32206.75
861.667	31973.75
861.913	31922.75
862.158	31988.75
862.403	32059.75
862.648	32237.75
862.893	32310.75
863.138	32270.75
863.384	32146.75
863.629	32127.75
863.873	32081.75
864.118	32104.75
864.363	31791.75
864.608	31794.75
864.853	31609.75
865.098	31539.75
865.342	31497.75
865.587	31255.75
865.832	31416.75
866.076	31259.75
866.321	31086.75
866.565	31120.75
866.81	30981.75
867.054	30834.75
867.298	30790.75
867.543	30646.75
867.787	30714.75
868.031	30553.75
868.275	30583.75
868.519	30419.75
868.764	30504.75
869.008	30467.75
869.252	30401.75
869.496	30256.75
869.739	30093.75
869.983	30218.75
870.227	30115.75
870.471	30217.75
870.715	30224.75
870.958	30347.75
871.202	30319.75
871.446	30549.75
871.689	30472.75
871.933	30473.75
872.176	30527.75
872.42	30270.75
872.663	30178.75
872.906	30229.75
873.15	30122.75
873.393	29758.75
873.636	29761.75
873.879	29437.75
874.122	29339.75
874.366	28962.75
874.609	28754.75
874.852	28602.75
875.095	28523.75
875.337	28276.75
875.58	28193.75
875.823	28112.75
876.066	28139.75
876.309	28136.75
876.551	27860.75
876.794	27718.75
877.037	27833.75
877.279	27615.75
877.522	27714.75
877.764	27673.75
878.007	27594.75
878.249	27697.75
878.491	27560.75
878.734	27536.75
878.976	27382.75
879.218	27346.75
879.46	27034.75
879.702	27026.75
879.945	26680.75
880.187	26609.75
880.429	26434.75
880.671	26376.75
880.912	26283.75
881.154	26193.75
881.396	26143.75
881.638	26047.75
881.88	26158.75
882.121	26046.75
882.363	25918.75
882.605	26004.75
882.846	25875.75
883.088	25841.75
883.329	25752.75
883.571	25732.75
883.812	25827.75
884.053	25834.75
884.295	26408.75
884.536	26504.75
884.777	26370.75
885.018	26409.75
885.259	26272.75
885.5	26115.75
885.742	26482.75
885.982	26129.75
886.223	26093.75
886.464	25816.75
886.705	25608.75
886.946	25442.75
887.187	25180.75
887.428	24892.75
887.668	24745.75
887.909	24409.75
888.15	23977.75
888.39	24029.75
888.631	23817.75
888.871	23674.75
889.111	23582.75
889.352	23418.75
889.592	23208.75
889.833	22974.75
890.073	22889.75
890.313	22814.75
890.553	22703.75
890.793	22586.75
891.033	22500.75
891.273	22353.75
891.513	22250.75
891.753	22301.75
891.993	22127.75
892.233	22283.75
892.473	22417.75
892.713	22260.75
892.952	22316.75
893.192	22466.75
893.432	22271.75
893.671	22205.75
893.911	22105.75
894.15	22100.75
894.39	21875.75
894.629	21854.75
894.869	21576.75
895.108	21560.75
895.347	21466.75
895.587	21497.75
895.826	21340.75
896.065	21392.75
896.304	21327.75
896.543	21441.75
896.782	21099.75
897.021	21202.75
897.26	21136.75
897.499	21191.75
897.738	21203.75
897.977	20992.75
898.216	20829.75
898.454	20773.75
898.693	20637.75
898.932	20535.75
899.17	20478.75
899.409	20456.75
899.647	20390.75
899.886	20306.75
900.124	20381.75
900.363	20373.75
900.601	20444.75
900.839	20465.75
901.078	20560.75
901.316	20588.75
901.554	20670.75
901.792	20686.75
902.03	20711.75
902.268	20642.75
902.506	20697.75
902.744	20466.75
902.982	20344.75
903.22	19946.75
903.458	19730.75
903.695	19562.75
903.933	19265.75
904.171	18963.75
904.409	18759.75
904.646	18461.75
904.884	18184.75
905.121	17949.75
905.359	17788.75
905.596	17723.75
905.833	17455.75
906.071	17447.75
906.308	17459.75
906.545	17256.75
906.783	17178.75
907.02	17255.75
907.257	17137.75
907.494	17074.75
907.731	17113.75
907.968	17056.75
908.205	16847.75
908.442	16756.75
908.679	16648.75
908.915	16606.75
909.152	16449.75
909.389	16285.75
909.626	16228.75
909.862	16062.75
910.099	16044.75
910.335	16039.75
910.572	15870.75
910.808	15799.75
911.045	15790.75
911.281	15784.75
911.518	15707.75
911.754	15663.75
911.99	15549.75
912.226	15352.75
912.463	15240.75
912.699	15138.75
912.935	15052.75
913.171	14853.75
913.407	14748.75
913.643	14708.75
913.879	14534.75
914.114	14375.75
914.35	14301.75
914.586	14231.75
914.822	14064.75
915.057	14114.75
915.293	13819.75
915.529	13814.75
915.764	13836.75
916	13752.75
916.235	13744.75
916.471	13738.75
916.706	13621.75
916.941	13629.75
917.177	13627.75
917.412	13626.75
917.647	13610.75
917.882	13611.75
918.117	13534.75
918.352	13477.75
918.588	13513.75
918.823	13331.75
919.057	13170.75
919.292	13045.75
919.527	13025.75
919.762	12823.75
919.997	12751.75
920.232	12673.75
920.466	12511.75
920.701	12253.75
920.935	12321.75
921.17	12332.75
921.405	12224.75
921.639	12238.75
921.873	12099.75
922.108	12038.75
922.342	12088.75
922.576	11917.75
922.811	11916.75
923.045	11920.75
923.279	11862.75
923.513	11665.75
923.747	11765.75
923.981	11604.75
924.215	11544.75
924.449	11457.75
924.683	11431.75
924.917	11268.75
925.151	11261.75
925.385	11322.75
925.618	11228.75
925.852	11181.75
926.086	11050.75
926.319	11150.75
926.553	11104.75
926.786	11175.75
927.02	11095.75
927.253	11118.75
927.486	11059.75
927.72	11055.75
927.953	11064.75
928.186	10927.75
928.42	10996.75
928.653	10867.75
928.886	10792.75
929.119	10801.75
929.352	10811.75
929.585	10778.75
929.818	10552.75
930.051	10495.75
930.284	10501.75
930.516	10355.75
930.749	10244.75
930.982	10213.75
931.215	10198.75
931.447	10134.75
931.68	10096.75
931.912	10082.75
932.145	10011.75
932.377	10130.75
932.61	10246.75
932.842	10050.75
933.074	10056.75
933.307	10003.75
933.539	10075.75
933.771	10006.75
934.003	9926.75
934.236	10038.75
934.468	10036.75
934.7	9910.75
934.932	9922.75
935.164	9900.75
935.395	9766.75
935.627	9820.75
935.859	9793.75
936.091	9718.75
936.323	9747.75
936.554	9725.75
936.786	9689.75
937.017	9599.75
937.249	9588.75
937.481	9476.75
937.712	9563.75
937.943	9488.75
938.175	9490.75
938.406	9419.75
938.637	9521.75
938.869	9389.75
939.1	9417.75
939.331	9347.75
939.562	9386.75
939.793	9333.75
940.024	9268.75
940.255	9216.75
940.486	9176.75
940.717	9111.75
940.948	9119.75
941.179	9053.75
941.409	9084.75
941.64	9062.75
941.871	9089.75
942.102	8983.75
942.332	8960.75
942.563	9019.75
942.793	9031.75
943.024	8975.75
943.254	8965.75
943.484	9002.75
943.715	8967.75
943.945	8984.75
944.175	8877.75
944.405	8869.75
944.636	8862.75
944.866	8869.75
945.096	8877.75
945.326	8809.75
945.556	8752.75
945.786	8799.75
946.016	8675.75
946.245	8620.75
946.475	8553.75
946.705	8530.75
946.935	8484.75
947.164	8477.75
947.394	8413.75
947.624	8324.75
947.853	8318.75
948.083	8303.75
948.312	8226.75
948.542	8131.75
948.771	8168.75
949	8116.75
949.23	8204.75
949.459	8108.75
949.688	8231.75
949.917	8091.75
950.146	8133.75
950.375	8137.75
950.604	7986.75
950.833	8071.75
951.062	8132.75
951.291	7915.75
951.52	7960.75
951.749	7957.75
951.978	7869.75
952.206	7862.75
952.435	7859.75
952.664	7853.75
952.892	7891.75
953.121	7712.75
953.349	7760.75
953.578	7743.75
953.806	7667.75
954.035	7555.75
954.263	7636.75
954.491	7520.75
954.719	7605.75
954.948	7466.75
955.176	7440.75
955.404	7331.75
955.632	7360.75
955.86	7331.75
956.088	7238.75
956.316	7329.75
956.544	7285.75
956.772	7212.75
956.999	7100.75
957.227	7198.75
957.455	7116.75
957.683	7023.75
957.91	7005.75
958.138	7026.75
958.365	6974.75
958.593	6881.75
958.82	6808.75
959.048	6860.75
959.275	6861.75
959.502	6816.75
959.73	6794.75
959.957	6740.75
960.184	6812.75
960.411	6713.75
960.638	6743.75
960.865	6651.75
961.092	6689.75
961.319	6697.75
961.546	6709.75
961.773	6655.75
962	6626.75
962.227	6697.75
962.454	6661.75
962.68	6538.75
962.907	6566.75
963.134	6474.75
963.36	6475.75
963.587	6469.75
963.813	6342.75
964.04	6367.75
964.266	6295.75
964.493	6338.75
964.719	6264.75
964.945	6281.75
965.171	6164.75
965.398	6183.75
965.624	6144.75
965.85	6026.75
966.076	6061.75
966.302	6060.75
966.528	6018.75
966.754	6027.75
966.98	6003.75
967.206	5948.75
967.431	5836.75
967.657	5992.75
967.883	5903.75
968.109	5855.75
968.334	5809.75
968.56	5837.75
968.785	5769.75
969.011	5713.75
969.236	5770.75
969.462	5685.75
969.687	5745.75
969.912	5746.75
970.138	5767.75
970.363	5643.75
970.588	5661.75
970.813	5634.75
971.038	5616.75
971.263	5595.75
971.488	5632.75
971.713	5575.75
971.938	5516.75
972.163	5442.75
972.388	5435.75
972.613	5423.75
972.838	5390.75
973.062	5382.75
973.287	5397.75
973.512	5282.75
973.736	5279.75
973.961	5293.75
974.185	5209.75
974.41	5271.75
974.634	5126.75
974.858	5107.75
975.083	5122.75
975.307	5073.75
975.531	5019.75
975.755	5027.75
975.98	5000.75
976.204	4886.75
976.428	4882.75
976.652	4876.75
976.876	4845.75
977.1	4805.75
977.324	4740.75
977.547	4840.75
977.771	4820.75
977.995	4819.75
978.219	4731.75
978.442	4824.75
978.666	4730.75
978.89	4724.75
979.113	4727.75
979.337	4704.75
979.56	4665.75
979.783	4726.75
980.007	4617.75
980.23	4625.75
980.453	4548.75
980.677	4618.75
980.9	4583.75
981.123	4475.75
981.346	4455.75
981.569	4463.75
981.792	4511.75
982.015	4403.75
982.238	4385.75
982.461	4360.75
982.684	4304.75
982.907	4282.75
983.129	4240.75
983.352	4300.75
983.575	4277.75
983.797	4256.75
984.02	4211.75
984.242	4176.75
984.465	4099.75
984.687	4143.75
984.91	4195.75
985.132	4111.75
985.354	4138.75
985.577	4054.75
985.799	4024.75
986.021	3972.75
986.243	3969.75
986.465	3964.75
986.687	4001.75
986.909	4021.75
987.131	3961.75
987.353	3910.75
987.575	3971.75
987.797	3862.75
988.019	3802.75
988.241	3863.75
988.462	3836.75
988.684	3860.75
988.906	3909.75
989.127	3915.75
989.349	3749.75
989.57	3793.75
989.792	3813.75
990.013	3845.75
990.234	3810.75
990.456	3805.75
990.677	3775.75
990.898	3709.75
991.119	3689.75
991.341	3682.75
991.562	3643.75
991.783	3641.75
992.004	3539.75
992.225	3542.75
992.446	3640.75
992.667	3465.75
992.887	3547.75
993.108	3461.75
993.329	3580.75
993.55	3523.75
993.77	3374.75
993.991	3349.75
994.212	3395.75
994.432	3357.75
994.653	3357.75
994.873	3340.75
995.093	3235.75
995.314	3282.75
995.534	3310.75
995.754	3306.75
995.975	3321.75
996.195	3210.75
996.415	3259.75
996.635	3193.75
996.855	3245.75
997.075	3238.75
997.295	3194.75
997.515	3174.75
997.735	3196.75
997.955	3182.75
998.174	3173.75
998.394	3142.75
998.614	3134.75
998.834	3110.75
999.053	3197.75
999.273	3147.75
999.492	3154.75
999.712	3091.75
999.931	3039.75
1000.151	3076.75
1000.37	3044.75
1000.589	3087.75
1000.809	2997.75
1001.028	3104.75
1001.247	3011.75
1001.466	2883.75
1001.685	3014.75
1001.904	2909.75
1002.123	2917.75
1002.342	2936.75
1002.561	2835.75
1002.78	2873.75
1002.999	2931.75
1003.218	2855.75
1003.436	2819.75
1003.655	2857.75
1003.874	2785.75
1004.092	2799.75
1004.311	2837.75
1004.53	2736.75
1004.748	2831.75
1004.966	2744.75
1005.185	2788.75
1005.403	2801.75
1005.622	2751.75
1005.84	2804.75
1006.058	2696.75
1006.276	2726.75
1006.494	3236.75
1006.712	2695.75
1006.931	2749.75
1007.149	2673.75
1007.367	2684.75
1007.584	2731.75
1007.802	2762.75
1008.02	2696.75
1008.238	2810.75
1008.456	2797.75
1008.673	2649.75
1008.891	2747.75
1009.109	2759.75
1009.326	2787.75
1009.544	2876.75
1009.761	2774.75
1009.979	2900.75
1010.196	2945.75
1010.413	3085.75
1010.631	3161.75
1010.848	3167.75
1011.065	3243.75
1011.282	3178.75
1011.5	3142.75
1011.717	3223.75
1011.934	3174.75
1012.151	3163.75
1012.368	3193.75
1012.585	3113.75
1012.801	3176.75
1013.018	3150.75
1013.235	3158.75
1013.452	3213.75
1013.669	3258.75
1013.885	3204.75
1014.102	3189.75
1014.318	3137.75
1014.535	3066.75
1014.751	3124.75
1014.968	3075.75
1015.184	3094.75
1015.401	3009.75
1015.617	3045.75
1015.833	2939.75
1016.049	2941.75
1016.266	2893.75
1016.482	2885.75
1016.698	2814.75
1016.914	2864.75
1017.13	2793.75
1017.346	2809.75
1017.562	2877.75
1017.778	2793.75
1017.993	2761.75
1018.209	2787.75
1018.425	2784.75
1018.641	2731.75
1018.856	2737.75
1019.072	2770.75
1019.288	2826.75
1019.503	2763.75
1019.719	2682.75
1019.934	2685.75
1020.149	2739.75
1020.365	2652.75
1020.58	2582.75
1020.795	2621.75
1021.011	2508.75
1021.226	2520.75
1021.441	2496.75
1021.656	2394.75
1021.871	2294.75
1022.086	2310.75
1022.301	2227.75
1022.516	2222.75
1022.731	2234.75
1022.946	2137.75
1023.16	2133.75
1023.375	2065.75
1023.59	2063.75
1023.804	1999.75
1024.019	2112.75
1024.234	1912.75
1024.448	1952.75
1024.663	1877.75
1024.877	1854.75
1025.092	1839.75
1025.306	1815.75
1025.52	1726.75
1025.734	1785.75
1025.949	1673.75
1026.163	1648.75
1026.377	1562.75
1026.591	1578.75
1026.805	1513.75
1027.019	1483.75
1027.233	1438.75
1027.447	1393.75
1027.661	1496.75
1027.875	1395.75
1028.088	1418.75
1028.302	1297.75
1028.516	1276.75
1028.73	1246.75
1028.943	1219.75
1029.157	1153.75
1029.37	1086.75
1029.584	-2.25
1029.797	-2.25
1030.011	-2.25
1030.224	-0.25
