Data from QEP037381__33__15-14-45-857.txt Node

Date: Fri Dec 16 15:14:45 EST 2022
User: dcclab
Spectrometer: QEP03738
Trigger mode: 4
Integration Time (sec): 1.000000E1
Scans to average: 1
Electric dark correction enabled: true
Nonlinearity correction enabled: false
Boxcar width: 0
XAxis mode: Wavelengths
Number of Pixels in Spectrum: 1044
>>>>>Begin Spectral Data<<<<<
784.041	11.25
784.3	0.25
784.558	-2.75
784.817	-3.75
785.075	88969.25
785.334	15436.25
785.592	7338.25
785.851	5007.25
786.109	3819.25
786.368	2967.25
786.626	2410.25
786.884	2001.25
787.143	1693.25
787.401	1399.25
787.659	1274.25
787.917	1098.25
788.175	1018.25
788.433	891.25
788.691	815.25
788.949	754.25
789.207	728.25
789.465	627.25
789.723	608.25
789.98	542.25
790.238	596.25
790.496	550.25
790.753	554.25
791.011	586.25
791.268	532.25
791.526	515.25
791.783	531.25
792.041	514.25
792.298	425.25
792.556	500.25
792.813	510.25
793.07	456.25
793.327	448.25
793.584	531.25
793.841	463.25
794.099	481.25
794.356	522.25
794.613	436.25
794.869	472.25
795.126	437.25
795.383	420.25
795.64	445.25
795.897	399.25
796.153	468.25
796.41	446.25
796.667	424.25
796.923	441.25
797.18	438.25
797.436	452.25
797.693	440.25
797.949	477.25
798.206	515.25
798.462	422.25
798.718	479.25
798.974	459.25
799.231	520.25
799.487	492.25
799.743	501.25
799.999	551.25
800.255	523.25
800.511	515.25
800.767	581.25
801.023	565.25
801.279	606.25
801.534	634.25
801.79	686.25
802.046	746.25
802.302	909.25
802.557	1027.25
802.813	1281.25
803.068	1606.25
803.324	2243.25
803.579	3059.25
803.835	4292.25
804.09	5843.25
804.345	7692.25
804.601	9676.25
804.856	11861.25
805.111	13651.25
805.366	15169.25
805.621	16141.25
805.876	16826.25
806.131	17375.25
806.386	17699.25
806.641	18054.25
806.896	18400.25
807.151	18701.25
807.406	19080.25
807.661	19476.25
807.915	19754.25
808.17	20077.25
808.425	20352.25
808.679	20590.25
808.934	20841.25
809.188	21070.25
809.443	21311.25
809.697	21577.25
809.951	21727.25
810.206	21960.25
810.46	22190.25
810.714	22342.25
810.968	22651.25
811.223	22788.25
811.477	23017.25
811.731	23296.25
811.985	23299.25
812.239	23434.25
812.493	23557.25
812.747	23798.25
813	23698.25
813.254	23952.25
813.508	24075.25
813.762	24129.25
814.015	24261.25
814.269	24395.25
814.522	24689.25
814.776	25097.25
815.03	25299.25
815.283	25764.25
815.536	26232.25
815.79	26558.25
816.043	26960.25
816.296	27363.25
816.55	27668.25
816.803	28065.25
817.056	28537.25
817.309	28731.25
817.562	28856.25
817.815	29252.25
818.068	29509.25
818.321	29720.25
818.574	30112.25
818.827	30654.25
819.079	31018.25
819.332	31467.25
819.585	31929.25
819.838	32311.25
820.09	32631.25
820.343	32791.25
820.595	33123.25
820.848	33407.25
821.1	33382.25
821.353	33459.25
821.605	33549.25
821.857	33417.25
822.11	33247.25
822.362	33281.25
822.614	33244.25
822.866	33286.25
823.118	33179.25
823.37	33291.25
823.622	33448.25
823.874	33593.25
824.126	33797.25
824.378	33826.25
824.63	33779.25
824.882	33999.25
825.134	33850.25
825.385	34012.25
825.637	33672.25
825.888	33785.25
826.14	33709.25
826.392	33645.25
826.643	33461.25
826.895	33409.25
827.146	33187.25
827.397	33179.25
827.649	33254.25
827.9	33200.25
828.151	33360.25
828.402	33260.25
828.653	33569.25
828.905	33570.25
829.156	33634.25
829.407	33653.25
829.658	33542.25
829.909	33693.25
830.159	33745.25
830.41	33559.25
830.661	33254.25
830.912	33020.25
831.162	33069.25
831.413	32907.25
831.664	33113.25
831.914	32984.25
832.165	32929.25
832.415	32930.25
832.666	32922.25
832.916	33057.25
833.167	32997.25
833.417	32887.25
833.667	32770.25
833.917	32667.25
834.168	32689.25
834.418	32622.25
834.668	32500.25
834.918	32203.25
835.168	32142.25
835.418	32025.25
835.668	31973.25
835.918	31875.25
836.167	31960.25
836.417	31823.25
836.667	31891.25
836.917	31836.25
837.166	31881.25
837.416	31919.25
837.666	31861.25
837.915	31755.25
838.165	31684.25
838.414	31628.25
838.663	31416.25
838.913	31434.25
839.162	31381.25
839.411	31460.25
839.661	31244.25
839.91	31240.25
840.159	31105.25
840.408	31018.25
840.657	31379.25
840.906	31138.25
841.155	31269.25
841.404	31117.25
841.653	31279.25
841.902	31370.25
842.15	31316.25
842.399	31405.25
842.648	31338.25
842.897	31161.25
843.145	30931.25
843.394	30943.25
843.642	30773.25
843.891	30544.25
844.139	30416.25
844.388	30323.25
844.636	29966.25
844.884	30240.25
845.133	30128.25
845.381	30300.25
845.629	30139.25
845.877	30244.25
846.125	30343.25
846.373	30075.25
846.621	29911.25
846.869	29986.25
847.117	29806.25
847.365	29644.25
847.613	29400.25
847.861	29368.25
848.108	29383.25
848.356	29379.25
848.604	29332.25
848.851	29308.25
849.099	29426.25
849.346	29440.25
849.594	29502.25
849.841	29602.25
850.089	29664.25
850.336	29564.25
850.583	29654.25
850.831	29514.25
851.078	29426.25
851.325	29395.25
851.572	29573.25
851.819	29370.25
852.066	28780.25
852.313	28327.25
852.56	28017.25
852.807	27940.25
853.054	28018.25
853.301	28010.25
853.548	27991.25
853.794	28196.25
854.041	28158.25
854.288	28241.25
854.534	28464.25
854.781	28484.25
855.028	28405.25
855.274	28498.25
855.52	28089.25
855.767	28017.25
856.013	27944.25
856.26	28367.25
856.506	27879.25
856.752	27812.25
856.998	27784.25
857.244	27894.25
857.49	28166.25
857.736	28163.25
857.982	28219.25
858.228	28169.25
858.474	27954.25
858.72	27712.25
858.966	27470.25
859.212	27259.25
859.458	26976.25
859.703	26758.25
859.949	26529.25
860.195	26308.25
860.44	26320.25
860.686	26183.25
860.931	26016.25
861.177	26052.25
861.422	25903.25
861.667	25726.25
861.913	25804.25
862.158	25826.25
862.403	26034.25
862.648	26074.25
862.893	26224.25
863.138	26114.25
863.384	25976.25
863.629	25913.25
863.873	25928.25
864.118	25989.25
864.363	25685.25
864.608	25791.25
864.853	25650.25
865.098	25616.25
865.342	25499.25
865.587	25497.25
865.832	25431.25
866.076	25407.25
866.321	25230.25
866.565	25126.25
866.81	25076.25
867.054	24948.25
867.298	24946.25
867.543	24699.25
867.787	24885.25
868.031	24780.25
868.275	24752.25
868.519	24631.25
868.764	24707.25
869.008	24699.25
869.252	24687.25
869.496	24552.25
869.739	24491.25
869.983	24566.25
870.227	24505.25
870.471	24688.25
870.715	24678.25
870.958	24772.25
871.202	24836.25
871.446	24913.25
871.689	24868.25
871.933	24876.25
872.176	24783.25
872.42	24716.25
872.663	24606.25
872.906	24540.25
873.15	24271.25
873.393	24298.25
873.636	24276.25
873.879	24073.25
874.122	23752.25
874.366	23603.25
874.609	23437.25
874.852	23352.25
875.095	23219.25
875.337	23148.25
875.58	22977.25
875.823	23031.25
876.066	22957.25
876.309	22886.25
876.551	22766.25
876.794	22562.25
877.037	22630.25
877.279	22538.25
877.522	22649.25
877.764	22507.25
878.007	22506.25
878.249	22550.25
878.491	22466.25
878.734	22507.25
878.976	22468.25
879.218	22300.25
879.46	22072.25
879.702	21999.25
879.945	21882.25
880.187	21698.25
880.429	21544.25
880.671	21445.25
880.912	21375.25
881.154	21249.25
881.396	21184.25
881.638	21335.25
881.88	21306.25
882.121	21272.25
882.363	21207.25
882.605	21286.25
882.846	21199.25
883.088	21008.25
883.329	20998.25
883.571	21003.25
883.812	21182.25
884.053	21306.25
884.295	21696.25
884.536	21912.25
884.777	21833.25
885.018	21852.25
885.259	21753.25
885.5	21648.25
885.742	21826.25
885.982	21561.25
886.223	21349.25
886.464	21244.25
886.705	21091.25
886.946	20889.25
887.187	20614.25
887.428	20324.25
887.668	20146.25
887.909	19838.25
888.15	19809.25
888.39	19699.25
888.631	19533.25
888.871	19456.25
889.111	19245.25
889.352	19139.25
889.592	18888.25
889.833	18843.25
890.073	18733.25
890.313	18645.25
890.553	18505.25
890.793	18458.25
891.033	18463.25
891.273	18298.25
891.513	18279.25
891.753	18195.25
891.993	18230.25
892.233	18206.25
892.473	18376.25
892.713	18323.25
892.952	18336.25
893.192	18381.25
893.432	18267.25
893.671	18309.25
893.911	18198.25
894.15	18115.25
894.39	17960.25
894.629	17867.25
894.869	17749.25
895.108	17700.25
895.347	17663.25
895.587	17662.25
895.826	17514.25
896.065	17591.25
896.304	17617.25
896.543	17548.25
896.782	17451.25
897.021	17497.25
897.26	17423.25
897.499	17416.25
897.738	17450.25
897.977	17280.25
898.216	17123.25
898.454	17110.25
898.693	17026.25
898.932	16956.25
899.17	16955.25
899.409	16920.25
899.647	16909.25
899.886	16875.25
900.124	16957.25
900.363	16948.25
900.601	16981.25
900.839	16973.25
901.078	16975.25
901.316	17213.25
901.554	17245.25
901.792	17271.25
902.03	17176.25
902.268	17268.25
902.506	17214.25
902.744	16939.25
902.982	16887.25
903.22	16588.25
903.458	16298.25
903.695	16196.25
903.933	16024.25
904.171	15646.25
904.409	15443.25
904.646	15365.25
904.884	15099.25
905.121	14888.25
905.359	14740.25
905.596	14725.25
905.833	14431.25
906.071	14406.25
906.308	14346.25
906.545	14259.25
906.783	14257.25
907.02	14245.25
907.257	14196.25
907.494	14123.25
907.731	14176.25
907.968	13995.25
908.205	13873.25
908.442	13849.25
908.679	13788.25
908.915	13616.25
909.152	13572.25
909.389	13352.25
909.626	13342.25
909.862	13241.25
910.099	13307.25
910.335	13260.25
910.572	13071.25
910.808	13061.25
911.045	13089.25
911.281	12990.25
911.518	13004.25
911.754	12838.25
911.99	12724.25
912.226	12665.25
912.463	12580.25
912.699	12421.25
912.935	12334.25
913.171	12268.25
913.407	12169.25
913.643	12144.25
913.879	12019.25
914.114	11857.25
914.35	11751.25
914.586	11720.25
914.822	11672.25
915.057	11624.25
915.293	11442.25
915.529	11358.25
915.764	11402.25
916	11422.25
916.235	11406.25
916.471	11341.25
916.706	11337.25
916.941	11265.25
917.177	11241.25
917.412	11333.25
917.647	11246.25
917.882	11162.25
918.117	11204.25
918.352	11161.25
918.588	11109.25
918.823	11021.25
919.057	11009.25
919.292	10708.25
919.527	10873.25
919.762	10672.25
919.997	10596.25
920.232	10442.25
920.466	10416.25
920.701	10272.25
920.935	10124.25
921.17	10134.25
921.405	10007.25
921.639	10128.25
921.873	9943.25
922.108	9947.25
922.342	9991.25
922.576	9855.25
922.811	9876.25
923.045	9880.25
923.279	9892.25
923.513	9677.25
923.747	9737.25
923.981	9622.25
924.215	9571.25
924.449	9493.25
924.683	9369.25
924.917	9453.25
925.151	9383.25
925.385	9503.25
925.618	9392.25
925.852	9394.25
926.086	9187.25
926.319	9319.25
926.553	9266.25
926.786	9239.25
927.02	9259.25
927.253	9316.25
927.486	9214.25
927.72	9152.25
927.953	9162.25
928.186	9115.25
928.42	9123.25
928.653	9068.25
928.886	8992.25
929.119	8987.25
929.352	8960.25
929.585	8941.25
929.818	8846.25
930.051	8810.25
930.284	8684.25
930.516	8527.25
930.749	8516.25
930.982	8585.25
931.215	8525.25
931.447	8466.25
931.68	8365.25
931.912	8376.25
932.145	8385.25
932.377	8369.25
932.61	8497.25
932.842	8302.25
933.074	8319.25
933.307	8329.25
933.539	8403.25
933.771	8378.25
934.003	8290.25
934.236	8458.25
934.468	8390.25
934.7	8270.25
934.932	8336.25
935.164	8254.25
935.395	8204.25
935.627	8194.25
935.859	8185.25
936.091	8162.25
936.323	8165.25
936.554	8198.25
936.786	8104.25
937.017	7958.25
937.249	7990.25
937.481	7987.25
937.712	8077.25
937.943	7956.25
938.175	8036.25
938.406	7949.25
938.637	7972.25
938.869	7983.25
939.1	7926.25
939.331	7809.25
939.562	7830.25
939.793	7812.25
940.024	7860.25
940.255	7762.25
940.486	7696.25
940.717	7684.25
940.948	7675.25
941.179	7563.25
941.409	7604.25
941.64	7610.25
941.871	7637.25
942.102	7551.25
942.332	7570.25
942.563	7545.25
942.793	7637.25
943.024	7539.25
943.254	7558.25
943.484	7568.25
943.715	7538.25
943.945	7517.25
944.175	7353.25
944.405	7393.25
944.636	7433.25
944.866	7425.25
945.096	7454.25
945.326	7385.25
945.556	7372.25
945.786	7386.25
946.016	7285.25
946.245	7194.25
946.475	7201.25
946.705	7131.25
946.935	7129.25
947.164	7049.25
947.394	6972.25
947.624	6979.25
947.853	7037.25
948.083	6983.25
948.312	6965.25
948.542	6824.25
948.771	6825.25
949	6767.25
949.23	6813.25
949.459	6830.25
949.688	6872.25
949.917	6894.25
950.146	6792.25
950.375	6808.25
950.604	6713.25
950.833	6819.25
951.062	6757.25
951.291	6745.25
951.52	6745.25
951.749	6718.25
951.978	6644.25
952.206	6606.25
952.435	6610.25
952.664	6585.25
952.892	6587.25
953.121	6569.25
953.349	6562.25
953.578	6501.25
953.806	6450.25
954.035	6371.25
954.263	6375.25
954.491	6309.25
954.719	6388.25
954.948	6314.25
955.176	6227.25
955.404	6144.25
955.632	6222.25
955.86	6232.25
956.088	6160.25
956.316	6124.25
956.544	6116.25
956.772	6024.25
956.999	6000.25
957.227	6073.25
957.455	5897.25
957.683	5984.25
957.91	5900.25
958.138	5830.25
958.365	5829.25
958.593	5764.25
958.82	5719.25
959.048	5821.25
959.275	5771.25
959.502	5749.25
959.73	5683.25
959.957	5701.25
960.184	5701.25
960.411	5647.25
960.638	5744.25
960.865	5662.25
961.092	5611.25
961.319	5548.25
961.546	5715.25
961.773	5674.25
962	5584.25
962.227	5665.25
962.454	5561.25
962.68	5577.25
962.907	5543.25
963.134	5465.25
963.36	5454.25
963.587	5491.25
963.813	5388.25
964.04	5359.25
964.266	5309.25
964.493	5395.25
964.719	5359.25
964.945	5302.25
965.171	5192.25
965.398	5244.25
965.624	5229.25
965.85	5096.25
966.076	5113.25
966.302	5160.25
966.528	5055.25
966.754	5058.25
966.98	5038.25
967.206	5051.25
967.431	4933.25
967.657	5033.25
967.883	4962.25
968.109	4999.25
968.334	4899.25
968.56	4864.25
968.785	4947.25
969.011	4882.25
969.236	4936.25
969.462	4827.25
969.687	4836.25
969.912	4851.25
970.138	4839.25
970.363	4743.25
970.588	4777.25
970.813	4727.25
971.038	4714.25
971.263	4756.25
971.488	4718.25
971.713	4683.25
971.938	4678.25
972.163	4556.25
972.388	4596.25
972.613	4552.25
972.838	4544.25
973.062	4528.25
973.287	4497.25
973.512	4452.25
973.736	4477.25
973.961	4407.25
974.185	4368.25
974.41	4396.25
974.634	4290.25
974.858	4300.25
975.083	4321.25
975.307	4307.25
975.531	4257.25
975.755	4193.25
975.98	4164.25
976.204	4151.25
976.428	4123.25
976.652	4103.25
976.876	4048.25
977.1	4082.25
977.324	4031.25
977.547	4091.25
977.771	4037.25
977.995	4053.25
978.219	3985.25
978.442	4099.25
978.666	4016.25
978.89	3995.25
979.113	3928.25
979.337	3945.25
979.56	3887.25
979.783	3980.25
980.007	3886.25
980.23	3890.25
980.453	3866.25
980.677	3914.25
980.9	3833.25
981.123	3724.25
981.346	3818.25
981.569	3815.25
981.792	3801.25
982.015	3716.25
982.238	3663.25
982.461	3666.25
982.684	3620.25
982.907	3626.25
983.129	3586.25
983.352	3660.25
983.575	3616.25
983.797	3588.25
984.02	3536.25
984.242	3509.25
984.465	3511.25
984.687	3537.25
984.91	3517.25
985.132	3438.25
985.354	3501.25
985.577	3442.25
985.799	3441.25
986.021	3348.25
986.243	3389.25
986.465	3420.25
986.687	3398.25
986.909	3427.25
987.131	3345.25
987.353	3280.25
987.575	3321.25
987.797	3319.25
988.019	3244.25
988.241	3306.25
988.462	3234.25
988.684	3284.25
988.906	3312.25
989.127	3338.25
989.349	3191.25
989.57	3242.25
989.792	3225.25
990.013	3233.25
990.234	3211.25
990.456	3248.25
990.677	3195.25
990.898	3136.25
991.119	3162.25
991.341	3151.25
991.562	3122.25
991.783	3121.25
992.004	3034.25
992.225	3015.25
992.446	3061.25
992.667	2901.25
992.887	2983.25
993.108	2928.25
993.329	3038.25
993.55	2976.25
993.77	2876.25
993.991	2901.25
994.212	2908.25
994.432	2871.25
994.653	2907.25
994.873	2880.25
995.093	2724.25
995.314	2784.25
995.534	2830.25
995.754	2856.25
995.975	2875.25
996.195	2709.25
996.415	2811.25
996.635	2749.25
996.855	2737.25
997.075	2725.25
997.295	2731.25
997.515	2727.25
997.735	2741.25
997.955	2724.25
998.174	2721.25
998.394	2689.25
998.614	2734.25
998.834	2672.25
999.053	2748.25
999.273	2701.25
999.492	2732.25
999.712	2666.25
999.931	2634.25
1000.151	2671.25
1000.37	2617.25
1000.589	2676.25
1000.809	2557.25
1001.028	2694.25
1001.247	2604.25
1001.466	2528.25
1001.685	2635.25
1001.904	2526.25
1002.123	2561.25
1002.342	2509.25
1002.561	2487.25
1002.78	2484.25
1002.999	2525.25
1003.218	2476.25
1003.436	2428.25
1003.655	2497.25
1003.874	2431.25
1004.092	2450.25
1004.311	2466.25
1004.53	2408.25
1004.748	2464.25
1004.966	2400.25
1005.185	2448.25
1005.403	2410.25
1005.622	2392.25
1005.84	2463.25
1006.058	2361.25
1006.276	2383.25
1006.494	2846.25
1006.712	2374.25
1006.931	2448.25
1007.149	2350.25
1007.367	2346.25
1007.584	2407.25
1007.802	2404.25
1008.02	2380.25
1008.238	2439.25
1008.456	2463.25
1008.673	2340.25
1008.891	2436.25
1009.109	2425.25
1009.326	2462.25
1009.544	2523.25
1009.761	2463.25
1009.979	2559.25
1010.196	2616.25
1010.413	2729.25
1010.631	2812.25
1010.848	2873.25
1011.065	2915.25
1011.282	2856.25
1011.5	2771.25
1011.717	2928.25
1011.934	2821.25
1012.151	2867.25
1012.368	2832.25
1012.585	2777.25
1012.801	2781.25
1013.018	2805.25
1013.235	2775.25
1013.452	2810.25
1013.669	2841.25
1013.885	2805.25
1014.102	2815.25
1014.318	2793.25
1014.535	2758.25
1014.751	2790.25
1014.968	2737.25
1015.184	2795.25
1015.401	2754.25
1015.617	2714.25
1015.833	2652.25
1016.049	2669.25
1016.266	2603.25
1016.482	2607.25
1016.698	2556.25
1016.914	2644.25
1017.13	2530.25
1017.346	2524.25
1017.562	2603.25
1017.778	2533.25
1017.993	2470.25
1018.209	2596.25
1018.425	2542.25
1018.641	2482.25
1018.856	2431.25
1019.072	2488.25
1019.288	2555.25
1019.503	2511.25
1019.719	2465.25
1019.934	2428.25
1020.149	2514.25
1020.365	2397.25
1020.58	2355.25
1020.795	2374.25
1021.011	2300.25
1021.226	2278.25
1021.441	2252.25
1021.656	2166.25
1021.871	2084.25
1022.086	2042.25
1022.301	2041.25
1022.516	2018.25
1022.731	2022.25
1022.946	1941.25
1023.16	1932.25
1023.375	1884.25
1023.59	1874.25
1023.804	1794.25
1024.019	1877.25
1024.234	1761.25
1024.448	1770.25
1024.663	1648.25
1024.877	1686.25
1025.092	1664.25
1025.306	1650.25
1025.52	1548.25
1025.734	1584.25
1025.949	1550.25
1026.163	1478.25
1026.377	1375.25
1026.591	1393.25
1026.805	1363.25
1027.019	1328.25
1027.233	1305.25
1027.447	1232.25
1027.661	1314.25
1027.875	1274.25
1028.088	1265.25
1028.302	1184.25
1028.516	1154.25
1028.73	1119.25
1028.943	1093.25
1029.157	1059.25
1029.37	971.25
1029.584	-1.75
1029.797	-3.75
1030.011	-0.75
1030.224	1.25
