Data from QEP037381__8__15-10-35-854.txt Node

Date: Fri Dec 16 15:10:35 EST 2022
User: dcclab
Spectrometer: QEP03738
Trigger mode: 4
Integration Time (sec): 1.000000E1
Scans to average: 1
Electric dark correction enabled: true
Nonlinearity correction enabled: false
Boxcar width: 0
XAxis mode: Wavelengths
Number of Pixels in Spectrum: 1044
>>>>>Begin Spectral Data<<<<<
784.041	14.75
784.3	1.75
784.558	-6.25
784.817	-2.25
785.075	91990.75
785.334	15959.75
785.592	7461.75
785.851	5115.75
786.109	3873.75
786.368	2979.75
786.626	2431.75
786.884	2021.75
787.143	1715.75
787.401	1414.75
787.659	1264.75
787.917	1086.75
788.175	1005.75
788.433	905.75
788.691	824.75
788.949	750.75
789.207	721.75
789.465	630.75
789.723	602.75
789.98	569.75
790.238	595.75
790.496	560.75
790.753	552.75
791.011	582.75
791.268	514.75
791.526	515.75
791.783	517.75
792.041	513.75
792.298	431.75
792.556	497.75
792.813	470.75
793.07	451.75
793.327	462.75
793.584	516.75
793.841	459.75
794.099	490.75
794.356	532.75
794.613	427.75
794.869	471.75
795.126	425.75
795.383	401.75
795.64	431.75
795.897	372.75
796.153	440.75
796.41	418.75
796.667	412.75
796.923	423.75
797.18	405.75
797.436	451.75
797.693	408.75
797.949	452.75
798.206	495.75
798.462	418.75
798.718	464.75
798.974	452.75
799.231	470.75
799.487	472.75
799.743	480.75
799.999	515.75
800.255	510.75
800.511	510.75
800.767	552.75
801.023	534.75
801.279	545.75
801.534	574.75
801.79	632.75
802.046	651.75
802.302	772.75
802.557	881.75
802.813	1092.75
803.068	1315.75
803.324	1811.75
803.579	2472.75
803.835	3374.75
804.09	4717.75
804.345	6093.75
804.601	7651.75
804.856	9273.75
805.111	10736.75
805.366	11779.75
805.621	12612.75
805.876	13192.75
806.131	13543.75
806.386	13828.75
806.641	14047.75
806.896	14199.75
807.151	14690.75
807.406	14843.75
807.661	15066.75
807.915	15394.75
808.17	15651.75
808.425	15815.75
808.679	15971.75
808.934	16233.75
809.188	16338.75
809.443	16574.75
809.697	16748.75
809.951	16814.75
810.206	17053.75
810.46	17290.75
810.714	17549.75
810.968	17718.75
811.223	17747.75
811.477	17834.75
811.731	18075.75
811.985	18088.75
812.239	18166.75
812.493	18320.75
812.747	18480.75
813	18373.75
813.254	18539.75
813.508	18627.75
813.762	18755.75
814.015	18845.75
814.269	18952.75
814.522	19215.75
814.776	19366.75
815.03	19617.75
815.283	19897.75
815.536	20271.75
815.79	20556.75
816.043	20942.75
816.296	21200.75
816.55	21493.75
816.803	21616.75
817.056	21964.75
817.309	22076.75
817.562	22452.75
817.815	22513.75
818.068	22718.75
818.321	23057.75
818.574	23197.75
818.827	23731.75
819.079	23862.75
819.332	24268.75
819.585	24515.75
819.838	25049.75
820.09	25082.75
820.343	25316.75
820.595	25457.75
820.848	25626.75
821.1	25746.75
821.353	25689.75
821.605	25652.75
821.857	25736.75
822.11	25522.75
822.362	25413.75
822.614	25374.75
822.866	25402.75
823.118	25467.75
823.37	25620.75
823.622	25642.75
823.874	25661.75
824.126	25800.75
824.378	25725.75
824.63	25895.75
824.882	25918.75
825.134	25916.75
825.385	25841.75
825.637	25807.75
825.888	25715.75
826.14	25718.75
826.392	25661.75
826.643	25434.75
826.895	25365.75
827.146	25240.75
827.397	25200.75
827.649	25357.75
827.9	25243.75
828.151	25238.75
828.402	25344.75
828.653	25497.75
828.905	25446.75
829.156	25613.75
829.407	25517.75
829.658	25625.75
829.909	25618.75
830.159	25506.75
830.41	25510.75
830.661	25309.75
830.912	25140.75
831.162	25090.75
831.413	24921.75
831.664	25025.75
831.914	24917.75
832.165	24967.75
832.415	24945.75
832.666	24994.75
832.916	24970.75
833.167	24832.75
833.417	25014.75
833.667	24916.75
833.917	24732.75
834.168	24683.75
834.418	24646.75
834.668	24527.75
834.918	24501.75
835.168	24393.75
835.418	24157.75
835.668	24300.75
835.918	24070.75
836.167	24062.75
836.417	23893.75
836.667	24013.75
836.917	24046.75
837.166	23910.75
837.416	23835.75
837.666	23855.75
837.915	23896.75
838.165	23828.75
838.414	23800.75
838.663	23740.75
838.913	23752.75
839.162	23865.75
839.411	23660.75
839.661	23618.75
839.91	23599.75
840.159	23518.75
840.408	23569.75
840.657	23539.75
840.906	23576.75
841.155	23458.75
841.404	23481.75
841.653	23484.75
841.902	23580.75
842.15	23587.75
842.399	23585.75
842.648	23437.75
842.897	23409.75
843.145	23279.75
843.394	23023.75
843.642	23058.75
843.891	22850.75
844.139	22776.75
844.388	22556.75
844.636	22567.75
844.884	22444.75
845.133	22406.75
845.381	22459.75
845.629	22560.75
845.877	22480.75
846.125	22515.75
846.373	22520.75
846.621	22358.75
846.869	22251.75
847.117	22137.75
847.365	21974.75
847.613	21970.75
847.861	21819.75
848.108	21810.75
848.356	21703.75
848.604	21686.75
848.851	21723.75
849.099	21788.75
849.346	21927.75
849.594	21940.75
849.841	22020.75
850.089	21978.75
850.336	22012.75
850.583	21965.75
850.831	21942.75
851.078	21787.75
851.325	21881.75
851.572	22147.75
851.819	21742.75
852.066	21247.75
852.313	21005.75
852.56	20833.75
852.807	20729.75
853.054	20611.75
853.301	20597.75
853.548	20732.75
853.794	20826.75
854.041	20851.75
854.288	20909.75
854.534	21074.75
854.781	21089.75
855.028	20957.75
855.274	20952.75
855.52	20857.75
855.767	20817.75
856.013	20793.75
856.26	21204.75
856.506	20558.75
856.752	20613.75
856.998	20606.75
857.244	20549.75
857.49	20758.75
857.736	20657.75
857.982	20716.75
858.228	20727.75
858.474	20544.75
858.72	20399.75
858.966	20215.75
859.212	20013.75
859.458	19795.75
859.703	19564.75
859.949	19348.75
860.195	19438.75
860.44	19294.75
860.686	19099.75
860.931	19188.75
861.177	19007.75
861.422	18974.75
861.667	18861.75
861.913	18890.75
862.158	18882.75
862.403	18911.75
862.648	19001.75
862.893	19038.75
863.138	18934.75
863.384	18932.75
863.629	18920.75
863.873	18887.75
864.118	18812.75
864.363	18747.75
864.608	18674.75
864.853	18667.75
865.098	18547.75
865.342	18443.75
865.587	18300.75
865.832	18411.75
866.076	18377.75
866.321	18334.75
866.565	18322.75
866.81	18176.75
867.054	18184.75
867.298	18146.75
867.543	17991.75
867.787	18033.75
868.031	17991.75
868.275	17950.75
868.519	18004.75
868.764	17936.75
869.008	17932.75
869.252	17967.75
869.496	17861.75
869.739	17743.75
869.983	17881.75
870.227	17935.75
870.471	17909.75
870.715	17950.75
870.958	18088.75
871.202	18105.75
871.446	18101.75
871.689	18013.75
871.933	18013.75
872.176	18145.75
872.42	18011.75
872.663	17978.75
872.906	17958.75
873.15	17853.75
873.393	17784.75
873.636	17768.75
873.879	17692.75
874.122	17470.75
874.366	17211.75
874.609	17085.75
874.852	16932.75
875.095	16784.75
875.337	16686.75
875.58	16647.75
875.823	16773.75
876.066	16629.75
876.309	16580.75
876.551	16557.75
876.794	16339.75
877.037	16447.75
877.279	16213.75
877.522	16319.75
877.764	16234.75
878.007	16166.75
878.249	16176.75
878.491	16083.75
878.734	16096.75
878.976	16040.75
879.218	15930.75
879.46	15806.75
879.702	15716.75
879.945	15633.75
880.187	15459.75
880.429	15449.75
880.671	15376.75
880.912	15344.75
881.154	15278.75
881.396	15133.75
881.638	15223.75
881.88	15174.75
882.121	15291.75
882.363	15193.75
882.605	15195.75
882.846	15169.75
883.088	15217.75
883.329	15065.75
883.571	15229.75
883.812	15287.75
884.053	15569.75
884.295	15948.75
884.536	16218.75
884.777	16161.75
885.018	15970.75
885.259	15958.75
885.5	15872.75
885.742	16061.75
885.982	15818.75
886.223	15596.75
886.464	15423.75
886.705	15195.75
886.946	15096.75
887.187	14869.75
887.428	14628.75
887.668	14383.75
887.909	14238.75
888.15	14040.75
888.39	13925.75
888.631	13752.75
888.871	13753.75
889.111	13647.75
889.352	13545.75
889.592	13326.75
889.833	13290.75
890.073	13229.75
890.313	13251.75
890.553	13032.75
890.793	13065.75
891.033	13005.75
891.273	12868.75
891.513	12820.75
891.753	12845.75
891.993	12816.75
892.233	12859.75
892.473	12962.75
892.713	12911.75
892.952	12869.75
893.192	12935.75
893.432	12890.75
893.671	12918.75
893.911	12821.75
894.15	12736.75
894.39	12672.75
894.629	12585.75
894.869	12574.75
895.108	12493.75
895.347	12425.75
895.587	12505.75
895.826	12434.75
896.065	12508.75
896.304	12447.75
896.543	12505.75
896.782	12385.75
897.021	12435.75
897.26	12416.75
897.499	12432.75
897.738	12382.75
897.977	12287.75
898.216	12200.75
898.454	12089.75
898.693	12059.75
898.932	12123.75
899.17	12041.75
899.409	12059.75
899.647	12068.75
899.886	11947.75
900.124	12132.75
900.363	12077.75
900.601	12082.75
900.839	12108.75
901.078	12237.75
901.316	12267.75
901.554	12375.75
901.792	12478.75
902.03	12523.75
902.268	12502.75
902.506	12403.75
902.744	12315.75
902.982	12248.75
903.22	11901.75
903.458	11796.75
903.695	11565.75
903.933	11335.75
904.171	11129.75
904.409	10958.75
904.646	10791.75
904.884	10558.75
905.121	10373.75
905.359	10427.75
905.596	10286.75
905.833	10198.75
906.071	10087.75
906.308	10081.75
906.545	9980.75
906.783	9870.75
907.02	9963.75
907.257	9947.75
907.494	9849.75
907.731	9850.75
907.968	9742.75
908.205	9661.75
908.442	9660.75
908.679	9616.75
908.915	9540.75
909.152	9426.75
909.389	9281.75
909.626	9230.75
909.862	9177.75
910.099	9181.75
910.335	9156.75
910.572	9105.75
910.808	9015.75
911.045	8978.75
911.281	8969.75
911.518	9010.75
911.754	8974.75
911.99	8895.75
912.226	8815.75
912.463	8637.75
912.699	8676.75
912.935	8576.75
913.171	8508.75
913.407	8420.75
913.643	8425.75
913.879	8333.75
914.114	8251.75
914.35	8168.75
914.586	8074.75
914.822	8043.75
915.057	8037.75
915.293	7897.75
915.529	7918.75
915.764	7934.75
916	7873.75
916.235	7896.75
916.471	7882.75
916.706	7785.75
916.941	7756.75
917.177	7767.75
917.412	7767.75
917.647	7758.75
917.882	7718.75
918.117	7732.75
918.352	7699.75
918.588	7663.75
918.823	7569.75
919.057	7553.75
919.292	7366.75
919.527	7430.75
919.762	7290.75
919.997	7324.75
920.232	7230.75
920.466	7212.75
920.701	6977.75
920.935	7093.75
921.17	7030.75
921.405	6902.75
921.639	6967.75
921.873	6904.75
922.108	6980.75
922.342	6898.75
922.576	6769.75
922.811	6833.75
923.045	6823.75
923.279	6778.75
923.513	6637.75
923.747	6697.75
923.981	6615.75
924.215	6575.75
924.449	6565.75
924.683	6472.75
924.917	6467.75
925.151	6454.75
925.385	6469.75
925.618	6450.75
925.852	6454.75
926.086	6327.75
926.319	6330.75
926.553	6370.75
926.786	6362.75
927.02	6301.75
927.253	6413.75
927.486	6364.75
927.72	6312.75
927.953	6340.75
928.186	6285.75
928.42	6323.75
928.653	6283.75
928.886	6147.75
929.119	6222.75
929.352	6165.75
929.585	6139.75
929.818	6084.75
930.051	6078.75
930.284	6039.75
930.516	5892.75
930.749	5857.75
930.982	5941.75
931.215	5917.75
931.447	5765.75
931.68	5792.75
931.912	5760.75
932.145	5791.75
932.377	5781.75
932.61	5874.75
932.842	5739.75
933.074	5791.75
933.307	5730.75
933.539	5794.75
933.771	5790.75
934.003	5787.75
934.236	5827.75
934.468	5797.75
934.7	5715.75
934.932	5786.75
935.164	5724.75
935.395	5670.75
935.627	5652.75
935.859	5715.75
936.091	5587.75
936.323	5617.75
936.554	5673.75
936.786	5548.75
937.017	5501.75
937.249	5554.75
937.481	5494.75
937.712	5563.75
937.943	5472.75
938.175	5451.75
938.406	5509.75
938.637	5505.75
938.869	5394.75
939.1	5439.75
939.331	5410.75
939.562	5396.75
939.793	5395.75
940.024	5432.75
940.255	5339.75
940.486	5280.75
940.717	5271.75
940.948	5323.75
941.179	5269.75
941.409	5234.75
941.64	5233.75
941.871	5228.75
942.102	5187.75
942.332	5175.75
942.563	5268.75
942.793	5171.75
943.024	5175.75
943.254	5182.75
943.484	5272.75
943.715	5224.75
943.945	5197.75
944.175	5147.75
944.405	5080.75
944.636	5142.75
944.866	5121.75
945.096	5141.75
945.326	5081.75
945.556	5127.75
945.786	5116.75
946.016	4991.75
946.245	4935.75
946.475	4969.75
946.705	4909.75
946.935	4898.75
947.164	4816.75
947.394	4809.75
947.624	4819.75
947.853	4869.75
948.083	4788.75
948.312	4771.75
948.542	4679.75
948.771	4664.75
949	4689.75
949.23	4723.75
949.459	4741.75
949.688	4765.75
949.917	4693.75
950.146	4675.75
950.375	4709.75
950.604	4608.75
950.833	4662.75
951.062	4686.75
951.291	4598.75
951.52	4605.75
951.749	4584.75
951.978	4557.75
952.206	4553.75
952.435	4514.75
952.664	4548.75
952.892	4567.75
953.121	4495.75
953.349	4526.75
953.578	4525.75
953.806	4462.75
954.035	4362.75
954.263	4411.75
954.491	4353.75
954.719	4324.75
954.948	4384.75
955.176	4331.75
955.404	4237.75
955.632	4307.75
955.86	4248.75
956.088	4255.75
956.316	4224.75
956.544	4241.75
956.772	4123.75
956.999	4128.75
957.227	4210.75
957.455	4138.75
957.683	4161.75
957.91	4051.75
958.138	4011.75
958.365	4000.75
958.593	4003.75
958.82	3984.75
959.048	4055.75
959.275	3971.75
959.502	3959.75
959.73	3904.75
959.957	3958.75
960.184	3964.75
960.411	3905.75
960.638	3988.75
960.865	3911.75
961.092	3906.75
961.319	3850.75
961.546	3912.75
961.773	3925.75
962	3865.75
962.227	3957.75
962.454	3840.75
962.68	3820.75
962.907	3809.75
963.134	3805.75
963.36	3764.75
963.587	3811.75
963.813	3738.75
964.04	3736.75
964.266	3645.75
964.493	3753.75
964.719	3724.75
964.945	3727.75
965.171	3612.75
965.398	3623.75
965.624	3634.75
965.85	3575.75
966.076	3557.75
966.302	3597.75
966.528	3547.75
966.754	3562.75
966.98	3495.75
967.206	3500.75
967.431	3438.75
967.657	3522.75
967.883	3485.75
968.109	3467.75
968.334	3409.75
968.56	3382.75
968.785	3379.75
969.011	3341.75
969.236	3427.75
969.462	3368.75
969.687	3376.75
969.912	3409.75
970.138	3425.75
970.363	3326.75
970.588	3320.75
970.813	3315.75
971.038	3280.75
971.263	3318.75
971.488	3282.75
971.713	3327.75
971.938	3287.75
972.163	3204.75
972.388	3220.75
972.613	3220.75
972.838	3232.75
973.062	3190.75
973.287	3149.75
973.512	3114.75
973.736	3116.75
973.961	3133.75
974.185	3071.75
974.41	3105.75
974.634	3017.75
974.858	3022.75
975.083	3040.75
975.307	3055.75
975.531	3013.75
975.755	2972.75
975.98	2940.75
976.204	2912.75
976.428	2850.75
976.652	2883.75
976.876	2845.75
977.1	2910.75
977.324	2845.75
977.547	2888.75
977.771	2904.75
977.995	2841.75
978.219	2770.75
978.442	2886.75
978.666	2847.75
978.89	2796.75
979.113	2782.75
979.337	2834.75
979.56	2737.75
979.783	2864.75
980.007	2736.75
980.23	2808.75
980.453	2734.75
980.677	2739.75
980.9	2735.75
981.123	2656.75
981.346	2738.75
981.569	2720.75
981.792	2723.75
982.015	2665.75
982.238	2642.75
982.461	2648.75
982.684	2593.75
982.907	2572.75
983.129	2562.75
983.352	2593.75
983.575	2580.75
983.797	2559.75
984.02	2499.75
984.242	2507.75
984.465	2558.75
984.687	2524.75
984.91	2563.75
985.132	2513.75
985.354	2531.75
985.577	2510.75
985.799	2498.75
986.021	2415.75
986.243	2416.75
986.465	2453.75
986.687	2476.75
986.909	2516.75
987.131	2458.75
987.353	2402.75
987.575	2407.75
987.797	2394.75
988.019	2297.75
988.241	2379.75
988.462	2329.75
988.684	2425.75
988.906	2433.75
989.127	2437.75
989.349	2289.75
989.57	2349.75
989.792	2344.75
990.013	2377.75
990.234	2345.75
990.456	2383.75
990.677	2334.75
990.898	2285.75
991.119	2277.75
991.341	2269.75
991.562	2246.75
991.783	2260.75
992.004	2217.75
992.225	2208.75
992.446	2227.75
992.667	2164.75
992.887	2251.75
993.108	2123.75
993.329	2227.75
993.55	2190.75
993.77	2129.75
993.991	2138.75
994.212	2139.75
994.432	2121.75
994.653	2174.75
994.873	2120.75
995.093	2020.75
995.314	2058.75
995.534	2136.75
995.754	2141.75
995.975	2189.75
996.195	2053.75
996.415	2120.75
996.635	2094.75
996.855	2096.75
997.075	2083.75
997.295	2073.75
997.515	2034.75
997.735	2107.75
997.955	2046.75
998.174	2082.75
998.394	2008.75
998.614	2072.75
998.834	2030.75
999.053	2067.75
999.273	2068.75
999.492	2089.75
999.712	2024.75
999.931	1981.75
1000.151	2001.75
1000.37	1988.75
1000.589	2057.75
1000.809	1986.75
1001.028	2065.75
1001.247	2008.75
1001.466	1882.75
1001.685	2020.75
1001.904	1930.75
1002.123	1956.75
1002.342	1935.75
1002.561	1896.75
1002.78	1928.75
1002.999	1974.75
1003.218	1930.75
1003.436	1903.75
1003.655	1933.75
1003.874	1866.75
1004.092	1855.75
1004.311	1930.75
1004.53	1862.75
1004.748	1944.75
1004.966	1894.75
1005.185	1923.75
1005.403	1904.75
1005.622	1886.75
1005.84	1938.75
1006.058	1829.75
1006.276	1876.75
1006.494	2358.75
1006.712	1868.75
1006.931	1939.75
1007.149	1886.75
1007.367	1870.75
1007.584	1904.75
1007.802	1924.75
1008.02	1871.75
1008.238	2015.75
1008.456	2004.75
1008.673	1888.75
1008.891	1999.75
1009.109	1972.75
1009.326	2020.75
1009.544	2133.75
1009.761	2066.75
1009.979	2176.75
1010.196	2196.75
1010.413	2351.75
1010.631	2435.75
1010.848	2478.75
1011.065	2526.75
1011.282	2513.75
1011.5	2434.75
1011.717	2533.75
1011.934	2454.75
1012.151	2484.75
1012.368	2487.75
1012.585	2456.75
1012.801	2476.75
1013.018	2536.75
1013.235	2512.75
1013.452	2594.75
1013.669	2622.75
1013.885	2565.75
1014.102	2572.75
1014.318	2504.75
1014.535	2452.75
1014.751	2512.75
1014.968	2463.75
1015.184	2470.75
1015.401	2394.75
1015.617	2399.75
1015.833	2379.75
1016.049	2357.75
1016.266	2309.75
1016.482	2348.75
1016.698	2270.75
1016.914	2275.75
1017.13	2281.75
1017.346	2239.75
1017.562	2271.75
1017.778	2244.75
1017.993	2196.75
1018.209	2235.75
1018.425	2250.75
1018.641	2199.75
1018.856	2175.75
1019.072	2208.75
1019.288	2274.75
1019.503	2224.75
1019.719	2130.75
1019.934	2130.75
1020.149	2224.75
1020.365	2155.75
1020.58	2083.75
1020.795	2105.75
1021.011	1993.75
1021.226	1972.75
1021.441	2003.75
1021.656	1892.75
1021.871	1795.75
1022.086	1821.75
1022.301	1764.75
1022.516	1774.75
1022.731	1795.75
1022.946	1688.75
1023.16	1693.75
1023.375	1627.75
1023.59	1589.75
1023.804	1561.75
1024.019	1621.75
1024.234	1469.75
1024.448	1535.75
1024.663	1447.75
1024.877	1431.75
1025.092	1447.75
1025.306	1439.75
1025.52	1326.75
1025.734	1390.75
1025.949	1301.75
1026.163	1266.75
1026.377	1198.75
1026.591	1270.75
1026.805	1159.75
1027.019	1160.75
1027.233	1106.75
1027.447	1062.75
1027.661	1146.75
1027.875	1084.75
1028.088	1088.75
1028.302	982.75
1028.516	989.75
1028.73	980.75
1028.943	959.75
1029.157	885.75
1029.37	834.75
1029.584	-3.25
1029.797	-2.25
1030.011	-3.25
1030.224	0.75
