Data from QEP037381__70__15-20-55-862.txt Node

Date: Fri Dec 16 15:20:55 EST 2022
User: dcclab
Spectrometer: QEP03738
Trigger mode: 4
Integration Time (sec): 1.000000E1
Scans to average: 1
Electric dark correction enabled: true
Nonlinearity correction enabled: false
Boxcar width: 0
XAxis mode: Wavelengths
Number of Pixels in Spectrum: 1044
>>>>>Begin Spectral Data<<<<<
784.041	13.62
784.3	0.62
784.558	-3.38
784.817	-5.38
785.075	90456.62
785.334	15723.62
785.592	7380.62
785.851	5097.62
786.109	3882.62
786.368	3043.62
786.626	2497.62
786.884	2045.62
787.143	1726.62
787.401	1449.62
787.659	1313.62
787.917	1121.62
788.175	1034.62
788.433	925.62
788.691	828.62
788.949	777.62
789.207	720.62
789.465	642.62
789.723	637.62
789.98	569.62
790.238	610.62
790.496	576.62
790.753	539.62
791.011	608.62
791.268	543.62
791.526	529.62
791.783	537.62
792.041	527.62
792.298	438.62
792.556	515.62
792.813	488.62
793.07	474.62
793.327	475.62
793.584	540.62
793.841	446.62
794.099	473.62
794.356	538.62
794.613	423.62
794.869	480.62
795.126	432.62
795.383	430.62
795.64	444.62
795.897	411.62
796.153	464.62
796.41	447.62
796.667	435.62
796.923	441.62
797.18	443.62
797.436	462.62
797.693	439.62
797.949	484.62
798.206	496.62
798.462	432.62
798.718	489.62
798.974	471.62
799.231	515.62
799.487	498.62
799.743	504.62
799.999	547.62
800.255	543.62
800.511	518.62
800.767	579.62
801.023	549.62
801.279	605.62
801.534	657.62
801.79	698.62
802.046	761.62
802.302	919.62
802.557	1062.62
802.813	1327.62
803.068	1669.62
803.324	2309.62
803.579	3205.62
803.835	4479.62
804.09	6063.62
804.345	7995.62
804.601	10105.62
804.856	12328.62
805.111	14189.62
805.366	15679.62
805.621	16742.62
805.876	17390.62
806.131	17982.62
806.386	18361.62
806.641	18531.62
806.896	18969.62
807.151	19294.62
807.406	19637.62
807.661	19957.62
807.915	20313.62
808.17	20631.62
808.425	20939.62
808.679	21145.62
808.934	21354.62
809.188	21568.62
809.443	21899.62
809.697	22130.62
809.951	22310.62
810.206	22619.62
810.46	22745.62
810.714	23048.62
810.968	23291.62
811.223	23431.62
811.477	23693.62
811.731	23855.62
811.985	24023.62
812.239	24062.62
812.493	24350.62
812.747	24387.62
813	24498.62
813.254	24566.62
813.508	24849.62
813.762	24769.62
814.015	25136.62
814.269	25272.62
814.522	25392.62
814.776	25777.62
815.03	26114.62
815.283	26559.62
815.536	26879.62
815.79	27407.62
816.043	27714.62
816.296	28098.62
816.55	28605.62
816.803	28905.62
817.056	29316.62
817.309	29503.62
817.562	29803.62
817.815	30051.62
818.068	30310.62
818.321	30715.62
818.574	31086.62
818.827	31516.62
819.079	31934.62
819.332	32403.62
819.585	32824.62
819.838	33373.62
820.09	33523.62
820.343	33684.62
820.595	33943.62
820.848	34077.62
821.1	34276.62
821.353	34441.62
821.605	34311.62
821.857	34318.62
822.11	34173.62
822.362	34288.62
822.614	34120.62
822.866	34178.62
823.118	34208.62
823.37	34345.62
823.622	34427.62
823.874	34594.62
824.126	34673.62
824.378	34792.62
824.63	34933.62
824.882	34892.62
825.134	34928.62
825.385	34892.62
825.637	34968.62
825.888	34735.62
826.14	34731.62
826.392	34715.62
826.643	34457.62
826.895	34349.62
827.146	34296.62
827.397	34321.62
827.649	34312.62
827.9	34250.62
828.151	34403.62
828.402	34442.62
828.653	34665.62
828.905	34650.62
829.156	34747.62
829.407	34708.62
829.658	34629.62
829.909	34740.62
830.159	34710.62
830.41	34704.62
830.661	34493.62
830.912	34284.62
831.162	34094.62
831.413	34084.62
831.664	34224.62
831.914	34183.62
832.165	34060.62
832.415	34166.62
832.666	34246.62
832.916	34235.62
833.167	34088.62
833.417	34119.62
833.667	34147.62
833.917	34067.62
834.168	33808.62
834.418	33806.62
834.668	33673.62
834.918	33581.62
835.168	33583.62
835.418	33257.62
835.668	33335.62
835.918	33024.62
836.167	33166.62
836.417	33079.62
836.667	32991.62
836.917	32906.62
837.166	33011.62
837.416	33018.62
837.666	32969.62
837.915	33009.62
838.165	32942.62
838.414	32753.62
838.663	32800.62
838.913	32784.62
839.162	32768.62
839.411	32720.62
839.661	32664.62
839.91	32459.62
840.159	32208.62
840.408	32409.62
840.657	32429.62
840.906	32467.62
841.155	32635.62
841.404	32457.62
841.653	32473.62
841.902	32517.62
842.15	32548.62
842.399	32667.62
842.648	32612.62
842.897	32400.62
843.145	32256.62
843.394	32050.62
843.642	31948.62
843.891	31789.62
844.139	31587.62
844.388	31553.62
844.636	31389.62
844.884	31532.62
845.133	31399.62
845.381	31350.62
845.629	31316.62
845.877	31212.62
846.125	31344.62
846.373	31239.62
846.621	31075.62
846.869	31087.62
847.117	30906.62
847.365	30649.62
847.613	30638.62
847.861	30475.62
848.108	30529.62
848.356	30525.62
848.604	30464.62
848.851	30435.62
849.099	30491.62
849.346	30530.62
849.594	30757.62
849.841	30847.62
850.089	30878.62
850.336	30861.62
850.583	30868.62
850.831	30752.62
851.078	30729.62
851.325	30712.62
851.572	30572.62
851.819	30371.62
852.066	29859.62
852.313	29559.62
852.56	29278.62
852.807	29240.62
853.054	29107.62
853.301	29093.62
853.548	29193.62
853.794	29287.62
854.041	29387.62
854.288	29576.62
854.534	29725.62
854.781	29694.62
855.028	29652.62
855.274	29682.62
855.52	29480.62
855.767	29262.62
856.013	29511.62
856.26	29793.62
856.506	29098.62
856.752	29035.62
856.998	29185.62
857.244	29308.62
857.49	29308.62
857.736	29487.62
857.982	29619.62
858.228	29303.62
858.474	29131.62
858.72	28944.62
858.966	28642.62
859.212	28489.62
859.458	28233.62
859.703	28026.62
859.949	27631.62
860.195	27585.62
860.44	27529.62
860.686	27391.62
860.931	27399.62
861.177	27222.62
861.422	27121.62
861.667	27034.62
861.913	26954.62
862.158	27116.62
862.403	27252.62
862.648	27250.62
862.893	27289.62
863.138	27300.62
863.384	27218.62
863.629	27191.62
863.873	27254.62
864.118	27055.62
864.363	26921.62
864.608	26910.62
864.853	26695.62
865.098	26644.62
865.342	26671.62
865.587	26613.62
865.832	26489.62
866.076	26379.62
866.321	26326.62
866.565	26397.62
866.81	26158.62
867.054	26118.62
867.298	26047.62
867.543	26041.62
867.787	26034.62
868.031	25910.62
868.275	25884.62
868.519	25821.62
868.764	25767.62
869.008	25827.62
869.252	25818.62
869.496	25698.62
869.739	25575.62
869.983	25601.62
870.227	25766.62
870.471	25656.62
870.715	25771.62
870.958	25882.62
871.202	25782.62
871.446	25868.62
871.689	25854.62
871.933	25963.62
872.176	25983.62
872.42	25826.62
872.663	25789.62
872.906	25742.62
873.15	25622.62
873.393	25505.62
873.636	25573.62
873.879	25254.62
874.122	25157.62
874.366	24698.62
874.609	24657.62
874.852	24387.62
875.095	24340.62
875.337	24213.62
875.58	24136.62
875.823	24067.62
876.066	24037.62
876.309	24053.62
876.551	23711.62
876.794	23698.62
877.037	23870.62
877.279	23597.62
877.522	23740.62
877.764	23622.62
878.007	23644.62
878.249	23547.62
878.491	23507.62
878.734	23566.62
878.976	23498.62
879.218	23253.62
879.46	23233.62
879.702	23121.62
879.945	22933.62
880.187	22706.62
880.429	22633.62
880.671	22582.62
880.912	22388.62
881.154	22304.62
881.396	22240.62
881.638	22357.62
881.88	22311.62
882.121	22242.62
882.363	22227.62
882.605	22172.62
882.846	22163.62
883.088	22181.62
883.329	22149.62
883.571	22108.62
883.812	22245.62
884.053	22538.62
884.295	22900.62
884.536	23101.62
884.777	22941.62
885.018	22983.62
885.259	22719.62
885.5	22687.62
885.742	23000.62
885.982	22576.62
886.223	22346.62
886.464	22295.62
886.705	22099.62
886.946	22032.62
887.187	21701.62
887.428	21489.62
887.668	21267.62
887.909	21040.62
888.15	20789.62
888.39	20611.62
888.631	20506.62
888.871	20295.62
889.111	20147.62
889.352	20051.62
889.592	19941.62
889.833	19757.62
890.073	19746.62
890.313	19715.62
890.553	19486.62
890.793	19501.62
891.033	19277.62
891.273	19269.62
891.513	19114.62
891.753	19198.62
891.993	19152.62
892.233	19115.62
892.473	19308.62
892.713	19322.62
892.952	19224.62
893.192	19293.62
893.432	19191.62
893.671	19226.62
893.911	19115.62
894.15	19122.62
894.39	18861.62
894.629	18811.62
894.869	18684.62
895.108	18814.62
895.347	18528.62
895.587	18628.62
895.826	18570.62
896.065	18505.62
896.304	18622.62
896.543	18427.62
896.782	18370.62
897.021	18401.62
897.26	18273.62
897.499	18383.62
897.738	18450.62
897.977	18256.62
898.216	18086.62
898.454	17974.62
898.693	17833.62
898.932	17795.62
899.17	17797.62
899.409	17745.62
899.647	17697.62
899.886	17660.62
900.124	17696.62
900.363	17720.62
900.601	17764.62
900.839	17888.62
901.078	17861.62
901.316	17949.62
901.554	17997.62
901.792	18071.62
902.03	18071.62
902.268	17964.62
902.506	18063.62
902.744	17862.62
902.982	17759.62
903.22	17499.62
903.458	17222.62
903.695	16968.62
903.933	16794.62
904.171	16526.62
904.409	16299.62
904.646	16257.62
904.884	15889.62
905.121	15792.62
905.359	15635.62
905.596	15444.62
905.833	15238.62
906.071	15213.62
906.308	15216.62
906.545	15052.62
906.783	15051.62
907.02	14986.62
907.257	14948.62
907.494	14866.62
907.731	14828.62
907.968	14784.62
908.205	14679.62
908.442	14581.62
908.679	14508.62
908.915	14457.62
909.152	14318.62
909.389	14195.62
909.626	14146.62
909.862	13975.62
910.099	13919.62
910.335	14006.62
910.572	13749.62
910.808	13836.62
911.045	13728.62
911.281	13759.62
911.518	13753.62
911.754	13614.62
911.99	13452.62
912.226	13498.62
912.463	13314.62
912.699	13234.62
912.935	13147.62
913.171	13028.62
913.407	12834.62
913.643	12905.62
913.879	12699.62
914.114	12674.62
914.35	12459.62
914.586	12422.62
914.822	12272.62
915.057	12252.62
915.293	12135.62
915.529	12098.62
915.764	12129.62
916	12068.62
916.235	12081.62
916.471	12029.62
916.706	11931.62
916.941	11901.62
917.177	11895.62
917.412	11936.62
917.647	11972.62
917.882	11930.62
918.117	11909.62
918.352	11859.62
918.588	11817.62
918.823	11711.62
919.057	11591.62
919.292	11403.62
919.527	11423.62
919.762	11242.62
919.997	11239.62
920.232	11036.62
920.466	11013.62
920.701	10856.62
920.935	10869.62
921.17	10773.62
921.405	10796.62
921.639	10733.62
921.873	10697.62
922.108	10600.62
922.342	10651.62
922.576	10450.62
922.811	10494.62
923.045	10512.62
923.279	10485.62
923.513	10317.62
923.747	10317.62
923.981	10295.62
924.215	10161.62
924.449	10095.62
924.683	10067.62
924.917	9951.62
925.151	9951.62
925.385	10000.62
925.618	9905.62
925.852	9876.62
926.086	9841.62
926.319	9846.62
926.553	9823.62
926.786	9831.62
927.02	9808.62
927.253	9851.62
927.486	9819.62
927.72	9795.62
927.953	9823.62
928.186	9678.62
928.42	9720.62
928.653	9708.62
928.886	9551.62
929.119	9597.62
929.352	9529.62
929.585	9537.62
929.818	9338.62
930.051	9350.62
930.284	9366.62
930.516	9155.62
930.749	9131.62
930.982	9097.62
931.215	9082.62
931.447	8964.62
931.68	8945.62
931.912	8907.62
932.145	8973.62
932.377	8945.62
932.61	9069.62
932.842	8867.62
933.074	8927.62
933.307	8870.62
933.539	9010.62
933.771	8958.62
934.003	8885.62
934.236	8932.62
934.468	8966.62
934.7	8895.62
934.932	8869.62
935.164	8825.62
935.395	8736.62
935.627	8781.62
935.859	8775.62
936.091	8692.62
936.323	8747.62
936.554	8733.62
936.786	8629.62
937.017	8524.62
937.249	8541.62
937.481	8494.62
937.712	8566.62
937.943	8510.62
938.175	8465.62
938.406	8530.62
938.637	8540.62
938.869	8389.62
939.1	8399.62
939.331	8360.62
939.562	8389.62
939.793	8363.62
940.024	8269.62
940.255	8374.62
940.486	8195.62
940.717	8213.62
940.948	8094.62
941.179	8123.62
941.409	8108.62
941.64	8113.62
941.871	8093.62
942.102	8110.62
942.332	8082.62
942.563	8099.62
942.793	8067.62
943.024	8016.62
943.254	8077.62
943.484	8021.62
943.715	8078.62
943.945	8023.62
944.175	7954.62
944.405	7966.62
944.636	7951.62
944.866	7941.62
945.096	7973.62
945.326	7891.62
945.556	7930.62
945.786	7936.62
946.016	7866.62
946.245	7720.62
946.475	7662.62
946.705	7690.62
946.935	7656.62
947.164	7607.62
947.394	7531.62
947.624	7523.62
947.853	7537.62
948.083	7495.62
948.312	7394.62
948.542	7303.62
948.771	7291.62
949	7361.62
949.23	7317.62
949.459	7268.62
949.688	7374.62
949.917	7280.62
950.146	7256.62
950.375	7310.62
950.604	7213.62
950.833	7301.62
951.062	7306.62
951.291	7202.62
951.52	7145.62
951.749	7176.62
951.978	7153.62
952.206	7105.62
952.435	7127.62
952.664	7158.62
952.892	7072.62
953.121	7048.62
953.349	7086.62
953.578	6998.62
953.806	6907.62
954.035	6890.62
954.263	6919.62
954.491	6800.62
954.719	6817.62
954.948	6791.62
955.176	6755.62
955.404	6644.62
955.632	6644.62
955.86	6689.62
956.088	6621.62
956.316	6614.62
956.544	6632.62
956.772	6549.62
956.999	6485.62
957.227	6507.62
957.455	6375.62
957.683	6351.62
957.91	6345.62
958.138	6313.62
958.365	6245.62
958.593	6315.62
958.82	6169.62
959.048	6299.62
959.275	6203.62
959.502	6203.62
959.73	6138.62
959.957	6165.62
960.184	6175.62
960.411	6157.62
960.638	6152.62
960.865	6106.62
961.092	6126.62
961.319	6056.62
961.546	6114.62
961.773	6071.62
962	6047.62
962.227	6094.62
962.454	6028.62
962.68	5992.62
962.907	6024.62
963.134	5935.62
963.36	5903.62
963.587	5862.62
963.813	5758.62
964.04	5856.62
964.266	5737.62
964.493	5803.62
964.719	5719.62
964.945	5723.62
965.171	5561.62
965.398	5668.62
965.624	5659.62
965.85	5529.62
966.076	5542.62
966.302	5574.62
966.528	5473.62
966.754	5492.62
966.98	5457.62
967.206	5451.62
967.431	5383.62
967.657	5447.62
967.883	5394.62
968.109	5434.62
968.334	5328.62
968.56	5312.62
968.785	5303.62
969.011	5278.62
969.236	5295.62
969.462	5221.62
969.687	5237.62
969.912	5216.62
970.138	5226.62
970.363	5152.62
970.588	5146.62
970.813	5145.62
971.038	5103.62
971.263	5087.62
971.488	5092.62
971.713	5116.62
971.938	5102.62
972.163	4950.62
972.388	5021.62
972.613	4939.62
972.838	4909.62
973.062	4930.62
973.287	4900.62
973.512	4809.62
973.736	4883.62
973.961	4800.62
974.185	4776.62
974.41	4822.62
974.634	4689.62
974.858	4665.62
975.083	4770.62
975.307	4706.62
975.531	4592.62
975.755	4573.62
975.98	4565.62
976.204	4510.62
976.428	4487.62
976.652	4466.62
976.876	4464.62
977.1	4483.62
977.324	4413.62
977.547	4414.62
977.771	4472.62
977.995	4429.62
978.219	4360.62
978.442	4435.62
978.666	4368.62
978.89	4365.62
979.113	4352.62
979.337	4354.62
979.56	4265.62
979.783	4351.62
980.007	4232.62
980.23	4276.62
980.453	4239.62
980.677	4235.62
980.9	4206.62
981.123	4129.62
981.346	4181.62
981.569	4140.62
981.792	4142.62
982.015	4093.62
982.238	4071.62
982.461	4047.62
982.684	3975.62
982.907	3899.62
983.129	3930.62
983.352	3975.62
983.575	3905.62
983.797	3911.62
984.02	3872.62
984.242	3864.62
984.465	3835.62
984.687	3901.62
984.91	3901.62
985.132	3847.62
985.354	3809.62
985.577	3784.62
985.799	3759.62
986.021	3695.62
986.243	3675.62
986.465	3682.62
986.687	3744.62
986.909	3795.62
987.131	3746.62
987.353	3677.62
987.575	3658.62
987.797	3627.62
988.019	3535.62
988.241	3596.62
988.462	3596.62
988.684	3586.62
988.906	3607.62
989.127	3587.62
989.349	3550.62
989.57	3505.62
989.792	3533.62
990.013	3564.62
990.234	3532.62
990.456	3592.62
990.677	3562.62
990.898	3462.62
991.119	3461.62
991.341	3487.62
991.562	3370.62
991.783	3393.62
992.004	3368.62
992.225	3322.62
992.446	3346.62
992.667	3254.62
992.887	3306.62
993.108	3213.62
993.329	3292.62
993.55	3242.62
993.77	3166.62
993.991	3212.62
994.212	3242.62
994.432	3171.62
994.653	3187.62
994.873	3131.62
995.093	3052.62
995.314	3106.62
995.534	3144.62
995.754	3141.62
995.975	3136.62
996.195	2969.62
996.415	3094.62
996.635	3052.62
996.855	3079.62
997.075	3065.62
997.295	3071.62
997.515	3001.62
997.735	3050.62
997.955	3028.62
998.174	3009.62
998.394	2974.62
998.614	3047.62
998.834	2965.62
999.053	2991.62
999.273	2945.62
999.492	3016.62
999.712	2921.62
999.931	2865.62
1000.151	2913.62
1000.37	2866.62
1000.589	2927.62
1000.809	2795.62
1001.028	2948.62
1001.247	2865.62
1001.466	2731.62
1001.685	2883.62
1001.904	2775.62
1002.123	2772.62
1002.342	2751.62
1002.561	2662.62
1002.78	2712.62
1002.999	2770.62
1003.218	2702.62
1003.436	2665.62
1003.655	2708.62
1003.874	2610.62
1004.092	2655.62
1004.311	2717.62
1004.53	2630.62
1004.748	2705.62
1004.966	2605.62
1005.185	2662.62
1005.403	2628.62
1005.622	2610.62
1005.84	2670.62
1006.058	2609.62
1006.276	2607.62
1006.494	3130.62
1006.712	2605.62
1006.931	2650.62
1007.149	2555.62
1007.367	2579.62
1007.584	2607.62
1007.802	2652.62
1008.02	2588.62
1008.238	2688.62
1008.456	2685.62
1008.673	2591.62
1008.891	2690.62
1009.109	2636.62
1009.326	2713.62
1009.544	2791.62
1009.761	2798.62
1009.979	2879.62
1010.196	2907.62
1010.413	3060.62
1010.631	3137.62
1010.848	3220.62
1011.065	3276.62
1011.282	3212.62
1011.5	3123.62
1011.717	3251.62
1011.934	3158.62
1012.151	3172.62
1012.368	3148.62
1012.585	3086.62
1012.801	3161.62
1013.018	3165.62
1013.235	3106.62
1013.452	3106.62
1013.669	3144.62
1013.885	3106.62
1014.102	3188.62
1014.318	3152.62
1014.535	3151.62
1014.751	3117.62
1014.968	3104.62
1015.184	3117.62
1015.401	3008.62
1015.617	3040.62
1015.833	2981.62
1016.049	2950.62
1016.266	2946.62
1016.482	2920.62
1016.698	2858.62
1016.914	2848.62
1017.13	2842.62
1017.346	2743.62
1017.562	2871.62
1017.778	2793.62
1017.993	2719.62
1018.209	2777.62
1018.425	2732.62
1018.641	2729.62
1018.856	2692.62
1019.072	2772.62
1019.288	2794.62
1019.503	2736.62
1019.719	2626.62
1019.934	2640.62
1020.149	2714.62
1020.365	2646.62
1020.58	2559.62
1020.795	2589.62
1021.011	2463.62
1021.226	2434.62
1021.441	2452.62
1021.656	2346.62
1021.871	2274.62
1022.086	2244.62
1022.301	2228.62
1022.516	2184.62
1022.731	2210.62
1022.946	2130.62
1023.16	2058.62
1023.375	2044.62
1023.59	2046.62
1023.804	1961.62
1024.019	2030.62
1024.234	1895.62
1024.448	1920.62
1024.663	1813.62
1024.877	1819.62
1025.092	1790.62
1025.306	1802.62
1025.52	1672.62
1025.734	1771.62
1025.949	1638.62
1026.163	1602.62
1026.377	1510.62
1026.591	1551.62
1026.805	1469.62
1027.019	1458.62
1027.233	1384.62
1027.447	1356.62
1027.661	1433.62
1027.875	1362.62
1028.088	1362.62
1028.302	1269.62
1028.516	1232.62
1028.73	1219.62
1028.943	1186.62
1029.157	1115.62
1029.37	1068.62
1029.584	-1.38
1029.797	0.62
1030.011	-0.38
1030.224	-4.38
