Data from QEP037381__46__15-16-55-859.txt Node

Date: Fri Dec 16 15:16:55 EST 2022
User: dcclab
Spectrometer: QEP03738
Trigger mode: 4
Integration Time (sec): 1.000000E1
Scans to average: 1
Electric dark correction enabled: true
Nonlinearity correction enabled: false
Boxcar width: 0
XAxis mode: Wavelengths
Number of Pixels in Spectrum: 1044
>>>>>Begin Spectral Data<<<<<
784.041	12.88
784.3	0.88
784.558	-4.12
784.817	-4.12
785.075	89089.88
785.334	15355.88
785.592	7261.88
785.851	5032.88
786.109	3773.88
786.368	2979.88
786.626	2377.88
786.884	2015.88
787.143	1669.88
787.401	1396.88
787.659	1258.88
787.917	1102.88
788.175	1035.88
788.433	889.88
788.691	828.88
788.949	753.88
789.207	728.88
789.465	648.88
789.723	629.88
789.98	559.88
790.238	627.88
790.496	574.88
790.753	558.88
791.011	607.88
791.268	535.88
791.526	524.88
791.783	537.88
792.041	532.88
792.298	440.88
792.556	507.88
792.813	489.88
793.07	469.88
793.327	447.88
793.584	530.88
793.841	461.88
794.099	475.88
794.356	522.88
794.613	440.88
794.869	490.88
795.126	447.88
795.383	433.88
795.64	455.88
795.897	408.88
796.153	473.88
796.41	454.88
796.667	436.88
796.923	440.88
797.18	454.88
797.436	490.88
797.693	444.88
797.949	499.88
798.206	522.88
798.462	432.88
798.718	500.88
798.974	464.88
799.231	528.88
799.487	510.88
799.743	510.88
799.999	554.88
800.255	554.88
800.511	524.88
800.767	580.88
801.023	581.88
801.279	624.88
801.534	666.88
801.79	724.88
802.046	761.88
802.302	931.88
802.557	1073.88
802.813	1342.88
803.068	1682.88
803.324	2397.88
803.579	3276.88
803.835	4536.88
804.09	6306.88
804.345	8304.88
804.601	10516.88
804.856	12765.88
805.111	14634.88
805.366	16261.88
805.621	17292.88
805.876	18077.88
806.131	18635.88
806.386	18948.88
806.641	19370.88
806.896	19618.88
807.151	20049.88
807.406	20348.88
807.661	20779.88
807.915	21253.88
808.17	21499.88
808.425	21833.88
808.679	22017.88
808.934	22389.88
809.188	22543.88
809.443	22818.88
809.697	23128.88
809.951	23323.88
810.206	23552.88
810.46	23912.88
810.714	24117.88
810.968	24478.88
811.223	24625.88
811.477	24799.88
811.731	25066.88
811.985	25131.88
812.239	25125.88
812.493	25417.88
812.747	25612.88
813	25679.88
813.254	25783.88
813.508	25964.88
813.762	26027.88
814.015	26249.88
814.269	26413.88
814.522	26753.88
814.776	27107.88
815.03	27380.88
815.283	27911.88
815.536	28283.88
815.79	28778.88
816.043	29269.88
816.296	29675.88
816.55	30104.88
816.803	30437.88
817.056	30839.88
817.309	31114.88
817.562	31416.88
817.815	31806.88
818.068	32171.88
818.321	32487.88
818.574	32841.88
818.827	33324.88
819.079	33852.88
819.332	34515.88
819.585	34810.88
819.838	35361.88
820.09	35461.88
820.343	35812.88
820.595	35959.88
820.848	36300.88
821.1	36438.88
821.353	36356.88
821.605	36545.88
821.857	36520.88
822.11	36451.88
822.362	36211.88
822.614	36232.88
822.866	36256.88
823.118	36466.88
823.37	36466.88
823.622	36413.88
823.874	36658.88
824.126	36890.88
824.378	36887.88
824.63	37022.88
824.882	37196.88
825.134	37036.88
825.385	37357.88
825.637	37103.88
825.888	36969.88
826.14	37007.88
826.392	36742.88
826.643	36521.88
826.895	36683.88
827.146	36398.88
827.397	36306.88
827.649	36415.88
827.9	36548.88
828.151	36402.88
828.402	36549.88
828.653	36682.88
828.905	36703.88
829.156	36782.88
829.407	36905.88
829.658	36937.88
829.909	36872.88
830.159	36860.88
830.41	36719.88
830.661	36589.88
830.912	36312.88
831.162	36260.88
831.413	36417.88
831.664	36298.88
831.914	36390.88
832.165	36237.88
832.415	36109.88
832.666	36219.88
832.916	36334.88
833.167	36361.88
833.417	36290.88
833.667	36190.88
833.917	36056.88
834.168	36087.88
834.418	35928.88
834.668	35682.88
834.918	35557.88
835.168	35381.88
835.418	35305.88
835.668	35446.88
835.918	35296.88
836.167	35240.88
836.417	34968.88
836.667	35166.88
836.917	35127.88
837.166	35000.88
837.416	35108.88
837.666	35063.88
837.915	34982.88
838.165	34880.88
838.414	35006.88
838.663	34813.88
838.913	34822.88
839.162	34775.88
839.411	34766.88
839.661	34684.88
839.91	34655.88
840.159	34545.88
840.408	34556.88
840.657	34626.88
840.906	34554.88
841.155	34680.88
841.404	34664.88
841.653	34721.88
841.902	34607.88
842.15	34835.88
842.399	34726.88
842.648	34623.88
842.897	34552.88
843.145	34455.88
843.394	34274.88
843.642	33997.88
843.891	33829.88
844.139	33606.88
844.388	33452.88
844.636	33406.88
844.884	33570.88
845.133	33446.88
845.381	33533.88
845.629	33452.88
845.877	33365.88
846.125	33290.88
846.373	33336.88
846.621	33210.88
846.869	33177.88
847.117	32976.88
847.365	32806.88
847.613	32709.88
847.861	32602.88
848.108	32690.88
848.356	32592.88
848.604	32516.88
848.851	32514.88
849.099	32396.88
849.346	32545.88
849.594	32765.88
849.841	33016.88
850.089	32952.88
850.336	32965.88
850.583	32856.88
850.831	32766.88
851.078	32555.88
851.325	32753.88
851.572	32807.88
851.819	32530.88
852.066	31958.88
852.313	31499.88
852.56	31178.88
852.807	31041.88
853.054	30976.88
853.301	30948.88
853.548	31035.88
853.794	31245.88
854.041	31339.88
854.288	31584.88
854.534	31750.88
854.781	31685.88
855.028	31595.88
855.274	31569.88
855.52	31408.88
855.767	31315.88
856.013	31225.88
856.26	31509.88
856.506	30909.88
856.752	30949.88
856.998	30873.88
857.244	31015.88
857.49	31168.88
857.736	31271.88
857.982	31196.88
858.228	31261.88
858.474	31011.88
858.72	30900.88
858.966	30582.88
859.212	30340.88
859.458	30015.88
859.703	29682.88
859.949	29427.88
860.195	29404.88
860.44	29246.88
860.686	29110.88
860.931	29114.88
861.177	29052.88
861.422	28965.88
861.667	28707.88
861.913	28632.88
862.158	28689.88
862.403	29017.88
862.648	28983.88
862.893	29153.88
863.138	29092.88
863.384	29085.88
863.629	29100.88
863.873	28988.88
864.118	28868.88
864.363	28813.88
864.608	28778.88
864.853	28639.88
865.098	28446.88
865.342	28366.88
865.587	28311.88
865.832	28286.88
866.076	28274.88
866.321	28211.88
866.565	28253.88
866.81	28136.88
867.054	27963.88
867.298	27886.88
867.543	27726.88
867.787	27819.88
868.031	27780.88
868.275	27703.88
868.519	27746.88
868.764	27559.88
869.008	27644.88
869.252	27703.88
869.496	27427.88
869.739	27332.88
869.983	27364.88
870.227	27372.88
870.471	27285.88
870.715	27423.88
870.958	27537.88
871.202	27655.88
871.446	27731.88
871.689	27785.88
871.933	27774.88
872.176	27782.88
872.42	27670.88
872.663	27489.88
872.906	27569.88
873.15	27353.88
873.393	27215.88
873.636	27067.88
873.879	26896.88
874.122	26643.88
874.366	26370.88
874.609	26321.88
874.852	26003.88
875.095	26008.88
875.337	25816.88
875.58	25692.88
875.823	25760.88
876.066	25673.88
876.309	25678.88
876.551	25531.88
876.794	25226.88
877.037	25305.88
877.279	25188.88
877.522	25248.88
877.764	25217.88
878.007	25137.88
878.249	25138.88
878.491	25142.88
878.734	25067.88
878.976	25122.88
879.218	24918.88
879.46	24802.88
879.702	24608.88
879.945	24381.88
880.187	24235.88
880.429	24086.88
880.671	23918.88
880.912	23872.88
881.154	24063.88
881.396	23781.88
881.638	23910.88
881.88	23880.88
882.121	23755.88
882.363	23725.88
882.605	23811.88
882.846	23704.88
883.088	23743.88
883.329	23590.88
883.571	23630.88
883.812	23707.88
884.053	23964.88
884.295	24322.88
884.536	24421.88
884.777	24437.88
885.018	24391.88
885.259	24265.88
885.5	24271.88
885.742	24448.88
885.982	24211.88
886.223	23995.88
886.464	23738.88
886.705	23718.88
886.946	23466.88
887.187	23138.88
887.428	22882.88
887.668	22631.88
887.909	22342.88
888.15	22160.88
888.39	22026.88
888.631	21887.88
888.871	21776.88
889.111	21668.88
889.352	21478.88
889.592	21391.88
889.833	21169.88
890.073	21032.88
890.313	20959.88
890.553	20788.88
890.793	20793.88
891.033	20690.88
891.273	20522.88
891.513	20492.88
891.753	20515.88
891.993	20238.88
892.233	20589.88
892.473	20652.88
892.713	20599.88
892.952	20564.88
893.192	20643.88
893.432	20591.88
893.671	20620.88
893.911	20456.88
894.15	20375.88
894.39	20316.88
894.629	20124.88
894.869	20097.88
895.108	19971.88
895.347	19866.88
895.587	19894.88
895.826	19836.88
896.065	19772.88
896.304	19918.88
896.543	19748.88
896.782	19596.88
897.021	19726.88
897.26	19599.88
897.499	19734.88
897.738	19656.88
897.977	19518.88
898.216	19429.88
898.454	19297.88
898.693	19191.88
898.932	19211.88
899.17	19088.88
899.409	18967.88
899.647	18972.88
899.886	19096.88
900.124	19115.88
900.363	19069.88
900.601	19195.88
900.839	19180.88
901.078	19159.88
901.316	19265.88
901.554	19363.88
901.792	19529.88
902.03	19583.88
902.268	19625.88
902.506	19366.88
902.744	19237.88
902.982	19227.88
903.22	18758.88
903.458	18648.88
903.695	18297.88
903.933	18081.88
904.171	17743.88
904.409	17465.88
904.646	17230.88
904.884	16980.88
905.121	16815.88
905.359	16661.88
905.596	16518.88
905.833	16310.88
906.071	16156.88
906.308	16249.88
906.545	16223.88
906.783	16072.88
907.02	16042.88
907.257	15956.88
907.494	15900.88
907.731	15980.88
907.968	15818.88
908.205	15694.88
908.442	15647.88
908.679	15659.88
908.915	15421.88
909.152	15259.88
909.389	15129.88
909.626	15115.88
909.862	14982.88
910.099	14964.88
910.335	14930.88
910.572	14777.88
910.808	14800.88
911.045	14721.88
911.281	14601.88
911.518	14615.88
911.754	14478.88
911.99	14456.88
912.226	14245.88
912.463	14190.88
912.699	14087.88
912.935	14017.88
913.171	13923.88
913.407	13786.88
913.643	13709.88
913.879	13616.88
914.114	13478.88
914.35	13328.88
914.586	13260.88
914.822	13103.88
915.057	13115.88
915.293	12948.88
915.529	12872.88
915.764	12980.88
916	13055.88
916.235	12961.88
916.471	12910.88
916.706	12835.88
916.941	12700.88
917.177	12787.88
917.412	12729.88
917.647	12739.88
917.882	12699.88
918.117	12757.88
918.352	12635.88
918.588	12642.88
918.823	12503.88
919.057	12461.88
919.292	12181.88
919.527	12218.88
919.762	12027.88
919.997	12057.88
920.232	11790.88
920.466	11796.88
920.701	11649.88
920.935	11551.88
921.17	11552.88
921.405	11430.88
921.639	11459.88
921.873	11383.88
922.108	11400.88
922.342	11274.88
922.576	11211.88
922.811	11189.88
923.045	11204.88
923.279	11269.88
923.513	10991.88
923.747	11001.88
923.981	11004.88
924.215	10896.88
924.449	10837.88
924.683	10673.88
924.917	10742.88
925.151	10700.88
925.385	10672.88
925.618	10621.88
925.852	10555.88
926.086	10482.88
926.319	10543.88
926.553	10557.88
926.786	10565.88
927.02	10503.88
927.253	10594.88
927.486	10473.88
927.72	10472.88
927.953	10490.88
928.186	10369.88
928.42	10440.88
928.653	10349.88
928.886	10207.88
929.119	10291.88
929.352	10185.88
929.585	10140.88
929.818	10067.88
930.051	10018.88
930.284	9971.88
930.516	9824.88
930.749	9745.88
930.982	9747.88
931.215	9669.88
931.447	9610.88
931.68	9635.88
931.912	9548.88
932.145	9586.88
932.377	9589.88
932.61	9708.88
932.842	9572.88
933.074	9642.88
933.307	9524.88
933.539	9631.88
933.771	9578.88
934.003	9538.88
934.236	9613.88
934.468	9604.88
934.7	9528.88
934.932	9530.88
935.164	9407.88
935.395	9455.88
935.627	9362.88
935.859	9379.88
936.091	9269.88
936.323	9305.88
936.554	9311.88
936.786	9233.88
937.017	9180.88
937.249	9105.88
937.481	9167.88
937.712	9153.88
937.943	9136.88
938.175	9106.88
938.406	9104.88
938.637	9109.88
938.869	9052.88
939.1	9071.88
939.331	8969.88
939.562	8984.88
939.793	9020.88
940.024	8977.88
940.255	8948.88
940.486	8890.88
940.717	8905.88
940.948	8764.88
941.179	8761.88
941.409	8783.88
941.64	8743.88
941.871	8686.88
942.102	8664.88
942.332	8641.88
942.563	8782.88
942.793	8708.88
943.024	8590.88
943.254	8684.88
943.484	8688.88
943.715	8646.88
943.945	8733.88
944.175	8555.88
944.405	8622.88
944.636	8596.88
944.866	8604.88
945.096	8572.88
945.326	8531.88
945.556	8560.88
945.786	8556.88
946.016	8402.88
946.245	8321.88
946.475	8278.88
946.705	8283.88
946.935	8259.88
947.164	8185.88
947.394	8172.88
947.624	8067.88
947.853	8066.88
948.083	8078.88
948.312	8032.88
948.542	7880.88
948.771	7922.88
949	7935.88
949.23	7897.88
949.459	7888.88
949.688	7904.88
949.917	7883.88
950.146	7834.88
950.375	7900.88
950.604	7798.88
950.833	7933.88
951.062	7869.88
951.291	7790.88
951.52	7750.88
951.749	7700.88
951.978	7693.88
952.206	7692.88
952.435	7660.88
952.664	7619.88
952.892	7631.88
953.121	7595.88
953.349	7545.88
953.578	7552.88
953.806	7522.88
954.035	7448.88
954.263	7401.88
954.491	7299.88
954.719	7395.88
954.948	7311.88
955.176	7308.88
955.404	7206.88
955.632	7241.88
955.86	7188.88
956.088	7110.88
956.316	7166.88
956.544	7117.88
956.772	7031.88
956.999	7037.88
957.227	7093.88
957.455	6941.88
957.683	6930.88
957.91	6845.88
958.138	6852.88
958.365	6735.88
958.593	6776.88
958.82	6727.88
959.048	6747.88
959.275	6710.88
959.502	6667.88
959.73	6675.88
959.957	6683.88
960.184	6652.88
960.411	6601.88
960.638	6655.88
960.865	6597.88
961.092	6621.88
961.319	6494.88
961.546	6602.88
961.773	6641.88
962	6569.88
962.227	6649.88
962.454	6576.88
962.68	6493.88
962.907	6516.88
963.134	6413.88
963.36	6331.88
963.587	6374.88
963.813	6323.88
964.04	6280.88
964.266	6215.88
964.493	6236.88
964.719	6197.88
964.945	6177.88
965.171	6069.88
965.398	6104.88
965.624	6101.88
965.85	6006.88
966.076	5891.88
966.302	5947.88
966.528	5894.88
966.754	5940.88
966.98	5934.88
967.206	5864.88
967.431	5786.88
967.657	5853.88
967.883	5848.88
968.109	5787.88
968.334	5709.88
968.56	5734.88
968.785	5679.88
969.011	5699.88
969.236	5712.88
969.462	5651.88
969.687	5657.88
969.912	5687.88
970.138	5663.88
970.363	5620.88
970.588	5637.88
970.813	5552.88
971.038	5508.88
971.263	5488.88
971.488	5506.88
971.713	5535.88
971.938	5431.88
972.163	5403.88
972.388	5375.88
972.613	5356.88
972.838	5431.88
973.062	5294.88
973.287	5295.88
973.512	5224.88
973.736	5246.88
973.961	5223.88
974.185	5209.88
974.41	5200.88
974.634	5096.88
974.858	5080.88
975.083	5084.88
975.307	5067.88
975.531	4997.88
975.755	4899.88
975.98	4953.88
976.204	4902.88
976.428	4869.88
976.652	4874.88
976.876	4803.88
977.1	4838.88
977.324	4765.88
977.547	4807.88
977.771	4831.88
977.995	4782.88
978.219	4748.88
978.442	4813.88
978.666	4747.88
978.89	4706.88
979.113	4646.88
979.337	4689.88
979.56	4627.88
979.783	4691.88
980.007	4601.88
980.23	4566.88
980.453	4587.88
980.677	4582.88
980.9	4578.88
981.123	4413.88
981.346	4569.88
981.569	4521.88
981.792	4486.88
982.015	4467.88
982.238	4428.88
982.461	4428.88
982.684	4315.88
982.907	4286.88
983.129	4297.88
983.352	4343.88
983.575	4294.88
983.797	4318.88
984.02	4186.88
984.242	4186.88
984.465	4152.88
984.687	4218.88
984.91	4216.88
985.132	4135.88
985.354	4169.88
985.577	4081.88
985.799	4104.88
986.021	4011.88
986.243	4024.88
986.465	3996.88
986.687	4024.88
986.909	4018.88
987.131	3972.88
987.353	3947.88
987.575	3982.88
987.797	3952.88
988.019	3860.88
988.241	3913.88
988.462	3835.88
988.684	3884.88
988.906	3903.88
989.127	3905.88
989.349	3807.88
989.57	3809.88
989.792	3906.88
990.013	3899.88
990.234	3854.88
990.456	3882.88
990.677	3814.88
990.898	3732.88
991.119	3745.88
991.341	3700.88
991.562	3667.88
991.783	3694.88
992.004	3621.88
992.225	3571.88
992.446	3639.88
992.667	3494.88
992.887	3574.88
993.108	3439.88
993.329	3608.88
993.55	3557.88
993.77	3430.88
993.991	3438.88
994.212	3440.88
994.432	3441.88
994.653	3405.88
994.873	3401.88
995.093	3294.88
995.314	3340.88
995.534	3369.88
995.754	3398.88
995.975	3356.88
996.195	3306.88
996.415	3354.88
996.635	3308.88
996.855	3282.88
997.075	3259.88
997.295	3259.88
997.515	3243.88
997.735	3255.88
997.955	3290.88
998.174	3238.88
998.394	3193.88
998.614	3228.88
998.834	3212.88
999.053	3241.88
999.273	3209.88
999.492	3231.88
999.712	3152.88
999.931	3129.88
1000.151	3144.88
1000.37	3154.88
1000.589	3176.88
1000.809	3055.88
1001.028	3165.88
1001.247	3092.88
1001.466	2984.88
1001.685	3066.88
1001.904	3020.88
1002.123	3000.88
1002.342	2964.88
1002.561	2949.88
1002.78	2970.88
1002.999	3004.88
1003.218	2901.88
1003.436	2938.88
1003.655	2920.88
1003.874	2867.88
1004.092	2872.88
1004.311	2886.88
1004.53	2831.88
1004.748	2906.88
1004.966	2816.88
1005.185	2891.88
1005.403	2891.88
1005.622	2812.88
1005.84	2909.88
1006.058	2805.88
1006.276	2773.88
1006.494	3264.88
1006.712	2794.88
1006.931	2842.88
1007.149	2761.88
1007.367	2764.88
1007.584	2840.88
1007.802	2850.88
1008.02	2757.88
1008.238	2911.88
1008.456	2908.88
1008.673	2748.88
1008.891	2878.88
1009.109	2811.88
1009.326	2893.88
1009.544	3021.88
1009.761	2929.88
1009.979	3026.88
1010.196	3079.88
1010.413	3201.88
1010.631	3313.88
1010.848	3342.88
1011.065	3394.88
1011.282	3388.88
1011.5	3305.88
1011.717	3364.88
1011.934	3366.88
1012.151	3379.88
1012.368	3301.88
1012.585	3329.88
1012.801	3369.88
1013.018	3306.88
1013.235	3343.88
1013.452	3335.88
1013.669	3352.88
1013.885	3325.88
1014.102	3391.88
1014.318	3347.88
1014.535	3301.88
1014.751	3308.88
1014.968	3365.88
1015.184	3321.88
1015.401	3253.88
1015.617	3273.88
1015.833	3147.88
1016.049	3165.88
1016.266	3175.88
1016.482	3198.88
1016.698	3081.88
1016.914	3153.88
1017.13	3078.88
1017.346	3059.88
1017.562	3120.88
1017.778	3055.88
1017.993	3023.88
1018.209	3088.88
1018.425	3058.88
1018.641	3005.88
1018.856	3053.88
1019.072	3022.88
1019.288	3108.88
1019.503	3020.88
1019.719	2932.88
1019.934	2964.88
1020.149	3034.88
1020.365	2999.88
1020.58	2907.88
1020.795	2939.88
1021.011	2806.88
1021.226	2738.88
1021.441	2770.88
1021.656	2656.88
1021.871	2548.88
1022.086	2535.88
1022.301	2458.88
1022.516	2433.88
1022.731	2486.88
1022.946	2402.88
1023.16	2315.88
1023.375	2290.88
1023.59	2276.88
1023.804	2212.88
1024.019	2265.88
1024.234	2139.88
1024.448	2128.88
1024.663	2027.88
1024.877	1996.88
1025.092	2008.88
1025.306	2009.88
1025.52	1885.88
1025.734	1933.88
1025.949	1839.88
1026.163	1765.88
1026.377	1683.88
1026.591	1754.88
1026.805	1657.88
1027.019	1615.88
1027.233	1555.88
1027.447	1519.88
1027.661	1578.88
1027.875	1512.88
1028.088	1491.88
1028.302	1401.88
1028.516	1386.88
1028.73	1335.88
1028.943	1316.88
1029.157	1238.88
1029.37	1169.88
1029.584	-1.12
1029.797	-0.12
1030.011	-4.12
1030.224	-0.12
