Data from QEP037381__58__15-18-55-860.txt Node

Date: Fri Dec 16 15:18:55 EST 2022
User: dcclab
Spectrometer: QEP03738
Trigger mode: 4
Integration Time (sec): 1.000000E1
Scans to average: 1
Electric dark correction enabled: true
Nonlinearity correction enabled: false
Boxcar width: 0
XAxis mode: Wavelengths
Number of Pixels in Spectrum: 1044
>>>>>Begin Spectral Data<<<<<
784.041	11.5
784.3	-0.5
784.558	-3.5
784.817	-1.5
785.075	89187.5
785.334	15381.5
785.592	7160.5
785.851	4990.5
786.109	3721.5
786.368	2914.5
786.626	2354.5
786.884	1980.5
787.143	1634.5
787.401	1377.5
787.659	1252.5
787.917	1061.5
788.175	1013.5
788.433	895.5
788.691	787.5
788.949	743.5
789.207	730.5
789.465	623.5
789.723	596.5
789.98	555.5
790.238	609.5
790.496	557.5
790.753	546.5
791.011	588.5
791.268	530.5
791.526	512.5
791.783	524.5
792.041	523.5
792.298	436.5
792.556	495.5
792.813	468.5
793.07	454.5
793.327	432.5
793.584	531.5
793.841	453.5
794.099	474.5
794.356	519.5
794.613	422.5
794.869	459.5
795.126	435.5
795.383	415.5
795.64	428.5
795.897	384.5
796.153	456.5
796.41	425.5
796.667	398.5
796.923	430.5
797.18	432.5
797.436	446.5
797.693	421.5
797.949	474.5
798.206	494.5
798.462	404.5
798.718	467.5
798.974	452.5
799.231	475.5
799.487	478.5
799.743	486.5
799.999	525.5
800.255	511.5
800.511	492.5
800.767	533.5
801.023	525.5
801.279	552.5
801.534	598.5
801.79	651.5
802.046	680.5
802.302	822.5
802.557	908.5
802.813	1154.5
803.068	1383.5
803.324	1917.5
803.579	2595.5
803.835	3589.5
804.09	4929.5
804.345	6531.5
804.601	8269.5
804.856	10029.5
805.111	11598.5
805.366	12891.5
805.621	13812.5
805.876	14348.5
806.131	14793.5
806.386	15076.5
806.641	15276.5
806.896	15597.5
807.151	15921.5
807.406	16130.5
807.661	16528.5
807.915	16806.5
808.17	17018.5
808.425	17299.5
808.679	17392.5
808.934	17661.5
809.188	17873.5
809.443	18063.5
809.697	18287.5
809.951	18457.5
810.206	18569.5
810.46	18772.5
810.714	18988.5
810.968	19196.5
811.223	19339.5
811.477	19486.5
811.731	19591.5
811.985	19790.5
812.239	19786.5
812.493	19988.5
812.747	20073.5
813	20174.5
813.254	20181.5
813.508	20325.5
813.762	20450.5
814.015	20457.5
814.269	20706.5
814.522	20837.5
814.776	21154.5
815.03	21381.5
815.283	21655.5
815.536	22100.5
815.79	22391.5
816.043	22806.5
816.296	23147.5
816.55	23388.5
816.803	23551.5
817.056	24024.5
817.309	24023.5
817.562	24442.5
817.815	24650.5
818.068	25000.5
818.321	25173.5
818.574	25522.5
818.827	25727.5
819.079	26003.5
819.332	26510.5
819.585	26854.5
819.838	27105.5
820.09	27268.5
820.343	27643.5
820.595	27715.5
820.848	27918.5
821.1	28109.5
821.353	28022.5
821.605	28100.5
821.857	27953.5
822.11	27858.5
822.362	27900.5
822.614	27952.5
822.866	27779.5
823.118	27733.5
823.37	28039.5
823.622	28007.5
823.874	28134.5
824.126	28218.5
824.378	28177.5
824.63	28355.5
824.882	28374.5
825.134	28330.5
825.385	28333.5
825.637	28304.5
825.888	28121.5
826.14	28121.5
826.392	28027.5
826.643	27807.5
826.895	27860.5
827.146	27680.5
827.397	27685.5
827.649	27703.5
827.9	27616.5
828.151	27752.5
828.402	27750.5
828.653	27928.5
828.905	27831.5
829.156	27910.5
829.407	27829.5
829.658	28024.5
829.909	28093.5
830.159	28141.5
830.41	28017.5
830.661	27613.5
830.912	27621.5
831.162	27521.5
831.413	27555.5
831.664	27452.5
831.914	27367.5
832.165	27361.5
832.415	27376.5
832.666	27450.5
832.916	27411.5
833.167	27369.5
833.417	27434.5
833.667	27202.5
833.917	27214.5
834.168	27139.5
834.418	27119.5
834.668	26980.5
834.918	26799.5
835.168	26759.5
835.418	26526.5
835.668	26594.5
835.918	26572.5
836.167	26485.5
836.417	26342.5
836.667	26255.5
836.917	26386.5
837.166	26400.5
837.416	26321.5
837.666	26411.5
837.915	26335.5
838.165	26233.5
838.414	26165.5
838.663	26198.5
838.913	26120.5
839.162	25991.5
839.411	26140.5
839.661	25784.5
839.91	25851.5
840.159	25680.5
840.408	25858.5
840.657	25817.5
840.906	25814.5
841.155	25945.5
841.404	25724.5
841.653	25838.5
841.902	25770.5
842.15	25942.5
842.399	25884.5
842.648	25878.5
842.897	25824.5
843.145	25597.5
843.394	25471.5
843.642	25212.5
843.891	25255.5
844.139	25079.5
844.388	24908.5
844.636	24732.5
844.884	24866.5
845.133	24793.5
845.381	24707.5
845.629	24833.5
845.877	24757.5
846.125	24706.5
846.373	24643.5
846.621	24681.5
846.869	24564.5
847.117	24368.5
847.365	24286.5
847.613	24175.5
847.861	24087.5
848.108	24072.5
848.356	23972.5
848.604	23907.5
848.851	23882.5
849.099	24042.5
849.346	23942.5
849.594	24129.5
849.841	24319.5
850.089	24271.5
850.336	24267.5
850.583	24260.5
850.831	24155.5
851.078	24066.5
851.325	24147.5
851.572	24348.5
851.819	23985.5
852.066	23446.5
852.313	23164.5
852.56	23061.5
852.807	22915.5
853.054	22635.5
853.301	22805.5
853.548	22883.5
853.794	23033.5
854.041	23098.5
854.288	23133.5
854.534	23402.5
854.781	23280.5
855.028	23234.5
855.274	23268.5
855.52	23069.5
855.767	22933.5
856.013	22988.5
856.26	23295.5
856.506	22684.5
856.752	22798.5
856.998	22771.5
857.244	22797.5
857.49	22922.5
857.736	22983.5
857.982	23135.5
858.228	22903.5
858.474	22700.5
858.72	22549.5
858.966	22434.5
859.212	22296.5
859.458	21940.5
859.703	21795.5
859.949	21493.5
860.195	21451.5
860.44	21409.5
860.686	21343.5
860.931	21256.5
861.177	21091.5
861.422	21009.5
861.667	20975.5
861.913	20924.5
862.158	20982.5
862.403	21051.5
862.648	21156.5
862.893	21087.5
863.138	21022.5
863.384	21016.5
863.629	21044.5
863.873	20947.5
864.118	20889.5
864.363	20759.5
864.608	20911.5
864.853	20771.5
865.098	20561.5
865.342	20505.5
865.587	20403.5
865.832	20497.5
866.076	20480.5
866.321	20395.5
866.565	20242.5
866.81	20176.5
867.054	20276.5
867.298	20052.5
867.543	20084.5
867.787	20094.5
868.031	19988.5
868.275	19939.5
868.519	19975.5
868.764	19928.5
869.008	19903.5
869.252	19895.5
869.496	19807.5
869.739	19823.5
869.983	19782.5
870.227	19731.5
870.471	19761.5
870.715	19911.5
870.958	19860.5
871.202	19903.5
871.446	19931.5
871.689	19934.5
871.933	20014.5
872.176	19971.5
872.42	19941.5
872.663	19862.5
872.906	19875.5
873.15	19764.5
873.393	19739.5
873.636	19718.5
873.879	19531.5
874.122	19312.5
874.366	18986.5
874.609	18936.5
874.852	18795.5
875.095	18678.5
875.337	18555.5
875.58	18443.5
875.823	18549.5
876.066	18479.5
876.309	18444.5
876.551	18178.5
876.794	18175.5
877.037	18093.5
877.279	18007.5
877.522	18166.5
877.764	18198.5
878.007	18006.5
878.249	18060.5
878.491	17928.5
878.734	17962.5
878.976	17897.5
879.218	17740.5
879.46	17654.5
879.702	17570.5
879.945	17454.5
880.187	17226.5
880.429	17246.5
880.671	17166.5
880.912	17067.5
881.154	16919.5
881.396	16919.5
881.638	16999.5
881.88	17005.5
882.121	16936.5
882.363	16867.5
882.605	16888.5
882.846	16860.5
883.088	16873.5
883.329	16836.5
883.571	16856.5
883.812	17034.5
884.053	17272.5
884.295	17736.5
884.536	17867.5
884.777	17789.5
885.018	17694.5
885.259	17541.5
885.5	17514.5
885.742	17698.5
885.982	17449.5
886.223	17170.5
886.464	17152.5
886.705	16936.5
886.946	16713.5
887.187	16446.5
887.428	16319.5
887.668	16086.5
887.909	15859.5
888.15	15718.5
888.39	15665.5
888.631	15502.5
888.871	15375.5
889.111	15304.5
889.352	15124.5
889.592	15004.5
889.833	14865.5
890.073	14812.5
890.313	14890.5
890.553	14637.5
890.793	14539.5
891.033	14552.5
891.273	14509.5
891.513	14403.5
891.753	14428.5
891.993	14441.5
892.233	14430.5
892.473	14543.5
892.713	14374.5
892.952	14362.5
893.192	14558.5
893.432	14422.5
893.671	14476.5
893.911	14337.5
894.15	14304.5
894.39	14172.5
894.629	14119.5
894.869	14029.5
895.108	14008.5
895.347	14007.5
895.587	13903.5
895.826	13940.5
896.065	13905.5
896.304	13928.5
896.543	13912.5
896.782	13810.5
897.021	13834.5
897.26	13927.5
897.499	13931.5
897.738	13816.5
897.977	13779.5
898.216	13736.5
898.454	13570.5
898.693	13544.5
898.932	13371.5
899.17	13406.5
899.409	13355.5
899.647	13412.5
899.886	13304.5
900.124	13442.5
900.363	13401.5
900.601	13413.5
900.839	13439.5
901.078	13515.5
901.316	13645.5
901.554	13542.5
901.792	13703.5
902.03	13673.5
902.268	13643.5
902.506	13712.5
902.744	13534.5
902.982	13539.5
903.22	13231.5
903.458	13007.5
903.695	12837.5
903.933	12643.5
904.171	12319.5
904.409	12232.5
904.646	12088.5
904.884	11917.5
905.121	11778.5
905.359	11571.5
905.596	11532.5
905.833	11392.5
906.071	11313.5
906.308	11419.5
906.545	11321.5
906.783	11179.5
907.02	11150.5
907.257	11033.5
907.494	11051.5
907.731	11020.5
907.968	10991.5
908.205	10815.5
908.442	10742.5
908.679	10752.5
908.915	10658.5
909.152	10607.5
909.389	10463.5
909.626	10359.5
909.862	10363.5
910.099	10377.5
910.335	10319.5
910.572	10161.5
910.808	10214.5
911.045	10136.5
911.281	10045.5
911.518	10171.5
911.754	9967.5
911.99	9964.5
912.226	9880.5
912.463	9767.5
912.699	9663.5
912.935	9696.5
913.171	9569.5
913.407	9524.5
913.643	9439.5
913.879	9359.5
914.114	9257.5
914.35	9214.5
914.586	9165.5
914.822	9011.5
915.057	9080.5
915.293	8893.5
915.529	8876.5
915.764	8889.5
916	8859.5
916.235	8862.5
916.471	8820.5
916.706	8753.5
916.941	8765.5
917.177	8752.5
917.412	8774.5
917.647	8697.5
917.882	8645.5
918.117	8744.5
918.352	8683.5
918.588	8687.5
918.823	8563.5
919.057	8479.5
919.292	8306.5
919.527	8421.5
919.762	8241.5
919.997	8258.5
920.232	8120.5
920.466	8056.5
920.701	7904.5
920.935	7890.5
921.17	7869.5
921.405	7833.5
921.639	7816.5
921.873	7736.5
922.108	7753.5
922.342	7806.5
922.576	7642.5
922.811	7551.5
923.045	7704.5
923.279	7652.5
923.513	7545.5
923.747	7571.5
923.981	7478.5
924.215	7454.5
924.449	7355.5
924.683	7273.5
924.917	7340.5
925.151	7321.5
925.385	7341.5
925.618	7273.5
925.852	7191.5
926.086	7160.5
926.319	7169.5
926.553	7202.5
926.786	7172.5
927.02	7153.5
927.253	7176.5
927.486	7202.5
927.72	7108.5
927.953	7105.5
928.186	7087.5
928.42	7129.5
928.653	6979.5
928.886	6940.5
929.119	7039.5
929.352	6922.5
929.585	6878.5
929.818	6823.5
930.051	6779.5
930.284	6797.5
930.516	6644.5
930.749	6588.5
930.982	6624.5
931.215	6566.5
931.447	6494.5
931.68	6514.5
931.912	6509.5
932.145	6478.5
932.377	6540.5
932.61	6626.5
932.842	6467.5
933.074	6441.5
933.307	6449.5
933.539	6528.5
933.771	6496.5
934.003	6453.5
934.236	6513.5
934.468	6465.5
934.7	6393.5
934.932	6435.5
935.164	6369.5
935.395	6383.5
935.627	6351.5
935.859	6332.5
936.091	6331.5
936.323	6318.5
936.554	6374.5
936.786	6244.5
937.017	6189.5
937.249	6225.5
937.481	6109.5
937.712	6228.5
937.943	6140.5
938.175	6142.5
938.406	6160.5
938.637	6164.5
938.869	6081.5
939.1	6072.5
939.331	6075.5
939.562	6053.5
939.793	6038.5
940.024	6035.5
940.255	6065.5
940.486	5969.5
940.717	5948.5
940.948	5906.5
941.179	5845.5
941.409	5883.5
941.64	5825.5
941.871	5841.5
942.102	5808.5
942.332	5846.5
942.563	5847.5
942.793	5845.5
943.024	5791.5
943.254	5781.5
943.484	5841.5
943.715	5879.5
943.945	5787.5
944.175	5702.5
944.405	5717.5
944.636	5684.5
944.866	5759.5
945.096	5720.5
945.326	5626.5
945.556	5714.5
945.786	5707.5
946.016	5644.5
946.245	5542.5
946.475	5519.5
946.705	5561.5
946.935	5501.5
947.164	5429.5
947.394	5406.5
947.624	5377.5
947.853	5404.5
948.083	5357.5
948.312	5353.5
948.542	5260.5
948.771	5225.5
949	5220.5
949.23	5229.5
949.459	5213.5
949.688	5311.5
949.917	5249.5
950.146	5241.5
950.375	5293.5
950.604	5172.5
950.833	5232.5
951.062	5225.5
951.291	5162.5
951.52	5116.5
951.749	5095.5
951.978	5101.5
952.206	5085.5
952.435	5087.5
952.664	5075.5
952.892	5099.5
953.121	5023.5
953.349	5039.5
953.578	5035.5
953.806	4981.5
954.035	4922.5
954.263	4943.5
954.491	4901.5
954.719	4869.5
954.948	4818.5
955.176	4777.5
955.404	4740.5
955.632	4782.5
955.86	4785.5
956.088	4719.5
956.316	4759.5
956.544	4743.5
956.772	4646.5
956.999	4587.5
957.227	4723.5
957.455	4583.5
957.683	4567.5
957.91	4482.5
958.138	4516.5
958.365	4451.5
958.593	4458.5
958.82	4426.5
959.048	4471.5
959.275	4397.5
959.502	4410.5
959.73	4367.5
959.957	4374.5
960.184	4442.5
960.411	4336.5
960.638	4366.5
960.865	4355.5
961.092	4372.5
961.319	4262.5
961.546	4394.5
961.773	4355.5
962	4287.5
962.227	4347.5
962.454	4271.5
962.68	4263.5
962.907	4313.5
963.134	4209.5
963.36	4211.5
963.587	4196.5
963.813	4095.5
964.04	4109.5
964.266	4027.5
964.493	4139.5
964.719	4090.5
964.945	4080.5
965.171	4009.5
965.398	4042.5
965.624	4068.5
965.85	3931.5
966.076	3872.5
966.302	4001.5
966.528	3910.5
966.754	3922.5
966.98	3907.5
967.206	3851.5
967.431	3827.5
967.657	3867.5
967.883	3865.5
968.109	3909.5
968.334	3826.5
968.56	3751.5
968.785	3770.5
969.011	3728.5
969.236	3797.5
969.462	3701.5
969.687	3723.5
969.912	3738.5
970.138	3773.5
970.363	3671.5
970.588	3690.5
970.813	3660.5
971.038	3621.5
971.263	3653.5
971.488	3634.5
971.713	3682.5
971.938	3626.5
972.163	3552.5
972.388	3533.5
972.613	3514.5
972.838	3549.5
973.062	3512.5
973.287	3492.5
973.512	3423.5
973.736	3499.5
973.961	3464.5
974.185	3416.5
974.41	3445.5
974.634	3363.5
974.858	3324.5
975.083	3404.5
975.307	3404.5
975.531	3301.5
975.755	3250.5
975.98	3244.5
976.204	3201.5
976.428	3164.5
976.652	3184.5
976.876	3159.5
977.1	3165.5
977.324	3129.5
977.547	3161.5
977.771	3218.5
977.995	3142.5
978.219	3054.5
978.442	3188.5
978.666	3102.5
978.89	3097.5
979.113	3083.5
979.337	3080.5
979.56	3063.5
979.783	3129.5
980.007	3038.5
980.23	3016.5
980.453	3009.5
980.677	3037.5
980.9	2984.5
981.123	2904.5
981.346	3026.5
981.569	2939.5
981.792	2959.5
982.015	2914.5
982.238	2911.5
982.461	2910.5
982.684	2889.5
982.907	3393.5
983.129	2917.5
983.352	2838.5
983.575	2834.5
983.797	2843.5
984.02	2739.5
984.242	2764.5
984.465	2773.5
984.687	2762.5
984.91	2783.5
985.132	2743.5
985.354	2770.5
985.577	2760.5
985.799	2719.5
986.021	2650.5
986.243	2654.5
986.465	2656.5
986.687	2700.5
986.909	2764.5
987.131	2654.5
987.353	2611.5
987.575	2630.5
987.797	2616.5
988.019	2547.5
988.241	2596.5
988.462	2550.5
988.684	2606.5
988.906	2605.5
989.127	2635.5
989.349	2520.5
989.57	2545.5
989.792	2558.5
990.013	2573.5
990.234	2570.5
990.456	2620.5
990.677	2593.5
990.898	2488.5
991.119	2498.5
991.341	2497.5
991.562	2457.5
991.783	2475.5
992.004	2414.5
992.225	2375.5
992.446	2406.5
992.667	2357.5
992.887	2403.5
993.108	2283.5
993.329	2432.5
993.55	2400.5
993.77	2313.5
993.991	2273.5
994.212	2341.5
994.432	2314.5
994.653	2336.5
994.873	2310.5
995.093	2171.5
995.314	2242.5
995.534	2307.5
995.754	2336.5
995.975	2360.5
996.195	2194.5
996.415	2246.5
996.635	2236.5
996.855	2235.5
997.075	2244.5
997.295	2252.5
997.515	2188.5
997.735	2272.5
997.955	2246.5
998.174	2183.5
998.394	2174.5
998.614	2255.5
998.834	2183.5
999.053	2242.5
999.273	2217.5
999.492	2228.5
999.712	2174.5
999.931	2126.5
1000.151	2143.5
1000.37	2139.5
1000.589	2191.5
1000.809	2094.5
1001.028	2211.5
1001.247	2137.5
1001.466	2057.5
1001.685	2154.5
1001.904	2126.5
1002.123	2097.5
1002.342	2088.5
1002.561	2033.5
1002.78	2086.5
1002.999	2141.5
1003.218	2032.5
1003.436	2002.5
1003.655	2042.5
1003.874	2017.5
1004.092	1996.5
1004.311	2045.5
1004.53	2001.5
1004.748	2034.5
1004.966	1985.5
1005.185	2039.5
1005.403	2007.5
1005.622	1980.5
1005.84	2076.5
1006.058	1977.5
1006.276	2001.5
1006.494	2460.5
1006.712	1968.5
1006.931	2054.5
1007.149	1957.5
1007.367	1972.5
1007.584	2015.5
1007.802	2056.5
1008.02	2007.5
1008.238	2128.5
1008.456	2102.5
1008.673	1963.5
1008.891	2139.5
1009.109	2099.5
1009.326	2140.5
1009.544	2246.5
1009.761	2181.5
1009.979	2299.5
1010.196	2305.5
1010.413	2492.5
1010.631	2536.5
1010.848	2614.5
1011.065	2647.5
1011.282	2550.5
1011.5	2503.5
1011.717	2640.5
1011.934	2579.5
1012.151	2569.5
1012.368	2538.5
1012.585	2510.5
1012.801	2570.5
1013.018	2528.5
1013.235	2531.5
1013.452	2557.5
1013.669	2557.5
1013.885	2538.5
1014.102	2591.5
1014.318	2559.5
1014.535	2516.5
1014.751	2529.5
1014.968	2521.5
1015.184	2562.5
1015.401	2462.5
1015.617	2515.5
1015.833	2421.5
1016.049	2414.5
1016.266	2379.5
1016.482	2407.5
1016.698	2332.5
1016.914	2373.5
1017.13	2299.5
1017.346	2292.5
1017.562	2337.5
1017.778	2267.5
1017.993	2255.5
1018.209	2323.5
1018.425	2269.5
1018.641	2262.5
1018.856	2217.5
1019.072	2254.5
1019.288	2299.5
1019.503	2245.5
1019.719	2159.5
1019.934	2189.5
1020.149	2242.5
1020.365	2181.5
1020.58	2110.5
1020.795	2142.5
1021.011	2070.5
1021.226	2015.5
1021.441	2005.5
1021.656	1905.5
1021.871	1836.5
1022.086	1832.5
1022.301	1796.5
1022.516	1813.5
1022.731	1829.5
1022.946	1746.5
1023.16	1721.5
1023.375	1670.5
1023.59	1662.5
1023.804	1572.5
1024.019	1698.5
1024.234	1547.5
1024.448	1556.5
1024.663	1455.5
1024.877	1476.5
1025.092	1477.5
1025.306	1453.5
1025.52	1366.5
1025.734	1459.5
1025.949	1343.5
1026.163	1287.5
1026.377	1228.5
1026.591	1276.5
1026.805	1216.5
1027.019	1188.5
1027.233	1129.5
1027.447	1093.5
1027.661	1179.5
1027.875	1108.5
1028.088	1113.5
1028.302	1021.5
1028.516	1016.5
1028.73	987.5
1028.943	989.5
1029.157	926.5
1029.37	872.5
1029.584	-2.5
1029.797	-1.5
1030.011	-0.5
1030.224	-1.5
