Data from QEP037381__113__15-28-05-868.txt Node

Date: Fri Dec 16 15:28:05 EST 2022
User: dcclab
Spectrometer: QEP03738
Trigger mode: 4
Integration Time (sec): 1.000000E1
Scans to average: 1
Electric dark correction enabled: true
Nonlinearity correction enabled: false
Boxcar width: 0
XAxis mode: Wavelengths
Number of Pixels in Spectrum: 1044
>>>>>Begin Spectral Data<<<<<
784.041	11.25
784.3	-0.75
784.558	0.25
784.817	-0.75
785.075	92058.25
785.334	16090.25
785.592	7631.25
785.851	5291.25
786.109	3957.25
786.368	3078.25
786.626	2501.25
786.884	2100.25
787.143	1737.25
787.401	1478.25
787.659	1347.25
787.917	1122.25
788.175	1029.25
788.433	906.25
788.691	821.25
788.949	761.25
789.207	747.25
789.465	646.25
789.723	629.25
789.98	563.25
790.238	605.25
790.496	552.25
790.753	566.25
791.011	609.25
791.268	522.25
791.526	521.25
791.783	532.25
792.041	520.25
792.298	430.25
792.556	490.25
792.813	466.25
793.07	455.25
793.327	457.25
793.584	525.25
793.841	462.25
794.099	467.25
794.356	522.25
794.613	435.25
794.869	478.25
795.126	427.25
795.383	432.25
795.64	437.25
795.897	398.25
796.153	444.25
796.41	439.25
796.667	438.25
796.923	430.25
797.18	425.25
797.436	467.25
797.693	408.25
797.949	486.25
798.206	494.25
798.462	419.25
798.718	482.25
798.974	462.25
799.231	491.25
799.487	489.25
799.743	486.25
799.999	511.25
800.255	525.25
800.511	511.25
800.767	549.25
801.023	534.25
801.279	564.25
801.534	625.25
801.79	678.25
802.046	705.25
802.302	866.25
802.557	984.25
802.813	1230.25
803.068	1537.25
803.324	2061.25
803.579	2876.25
803.835	3942.25
804.09	5465.25
804.345	7146.25
804.601	9094.25
804.856	11074.25
805.111	12814.25
805.366	14185.25
805.621	15120.25
805.876	15774.25
806.131	16224.25
806.386	16558.25
806.641	16781.25
806.896	17120.25
807.151	17588.25
807.406	17782.25
807.661	18032.25
807.915	18403.25
808.17	18638.25
808.425	18844.25
808.679	19065.25
808.934	19279.25
809.188	19431.25
809.443	19784.25
809.697	20081.25
809.951	20081.25
810.206	20419.25
810.46	20623.25
810.714	20813.25
810.968	21047.25
811.223	21086.25
811.477	21380.25
811.731	21587.25
811.985	21687.25
812.239	21873.25
812.493	22000.25
812.747	22037.25
813	22174.25
813.254	22308.25
813.508	22329.25
813.762	22439.25
814.015	22589.25
814.269	22690.25
814.522	22918.25
814.776	23135.25
815.03	23590.25
815.283	23960.25
815.536	24175.25
815.79	24677.25
816.043	25077.25
816.296	25365.25
816.55	25793.25
816.803	26072.25
817.056	26297.25
817.309	26594.25
817.562	26892.25
817.815	27171.25
818.068	27251.25
818.321	27705.25
818.574	27995.25
818.827	28289.25
819.079	28730.25
819.332	29235.25
819.585	29588.25
819.838	29989.25
820.09	30179.25
820.343	30414.25
820.595	30507.25
820.848	30776.25
821.1	30851.25
821.353	31039.25
821.605	31005.25
821.857	30961.25
822.11	30720.25
822.362	30865.25
822.614	30822.25
822.866	30779.25
823.118	30696.25
823.37	30767.25
823.622	30915.25
823.874	31136.25
824.126	31310.25
824.378	31215.25
824.63	31425.25
824.882	31417.25
825.134	31352.25
825.385	31431.25
825.637	31337.25
825.888	31148.25
826.14	31166.25
826.392	31043.25
826.643	30856.25
826.895	30828.25
827.146	30676.25
827.397	30747.25
827.649	30801.25
827.9	30667.25
828.151	30716.25
828.402	30905.25
828.653	31037.25
828.905	31087.25
829.156	31034.25
829.407	30913.25
829.658	31002.25
829.909	31063.25
830.159	31115.25
830.41	31013.25
830.661	30805.25
830.912	30625.25
831.162	30602.25
831.413	30525.25
831.664	30526.25
831.914	30459.25
832.165	30560.25
832.415	30451.25
832.666	30397.25
832.916	30531.25
833.167	30536.25
833.417	30588.25
833.667	30464.25
833.917	30302.25
834.168	30360.25
834.418	30183.25
834.668	30102.25
834.918	30011.25
835.168	29991.25
835.418	29766.25
835.668	29771.25
835.918	29545.25
836.167	29614.25
836.417	29525.25
836.667	29531.25
836.917	29571.25
837.166	29500.25
837.416	29614.25
837.666	29415.25
837.915	29457.25
838.165	29367.25
838.414	29395.25
838.663	29273.25
838.913	29270.25
839.162	29299.25
839.411	29344.25
839.661	29081.25
839.91	29053.25
840.159	28930.25
840.408	29149.25
840.657	29136.25
840.906	29121.25
841.155	29085.25
841.404	28936.25
841.653	29078.25
841.902	29004.25
842.15	29043.25
842.399	29079.25
842.648	29100.25
842.897	29114.25
843.145	28799.25
843.394	28677.25
843.642	28505.25
843.891	28495.25
844.139	28251.25
844.388	28019.25
844.636	27968.25
844.884	27952.25
845.133	27894.25
845.381	27819.25
845.629	28067.25
845.877	27899.25
846.125	27903.25
846.373	27839.25
846.621	27701.25
846.869	27754.25
847.117	27619.25
847.365	27288.25
847.613	27259.25
847.861	27309.25
848.108	27162.25
848.356	27073.25
848.604	27019.25
848.851	27072.25
849.099	27161.25
849.346	27203.25
849.594	27324.25
849.841	27461.25
850.089	27480.25
850.336	27506.25
850.583	27394.25
850.831	27286.25
851.078	27155.25
851.325	27247.25
851.572	27352.25
851.819	27171.25
852.066	26626.25
852.313	26222.25
852.56	26102.25
852.807	25965.25
853.054	26024.25
853.301	25906.25
853.548	25919.25
853.794	26062.25
854.041	26149.25
854.288	26255.25
854.534	26498.25
854.781	26568.25
855.028	26311.25
855.274	26284.25
855.52	26305.25
855.767	26182.25
856.013	26228.25
856.26	26396.25
856.506	25896.25
856.752	25955.25
856.998	25995.25
857.244	26043.25
857.49	26098.25
857.736	26172.25
857.982	26190.25
858.228	26088.25
858.474	25992.25
858.72	25881.25
858.966	25594.25
859.212	25204.25
859.458	25079.25
859.703	24837.25
859.949	24572.25
860.195	24528.25
860.44	24245.25
860.686	24322.25
860.931	24283.25
861.177	24090.25
861.422	24037.25
861.667	23931.25
861.913	23970.25
862.158	23969.25
862.403	24230.25
862.648	24180.25
862.893	24128.25
863.138	24077.25
863.384	24202.25
863.629	24067.25
863.873	24055.25
864.118	24019.25
864.363	23934.25
864.608	23963.25
864.853	23933.25
865.098	23730.25
865.342	23609.25
865.587	23462.25
865.832	23414.25
866.076	23544.25
866.321	23445.25
866.565	23406.25
866.81	23128.25
867.054	23159.25
867.298	23113.25
867.543	23197.25
867.787	23023.25
868.031	22999.25
868.275	23050.25
868.519	23012.25
868.764	22917.25
869.008	22843.25
869.252	22945.25
869.496	22817.25
869.739	22804.25
869.983	22834.25
870.227	22796.25
870.471	22735.25
870.715	22947.25
870.958	22963.25
871.202	23014.25
871.446	23078.25
871.689	23097.25
871.933	23022.25
872.176	23079.25
872.42	22921.25
872.663	22993.25
872.906	22931.25
873.15	22741.25
873.393	22735.25
873.636	22652.25
873.879	22499.25
874.122	22380.25
874.366	21957.25
874.609	21876.25
874.852	21668.25
875.095	21645.25
875.337	21541.25
875.58	21442.25
875.823	21379.25
876.066	21426.25
876.309	21272.25
876.551	21105.25
876.794	21088.25
877.037	21045.25
877.279	20965.25
877.522	21010.25
877.764	20986.25
878.007	20853.25
878.249	20978.25
878.491	20868.25
878.734	20894.25
878.976	20752.25
879.218	20691.25
879.46	20538.25
879.702	20382.25
879.945	20420.25
880.187	20193.25
880.429	20024.25
880.671	19972.25
880.912	19907.25
881.154	19818.25
881.396	19706.25
881.638	19784.25
881.88	19912.25
882.121	19729.25
882.363	19806.25
882.605	19826.25
882.846	19695.25
883.088	19729.25
883.329	19673.25
883.571	19661.25
883.812	19784.25
884.053	20045.25
884.295	20414.25
884.536	20712.25
884.777	20581.25
885.018	20425.25
885.259	20388.25
885.5	20214.25
885.742	20474.25
885.982	20265.25
886.223	20014.25
886.464	19912.25
886.705	19680.25
886.946	19617.25
887.187	19327.25
887.428	19190.25
887.668	18864.25
887.909	18622.25
888.15	18472.25
888.39	18332.25
888.631	18180.25
888.871	17988.25
889.111	17954.25
889.352	17914.25
889.592	17733.25
889.833	17716.25
890.073	17526.25
890.313	17477.25
890.553	17280.25
890.793	17207.25
891.033	17203.25
891.273	17125.25
891.513	17048.25
891.753	17088.25
891.993	16955.25
892.233	17102.25
892.473	17175.25
892.713	17010.25
892.952	17060.25
893.192	17078.25
893.432	17153.25
893.671	17200.25
893.911	17129.25
894.15	16965.25
894.39	16802.25
894.629	16683.25
894.869	16695.25
895.108	16626.25
895.347	16568.25
895.587	16583.25
895.826	16500.25
896.065	16408.25
896.304	16530.25
896.543	16551.25
896.782	16416.25
897.021	16497.25
897.26	16477.25
897.499	16513.25
897.738	16490.25
897.977	16442.25
898.216	16264.25
898.454	16060.25
898.693	15983.25
898.932	16009.25
899.17	15921.25
899.409	15877.25
899.647	15853.25
899.886	15929.25
900.124	15955.25
900.363	15919.25
900.601	15987.25
900.839	16079.25
901.078	16036.25
901.316	16148.25
901.554	16152.25
901.792	16247.25
902.03	16213.25
902.268	16320.25
902.506	16219.25
902.744	16058.25
902.982	15936.25
903.22	15675.25
903.458	15437.25
903.695	15364.25
903.933	15120.25
904.171	14846.25
904.409	14615.25
904.646	14426.25
904.884	14159.25
905.121	14082.25
905.359	13937.25
905.596	13831.25
905.833	13633.25
906.071	13599.25
906.308	13550.25
906.545	13475.25
906.783	13380.25
907.02	13430.25
907.257	13325.25
907.494	13289.25
907.731	13199.25
907.968	13116.25
908.205	13092.25
908.442	12997.25
908.679	12972.25
908.915	12876.25
909.152	12738.25
909.389	12582.25
909.626	12515.25
909.862	12532.25
910.099	12462.25
910.335	12328.25
910.572	12317.25
910.808	12288.25
911.045	12255.25
911.281	12186.25
911.518	12167.25
911.754	12021.25
911.99	11960.25
912.226	11906.25
912.463	11744.25
912.699	11661.25
912.935	11716.25
913.171	11542.25
913.407	11419.25
913.643	11504.25
913.879	11265.25
914.114	11231.25
914.35	11153.25
914.586	11130.25
914.822	11041.25
915.057	10893.25
915.293	10807.25
915.529	10684.25
915.764	10798.25
916	10750.25
916.235	10703.25
916.471	10625.25
916.706	10638.25
916.941	10610.25
917.177	10623.25
917.412	10694.25
917.647	10670.25
917.882	10575.25
918.117	10621.25
918.352	10548.25
918.588	10508.25
918.823	10516.25
919.057	10340.25
919.292	10188.25
919.527	10141.25
919.762	10033.25
919.997	9965.25
920.232	9862.25
920.466	9840.25
920.701	9704.25
920.935	9663.25
921.17	9627.25
921.405	9600.25
921.639	9613.25
921.873	9526.25
922.108	9466.25
922.342	9476.25
922.576	9325.25
922.811	9390.25
923.045	9315.25
923.279	9363.25
923.513	9167.25
923.747	9240.25
923.981	9205.25
924.215	9073.25
924.449	9050.25
924.683	8926.25
924.917	8931.25
925.151	8891.25
925.385	8974.25
925.618	8872.25
925.852	8791.25
926.086	8777.25
926.319	8811.25
926.553	8796.25
926.786	8752.25
927.02	8809.25
927.253	8813.25
927.486	8778.25
927.72	8705.25
927.953	8782.25
928.186	8709.25
928.42	8678.25
928.653	8639.25
928.886	8550.25
929.119	8559.25
929.352	8500.25
929.585	8529.25
929.818	8369.25
930.051	8305.25
930.284	8242.25
930.516	8177.25
930.749	8132.25
930.982	8130.25
931.215	8138.25
931.447	7979.25
931.68	8062.25
931.912	7999.25
932.145	7995.25
932.377	8046.25
932.61	8146.25
932.842	7913.25
933.074	8041.25
933.307	7961.25
933.539	8067.25
933.771	8077.25
934.003	7983.25
934.236	8113.25
934.468	8045.25
934.7	7945.25
934.932	7984.25
935.164	7895.25
935.395	7827.25
935.627	7882.25
935.859	7849.25
936.091	7766.25
936.323	7813.25
936.554	7837.25
936.786	7761.25
937.017	7669.25
937.249	7731.25
937.481	7643.25
937.712	7693.25
937.943	7667.25
938.175	7592.25
938.406	7625.25
938.637	7660.25
938.869	7575.25
939.1	7536.25
939.331	7448.25
939.562	7548.25
939.793	7485.25
940.024	7500.25
940.255	7480.25
940.486	7396.25
940.717	7341.25
940.948	7349.25
941.179	7297.25
941.409	7332.25
941.64	7294.25
941.871	7312.25
942.102	7315.25
942.332	7276.25
942.563	7277.25
942.793	7274.25
943.024	7253.25
943.254	7249.25
943.484	7312.25
943.715	7260.25
943.945	7232.25
944.175	7207.25
944.405	7168.25
944.636	7219.25
944.866	7181.25
945.096	7169.25
945.326	7126.25
945.556	7169.25
945.786	7130.25
946.016	7106.25
946.245	6943.25
946.475	6947.25
946.705	6879.25
946.935	6853.25
947.164	6877.25
947.394	6795.25
947.624	6818.25
947.853	6787.25
948.083	6812.25
948.312	6701.25
948.542	6623.25
948.771	6592.25
949	6582.25
949.23	6633.25
949.459	6575.25
949.688	6675.25
949.917	6575.25
950.146	6578.25
950.375	6700.25
950.604	6559.25
950.833	6626.25
951.062	6582.25
951.291	6492.25
951.52	6456.25
951.749	6451.25
951.978	6417.25
952.206	6436.25
952.435	6404.25
952.664	6462.25
952.892	6422.25
953.121	6324.25
953.349	6390.25
953.578	6326.25
953.806	6299.25
954.035	6201.25
954.263	6251.25
954.491	6147.25
954.719	6178.25
954.948	6132.25
955.176	6094.25
955.404	6012.25
955.632	6011.25
955.86	6034.25
956.088	5991.25
956.316	5935.25
956.544	6010.25
956.772	5847.25
956.999	5886.25
957.227	5915.25
957.455	5735.25
957.683	5829.25
957.91	5720.25
958.138	5731.25
958.365	5703.25
958.593	5696.25
958.82	5611.25
959.048	5670.25
959.275	5651.25
959.502	5603.25
959.73	5538.25
959.957	5587.25
960.184	5638.25
960.411	5543.25
960.638	5544.25
960.865	5538.25
961.092	5549.25
961.319	5408.25
961.546	5574.25
961.773	5530.25
962	5475.25
962.227	5483.25
962.454	5452.25
962.68	5439.25
962.907	5450.25
963.134	5397.25
963.36	5325.25
963.587	5340.25
963.813	5286.25
964.04	5331.25
964.266	5187.25
964.493	5240.25
964.719	5219.25
964.945	5187.25
965.171	5059.25
965.398	5111.25
965.624	5131.25
965.85	5013.25
966.076	5022.25
966.302	4994.25
966.528	4979.25
966.754	5010.25
966.98	4986.25
967.206	4940.25
967.431	4911.25
967.657	4921.25
967.883	4974.25
968.109	4928.25
968.334	4821.25
968.56	4771.25
968.785	4797.25
969.011	4767.25
969.236	4825.25
969.462	4770.25
969.687	4743.25
969.912	4757.25
970.138	4741.25
970.363	4703.25
970.588	4709.25
970.813	4709.25
971.038	4667.25
971.263	4684.25
971.488	4631.25
971.713	4664.25
971.938	4628.25
972.163	4517.25
972.388	4568.25
972.613	4488.25
972.838	4490.25
973.062	4515.25
973.287	4482.25
973.512	4395.25
973.736	4404.25
973.961	4398.25
974.185	4359.25
974.41	4370.25
974.634	4244.25
974.858	4252.25
975.083	4283.25
975.307	4333.25
975.531	4218.25
975.755	4214.25
975.98	4190.25
976.204	4128.25
976.428	4081.25
976.652	4098.25
976.876	4067.25
977.1	4117.25
977.324	4025.25
977.547	4041.25
977.771	4070.25
977.995	4048.25
978.219	3921.25
978.442	4054.25
978.666	3992.25
978.89	3978.25
979.113	3987.25
979.337	3977.25
979.56	3886.25
979.783	4024.25
980.007	3854.25
980.23	3881.25
980.453	3849.25
980.677	3917.25
980.9	3876.25
981.123	3746.25
981.346	3840.25
981.569	3746.25
981.792	3806.25
982.015	3755.25
982.238	3743.25
982.461	3744.25
982.684	3673.25
982.907	3664.25
983.129	3596.25
983.352	3648.25
983.575	3584.25
983.797	3616.25
984.02	3530.25
984.242	3570.25
984.465	3531.25
984.687	3577.25
984.91	3532.25
985.132	3536.25
985.354	3567.25
985.577	3514.25
985.799	3448.25
986.021	3406.25
986.243	3380.25
986.465	3433.25
986.687	3410.25
986.909	3426.25
987.131	3384.25
987.353	3358.25
987.575	3390.25
987.797	3293.25
988.019	3256.25
988.241	3343.25
988.462	3260.25
988.684	3325.25
988.906	3322.25
989.127	3336.25
989.349	3252.25
989.57	3289.25
989.792	3282.25
990.013	3254.25
990.234	3276.25
990.456	3303.25
990.677	3280.25
990.898	3223.25
991.119	3215.25
991.341	3194.25
991.562	3143.25
991.783	3179.25
992.004	3120.25
992.225	3081.25
992.446	3083.25
992.667	3038.25
992.887	3033.25
993.108	2964.25
993.329	3080.25
993.55	3039.25
993.77	2965.25
993.991	2942.25
994.212	2960.25
994.432	2966.25
994.653	2965.25
994.873	2917.25
995.093	2831.25
995.314	2856.25
995.534	2908.25
995.754	2913.25
995.975	2911.25
996.195	2804.25
996.415	2902.25
996.635	2812.25
996.855	2858.25
997.075	2832.25
997.295	2840.25
997.515	2792.25
997.735	2847.25
997.955	2793.25
998.174	2810.25
998.394	2728.25
998.614	2847.25
998.834	2745.25
999.053	2825.25
999.273	2751.25
999.492	2808.25
999.712	2760.25
999.931	2680.25
1000.151	2679.25
1000.37	2688.25
1000.589	2745.25
1000.809	2676.25
1001.028	2788.25
1001.247	2668.25
1001.466	2558.25
1001.685	2692.25
1001.904	2646.25
1002.123	2580.25
1002.342	2613.25
1002.561	2542.25
1002.78	2538.25
1002.999	2623.25
1003.218	2551.25
1003.436	2531.25
1003.655	2539.25
1003.874	2498.25
1004.092	2552.25
1004.311	2538.25
1004.53	2470.25
1004.748	2543.25
1004.966	2513.25
1005.185	2543.25
1005.403	2536.25
1005.622	2479.25
1005.84	2528.25
1006.058	2454.25
1006.276	2494.25
1006.494	2961.25
1006.712	2456.25
1006.931	2560.25
1007.149	2425.25
1007.367	2451.25
1007.584	2505.25
1007.802	2519.25
1008.02	2483.25
1008.238	2563.25
1008.456	2588.25
1008.673	2500.25
1008.891	2593.25
1009.109	2565.25
1009.326	2639.25
1009.544	2698.25
1009.761	2672.25
1009.979	2783.25
1010.196	2830.25
1010.413	2947.25
1010.631	3082.25
1010.848	3168.25
1011.065	3176.25
1011.282	3127.25
1011.5	3091.25
1011.717	3168.25
1011.934	3132.25
1012.151	3109.25
1012.368	3087.25
1012.585	3031.25
1012.801	3088.25
1013.018	3049.25
1013.235	3078.25
1013.452	3086.25
1013.669	3074.25
1013.885	3069.25
1014.102	3129.25
1014.318	3138.25
1014.535	3033.25
1014.751	3107.25
1014.968	3089.25
1015.184	3105.25
1015.401	2981.25
1015.617	2953.25
1015.833	2943.25
1016.049	2954.25
1016.266	2897.25
1016.482	2886.25
1016.698	2795.25
1016.914	2837.25
1017.13	2755.25
1017.346	2805.25
1017.562	2831.25
1017.778	2764.25
1017.993	2725.25
1018.209	2838.25
1018.425	2742.25
1018.641	2731.25
1018.856	2687.25
1019.072	2748.25
1019.288	2772.25
1019.503	2735.25
1019.719	2645.25
1019.934	2662.25
1020.149	2756.25
1020.365	2650.25
1020.58	2577.25
1020.795	2558.25
1021.011	2501.25
1021.226	2424.25
1021.441	2440.25
1021.656	2342.25
1021.871	2289.25
1022.086	2256.25
1022.301	2231.25
1022.516	2183.25
1022.731	2199.25
1022.946	2168.25
1023.16	2103.25
1023.375	2079.25
1023.59	2025.25
1023.804	1940.25
1024.019	2034.25
1024.234	1898.25
1024.448	1902.25
1024.663	1811.25
1024.877	1829.25
1025.092	1801.25
1025.306	1804.25
1025.52	1648.25
1025.734	1744.25
1025.949	1621.25
1026.163	1590.25
1026.377	1489.25
1026.591	1544.25
1026.805	1457.25
1027.019	1473.25
1027.233	1415.25
1027.447	1367.25
1027.661	1417.25
1027.875	1376.25
1028.088	1338.25
1028.302	1268.25
1028.516	1242.25
1028.73	1213.25
1028.943	1194.25
1029.157	1117.25
1029.37	1075.25
1029.584	-2.75
1029.797	-1.75
1030.011	-3.75
1030.224	-1.75
