Data from QEP037381__103__15-26-25-866.txt Node

Date: Fri Dec 16 15:26:25 EST 2022
User: dcclab
Spectrometer: QEP03738
Trigger mode: 4
Integration Time (sec): 1.000000E1
Scans to average: 1
Electric dark correction enabled: true
Nonlinearity correction enabled: false
Boxcar width: 0
XAxis mode: Wavelengths
Number of Pixels in Spectrum: 1044
>>>>>Begin Spectral Data<<<<<
784.041	10.62
784.3	-2.38
784.558	-1.38
784.817	-2.38
785.075	90447.62
785.334	15873.62
785.592	7549.62
785.851	5202.62
786.109	3915.62
786.368	3092.62
786.626	2465.62
786.884	2074.62
787.143	1715.62
787.401	1424.62
787.659	1320.62
787.917	1115.62
788.175	1043.62
788.433	923.62
788.691	833.62
788.949	752.62
789.207	727.62
789.465	647.62
789.723	626.62
789.98	571.62
790.238	618.62
790.496	566.62
790.753	534.62
791.011	600.62
791.268	519.62
791.526	506.62
791.783	517.62
792.041	505.62
792.298	438.62
792.556	498.62
792.813	476.62
793.07	460.62
793.327	440.62
793.584	527.62
793.841	442.62
794.099	465.62
794.356	514.62
794.613	418.62
794.869	478.62
795.126	419.62
795.383	400.62
795.64	433.62
795.897	394.62
796.153	456.62
796.41	432.62
796.667	419.62
796.923	420.62
797.18	422.62
797.436	450.62
797.693	407.62
797.949	475.62
798.206	497.62
798.462	422.62
798.718	473.62
798.974	452.62
799.231	491.62
799.487	486.62
799.743	474.62
799.999	512.62
800.255	513.62
800.511	491.62
800.767	537.62
801.023	542.62
801.279	574.62
801.534	622.62
801.79	658.62
802.046	693.62
802.302	843.62
802.557	956.62
802.813	1203.62
803.068	1477.62
803.324	2006.62
803.579	2714.62
803.835	3813.62
804.09	5246.62
804.345	6824.62
804.601	8689.62
804.856	10506.62
805.111	12131.62
805.366	13418.62
805.621	14381.62
805.876	15021.62
806.131	15460.62
806.386	15711.62
806.641	16064.62
806.896	16308.62
807.151	16633.62
807.406	16902.62
807.661	17380.62
807.915	17618.62
808.17	17966.62
808.425	18041.62
808.679	18289.62
808.934	18490.62
809.188	18738.62
809.443	18982.62
809.697	19201.62
809.951	19339.62
810.206	19408.62
810.46	19676.62
810.714	19861.62
810.968	20154.62
811.223	20164.62
811.477	20462.62
811.731	20703.62
811.985	20606.62
812.239	20854.62
812.493	20960.62
812.747	21130.62
813	21146.62
813.254	21290.62
813.508	21429.62
813.762	21538.62
814.015	21584.62
814.269	21836.62
814.522	21951.62
814.776	22352.62
815.03	22532.62
815.283	22920.62
815.536	23349.62
815.79	23603.62
816.043	23950.62
816.296	24321.62
816.55	24569.62
816.803	24843.62
817.056	25337.62
817.309	25382.62
817.562	25667.62
817.815	25993.62
818.068	26124.62
818.321	26544.62
818.574	26958.62
818.827	27211.62
819.079	27464.62
819.332	28097.62
819.585	28517.62
819.838	28677.62
820.09	28937.62
820.343	29211.62
820.595	29211.62
820.848	29594.62
821.1	29679.62
821.353	29699.62
821.605	29648.62
821.857	29693.62
822.11	29543.62
822.362	29572.62
822.614	29441.62
822.866	29550.62
823.118	29441.62
823.37	29633.62
823.622	29637.62
823.874	29784.62
824.126	29838.62
824.378	29907.62
824.63	30071.62
824.882	30128.62
825.134	30095.62
825.385	30019.62
825.637	30066.62
825.888	30030.62
826.14	29898.62
826.392	29765.62
826.643	29631.62
826.895	29651.62
827.146	29542.62
827.397	29482.62
827.649	29476.62
827.9	29416.62
828.151	29477.62
828.402	29439.62
828.653	29712.62
828.905	29744.62
829.156	29818.62
829.407	29710.62
829.658	29712.62
829.909	29810.62
830.159	29821.62
830.41	29666.62
830.661	29404.62
830.912	29413.62
831.162	29243.62
831.413	29257.62
831.664	29331.62
831.914	29254.62
832.165	29292.62
832.415	29252.62
832.666	29184.62
832.916	29451.62
833.167	29210.62
833.417	29256.62
833.667	29142.62
833.917	29084.62
834.168	29093.62
834.418	28846.62
834.668	28739.62
834.918	28665.62
835.168	28637.62
835.418	28400.62
835.668	28507.62
835.918	28428.62
836.167	28306.62
836.417	28292.62
836.667	28342.62
836.917	28186.62
837.166	28156.62
837.416	28264.62
837.666	28191.62
837.915	28059.62
838.165	28155.62
838.414	27912.62
838.663	28009.62
838.913	28035.62
839.162	27857.62
839.411	27981.62
839.661	27674.62
839.91	27721.62
840.159	27540.62
840.408	27686.62
840.657	27727.62
840.906	27755.62
841.155	27712.62
841.404	27680.62
841.653	27640.62
841.902	27668.62
842.15	27765.62
842.399	27740.62
842.648	27602.62
842.897	27625.62
843.145	27344.62
843.394	27272.62
843.642	27149.62
843.891	27018.62
844.139	26866.62
844.388	26704.62
844.636	26710.62
844.884	26667.62
845.133	26655.62
845.381	26670.62
845.629	26666.62
845.877	26543.62
846.125	26533.62
846.373	26537.62
846.621	26366.62
846.869	26302.62
847.117	26240.62
847.365	26068.62
847.613	25989.62
847.861	25946.62
848.108	25839.62
848.356	25737.62
848.604	25656.62
848.851	25809.62
849.099	25853.62
849.346	25877.62
849.594	25939.62
849.841	26140.62
850.089	26149.62
850.336	26160.62
850.583	26138.62
850.831	26080.62
851.078	26014.62
851.325	25856.62
851.572	25979.62
851.819	25756.62
852.066	25293.62
852.313	25090.62
852.56	24867.62
852.807	24665.62
853.054	24631.62
853.301	24664.62
853.548	24794.62
853.794	24776.62
854.041	24836.62
854.288	25032.62
854.534	25240.62
854.781	25241.62
855.028	25143.62
855.274	25089.62
855.52	24948.62
855.767	24813.62
856.013	24779.62
856.26	25126.62
856.506	24613.62
856.752	24541.62
856.998	24545.62
857.244	24690.62
857.49	24823.62
857.736	24889.62
857.982	24866.62
858.228	24839.62
858.474	24549.62
858.72	24539.62
858.966	24313.62
859.212	23972.62
859.458	23874.62
859.703	23546.62
859.949	23291.62
860.195	23167.62
860.44	23122.62
860.686	22979.62
860.931	23076.62
861.177	22939.62
861.422	22829.62
861.667	22798.62
861.913	22740.62
862.158	22771.62
862.403	22903.62
862.648	22962.62
862.893	22988.62
863.138	23042.62
863.384	22863.62
863.629	22889.62
863.873	22898.62
864.118	22804.62
864.363	22606.62
864.608	22596.62
864.853	22517.62
865.098	22442.62
865.342	22366.62
865.587	22305.62
865.832	22402.62
866.076	22251.62
866.321	22110.62
866.565	22084.62
866.81	22001.62
867.054	22009.62
867.298	22055.62
867.543	21854.62
867.787	21779.62
868.031	21781.62
868.275	21793.62
868.519	21718.62
868.764	21781.62
869.008	21704.62
869.252	21623.62
869.496	21491.62
869.739	21633.62
869.983	21592.62
870.227	21593.62
870.471	21605.62
870.715	21667.62
870.958	21786.62
871.202	21737.62
871.446	21733.62
871.689	21749.62
871.933	21791.62
872.176	21608.62
872.42	21687.62
872.663	21695.62
872.906	21684.62
873.15	21500.62
873.393	21541.62
873.636	21547.62
873.879	21164.62
874.122	20963.62
874.366	20740.62
874.609	20673.62
874.852	20479.62
875.095	20392.62
875.337	20373.62
875.58	20234.62
875.823	20256.62
876.066	20120.62
876.309	20189.62
876.551	19964.62
876.794	19909.62
877.037	19836.62
877.279	19689.62
877.522	19721.62
877.764	19927.62
878.007	19797.62
878.249	19815.62
878.491	19701.62
878.734	19801.62
878.976	19614.62
879.218	19497.62
879.46	19485.62
879.702	19298.62
879.945	19128.62
880.187	18955.62
880.429	18923.62
880.671	18781.62
880.912	18790.62
881.154	18730.62
881.396	18703.62
881.638	18751.62
881.88	18647.62
882.121	18612.62
882.363	18619.62
882.605	18647.62
882.846	18559.62
883.088	18541.62
883.329	18446.62
883.571	18471.62
883.812	18644.62
884.053	18903.62
884.295	19259.62
884.536	19364.62
884.777	19326.62
885.018	19261.62
885.259	19189.62
885.5	19028.62
885.742	19419.62
885.982	19027.62
886.223	18790.62
886.464	18680.62
886.705	18482.62
886.946	18388.62
887.187	18127.62
887.428	17937.62
887.668	17734.62
887.909	17464.62
888.15	17421.62
888.39	17162.62
888.631	17118.62
888.871	16992.62
889.111	16870.62
889.352	16746.62
889.592	16670.62
889.833	16540.62
890.073	16414.62
890.313	16441.62
890.553	16247.62
890.793	16180.62
891.033	16125.62
891.273	16075.62
891.513	16108.62
891.753	16119.62
891.993	15985.62
892.233	16016.62
892.473	16175.62
892.713	16073.62
892.952	16136.62
893.192	16141.62
893.432	16073.62
893.671	16092.62
893.911	15964.62
894.15	15857.62
894.39	15743.62
894.629	15765.62
894.869	15825.62
895.108	15636.62
895.347	15505.62
895.587	15574.62
895.826	15549.62
896.065	15499.62
896.304	15555.62
896.543	15541.62
896.782	15458.62
897.021	15444.62
897.26	15513.62
897.499	15406.62
897.738	15417.62
897.977	15370.62
898.216	15204.62
898.454	15062.62
898.693	15018.62
898.932	15065.62
899.17	14953.62
899.409	14995.62
899.647	14924.62
899.886	14893.62
900.124	15037.62
900.363	14987.62
900.601	15004.62
900.839	15096.62
901.078	15021.62
901.316	15117.62
901.554	15153.62
901.792	15209.62
902.03	15295.62
902.268	15166.62
902.506	15277.62
902.744	15067.62
902.982	14924.62
903.22	14637.62
903.458	14490.62
903.695	14331.62
903.933	14106.62
904.171	13940.62
904.409	13684.62
904.646	13532.62
904.884	13389.62
905.121	13250.62
905.359	13034.62
905.596	12955.62
905.833	12714.62
906.071	12689.62
906.308	12689.62
906.545	12680.62
906.783	12548.62
907.02	12487.62
907.257	12527.62
907.494	12519.62
907.731	12413.62
907.968	12425.62
908.205	12220.62
908.442	12143.62
908.679	12126.62
908.915	12043.62
909.152	11924.62
909.389	11775.62
909.626	11822.62
909.862	11714.62
910.099	11639.62
910.335	11647.62
910.572	11489.62
910.808	11448.62
911.045	11453.62
911.281	11424.62
911.518	11401.62
911.754	11264.62
911.99	11269.62
912.226	11120.62
912.463	10965.62
912.699	10999.62
912.935	10875.62
913.171	10793.62
913.407	10655.62
913.643	10624.62
913.879	10539.62
914.114	10517.62
914.35	10464.62
914.586	10217.62
914.822	10245.62
915.057	10213.62
915.293	10133.62
915.529	9929.62
915.764	10091.62
916	9996.62
916.235	10059.62
916.471	9951.62
916.706	9917.62
916.941	9914.62
917.177	9879.62
917.412	9909.62
917.647	9937.62
917.882	9833.62
918.117	9824.62
918.352	9822.62
918.588	9872.62
918.823	9662.62
919.057	9660.62
919.292	9494.62
919.527	9475.62
919.762	9378.62
919.997	9367.62
920.232	9165.62
920.466	9155.62
920.701	8996.62
920.935	8985.62
921.17	8914.62
921.405	8793.62
921.639	8851.62
921.873	8801.62
922.108	8816.62
922.342	8807.62
922.576	8681.62
922.811	8713.62
923.045	8731.62
923.279	8678.62
923.513	8577.62
923.747	8601.62
923.981	8517.62
924.215	8418.62
924.449	8399.62
924.683	8356.62
924.917	8267.62
925.151	8227.62
925.385	8320.62
925.618	8252.62
925.852	8255.62
926.086	8169.62
926.319	8200.62
926.553	8146.62
926.786	8195.62
927.02	8155.62
927.253	8161.62
927.486	8172.62
927.72	8069.62
927.953	8060.62
928.186	8077.62
928.42	8026.62
928.653	8000.62
928.886	7966.62
929.119	8016.62
929.352	7848.62
929.585	7823.62
929.818	7763.62
930.051	7782.62
930.284	7695.62
930.516	7561.62
930.749	7525.62
930.982	7612.62
931.215	7520.62
931.447	7455.62
931.68	7399.62
931.912	7425.62
932.145	7413.62
932.377	7395.62
932.61	7516.62
932.842	7353.62
933.074	7499.62
933.307	7417.62
933.539	7445.62
933.771	7400.62
934.003	7348.62
934.236	7432.62
934.468	7500.62
934.7	7340.62
934.932	7296.62
935.164	7256.62
935.395	7221.62
935.627	7347.62
935.859	7320.62
936.091	7202.62
936.323	7242.62
936.554	7247.62
936.786	7161.62
937.017	7054.62
937.249	7096.62
937.481	7095.62
937.712	7141.62
937.943	7081.62
938.175	7030.62
938.406	6984.62
938.637	7101.62
938.869	6995.62
939.1	6999.62
939.331	6971.62
939.562	6951.62
939.793	6922.62
940.024	6910.62
940.255	6941.62
940.486	6836.62
940.717	6809.62
940.948	6750.62
941.179	6762.62
941.409	6748.62
941.64	6721.62
941.871	6764.62
942.102	6738.62
942.332	6732.62
942.563	6756.62
942.793	6699.62
943.024	6656.62
943.254	6655.62
943.484	6711.62
943.715	6697.62
943.945	6686.62
944.175	6620.62
944.405	6577.62
944.636	6586.62
944.866	6631.62
945.096	6672.62
945.326	6515.62
945.556	6642.62
945.786	6545.62
946.016	6514.62
946.245	6375.62
946.475	6387.62
946.705	6358.62
946.935	6349.62
947.164	6322.62
947.394	6265.62
947.624	6237.62
947.853	6246.62
948.083	6218.62
948.312	6192.62
948.542	6073.62
948.771	5995.62
949	6119.62
949.23	6054.62
949.459	6081.62
949.688	6134.62
949.917	6028.62
950.146	6076.62
950.375	6125.62
950.604	6009.62
950.833	6044.62
951.062	6053.62
951.291	5998.62
951.52	5940.62
951.749	5926.62
951.978	5884.62
952.206	5876.62
952.435	5840.62
952.664	5918.62
952.892	5854.62
953.121	5792.62
953.349	5901.62
953.578	5808.62
953.806	5762.62
954.035	5684.62
954.263	5686.62
954.491	5654.62
954.719	5695.62
954.948	5603.62
955.176	5642.62
955.404	5525.62
955.632	5546.62
955.86	5561.62
956.088	5476.62
956.316	5469.62
956.544	5469.62
956.772	5391.62
956.999	5349.62
957.227	5410.62
957.455	5343.62
957.683	5343.62
957.91	5207.62
958.138	5180.62
958.365	5141.62
958.593	5237.62
958.82	5137.62
959.048	5199.62
959.275	5156.62
959.502	5075.62
959.73	5065.62
959.957	5123.62
960.184	5117.62
960.411	5003.62
960.638	5164.62
960.865	5056.62
961.092	5064.62
961.319	5013.62
961.546	5074.62
961.773	5027.62
962	4965.62
962.227	5077.62
962.454	5000.62
962.68	4958.62
962.907	4977.62
963.134	4898.62
963.36	4888.62
963.587	4866.62
963.813	4774.62
964.04	4809.62
964.266	4714.62
964.493	4822.62
964.719	4749.62
964.945	4779.62
965.171	4620.62
965.398	4683.62
965.624	4685.62
965.85	4602.62
966.076	4602.62
966.302	4529.62
966.528	4569.62
966.754	4583.62
966.98	4545.62
967.206	4537.62
967.431	4438.62
967.657	4558.62
967.883	4521.62
968.109	4515.62
968.334	4416.62
968.56	4351.62
968.785	4388.62
969.011	4333.62
969.236	4412.62
969.462	4341.62
969.687	4292.62
969.912	4373.62
970.138	4392.62
970.363	4317.62
970.588	4290.62
970.813	4287.62
971.038	4262.62
971.263	4264.62
971.488	4249.62
971.713	4252.62
971.938	4233.62
972.163	4142.62
972.388	4157.62
972.613	4095.62
972.838	4108.62
973.062	4098.62
973.287	4081.62
973.512	4012.62
973.736	4057.62
973.961	4025.62
974.185	3974.62
974.41	4011.62
974.634	3915.62
974.858	3893.62
975.083	3914.62
975.307	3898.62
975.531	3830.62
975.755	3773.62
975.98	3817.62
976.204	3702.62
976.428	3674.62
976.652	3726.62
976.876	3687.62
977.1	3735.62
977.324	3672.62
977.547	3704.62
977.771	3692.62
977.995	3662.62
978.219	3602.62
978.442	3686.62
978.666	3639.62
978.89	3623.62
979.113	3647.62
979.337	3623.62
979.56	3537.62
979.783	3638.62
980.007	3517.62
980.23	3564.62
980.453	3492.62
980.677	3514.62
980.9	3480.62
981.123	3433.62
981.346	3461.62
981.569	3450.62
981.792	3457.62
982.015	3425.62
982.238	3362.62
982.461	3353.62
982.684	3367.62
982.907	3321.62
983.129	3305.62
983.352	3342.62
983.575	3291.62
983.797	3292.62
984.02	3230.62
984.242	3233.62
984.465	3234.62
984.687	3260.62
984.91	3226.62
985.132	3219.62
985.354	3190.62
985.577	3136.62
985.799	3165.62
986.021	3085.62
986.243	3099.62
986.465	3073.62
986.687	3125.62
986.909	3174.62
987.131	3103.62
987.353	3014.62
987.575	3070.62
987.797	3038.62
988.019	2961.62
988.241	3009.62
988.462	2989.62
988.684	3060.62
988.906	3050.62
989.127	3062.62
989.349	2908.62
989.57	2967.62
989.792	2963.62
990.013	2978.62
990.234	2976.62
990.456	3011.62
990.677	2980.62
990.898	2904.62
991.119	2911.62
991.341	2904.62
991.562	2851.62
991.783	2891.62
992.004	2821.62
992.225	2762.62
992.446	2841.62
992.667	2715.62
992.887	2810.62
993.108	2680.62
993.329	2820.62
993.55	2754.62
993.77	2714.62
993.991	2685.62
994.212	2675.62
994.432	2670.62
994.653	2656.62
994.873	2704.62
995.093	2568.62
995.314	2579.62
995.534	2665.62
995.754	2655.62
995.975	2678.62
996.195	2543.62
996.415	2598.62
996.635	2577.62
996.855	2599.62
997.075	2597.62
997.295	2555.62
997.515	2552.62
997.735	2613.62
997.955	2534.62
998.174	2520.62
998.394	2527.62
998.614	2578.62
998.834	2515.62
999.053	2561.62
999.273	2540.62
999.492	2546.62
999.712	2517.62
999.931	2486.62
1000.151	2511.62
1000.37	2437.62
1000.589	2488.62
1000.809	2430.62
1001.028	2509.62
1001.247	2456.62
1001.466	2344.62
1001.685	2465.62
1001.904	2420.62
1002.123	2407.62
1002.342	2376.62
1002.561	2293.62
1002.78	2320.62
1002.999	2404.62
1003.218	2312.62
1003.436	2332.62
1003.655	2337.62
1003.874	2271.62
1004.092	2286.62
1004.311	2306.62
1004.53	2272.62
1004.748	2332.62
1004.966	2269.62
1005.185	2309.62
1005.403	2313.62
1005.622	2282.62
1005.84	2335.62
1006.058	2207.62
1006.276	2279.62
1006.494	2734.62
1006.712	2265.62
1006.931	2310.62
1007.149	2214.62
1007.367	2252.62
1007.584	2276.62
1007.802	2312.62
1008.02	2241.62
1008.238	2381.62
1008.456	2366.62
1008.673	2242.62
1008.891	2381.62
1009.109	2332.62
1009.326	2429.62
1009.544	2505.62
1009.761	2453.62
1009.979	2578.62
1010.196	2576.62
1010.413	2716.62
1010.631	2810.62
1010.848	2888.62
1011.065	2882.62
1011.282	2852.62
1011.5	2779.62
1011.717	2875.62
1011.934	2827.62
1012.151	2845.62
1012.368	2834.62
1012.585	2769.62
1012.801	2832.62
1013.018	2832.62
1013.235	2790.62
1013.452	2783.62
1013.669	2819.62
1013.885	2788.62
1014.102	2853.62
1014.318	2851.62
1014.535	2768.62
1014.751	2767.62
1014.968	2798.62
1015.184	2805.62
1015.401	2699.62
1015.617	2740.62
1015.833	2677.62
1016.049	2634.62
1016.266	2626.62
1016.482	2650.62
1016.698	2505.62
1016.914	2573.62
1017.13	2507.62
1017.346	2503.62
1017.562	2581.62
1017.778	2509.62
1017.993	2491.62
1018.209	2517.62
1018.425	2509.62
1018.641	2455.62
1018.856	2452.62
1019.072	2491.62
1019.288	2534.62
1019.503	2482.62
1019.719	2416.62
1019.934	2388.62
1020.149	2475.62
1020.365	2415.62
1020.58	2330.62
1020.795	2342.62
1021.011	2298.62
1021.226	2234.62
1021.441	2204.62
1021.656	2118.62
1021.871	2035.62
1022.086	2038.62
1022.301	2013.62
1022.516	1974.62
1022.731	2027.62
1022.946	1923.62
1023.16	1925.62
1023.375	1867.62
1023.59	1816.62
1023.804	1772.62
1024.019	1836.62
1024.234	1730.62
1024.448	1756.62
1024.663	1642.62
1024.877	1632.62
1025.092	1639.62
1025.306	1621.62
1025.52	1521.62
1025.734	1580.62
1025.949	1500.62
1026.163	1441.62
1026.377	1376.62
1026.591	1435.62
1026.805	1337.62
1027.019	1335.62
1027.233	1281.62
1027.447	1229.62
1027.661	1320.62
1027.875	1239.62
1028.088	1272.62
1028.302	1175.62
1028.516	1126.62
1028.73	1132.62
1028.943	1119.62
1029.157	1016.62
1029.37	974.62
1029.584	-2.38
1029.797	0.62
1030.011	-1.38
1030.224	-1.38
