Data from QEP037381__45__15-16-45-859.txt Node

Date: Fri Dec 16 15:16:45 EST 2022
User: dcclab
Spectrometer: QEP03738
Trigger mode: 4
Integration Time (sec): 1.000000E1
Scans to average: 1
Electric dark correction enabled: true
Nonlinearity correction enabled: false
Boxcar width: 0
XAxis mode: Wavelengths
Number of Pixels in Spectrum: 1044
>>>>>Begin Spectral Data<<<<<
784.041	11.88
784.3	0.88
784.558	-0.12
784.817	-0.12
785.075	90935.88
785.334	15574.88
785.592	7209.88
785.851	4966.88
786.109	3760.88
786.368	2960.88
786.626	2382.88
786.884	1993.88
787.143	1671.88
787.401	1400.88
787.659	1273.88
787.917	1090.88
788.175	1024.88
788.433	874.88
788.691	806.88
788.949	738.88
789.207	719.88
789.465	633.88
789.723	605.88
789.98	560.88
790.238	610.88
790.496	561.88
790.753	562.88
791.011	617.88
791.268	528.88
791.526	510.88
791.783	540.88
792.041	517.88
792.298	434.88
792.556	497.88
792.813	477.88
793.07	452.88
793.327	445.88
793.584	523.88
793.841	443.88
794.099	467.88
794.356	521.88
794.613	434.88
794.869	473.88
795.126	434.88
795.383	413.88
795.64	434.88
795.897	387.88
796.153	453.88
796.41	442.88
796.667	426.88
796.923	427.88
797.18	429.88
797.436	456.88
797.693	422.88
797.949	469.88
798.206	483.88
798.462	416.88
798.718	482.88
798.974	454.88
799.231	492.88
799.487	482.88
799.743	499.88
799.999	541.88
800.255	544.88
800.511	511.88
800.767	545.88
801.023	556.88
801.279	591.88
801.534	632.88
801.79	688.88
802.046	724.88
802.302	878.88
802.557	1025.88
802.813	1245.88
803.068	1584.88
803.324	2182.88
803.579	2965.88
803.835	4080.88
804.09	5658.88
804.345	7496.88
804.601	9355.88
804.856	11428.88
805.111	13174.88
805.366	14545.88
805.621	15617.88
805.876	16191.88
806.131	16739.88
806.386	17040.88
806.641	17347.88
806.896	17613.88
807.151	17921.88
807.406	18296.88
807.661	18602.88
807.915	19081.88
808.17	19343.88
808.425	19546.88
808.679	19768.88
808.934	20035.88
809.188	20227.88
809.443	20480.88
809.697	20636.88
809.951	20939.88
810.206	21095.88
810.46	21303.88
810.714	21551.88
810.968	21764.88
811.223	21837.88
811.477	22093.88
811.731	22350.88
811.985	22334.88
812.239	22503.88
812.493	22759.88
812.747	22840.88
813	22819.88
813.254	22984.88
813.508	23053.88
813.762	23134.88
814.015	23338.88
814.269	23467.88
814.522	23816.88
814.776	24020.88
815.03	24280.88
815.283	24647.88
815.536	25131.88
815.79	25592.88
816.043	25840.88
816.296	26206.88
816.55	26619.88
816.803	26862.88
817.056	27233.88
817.309	27443.88
817.562	27761.88
817.815	28113.88
818.068	28254.88
818.321	28482.88
818.574	28884.88
818.827	29346.88
819.079	29740.88
819.332	30285.88
819.585	30547.88
819.838	31040.88
820.09	31109.88
820.343	31437.88
820.595	31688.88
820.848	31689.88
821.1	31875.88
821.353	31994.88
821.605	31880.88
821.857	31926.88
822.11	31750.88
822.362	31869.88
822.614	31607.88
822.866	31775.88
823.118	31719.88
823.37	31783.88
823.622	31882.88
823.874	31780.88
824.126	32013.88
824.378	32104.88
824.63	32148.88
824.882	32417.88
825.134	32415.88
825.385	32360.88
825.637	32186.88
825.888	32089.88
826.14	32124.88
826.392	32049.88
826.643	31865.88
826.895	31866.88
827.146	31722.88
827.397	31643.88
827.649	31595.88
827.9	31490.88
828.151	31576.88
828.402	31733.88
828.653	31789.88
828.905	31751.88
829.156	31871.88
829.407	31802.88
829.658	31977.88
829.909	32046.88
830.159	31985.88
830.41	31868.88
830.661	31672.88
830.912	31420.88
831.162	31398.88
831.413	31397.88
831.664	31332.88
831.914	31321.88
832.165	31305.88
832.415	31300.88
832.666	31193.88
832.916	31368.88
833.167	31212.88
833.417	31256.88
833.667	31132.88
833.917	31178.88
834.168	31099.88
834.418	30813.88
834.668	30901.88
834.918	30618.88
835.168	30632.88
835.418	30479.88
835.668	30383.88
835.918	30311.88
836.167	30257.88
836.417	30156.88
836.667	30076.88
836.917	30134.88
837.166	30084.88
837.416	30074.88
837.666	30075.88
837.915	29919.88
838.165	29921.88
838.414	29938.88
838.663	29930.88
838.913	29924.88
839.162	29877.88
839.411	29880.88
839.661	29611.88
839.91	29565.88
840.159	29652.88
840.408	29563.88
840.657	29601.88
840.906	29688.88
841.155	29600.88
841.404	29665.88
841.653	29502.88
841.902	29687.88
842.15	29579.88
842.399	29776.88
842.648	29585.88
842.897	29559.88
843.145	29262.88
843.394	29019.88
843.642	29080.88
843.891	29034.88
844.139	28747.88
844.388	28532.88
844.636	28433.88
844.884	28436.88
845.133	28432.88
845.381	28372.88
845.629	28511.88
845.877	28451.88
846.125	28393.88
846.373	28407.88
846.621	28307.88
846.869	28120.88
847.117	27976.88
847.365	27832.88
847.613	27719.88
847.861	27692.88
848.108	27627.88
848.356	27457.88
848.604	27468.88
848.851	27495.88
849.099	27636.88
849.346	27652.88
849.594	27695.88
849.841	27841.88
850.089	27930.88
850.336	27688.88
850.583	27914.88
850.831	27716.88
851.078	27523.88
851.325	27599.88
851.572	27687.88
851.819	27489.88
852.066	26931.88
852.313	26548.88
852.56	26301.88
852.807	26268.88
853.054	26180.88
853.301	26229.88
853.548	26029.88
853.794	26335.88
854.041	26472.88
854.288	26508.88
854.534	26647.88
854.781	26682.88
855.028	26628.88
855.274	26661.88
855.52	26283.88
855.767	26215.88
856.013	26302.88
856.26	26611.88
856.506	26053.88
856.752	26144.88
856.998	26070.88
857.244	26202.88
857.49	26322.88
857.736	26455.88
857.982	26371.88
858.228	26351.88
858.474	26087.88
858.72	25974.88
858.966	25673.88
859.212	25417.88
859.458	25287.88
859.703	24824.88
859.949	24697.88
860.195	24689.88
860.44	24506.88
860.686	24460.88
860.931	24339.88
861.177	24226.88
861.422	24173.88
861.667	24013.88
861.913	24029.88
862.158	24002.88
862.403	24083.88
862.648	24196.88
862.893	24264.88
863.138	24205.88
863.384	24085.88
863.629	24082.88
863.873	24122.88
864.118	23967.88
864.363	23864.88
864.608	23875.88
864.853	23751.88
865.098	23669.88
865.342	23498.88
865.587	23502.88
865.832	23579.88
866.076	23391.88
866.321	23373.88
866.565	23287.88
866.81	23197.88
867.054	23174.88
867.298	23046.88
867.543	22992.88
867.787	22964.88
868.031	22974.88
868.275	22905.88
868.519	22948.88
868.764	22800.88
869.008	22808.88
869.252	22717.88
869.496	22744.88
869.739	22810.88
869.983	22831.88
870.227	22753.88
870.471	22717.88
870.715	22852.88
870.958	22848.88
871.202	22879.88
871.446	23083.88
871.689	23005.88
871.933	22948.88
872.176	23091.88
872.42	22850.88
872.663	22811.88
872.906	22749.88
873.15	22654.88
873.393	22627.88
873.636	22523.88
873.879	22409.88
874.122	22223.88
874.366	21796.88
874.609	21756.88
874.852	21515.88
875.095	21463.88
875.337	21453.88
875.58	21233.88
875.823	21289.88
876.066	21210.88
876.309	21105.88
876.551	20857.88
876.794	20899.88
877.037	20873.88
877.279	20718.88
877.522	20727.88
877.764	20820.88
878.007	20713.88
878.249	20751.88
878.491	20647.88
878.734	20638.88
878.976	20563.88
879.218	20435.88
879.46	20301.88
879.702	20078.88
879.945	19957.88
880.187	19743.88
880.429	19806.88
880.671	19709.88
880.912	19613.88
881.154	19497.88
881.396	19409.88
881.638	19579.88
881.88	19519.88
882.121	19396.88
882.363	19484.88
882.605	19440.88
882.846	19433.88
883.088	19353.88
883.329	19351.88
883.571	19360.88
883.812	19536.88
884.053	19789.88
884.295	20178.88
884.536	20341.88
884.777	20242.88
885.018	20119.88
885.259	20071.88
885.5	20056.88
885.742	20339.88
885.982	19961.88
886.223	19813.88
886.464	19607.88
886.705	19460.88
886.946	19144.88
887.187	18821.88
887.428	18709.88
887.668	18415.88
887.909	18156.88
888.15	17987.88
888.39	17840.88
888.631	17819.88
888.871	17601.88
889.111	17533.88
889.352	17364.88
889.592	17259.88
889.833	17072.88
890.073	17097.88
890.313	17024.88
890.553	16762.88
890.793	16800.88
891.033	16673.88
891.273	16566.88
891.513	16560.88
891.753	16708.88
891.993	16650.88
892.233	16645.88
892.473	16662.88
892.713	16699.88
892.952	16539.88
893.192	16662.88
893.432	16578.88
893.671	16624.88
893.911	16497.88
894.15	16457.88
894.39	16261.88
894.629	16257.88
894.869	16224.88
895.108	16102.88
895.347	15934.88
895.587	16035.88
895.826	15964.88
896.065	15950.88
896.304	16024.88
896.543	16035.88
896.782	15856.88
897.021	15909.88
897.26	15887.88
897.499	15958.88
897.738	15899.88
897.977	15823.88
898.216	15672.88
898.454	15619.88
898.693	15539.88
898.932	15536.88
899.17	15327.88
899.409	15419.88
899.647	15319.88
899.886	15253.88
900.124	15377.88
900.363	15417.88
900.601	15463.88
900.839	15538.88
901.078	15556.88
901.316	15701.88
901.554	15733.88
901.792	16013.88
902.03	15923.88
902.268	15842.88
902.506	15880.88
902.744	15587.88
902.982	15504.88
903.22	15226.88
903.458	14951.88
903.695	14821.88
903.933	14570.88
904.171	14241.88
904.409	14144.88
904.646	13934.88
904.884	13682.88
905.121	13552.88
905.359	13410.88
905.596	13245.88
905.833	13052.88
906.071	12991.88
906.308	13037.88
906.545	13000.88
906.783	12910.88
907.02	12971.88
907.257	12684.88
907.494	12791.88
907.731	12705.88
907.968	12687.88
908.205	12615.88
908.442	12568.88
908.679	12447.88
908.915	12339.88
909.152	12243.88
909.389	12076.88
909.626	12050.88
909.862	11929.88
910.099	12030.88
910.335	11930.88
910.572	11755.88
910.808	11792.88
911.045	11706.88
911.281	11717.88
911.518	11631.88
911.754	11561.88
911.99	11462.88
912.226	11368.88
912.463	11270.88
912.699	11238.88
912.935	11147.88
913.171	11104.88
913.407	10916.88
913.643	10897.88
913.879	10823.88
914.114	10659.88
914.35	10573.88
914.586	10546.88
914.822	10380.88
915.057	10531.88
915.293	10248.88
915.529	10231.88
915.764	10335.88
916	10246.88
916.235	10221.88
916.471	10220.88
916.706	10057.88
916.941	10069.88
917.177	10135.88
917.412	10093.88
917.647	10133.88
917.882	10008.88
918.117	10122.88
918.352	9967.88
918.588	10027.88
918.823	9918.88
919.057	9837.88
919.292	9618.88
919.527	9634.88
919.762	9526.88
919.997	9502.88
920.232	9320.88
920.466	9302.88
920.701	9164.88
920.935	9143.88
921.17	9070.88
921.405	9037.88
921.639	9015.88
921.873	8973.88
922.108	8985.88
922.342	8902.88
922.576	8836.88
922.811	8887.88
923.045	8814.88
923.279	8895.88
923.513	8666.88
923.747	8784.88
923.981	8683.88
924.215	8576.88
924.449	8520.88
924.683	8411.88
924.917	8469.88
925.151	8368.88
925.385	8480.88
925.618	8403.88
925.852	8385.88
926.086	8292.88
926.319	8301.88
926.553	8306.88
926.786	8308.88
927.02	8280.88
927.253	8356.88
927.486	8274.88
927.72	8266.88
927.953	8309.88
928.186	8201.88
928.42	8234.88
928.653	8091.88
928.886	8092.88
929.119	8144.88
929.352	8043.88
929.585	7973.88
929.818	7889.88
930.051	7873.88
930.284	7866.88
930.516	7699.88
930.749	7632.88
930.982	7713.88
931.215	7668.88
931.447	7591.88
931.68	7565.88
931.912	7552.88
932.145	7509.88
932.377	7523.88
932.61	7624.88
932.842	7511.88
933.074	7507.88
933.307	7498.88
933.539	7544.88
933.771	7543.88
934.003	7530.88
934.236	7585.88
934.468	7550.88
934.7	7473.88
934.932	7494.88
935.164	7387.88
935.395	7413.88
935.627	7379.88
935.859	7443.88
936.091	7312.88
936.323	7311.88
936.554	7325.88
936.786	7309.88
937.017	7158.88
937.249	7254.88
937.481	7098.88
937.712	7231.88
937.943	7094.88
938.175	7145.88
938.406	7165.88
938.637	7131.88
938.869	7054.88
939.1	7060.88
939.331	6976.88
939.562	7088.88
939.793	7060.88
940.024	7021.88
940.255	6956.88
940.486	6939.88
940.717	6866.88
940.948	6828.88
941.179	6794.88
941.409	6836.88
941.64	6769.88
941.871	6784.88
942.102	6721.88
942.332	6768.88
942.563	6823.88
942.793	6762.88
943.024	6737.88
943.254	6727.88
943.484	6793.88
943.715	6736.88
943.945	6764.88
944.175	6634.88
944.405	6618.88
944.636	6687.88
944.866	6672.88
945.096	6632.88
945.326	6669.88
945.556	6659.88
945.786	6616.88
946.016	6548.88
946.245	6475.88
946.475	6434.88
946.705	6462.88
946.935	6429.88
947.164	6344.88
947.394	6295.88
947.624	6252.88
947.853	6296.88
948.083	6263.88
948.312	6216.88
948.542	6117.88
948.771	6132.88
949	6118.88
949.23	6106.88
949.459	6113.88
949.688	6155.88
949.917	6072.88
950.146	6086.88
950.375	6117.88
950.604	6020.88
950.833	6112.88
951.062	6098.88
951.291	6039.88
951.52	5978.88
951.749	6008.88
951.978	5932.88
952.206	5935.88
952.435	5893.88
952.664	5910.88
952.892	5904.88
953.121	5873.88
953.349	5813.88
953.578	5850.88
953.806	5807.88
954.035	5713.88
954.263	5746.88
954.491	5638.88
954.719	5718.88
954.948	5654.88
955.176	5605.88
955.404	5556.88
955.632	5607.88
955.86	5530.88
956.088	5532.88
956.316	5535.88
956.544	5504.88
956.772	5398.88
956.999	5415.88
957.227	5504.88
957.455	5308.88
957.683	5274.88
957.91	5233.88
958.138	5267.88
958.365	5290.88
958.593	5220.88
958.82	5138.88
959.048	5231.88
959.275	5139.88
959.502	5145.88
959.73	5092.88
959.957	5109.88
960.184	5140.88
960.411	5082.88
960.638	5127.88
960.865	5073.88
961.092	5073.88
961.319	5004.88
961.546	5077.88
961.773	5079.88
962	4989.88
962.227	5042.88
962.454	4989.88
962.68	4962.88
962.907	4972.88
963.134	4892.88
963.36	4956.88
963.587	4917.88
963.813	4786.88
964.04	4867.88
964.266	4714.88
964.493	4808.88
964.719	4757.88
964.945	4794.88
965.171	4644.88
965.398	4689.88
965.624	4684.88
965.85	4614.88
966.076	4606.88
966.302	4580.88
966.528	4541.88
966.754	4541.88
966.98	4572.88
967.206	4553.88
967.431	4474.88
967.657	4544.88
967.883	4467.88
968.109	4499.88
968.334	4413.88
968.56	4410.88
968.785	4395.88
969.011	4376.88
969.236	4395.88
969.462	4337.88
969.687	4364.88
969.912	4400.88
970.138	4363.88
970.363	4259.88
970.588	4296.88
970.813	4256.88
971.038	4209.88
971.263	4258.88
971.488	4296.88
971.713	4228.88
971.938	4276.88
972.163	4169.88
972.388	4161.88
972.613	4086.88
972.838	4111.88
973.062	4100.88
973.287	4073.88
973.512	4004.88
973.736	4038.88
973.961	4021.88
974.185	3987.88
974.41	4002.88
974.634	3833.88
974.858	3868.88
975.083	3958.88
975.307	3892.88
975.531	3826.88
975.755	3791.88
975.98	3794.88
976.204	3726.88
976.428	3719.88
976.652	3723.88
976.876	3617.88
977.1	3701.88
977.324	3668.88
977.547	3718.88
977.771	3663.88
977.995	3640.88
978.219	3623.88
978.442	3678.88
978.666	3645.88
978.89	3646.88
979.113	3608.88
979.337	3594.88
979.56	3514.88
979.783	3609.88
980.007	3521.88
980.23	3522.88
980.453	3487.88
980.677	3545.88
980.9	3485.88
981.123	3363.88
981.346	3490.88
981.569	3417.88
981.792	3475.88
982.015	3418.88
982.238	3324.88
982.461	3364.88
982.684	3355.88
982.907	3317.88
983.129	3253.88
983.352	3310.88
983.575	3259.88
983.797	3269.88
984.02	3208.88
984.242	3186.88
984.465	3197.88
984.687	3229.88
984.91	3236.88
985.132	3203.88
985.354	3183.88
985.577	3158.88
985.799	3140.88
986.021	3080.88
986.243	3071.88
986.465	3077.88
986.687	3096.88
986.909	3154.88
987.131	3057.88
987.353	3021.88
987.575	3040.88
987.797	3017.88
988.019	2941.88
988.241	3004.88
988.462	2935.88
988.684	3018.88
988.906	3039.88
989.127	3045.88
989.349	2930.88
989.57	2934.88
989.792	2982.88
990.013	2992.88
990.234	2934.88
990.456	3009.88
990.677	2941.88
990.898	2913.88
991.119	2896.88
991.341	2916.88
991.562	2833.88
991.783	2864.88
992.004	2788.88
992.225	2783.88
992.446	2850.88
992.667	2711.88
992.887	2807.88
993.108	2690.88
993.329	2799.88
993.55	2737.88
993.77	2684.88
993.991	2677.88
994.212	2693.88
994.432	2656.88
994.653	2646.88
994.873	2655.88
995.093	2511.88
995.314	2563.88
995.534	2670.88
995.754	2640.88
995.975	2658.88
996.195	2547.88
996.415	2562.88
996.635	2575.88
996.855	2601.88
997.075	2533.88
997.295	2571.88
997.515	2492.88
997.735	2568.88
997.955	2538.88
998.174	2487.88
998.394	2500.88
998.614	2559.88
998.834	2496.88
999.053	2572.88
999.273	2516.88
999.492	2553.88
999.712	2479.88
999.931	2422.88
1000.151	2496.88
1000.37	2450.88
1000.589	2497.88
1000.809	2417.88
1001.028	2500.88
1001.247	2403.88
1001.466	2316.88
1001.685	2448.88
1001.904	2369.88
1002.123	2359.88
1002.342	2392.88
1002.561	2280.88
1002.78	2310.88
1002.999	2356.88
1003.218	2319.88
1003.436	2251.88
1003.655	2355.88
1003.874	2252.88
1004.092	2262.88
1004.311	2309.88
1004.53	2244.88
1004.748	2318.88
1004.966	2244.88
1005.185	2313.88
1005.403	2276.88
1005.622	2266.88
1005.84	2321.88
1006.058	2232.88
1006.276	2233.88
1006.494	2716.88
1006.712	2229.88
1006.931	2290.88
1007.149	2214.88
1007.367	2224.88
1007.584	2270.88
1007.802	2291.88
1008.02	2272.88
1008.238	2361.88
1008.456	2346.88
1008.673	2250.88
1008.891	2358.88
1009.109	2334.88
1009.326	2395.88
1009.544	2495.88
1009.761	2431.88
1009.979	2566.88
1010.196	2626.88
1010.413	2746.88
1010.631	2841.88
1010.848	2920.88
1011.065	2936.88
1011.282	2940.88
1011.5	2847.88
1011.717	2935.88
1011.934	2869.88
1012.151	2915.88
1012.368	2877.88
1012.585	2831.88
1012.801	2884.88
1013.018	2885.88
1013.235	2837.88
1013.452	2855.88
1013.669	2918.88
1013.885	2901.88
1014.102	2909.88
1014.318	2922.88
1014.535	2851.88
1014.751	2881.88
1014.968	2882.88
1015.184	2858.88
1015.401	2768.88
1015.617	2820.88
1015.833	2717.88
1016.049	2743.88
1016.266	2733.88
1016.482	2698.88
1016.698	2612.88
1016.914	2688.88
1017.13	2623.88
1017.346	2590.88
1017.562	2652.88
1017.778	2582.88
1017.993	2552.88
1018.209	2640.88
1018.425	2564.88
1018.641	2603.88
1018.856	2537.88
1019.072	2576.88
1019.288	2621.88
1019.503	2545.88
1019.719	2536.88
1019.934	2473.88
1020.149	2547.88
1020.365	2505.88
1020.58	2423.88
1020.795	2439.88
1021.011	2356.88
1021.226	2320.88
1021.441	2339.88
1021.656	2172.88
1021.871	2152.88
1022.086	2116.88
1022.301	2096.88
1022.516	2058.88
1022.731	2071.88
1022.946	1996.88
1023.16	1940.88
1023.375	1887.88
1023.59	1875.88
1023.804	1821.88
1024.019	1887.88
1024.234	1751.88
1024.448	1763.88
1024.663	1654.88
1024.877	1658.88
1025.092	1662.88
1025.306	1678.88
1025.52	1537.88
1025.734	1631.88
1025.949	1511.88
1026.163	1477.88
1026.377	1393.88
1026.591	1438.88
1026.805	1337.88
1027.019	1321.88
1027.233	1298.88
1027.447	1259.88
1027.661	1318.88
1027.875	1267.88
1028.088	1266.88
1028.302	1159.88
1028.516	1158.88
1028.73	1137.88
1028.943	1116.88
1029.157	1042.88
1029.37	966.88
1029.584	-1.12
1029.797	-4.12
1030.011	-5.12
1030.224	-2.12
