Data from QEP037381__92__15-24-35-865.txt Node

Date: Fri Dec 16 15:24:35 EST 2022
User: dcclab
Spectrometer: QEP03738
Trigger mode: 4
Integration Time (sec): 1.000000E1
Scans to average: 1
Electric dark correction enabled: true
Nonlinearity correction enabled: false
Boxcar width: 0
XAxis mode: Wavelengths
Number of Pixels in Spectrum: 1044
>>>>>Begin Spectral Data<<<<<
784.041	14.12
784.3	2.12
784.558	-1.88
784.817	-3.88
785.075	92215.12
785.334	16086.12
785.592	7660.12
785.851	5313.12
786.109	4007.12
786.368	3131.12
786.626	2507.12
786.884	2100.12
787.143	1779.12
787.401	1481.12
787.659	1347.12
787.917	1130.12
788.175	1057.12
788.433	936.12
788.691	833.12
788.949	790.12
789.207	727.12
789.465	658.12
789.723	621.12
789.98	586.12
790.238	608.12
790.496	588.12
790.753	550.12
791.011	598.12
791.268	538.12
791.526	513.12
791.783	536.12
792.041	529.12
792.298	441.12
792.556	518.12
792.813	489.12
793.07	475.12
793.327	438.12
793.584	539.12
793.841	461.12
794.099	472.12
794.356	529.12
794.613	429.12
794.869	483.12
795.126	444.12
795.383	412.12
795.64	438.12
795.897	396.12
796.153	456.12
796.41	437.12
796.667	416.12
796.923	433.12
797.18	435.12
797.436	466.12
797.693	433.12
797.949	487.12
798.206	505.12
798.462	421.12
798.718	487.12
798.974	457.12
799.231	510.12
799.487	497.12
799.743	486.12
799.999	527.12
800.255	525.12
800.511	509.12
800.767	572.12
801.023	552.12
801.279	590.12
801.534	636.12
801.79	683.12
802.046	721.12
802.302	868.12
802.557	1021.12
802.813	1273.12
803.068	1568.12
803.324	2183.12
803.579	3030.12
803.835	4142.12
804.09	5750.12
804.345	7568.12
804.601	9560.12
804.856	11570.12
805.111	13370.12
805.366	14688.12
805.621	15737.12
805.876	16278.12
806.131	16848.12
806.386	17150.12
806.641	17492.12
806.896	17624.12
807.151	18159.12
807.406	18437.12
807.661	18814.12
807.915	19110.12
808.17	19428.12
808.425	19647.12
808.679	19798.12
808.934	20125.12
809.188	20267.12
809.443	20496.12
809.697	20878.12
809.951	20980.12
810.206	21214.12
810.46	21497.12
810.714	21585.12
810.968	21823.12
811.223	21897.12
811.477	22239.12
811.731	22485.12
811.985	22557.12
812.239	22743.12
812.493	22827.12
812.747	22978.12
813	22854.12
813.254	23105.12
813.508	23358.12
813.762	23254.12
814.015	23482.12
814.269	23646.12
814.522	23828.12
814.776	24110.12
815.03	24429.12
815.283	24791.12
815.536	25194.12
815.79	25614.12
816.043	25957.12
816.296	26406.12
816.55	26825.12
816.803	27054.12
817.056	27440.12
817.309	27730.12
817.562	28009.12
817.815	28332.12
818.068	28394.12
818.321	28896.12
818.574	29205.12
818.827	29587.12
819.079	29904.12
819.332	30564.12
819.585	30827.12
819.838	31333.12
820.09	31535.12
820.343	31744.12
820.595	31898.12
820.848	32200.12
821.1	32288.12
821.353	32402.12
821.605	32227.12
821.857	32259.12
822.11	32177.12
822.362	32067.12
822.614	32093.12
822.866	32169.12
823.118	32093.12
823.37	32107.12
823.622	32237.12
823.874	32370.12
824.126	32586.12
824.378	32647.12
824.63	32855.12
824.882	32822.12
825.134	32944.12
825.385	32761.12
825.637	32831.12
825.888	32751.12
826.14	32658.12
826.392	32424.12
826.643	32374.12
826.895	32301.12
827.146	32136.12
827.397	32010.12
827.649	32052.12
827.9	31998.12
828.151	32183.12
828.402	32207.12
828.653	32239.12
828.905	32513.12
829.156	32436.12
829.407	32427.12
829.658	32471.12
829.909	32584.12
830.159	32482.12
830.41	32507.12
830.661	32291.12
830.912	31947.12
831.162	31987.12
831.413	31981.12
831.664	32015.12
831.914	31974.12
832.165	31870.12
832.415	31854.12
832.666	31983.12
832.916	32008.12
833.167	31942.12
833.417	31945.12
833.667	31853.12
833.917	31737.12
834.168	31732.12
834.418	31606.12
834.668	31516.12
834.918	31402.12
835.168	31126.12
835.418	31177.12
835.668	31044.12
835.918	31001.12
836.167	30975.12
836.417	30814.12
836.667	30813.12
836.917	30750.12
837.166	30861.12
837.416	30905.12
837.666	30734.12
837.915	30696.12
838.165	30666.12
838.414	30666.12
838.663	30569.12
838.913	30598.12
839.162	30478.12
839.411	30363.12
839.661	30428.12
839.91	30352.12
840.159	30268.12
840.408	30297.12
840.657	30415.12
840.906	30395.12
841.155	30275.12
841.404	30264.12
841.653	30302.12
841.902	30402.12
842.15	30490.12
842.399	30506.12
842.648	30465.12
842.897	30233.12
843.145	30076.12
843.394	29864.12
843.642	29728.12
843.891	29684.12
844.139	29465.12
844.388	29306.12
844.636	29137.12
844.884	29323.12
845.133	29207.12
845.381	29226.12
845.629	29269.12
845.877	29156.12
846.125	29145.12
846.373	29098.12
846.621	28958.12
846.869	29022.12
847.117	28682.12
847.365	28656.12
847.613	28523.12
847.861	28458.12
848.108	28382.12
848.356	28351.12
848.604	28388.12
848.851	28403.12
849.099	28390.12
849.346	28458.12
849.594	28676.12
849.841	28629.12
850.089	28707.12
850.336	28576.12
850.583	28768.12
850.831	28448.12
851.078	28486.12
851.325	28392.12
851.572	28598.12
851.819	28332.12
852.066	27784.12
852.313	27453.12
852.56	27249.12
852.807	27119.12
853.054	27091.12
853.301	26978.12
853.548	27107.12
853.794	27281.12
854.041	27384.12
854.288	27464.12
854.534	27682.12
854.781	27586.12
855.028	27619.12
855.274	27498.12
855.52	27298.12
855.767	27241.12
856.013	27325.12
856.26	27584.12
856.506	27051.12
856.752	27079.12
856.998	27095.12
857.244	27120.12
857.49	27201.12
857.736	27346.12
857.982	27265.12
858.228	27220.12
858.474	27018.12
858.72	26874.12
858.966	26596.12
859.212	26609.12
859.458	26219.12
859.703	25985.12
859.949	25711.12
860.195	25533.12
860.44	25499.12
860.686	25427.12
860.931	25315.12
861.177	25229.12
861.422	25051.12
861.667	25128.12
861.913	25062.12
862.158	25114.12
862.403	25162.12
862.648	25265.12
862.893	25327.12
863.138	25240.12
863.384	25185.12
863.629	25061.12
863.873	25132.12
864.118	25172.12
864.363	24942.12
864.608	24864.12
864.853	24904.12
865.098	24759.12
865.342	24575.12
865.587	24561.12
865.832	24640.12
866.076	24453.12
866.321	24342.12
866.565	24371.12
866.81	24197.12
867.054	24202.12
867.298	24066.12
867.543	24020.12
867.787	24133.12
868.031	24055.12
868.275	23903.12
868.519	23868.12
868.764	23890.12
869.008	23830.12
869.252	23973.12
869.496	23694.12
869.739	23784.12
869.983	23820.12
870.227	23803.12
870.471	23671.12
870.715	23746.12
870.958	23863.12
871.202	23935.12
871.446	24076.12
871.689	24067.12
871.933	24042.12
872.176	24087.12
872.42	24004.12
872.663	23881.12
872.906	23908.12
873.15	23746.12
873.393	23690.12
873.636	23660.12
873.879	23436.12
874.122	23155.12
874.366	22943.12
874.609	22769.12
874.852	22483.12
875.095	22535.12
875.337	22398.12
875.58	22365.12
875.823	22357.12
876.066	22194.12
876.309	22122.12
876.551	21979.12
876.794	22027.12
877.037	21933.12
877.279	21764.12
877.522	21910.12
877.764	21864.12
878.007	21788.12
878.249	21828.12
878.491	21737.12
878.734	21796.12
878.976	21674.12
879.218	21538.12
879.46	21429.12
879.702	21311.12
879.945	21124.12
880.187	21001.12
880.429	20882.12
880.671	20748.12
880.912	20770.12
881.154	20632.12
881.396	20581.12
881.638	20603.12
881.88	20611.12
882.121	20531.12
882.363	20536.12
882.605	20572.12
882.846	20580.12
883.088	20445.12
883.329	20483.12
883.571	20451.12
883.812	20682.12
884.053	20899.12
884.295	21283.12
884.536	21528.12
884.777	21419.12
885.018	21352.12
885.259	21232.12
885.5	21164.12
885.742	21245.12
885.982	21034.12
886.223	20886.12
886.464	20834.12
886.705	20522.12
886.946	20445.12
887.187	20123.12
887.428	19881.12
887.668	19634.12
887.909	19405.12
888.15	19162.12
888.39	19035.12
888.631	18992.12
888.871	18822.12
889.111	18714.12
889.352	18588.12
889.592	18405.12
889.833	18291.12
890.073	18148.12
890.313	18163.12
890.553	17963.12
890.793	17916.12
891.033	17897.12
891.273	17693.12
891.513	17736.12
891.753	17769.12
891.993	17654.12
892.233	17808.12
892.473	17921.12
892.713	17816.12
892.952	17780.12
893.192	17824.12
893.432	17808.12
893.671	17828.12
893.911	17726.12
894.15	17643.12
894.39	17435.12
894.629	17390.12
894.869	17321.12
895.108	17245.12
895.347	17143.12
895.587	17115.12
895.826	17156.12
896.065	17093.12
896.304	17136.12
896.543	17129.12
896.782	16982.12
897.021	17086.12
897.26	16978.12
897.499	17068.12
897.738	16934.12
897.977	16932.12
898.216	16770.12
898.454	16697.12
898.693	16609.12
898.932	16578.12
899.17	16532.12
899.409	16439.12
899.647	16497.12
899.886	16441.12
900.124	16438.12
900.363	16460.12
900.601	16528.12
900.839	16544.12
901.078	16552.12
901.316	16655.12
901.554	16777.12
901.792	16747.12
902.03	16834.12
902.268	16837.12
902.506	16767.12
902.744	16655.12
902.982	16551.12
903.22	16300.12
903.458	16080.12
903.695	15769.12
903.933	15590.12
904.171	15344.12
904.409	15083.12
904.646	14866.12
904.884	14654.12
905.121	14540.12
905.359	14316.12
905.596	14205.12
905.833	14058.12
906.071	14054.12
906.308	13967.12
906.545	13973.12
906.783	13825.12
907.02	13905.12
907.257	13728.12
907.494	13780.12
907.731	13788.12
907.968	13647.12
908.205	13522.12
908.442	13458.12
908.679	13423.12
908.915	13311.12
909.152	13188.12
909.389	13053.12
909.626	13041.12
909.862	12881.12
910.099	12838.12
910.335	12799.12
910.572	12759.12
910.808	12718.12
911.045	12698.12
911.281	12602.12
911.518	12534.12
911.754	12552.12
911.99	12409.12
912.226	12370.12
912.463	12279.12
912.699	12118.12
912.935	12014.12
913.171	11916.12
913.407	11870.12
913.643	11820.12
913.879	11739.12
914.114	11558.12
914.35	11488.12
914.586	11499.12
914.822	11388.12
915.057	11409.12
915.293	11126.12
915.529	11133.12
915.764	11166.12
916	11168.12
916.235	11010.12
916.471	11065.12
916.706	11011.12
916.941	11039.12
917.177	10931.12
917.412	10993.12
917.647	10970.12
917.882	10933.12
918.117	10885.12
918.352	10923.12
918.588	10817.12
918.823	10800.12
919.057	10707.12
919.292	10529.12
919.527	10509.12
919.762	10359.12
919.997	10293.12
920.232	10175.12
920.466	10207.12
920.701	9934.12
920.935	9964.12
921.17	9899.12
921.405	9873.12
921.639	9900.12
921.873	9818.12
922.108	9753.12
922.342	9742.12
922.576	9695.12
922.811	9587.12
923.045	9652.12
923.279	9650.12
923.513	9481.12
923.747	9500.12
923.981	9395.12
924.215	9414.12
924.449	9364.12
924.683	9253.12
924.917	9241.12
925.151	9169.12
925.385	9221.12
925.618	9158.12
925.852	9094.12
926.086	9067.12
926.319	9049.12
926.553	9055.12
926.786	9101.12
927.02	9036.12
927.253	9089.12
927.486	9003.12
927.72	8900.12
927.953	9056.12
928.186	8940.12
928.42	8967.12
928.653	8891.12
928.886	8808.12
929.119	8849.12
929.352	8833.12
929.585	8736.12
929.818	8661.12
930.051	8563.12
930.284	8561.12
930.516	8458.12
930.749	8401.12
930.982	8402.12
931.215	8356.12
931.447	8260.12
931.68	8193.12
931.912	8227.12
932.145	8219.12
932.377	8215.12
932.61	8389.12
932.842	8177.12
933.074	8215.12
933.307	8156.12
933.539	8254.12
933.771	8329.12
934.003	8210.12
934.236	8259.12
934.468	8240.12
934.7	8161.12
934.932	8124.12
935.164	8136.12
935.395	8070.12
935.627	8145.12
935.859	8123.12
936.091	7963.12
936.323	7990.12
936.554	8000.12
936.786	7954.12
937.017	7879.12
937.249	7907.12
937.481	7789.12
937.712	7854.12
937.943	7784.12
938.175	7801.12
938.406	7801.12
938.637	7829.12
938.869	7755.12
939.1	7825.12
939.331	7677.12
939.562	7695.12
939.793	7658.12
940.024	7668.12
940.255	7688.12
940.486	7596.12
940.717	7536.12
940.948	7517.12
941.179	7480.12
941.409	7469.12
941.64	7473.12
941.871	7422.12
942.102	7424.12
942.332	7378.12
942.563	7452.12
942.793	7430.12
943.024	7358.12
943.254	7400.12
943.484	7442.12
943.715	7488.12
943.945	7450.12
944.175	7365.12
944.405	7308.12
944.636	7299.12
944.866	7344.12
945.096	7311.12
945.326	7265.12
945.556	7295.12
945.786	7271.12
946.016	7206.12
946.245	7149.12
946.475	7089.12
946.705	7023.12
946.935	7029.12
947.164	6987.12
947.394	6897.12
947.624	6905.12
947.853	6929.12
948.083	6886.12
948.312	6845.12
948.542	6814.12
948.771	6716.12
949	6698.12
949.23	6706.12
949.459	6719.12
949.688	6778.12
949.917	6689.12
950.146	6687.12
950.375	6740.12
950.604	6639.12
950.833	6697.12
951.062	6681.12
951.291	6582.12
951.52	6547.12
951.749	6587.12
951.978	6523.12
952.206	6549.12
952.435	6464.12
952.664	6537.12
952.892	6487.12
953.121	6427.12
953.349	6477.12
953.578	6428.12
953.806	6413.12
954.035	6322.12
954.263	6293.12
954.491	6248.12
954.719	6314.12
954.948	6211.12
955.176	6146.12
955.404	6177.12
955.632	6117.12
955.86	6156.12
956.088	6118.12
956.316	6120.12
956.544	6052.12
956.772	6033.12
956.999	5970.12
957.227	6010.12
957.455	5884.12
957.683	5896.12
957.91	5877.12
958.138	5771.12
958.365	5807.12
958.593	5771.12
958.82	5715.12
959.048	5768.12
959.275	5682.12
959.502	5689.12
959.73	5603.12
959.957	5673.12
960.184	5673.12
960.411	5633.12
960.638	5654.12
960.865	5634.12
961.092	5650.12
961.319	5501.12
961.546	5611.12
961.773	5618.12
962	5491.12
962.227	5586.12
962.454	5570.12
962.68	5504.12
962.907	5523.12
963.134	5405.12
963.36	5379.12
963.587	5395.12
963.813	5341.12
964.04	5326.12
964.266	5223.12
964.493	5355.12
964.719	5291.12
964.945	5241.12
965.171	5142.12
965.398	5164.12
965.624	5185.12
965.85	5073.12
966.076	5117.12
966.302	5093.12
966.528	4996.12
966.754	5038.12
966.98	5040.12
967.206	4997.12
967.431	4926.12
967.657	5019.12
967.883	4960.12
968.109	4930.12
968.334	4861.12
968.56	4833.12
968.785	4889.12
969.011	4866.12
969.236	4869.12
969.462	4779.12
969.687	4858.12
969.912	4829.12
970.138	4827.12
970.363	4720.12
970.588	4747.12
970.813	4727.12
971.038	4678.12
971.263	4693.12
971.488	4695.12
971.713	4753.12
971.938	4694.12
972.163	4555.12
972.388	4557.12
972.613	4554.12
972.838	4590.12
973.062	4561.12
973.287	4530.12
973.512	4452.12
973.736	4479.12
973.961	4457.12
974.185	4374.12
974.41	4404.12
974.634	4320.12
974.858	4289.12
975.083	4337.12
975.307	4376.12
975.531	4238.12
975.755	4212.12
975.98	4160.12
976.204	4105.12
976.428	4078.12
976.652	4121.12
976.876	4122.12
977.1	4120.12
977.324	4032.12
977.547	4078.12
977.771	4085.12
977.995	4085.12
978.219	3978.12
978.442	4095.12
978.666	3994.12
978.89	3981.12
979.113	3970.12
979.337	3929.12
979.56	3935.12
979.783	3985.12
980.007	3892.12
980.23	3865.12
980.453	3851.12
980.677	3901.12
980.9	3861.12
981.123	3788.12
981.346	3888.12
981.569	3809.12
981.792	3798.12
982.015	3769.12
982.238	3699.12
982.461	3679.12
982.684	3673.12
982.907	3648.12
983.129	3646.12
983.352	3660.12
983.575	3621.12
983.797	3597.12
984.02	3562.12
984.242	3569.12
984.465	3544.12
984.687	3535.12
984.91	3574.12
985.132	3505.12
985.354	3541.12
985.577	3470.12
985.799	3487.12
986.021	3364.12
986.243	3379.12
986.465	3374.12
986.687	3433.12
986.909	3488.12
987.131	3395.12
987.353	3346.12
987.575	3365.12
987.797	3367.12
988.019	3260.12
988.241	3339.12
988.462	3266.12
988.684	3283.12
988.906	3343.12
989.127	3320.12
989.349	3239.12
989.57	3279.12
989.792	3292.12
990.013	3295.12
990.234	3242.12
990.456	3308.12
990.677	3266.12
990.898	3198.12
991.119	3209.12
991.341	3223.12
991.562	3160.12
991.783	3182.12
992.004	3096.12
992.225	3070.12
992.446	3126.12
992.667	2998.12
992.887	3048.12
993.108	2968.12
993.329	3070.12
993.55	3069.12
993.77	2946.12
993.991	2937.12
994.212	2968.12
994.432	2951.12
994.653	2956.12
994.873	2919.12
995.093	2781.12
995.314	2863.12
995.534	2874.12
995.754	2899.12
995.975	2907.12
996.195	2795.12
996.415	2871.12
996.635	2851.12
996.855	2825.12
997.075	2827.12
997.295	2809.12
997.515	2799.12
997.735	2857.12
997.955	2815.12
998.174	2795.12
998.394	2761.12
998.614	2789.12
998.834	2738.12
999.053	2802.12
999.273	2767.12
999.492	2805.12
999.712	2717.12
999.931	2705.12
1000.151	2686.12
1000.37	2648.12
1000.589	2729.12
1000.809	2682.12
1001.028	2717.12
1001.247	2680.12
1001.466	2520.12
1001.685	2684.12
1001.904	2621.12
1002.123	2603.12
1002.342	2578.12
1002.561	2538.12
1002.78	2544.12
1002.999	2624.12
1003.218	2535.12
1003.436	2486.12
1003.655	2542.12
1003.874	2471.12
1004.092	2463.12
1004.311	2523.12
1004.53	2479.12
1004.748	2523.12
1004.966	2440.12
1005.185	2513.12
1005.403	2503.12
1005.622	2463.12
1005.84	2515.12
1006.058	2440.12
1006.276	2470.12
1006.494	2941.12
1006.712	2455.12
1006.931	2517.12
1007.149	2433.12
1007.367	2447.12
1007.584	2464.12
1007.802	2486.12
1008.02	2471.12
1008.238	2565.12
1008.456	2555.12
1008.673	2435.12
1008.891	2566.12
1009.109	2528.12
1009.326	2619.12
1009.544	2716.12
1009.761	2632.12
1009.979	2791.12
1010.196	2831.12
1010.413	2989.12
1010.631	3085.12
1010.848	3156.12
1011.065	3171.12
1011.282	3124.12
1011.5	3048.12
1011.717	3152.12
1011.934	3092.12
1012.151	3147.12
1012.368	3071.12
1012.585	3018.12
1012.801	3085.12
1013.018	3075.12
1013.235	3045.12
1013.452	3065.12
1013.669	3063.12
1013.885	3064.12
1014.102	3098.12
1014.318	3062.12
1014.535	3053.12
1014.751	3062.12
1014.968	3047.12
1015.184	3073.12
1015.401	2982.12
1015.617	2959.12
1015.833	2895.12
1016.049	2939.12
1016.266	2865.12
1016.482	2863.12
1016.698	2816.12
1016.914	2804.12
1017.13	2756.12
1017.346	2709.12
1017.562	2805.12
1017.778	2718.12
1017.993	2703.12
1018.209	2754.12
1018.425	2752.12
1018.641	2653.12
1018.856	2645.12
1019.072	2691.12
1019.288	2752.12
1019.503	2683.12
1019.719	2646.12
1019.934	2626.12
1020.149	2694.12
1020.365	2615.12
1020.58	2520.12
1020.795	2535.12
1021.011	2470.12
1021.226	2425.12
1021.441	2416.12
1021.656	2300.12
1021.871	2233.12
1022.086	2214.12
1022.301	2149.12
1022.516	2151.12
1022.731	2165.12
1022.946	2089.12
1023.16	2057.12
1023.375	1994.12
1023.59	1953.12
1023.804	1933.12
1024.019	2022.12
1024.234	1844.12
1024.448	1860.12
1024.663	1749.12
1024.877	1757.12
1025.092	1781.12
1025.306	1724.12
1025.52	1646.12
1025.734	1681.12
1025.949	1599.12
1026.163	1579.12
1026.377	1478.12
1026.591	1502.12
1026.805	1443.12
1027.019	1398.12
1027.233	1381.12
1027.447	1301.12
1027.661	1396.12
1027.875	1316.12
1028.088	1324.12
1028.302	1257.12
1028.516	1209.12
1028.73	1220.12
1028.943	1170.12
1029.157	1097.12
1029.37	1014.12
1029.584	-1.88
1029.797	-0.88
1030.011	-4.88
1030.224	-2.88
