Data from QEP037381__57__15-18-45-860.txt Node

Date: Fri Dec 16 15:18:45 EST 2022
User: dcclab
Spectrometer: QEP03738
Trigger mode: 4
Integration Time (sec): 1.000000E1
Scans to average: 1
Electric dark correction enabled: true
Nonlinearity correction enabled: false
Boxcar width: 0
XAxis mode: Wavelengths
Number of Pixels in Spectrum: 1044
>>>>>Begin Spectral Data<<<<<
784.041	12.12
784.3	1.12
784.558	-3.88
784.817	-3.88
785.075	85904.12
785.334	15025.12
785.592	7162.12
785.851	4903.12
786.109	3715.12
786.368	2939.12
786.626	2393.12
786.884	1984.12
787.143	1681.12
787.401	1390.12
787.659	1241.12
787.917	1072.12
788.175	1021.12
788.433	913.12
788.691	819.12
788.949	752.12
789.207	728.12
789.465	624.12
789.723	616.12
789.98	566.12
790.238	601.12
790.496	582.12
790.753	531.12
791.011	602.12
791.268	532.12
791.526	529.12
791.783	540.12
792.041	521.12
792.298	464.12
792.556	498.12
792.813	494.12
793.07	474.12
793.327	446.12
793.584	531.12
793.841	450.12
794.099	477.12
794.356	533.12
794.613	425.12
794.869	481.12
795.126	422.12
795.383	439.12
795.64	445.12
795.897	389.12
796.153	464.12
796.41	452.12
796.667	440.12
796.923	439.12
797.18	433.12
797.436	457.12
797.693	437.12
797.949	500.12
798.206	502.12
798.462	424.12
798.718	486.12
798.974	476.12
799.231	514.12
799.487	511.12
799.743	509.12
799.999	535.12
800.255	553.12
800.511	517.12
800.767	573.12
801.023	563.12
801.279	602.12
801.534	649.12
801.79	705.12
802.046	747.12
802.302	896.12
802.557	1038.12
802.813	1290.12
803.068	1629.12
803.324	2247.12
803.579	3069.12
803.835	4310.12
804.09	5955.12
804.345	7870.12
804.601	10032.12
804.856	12276.12
805.111	14198.12
805.366	15698.12
805.621	16849.12
805.876	17592.12
806.131	18126.12
806.386	18406.12
806.641	18870.12
806.896	19143.12
807.151	19540.12
807.406	19785.12
807.661	20202.12
807.915	20679.12
808.17	20977.12
808.425	21299.12
808.679	21468.12
808.934	21747.12
809.188	22000.12
809.443	22253.12
809.697	22540.12
809.951	22751.12
810.206	22985.12
810.46	23286.12
810.714	23506.12
810.968	23799.12
811.223	23833.12
811.477	24196.12
811.731	24477.12
811.985	24424.12
812.239	24607.12
812.493	24857.12
812.747	24787.12
813	24967.12
813.254	25120.12
813.508	25236.12
813.762	25331.12
814.015	25526.12
814.269	25851.12
814.522	25950.12
814.776	26337.12
815.03	26682.12
815.283	27045.12
815.536	27611.12
815.79	27972.12
816.043	28555.12
816.296	28822.12
816.55	29319.12
816.803	29674.12
817.056	29977.12
817.309	30446.12
817.562	30627.12
817.815	30986.12
818.068	31252.12
818.321	31676.12
818.574	31952.12
818.827	32431.12
819.079	32981.12
819.332	33644.12
819.585	33917.12
819.838	34384.12
820.09	34579.12
820.343	34936.12
820.595	35068.12
820.848	35366.12
821.1	35447.12
821.353	35555.12
821.605	35599.12
821.857	35524.12
822.11	35273.12
822.362	35365.12
822.614	35326.12
822.866	35379.12
823.118	35377.12
823.37	35522.12
823.622	35514.12
823.874	35776.12
824.126	35916.12
824.378	35907.12
824.63	36236.12
824.882	36223.12
825.134	36154.12
825.385	36257.12
825.637	36054.12
825.888	36026.12
826.14	36008.12
826.392	36059.12
826.643	35655.12
826.895	35718.12
827.146	35492.12
827.397	35477.12
827.649	35730.12
827.9	35442.12
828.151	35644.12
828.402	35819.12
828.653	35877.12
828.905	35821.12
829.156	36091.12
829.407	36034.12
829.658	36124.12
829.909	36165.12
830.159	35968.12
830.41	35862.12
830.661	35732.12
830.912	35555.12
831.162	35475.12
831.413	35479.12
831.664	35473.12
831.914	35440.12
832.165	35530.12
832.415	35515.12
832.666	35338.12
832.916	35535.12
833.167	35460.12
833.417	35457.12
833.667	35263.12
833.917	35324.12
834.168	35073.12
834.418	35196.12
834.668	34914.12
834.918	34836.12
835.168	34788.12
835.418	34621.12
835.668	34643.12
835.918	34502.12
836.167	34410.12
836.417	34440.12
836.667	34287.12
836.917	34362.12
837.166	34276.12
837.416	34358.12
837.666	34251.12
837.915	34237.12
838.165	34131.12
838.414	34093.12
838.663	34081.12
838.913	33973.12
839.162	34053.12
839.411	33877.12
839.661	33815.12
839.91	33755.12
840.159	33537.12
840.408	33651.12
840.657	33834.12
840.906	33617.12
841.155	33744.12
841.404	33800.12
841.653	33768.12
841.902	33733.12
842.15	33925.12
842.399	34027.12
842.648	33782.12
842.897	33551.12
843.145	33597.12
843.394	33417.12
843.642	33170.12
843.891	33099.12
844.139	32907.12
844.388	32726.12
844.636	32647.12
844.884	32656.12
845.133	32629.12
845.381	32623.12
845.629	32661.12
845.877	32636.12
846.125	32605.12
846.373	32621.12
846.621	32413.12
846.869	32471.12
847.117	32135.12
847.365	32065.12
847.613	31946.12
847.861	31787.12
848.108	31685.12
848.356	31654.12
848.604	31699.12
848.851	31778.12
849.099	31829.12
849.346	31797.12
849.594	31975.12
849.841	32233.12
850.089	32146.12
850.336	32161.12
850.583	32165.12
850.831	32107.12
851.078	31930.12
851.325	31886.12
851.572	31928.12
851.819	31717.12
852.066	31197.12
852.313	30683.12
852.56	30473.12
852.807	30450.12
853.054	30275.12
853.301	30193.12
853.548	30184.12
853.794	30544.12
854.041	30505.12
854.288	30720.12
854.534	30893.12
854.781	30929.12
855.028	30850.12
855.274	30850.12
855.52	30686.12
855.767	30551.12
856.013	30501.12
856.26	30852.12
856.506	30216.12
856.752	30213.12
856.998	30299.12
857.244	30469.12
857.49	30356.12
857.736	30546.12
857.982	30606.12
858.228	30488.12
858.474	30335.12
858.72	30220.12
858.966	30005.12
859.212	29748.12
859.458	29425.12
859.703	29143.12
859.949	28775.12
860.195	28755.12
860.44	28617.12
860.686	28510.12
860.931	28546.12
861.177	28270.12
861.422	28344.12
861.667	28029.12
861.913	28192.12
862.158	28304.12
862.403	28396.12
862.648	28490.12
862.893	28532.12
863.138	28479.12
863.384	28371.12
863.629	28369.12
863.873	28260.12
864.118	28198.12
864.363	28163.12
864.608	28060.12
864.853	27977.12
865.098	27873.12
865.342	27713.12
865.587	27595.12
865.832	27631.12
866.076	27578.12
866.321	27515.12
866.565	27538.12
866.81	27226.12
867.054	27336.12
867.298	27214.12
867.543	27037.12
867.787	27065.12
868.031	26935.12
868.275	26968.12
868.519	26998.12
868.764	26999.12
869.008	26968.12
869.252	26871.12
869.496	26751.12
869.739	26820.12
869.983	26730.12
870.227	26704.12
870.471	26613.12
870.715	26823.12
870.958	26775.12
871.202	26946.12
871.446	26960.12
871.689	26998.12
871.933	26915.12
872.176	26940.12
872.42	27005.12
872.663	26814.12
872.906	26770.12
873.15	26627.12
873.393	26439.12
873.636	26414.12
873.879	26081.12
874.122	25975.12
874.366	25649.12
874.609	25539.12
874.852	25353.12
875.095	25307.12
875.337	25224.12
875.58	25030.12
875.823	24997.12
876.066	25042.12
876.309	24948.12
876.551	24839.12
876.794	24688.12
877.037	24690.12
877.279	24575.12
877.522	24589.12
877.764	24647.12
878.007	24575.12
878.249	24676.12
878.491	24499.12
878.734	24544.12
878.976	24408.12
879.218	24239.12
879.46	24136.12
879.702	24095.12
879.945	23849.12
880.187	23604.12
880.429	23613.12
880.671	23343.12
880.912	23424.12
881.154	23377.12
881.396	23262.12
881.638	23247.12
881.88	23280.12
882.121	23292.12
882.363	23084.12
882.605	23267.12
882.846	23188.12
883.088	23100.12
883.329	23031.12
883.571	23047.12
883.812	23061.12
884.053	23319.12
884.295	23624.12
884.536	23801.12
884.777	23752.12
885.018	23559.12
885.259	23588.12
885.5	23604.12
885.742	23681.12
885.982	23425.12
886.223	23385.12
886.464	23075.12
886.705	22970.12
886.946	22759.12
887.187	22498.12
887.428	22347.12
887.668	22052.12
887.909	21839.12
888.15	21647.12
888.39	21487.12
888.631	21462.12
888.871	21302.12
889.111	21188.12
889.352	21036.12
889.592	20787.12
889.833	20624.12
890.073	20697.12
890.313	20515.12
890.553	20212.12
890.793	20226.12
891.033	20195.12
891.273	20140.12
891.513	20054.12
891.753	20126.12
891.993	20081.12
892.233	20057.12
892.473	20225.12
892.713	20105.12
892.952	20121.12
893.192	20229.12
893.432	20143.12
893.671	20172.12
893.911	20057.12
894.15	19947.12
894.39	19790.12
894.629	19672.12
894.869	19624.12
895.108	19492.12
895.347	19556.12
895.587	19512.12
895.826	19339.12
896.065	19275.12
896.304	19459.12
896.543	19367.12
896.782	19221.12
897.021	19250.12
897.26	19229.12
897.499	19221.12
897.738	19248.12
897.977	19176.12
898.216	18959.12
898.454	18733.12
898.693	18704.12
898.932	18833.12
899.17	18640.12
899.409	18541.12
899.647	18527.12
899.886	18505.12
900.124	18616.12
900.363	18546.12
900.601	18587.12
900.839	18636.12
901.078	18723.12
901.316	18731.12
901.554	18769.12
901.792	18862.12
902.03	18935.12
902.268	18929.12
902.506	18851.12
902.744	18674.12
902.982	18488.12
903.22	18218.12
903.458	18024.12
903.695	17820.12
903.933	17523.12
904.171	17288.12
904.409	17026.12
904.646	16943.12
904.884	16618.12
905.121	16478.12
905.359	16174.12
905.596	16118.12
905.833	15948.12
906.071	15866.12
906.308	15929.12
906.545	15788.12
906.783	15730.12
907.02	15675.12
907.257	15663.12
907.494	15673.12
907.731	15523.12
907.968	15471.12
908.205	15330.12
908.442	15301.12
908.679	15210.12
908.915	14966.12
909.152	14949.12
909.389	14755.12
909.626	14766.12
909.862	14663.12
910.099	14620.12
910.335	14604.12
910.572	14472.12
910.808	14409.12
911.045	14420.12
911.281	14326.12
911.518	14310.12
911.754	14214.12
911.99	14161.12
912.226	13990.12
912.463	13867.12
912.699	13785.12
912.935	13768.12
913.171	13589.12
913.407	13520.12
913.643	13495.12
913.879	13352.12
914.114	13208.12
914.35	13070.12
914.586	12913.12
914.822	12772.12
915.057	12879.12
915.293	12634.12
915.529	12575.12
915.764	12688.12
916	12626.12
916.235	12626.12
916.471	12610.12
916.706	12526.12
916.941	12446.12
917.177	12540.12
917.412	12488.12
917.647	12545.12
917.882	12440.12
918.117	12475.12
918.352	12380.12
918.588	12400.12
918.823	12246.12
919.057	12076.12
919.292	11925.12
919.527	11950.12
919.762	11781.12
919.997	11745.12
920.232	11624.12
920.466	11571.12
920.701	11372.12
920.935	11369.12
921.17	11353.12
921.405	11187.12
921.639	11187.12
921.873	11133.12
922.108	11196.12
922.342	11001.12
922.576	10945.12
922.811	10976.12
923.045	10914.12
923.279	10912.12
923.513	10800.12
923.747	10815.12
923.981	10750.12
924.215	10683.12
924.449	10638.12
924.683	10570.12
924.917	10520.12
925.151	10404.12
925.385	10510.12
925.618	10358.12
925.852	10348.12
926.086	10350.12
926.319	10310.12
926.553	10268.12
926.786	10388.12
927.02	10283.12
927.253	10308.12
927.486	10310.12
927.72	10157.12
927.953	10257.12
928.186	10204.12
928.42	10142.12
928.653	10081.12
928.886	10019.12
929.119	10046.12
929.352	9994.12
929.585	9958.12
929.818	9836.12
930.051	9793.12
930.284	9715.12
930.516	9594.12
930.749	9553.12
930.982	9514.12
931.215	9488.12
931.447	9368.12
931.68	9355.12
931.912	9384.12
932.145	9346.12
932.377	9383.12
932.61	9467.12
932.842	9297.12
933.074	9363.12
933.307	9277.12
933.539	9437.12
933.771	9359.12
934.003	9392.12
934.236	9312.12
934.468	9346.12
934.7	9218.12
934.932	9280.12
935.164	9239.12
935.395	9162.12
935.627	9213.12
935.859	9182.12
936.091	9087.12
936.323	9119.12
936.554	9139.12
936.786	9016.12
937.017	8978.12
937.249	9000.12
937.481	8826.12
937.712	8933.12
937.943	8923.12
938.175	8909.12
938.406	8885.12
938.637	8952.12
938.869	8857.12
939.1	8831.12
939.331	8735.12
939.562	8834.12
939.793	8745.12
940.024	8820.12
940.255	8652.12
940.486	8641.12
940.717	8601.12
940.948	8579.12
941.179	8499.12
941.409	8551.12
941.64	8477.12
941.871	8510.12
942.102	8437.12
942.332	8454.12
942.563	8472.12
942.793	8488.12
943.024	8403.12
943.254	8470.12
943.484	8454.12
943.715	8427.12
943.945	8431.12
944.175	8311.12
944.405	8309.12
944.636	8346.12
944.866	8412.12
945.096	8379.12
945.326	8268.12
945.556	8313.12
945.786	8221.12
946.016	8195.12
946.245	8058.12
946.475	8038.12
946.705	8020.12
946.935	7970.12
947.164	8012.12
947.394	7899.12
947.624	7858.12
947.853	7946.12
948.083	7831.12
948.312	7791.12
948.542	7678.12
948.771	7668.12
949	7621.12
949.23	7648.12
949.459	7662.12
949.688	7672.12
949.917	7633.12
950.146	7619.12
950.375	7674.12
950.604	7563.12
950.833	7647.12
951.062	7622.12
951.291	7543.12
951.52	7518.12
951.749	7501.12
951.978	7448.12
952.206	7442.12
952.435	7363.12
952.664	7450.12
952.892	7431.12
953.121	7338.12
953.349	7332.12
953.578	7356.12
953.806	7255.12
954.035	7209.12
954.263	7174.12
954.491	7151.12
954.719	7145.12
954.948	7094.12
955.176	7069.12
955.404	6974.12
955.632	7061.12
955.86	7032.12
956.088	6901.12
956.316	6936.12
956.544	6899.12
956.772	6816.12
956.999	6768.12
957.227	6805.12
957.455	6718.12
957.683	6663.12
957.91	6615.12
958.138	6644.12
958.365	6607.12
958.593	6607.12
958.82	6422.12
959.048	6591.12
959.275	6476.12
959.502	6512.12
959.73	6470.12
959.957	6461.12
960.184	6516.12
960.411	6378.12
960.638	6434.12
960.865	6390.12
961.092	6395.12
961.319	6264.12
961.546	6381.12
961.773	6343.12
962	6351.12
962.227	6337.12
962.454	6332.12
962.68	6289.12
962.907	6258.12
963.134	6176.12
963.36	6158.12
963.587	6176.12
963.813	6072.12
964.04	6078.12
964.266	6006.12
964.493	6072.12
964.719	6041.12
964.945	5962.12
965.171	5845.12
965.398	5893.12
965.624	5904.12
965.85	5827.12
966.076	5770.12
966.302	5774.12
966.528	5704.12
966.754	5758.12
966.98	5750.12
967.206	5713.12
967.431	5636.12
967.657	5675.12
967.883	5674.12
968.109	5598.12
968.334	5620.12
968.56	5579.12
968.785	5525.12
969.011	5480.12
969.236	5517.12
969.462	5468.12
969.687	5504.12
969.912	5468.12
970.138	5502.12
970.363	5393.12
970.588	5467.12
970.813	5331.12
971.038	5326.12
971.263	5300.12
971.488	5348.12
971.713	5391.12
971.938	5403.12
972.163	5188.12
972.388	5228.12
972.613	5135.12
972.838	5224.12
973.062	5197.12
973.287	5191.12
973.512	5044.12
973.736	5039.12
973.961	5073.12
974.185	5014.12
974.41	5047.12
974.634	4944.12
974.858	4900.12
975.083	4927.12
975.307	4945.12
975.531	4849.12
975.755	4724.12
975.98	4842.12
976.204	4640.12
976.428	4709.12
976.652	4696.12
976.876	4631.12
977.1	4688.12
977.324	4639.12
977.547	4682.12
977.771	4643.12
977.995	4566.12
978.219	4514.12
978.442	4660.12
978.666	4530.12
978.89	4527.12
979.113	4525.12
979.337	4502.12
979.56	4509.12
979.783	4590.12
980.007	4440.12
980.23	4444.12
980.453	4392.12
980.677	4418.12
980.9	4381.12
981.123	4338.12
981.346	4403.12
981.569	4269.12
981.792	4369.12
982.015	4244.12
982.238	4270.12
982.461	4245.12
982.684	4175.12
982.907	4132.12
983.129	4138.12
983.352	4163.12
983.575	4143.12
983.797	4088.12
984.02	4055.12
984.242	4042.12
984.465	4069.12
984.687	4044.12
984.91	4006.12
985.132	3967.12
985.354	4007.12
985.577	3965.12
985.799	3936.12
986.021	3830.12
986.243	3838.12
986.465	3850.12
986.687	3892.12
986.909	3946.12
987.131	3838.12
987.353	3786.12
987.575	3808.12
987.797	3787.12
988.019	3693.12
988.241	3777.12
988.462	3729.12
988.684	3753.12
988.906	3771.12
989.127	3802.12
989.349	3663.12
989.57	3712.12
989.792	3746.12
990.013	3712.12
990.234	3722.12
990.456	3691.12
990.677	3689.12
990.898	3573.12
991.119	3604.12
991.341	3628.12
991.562	3580.12
991.783	3547.12
992.004	3491.12
992.225	3411.12
992.446	3474.12
992.667	3397.12
992.887	3474.12
993.108	3316.12
993.329	3476.12
993.55	3427.12
993.77	3327.12
993.991	3307.12
994.212	3309.12
994.432	3296.12
994.653	3298.12
994.873	3316.12
995.093	3176.12
995.314	3199.12
995.534	3211.12
995.754	3277.12
995.975	3258.12
996.195	3093.12
996.415	3208.12
996.635	3185.12
996.855	3184.12
997.075	3125.12
997.295	3173.12
997.515	3110.12
997.735	3131.12
997.955	3144.12
998.174	3112.12
998.394	3093.12
998.614	3116.12
998.834	3085.12
999.053	3109.12
999.273	3078.12
999.492	3136.12
999.712	3077.12
999.931	2992.12
1000.151	3021.12
1000.37	2982.12
1000.589	3023.12
1000.809	2936.12
1001.028	3054.12
1001.247	2939.12
1001.466	2819.12
1001.685	2963.12
1001.904	2894.12
1002.123	2901.12
1002.342	2869.12
1002.561	2821.12
1002.78	2845.12
1002.999	2865.12
1003.218	2829.12
1003.436	2820.12
1003.655	2820.12
1003.874	2747.12
1004.092	2757.12
1004.311	2812.12
1004.53	2740.12
1004.748	2785.12
1004.966	2698.12
1005.185	2763.12
1005.403	2762.12
1005.622	2713.12
1005.84	2791.12
1006.058	2679.12
1006.276	2698.12
1006.494	3171.12
1006.712	2701.12
1006.931	2766.12
1007.149	2649.12
1007.367	2638.12
1007.584	2723.12
1007.802	2733.12
1008.02	2653.12
1008.238	2757.12
1008.456	2776.12
1008.673	2614.12
1008.891	2761.12
1009.109	2679.12
1009.326	2774.12
1009.544	2856.12
1009.761	2798.12
1009.979	2889.12
1010.196	2899.12
1010.413	3045.12
1010.631	3129.12
1010.848	3225.12
1011.065	3216.12
1011.282	3183.12
1011.5	3089.12
1011.717	3192.12
1011.934	3164.12
1012.151	3189.12
1012.368	3146.12
1012.585	3085.12
1012.801	3103.12
1013.018	3083.12
1013.235	3108.12
1013.452	3120.12
1013.669	3162.12
1013.885	3148.12
1014.102	3157.12
1014.318	3120.12
1014.535	3067.12
1014.751	3122.12
1014.968	3088.12
1015.184	3105.12
1015.401	3016.12
1015.617	2999.12
1015.833	2941.12
1016.049	2981.12
1016.266	2955.12
1016.482	2952.12
1016.698	2846.12
1016.914	2906.12
1017.13	2833.12
1017.346	2807.12
1017.562	2895.12
1017.778	2816.12
1017.993	2726.12
1018.209	2848.12
1018.425	2846.12
1018.641	2783.12
1018.856	2736.12
1019.072	2818.12
1019.288	2815.12
1019.503	2795.12
1019.719	2693.12
1019.934	2689.12
1020.149	2764.12
1020.365	2696.12
1020.58	2612.12
1020.795	2664.12
1021.011	2582.12
1021.226	2514.12
1021.441	2508.12
1021.656	2402.12
1021.871	2333.12
1022.086	2302.12
1022.301	2296.12
1022.516	2221.12
1022.731	2230.12
1022.946	2185.12
1023.16	2164.12
1023.375	2090.12
1023.59	2086.12
1023.804	1979.12
1024.019	2104.12
1024.234	1938.12
1024.448	1964.12
1024.663	1862.12
1024.877	1861.12
1025.092	1853.12
1025.306	1836.12
1025.52	1737.12
1025.734	1788.12
1025.949	1711.12
1026.163	1663.12
1026.377	1553.12
1026.591	1609.12
1026.805	1528.12
1027.019	1514.12
1027.233	1452.12
1027.447	1414.12
1027.661	1479.12
1027.875	1414.12
1028.088	1408.12
1028.302	1318.12
1028.516	1286.12
1028.73	1256.12
1028.943	1224.12
1029.157	1167.12
1029.37	1105.12
1029.584	-2.88
1029.797	0.12
1030.011	-2.88
1030.224	0.12
