Data from QEP037381__52__15-17-55-860.txt Node

Date: Fri Dec 16 15:17:55 EST 2022
User: dcclab
Spectrometer: QEP03738
Trigger mode: 4
Integration Time (sec): 1.000000E1
Scans to average: 1
Electric dark correction enabled: true
Nonlinearity correction enabled: false
Boxcar width: 0
XAxis mode: Wavelengths
Number of Pixels in Spectrum: 1044
>>>>>Begin Spectral Data<<<<<
784.041	13.12
784.3	-0.88
784.558	-3.88
784.817	2.12
785.075	90694.12
785.334	15461.12
785.592	7201.12
785.851	4930.12
786.109	3764.12
786.368	2910.12
786.626	2357.12
786.884	2020.12
787.143	1690.12
787.401	1406.12
787.659	1241.12
787.917	1075.12
788.175	1002.12
788.433	899.12
788.691	806.12
788.949	729.12
789.207	721.12
789.465	619.12
789.723	596.12
789.98	561.12
790.238	581.12
790.496	562.12
790.753	547.12
791.011	585.12
791.268	517.12
791.526	503.12
791.783	554.12
792.041	511.12
792.298	434.12
792.556	484.12
792.813	474.12
793.07	450.12
793.327	435.12
793.584	521.12
793.841	444.12
794.099	472.12
794.356	518.12
794.613	418.12
794.869	453.12
795.126	425.12
795.383	416.12
795.64	429.12
795.897	381.12
796.153	437.12
796.41	426.12
796.667	409.12
796.923	421.12
797.18	416.12
797.436	443.12
797.693	420.12
797.949	454.12
798.206	492.12
798.462	400.12
798.718	459.12
798.974	440.12
799.231	490.12
799.487	475.12
799.743	476.12
799.999	522.12
800.255	511.12
800.511	485.12
800.767	528.12
801.023	541.12
801.279	546.12
801.534	595.12
801.79	650.12
802.046	668.12
802.302	814.12
802.557	934.12
802.813	1139.12
803.068	1398.12
803.324	1934.12
803.579	2630.12
803.835	3590.12
804.09	4929.12
804.345	6393.12
804.601	8086.12
804.856	9757.12
805.111	11331.12
805.366	12434.12
805.621	13261.12
805.876	13903.12
806.131	14325.12
806.386	14551.12
806.641	14780.12
806.896	15094.12
807.151	15350.12
807.406	15543.12
807.661	15877.12
807.915	16051.12
808.17	16494.12
808.425	16594.12
808.679	16680.12
808.934	16909.12
809.188	17110.12
809.443	17279.12
809.697	17551.12
809.951	17691.12
810.206	17842.12
810.46	17971.12
810.714	18193.12
810.968	18467.12
811.223	18512.12
811.477	18731.12
811.731	18831.12
811.985	18961.12
812.239	18970.12
812.493	19174.12
812.747	19199.12
813	19270.12
813.254	19364.12
813.508	19513.12
813.762	19614.12
814.015	19729.12
814.269	19784.12
814.522	19947.12
814.776	20273.12
815.03	20474.12
815.283	20820.12
815.536	21173.12
815.79	21442.12
816.043	21870.12
816.296	22079.12
816.55	22342.12
816.803	22596.12
817.056	22815.12
817.309	23084.12
817.562	23283.12
817.815	23615.12
818.068	23781.12
818.321	24031.12
818.574	24371.12
818.827	24570.12
819.079	24876.12
819.332	25323.12
819.585	25668.12
819.838	26138.12
820.09	26101.12
820.343	26398.12
820.595	26502.12
820.848	26662.12
821.1	26768.12
821.353	26990.12
821.605	26730.12
821.857	26791.12
822.11	26730.12
822.362	26618.12
822.614	26598.12
822.866	26561.12
823.118	26435.12
823.37	26722.12
823.622	26830.12
823.874	26759.12
824.126	26963.12
824.378	26964.12
824.63	27100.12
824.882	27043.12
825.134	27064.12
825.385	27021.12
825.637	26988.12
825.888	26959.12
826.14	26813.12
826.392	26785.12
826.643	26602.12
826.895	26569.12
827.146	26495.12
827.397	26263.12
827.649	26324.12
827.9	26315.12
828.151	26274.12
828.402	26390.12
828.653	26618.12
828.905	26636.12
829.156	26737.12
829.407	26648.12
829.658	26710.12
829.909	26792.12
830.159	26796.12
830.41	26523.12
830.661	26471.12
830.912	26369.12
831.162	26263.12
831.413	26289.12
831.664	26218.12
831.914	26109.12
832.165	26137.12
832.415	26155.12
832.666	26152.12
832.916	26239.12
833.167	26091.12
833.417	26125.12
833.667	26158.12
833.917	25993.12
834.168	25984.12
834.418	25949.12
834.668	25761.12
834.918	25612.12
835.168	25490.12
835.418	25481.12
835.668	25406.12
835.918	25353.12
836.167	25177.12
836.417	25220.12
836.667	25231.12
836.917	25071.12
837.166	25050.12
837.416	25148.12
837.666	25143.12
837.915	25038.12
838.165	25051.12
838.414	24981.12
838.663	24955.12
838.913	24962.12
839.162	24828.12
839.411	24887.12
839.661	24783.12
839.91	24724.12
840.159	24743.12
840.408	24737.12
840.657	24705.12
840.906	24750.12
841.155	24936.12
841.404	24636.12
841.653	24795.12
841.902	24731.12
842.15	24753.12
842.399	24850.12
842.648	24763.12
842.897	24655.12
843.145	24522.12
843.394	24303.12
843.642	24151.12
843.891	24229.12
844.139	24007.12
844.388	23785.12
844.636	23759.12
844.884	23892.12
845.133	23687.12
845.381	23658.12
845.629	23831.12
845.877	23758.12
846.125	23662.12
846.373	23714.12
846.621	23527.12
846.869	23489.12
847.117	23429.12
847.365	23216.12
847.613	23167.12
847.861	22989.12
848.108	23061.12
848.356	23065.12
848.604	23036.12
848.851	23029.12
849.099	23093.12
849.346	23126.12
849.594	23182.12
849.841	23284.12
850.089	23263.12
850.336	23291.12
850.583	23282.12
850.831	23071.12
851.078	23092.12
851.325	23085.12
851.572	23317.12
851.819	23053.12
852.066	22500.12
852.313	22193.12
852.56	22021.12
852.807	21974.12
853.054	21809.12
853.301	21851.12
853.548	21906.12
853.794	22079.12
854.041	22133.12
854.288	22150.12
854.534	22462.12
854.781	22305.12
855.028	22208.12
855.274	22329.12
855.52	22084.12
855.767	22001.12
856.013	22135.12
856.26	22527.12
856.506	21844.12
856.752	21846.12
856.998	21810.12
857.244	22029.12
857.49	22132.12
857.736	22005.12
857.982	22098.12
858.228	21913.12
858.474	21856.12
858.72	21826.12
858.966	21490.12
859.212	21257.12
859.458	21097.12
859.703	20918.12
859.949	20594.12
860.195	20458.12
860.44	20519.12
860.686	20427.12
860.931	20444.12
861.177	20259.12
861.422	20180.12
861.667	20079.12
861.913	20045.12
862.158	20037.12
862.403	20200.12
862.648	20235.12
862.893	20299.12
863.138	20377.12
863.384	20142.12
863.629	20120.12
863.873	20136.12
864.118	20028.12
864.363	19906.12
864.608	19906.12
864.853	19825.12
865.098	19728.12
865.342	19738.12
865.587	19635.12
865.832	19580.12
866.076	19560.12
866.321	19534.12
866.565	19525.12
866.81	19346.12
867.054	19356.12
867.298	19261.12
867.543	19215.12
867.787	19199.12
868.031	19158.12
868.275	19200.12
868.519	18990.12
868.764	19105.12
869.008	19056.12
869.252	19098.12
869.496	19182.12
869.739	19110.12
869.983	19195.12
870.227	19061.12
870.471	19140.12
870.715	19022.12
870.958	19225.12
871.202	19260.12
871.446	19272.12
871.689	19263.12
871.933	19368.12
872.176	19275.12
872.42	19113.12
872.663	19205.12
872.906	19100.12
873.15	19141.12
873.393	19036.12
873.636	19011.12
873.879	18767.12
874.122	18724.12
874.366	18346.12
874.609	18242.12
874.852	18052.12
875.095	18019.12
875.337	17975.12
875.58	17830.12
875.823	17955.12
876.066	17758.12
876.309	17753.12
876.551	17645.12
876.794	17553.12
877.037	17570.12
877.279	17375.12
877.522	17388.12
877.764	17425.12
878.007	17340.12
878.249	17306.12
878.491	17259.12
878.734	17301.12
878.976	17189.12
879.218	17106.12
879.46	17012.12
879.702	16901.12
879.945	16763.12
880.187	16611.12
880.429	16578.12
880.671	16363.12
880.912	16347.12
881.154	16316.12
881.396	16378.12
881.638	16402.12
881.88	16409.12
882.121	16231.12
882.363	16274.12
882.605	16291.12
882.846	16253.12
883.088	16343.12
883.329	16194.12
883.571	16315.12
883.812	16442.12
884.053	16745.12
884.295	17004.12
884.536	17257.12
884.777	17250.12
885.018	17219.12
885.259	17086.12
885.5	16960.12
885.742	17223.12
885.982	16821.12
886.223	16693.12
886.464	16579.12
886.705	16371.12
886.946	16245.12
887.187	15892.12
887.428	15731.12
887.668	15427.12
887.909	15193.12
888.15	15015.12
888.39	14956.12
888.631	14825.12
888.871	14796.12
889.111	14618.12
889.352	14569.12
889.592	14390.12
889.833	14319.12
890.073	14245.12
890.313	14262.12
890.553	13982.12
890.793	13969.12
891.033	14013.12
891.273	13940.12
891.513	13925.12
891.753	13869.12
891.993	13774.12
892.233	13822.12
892.473	13955.12
892.713	13894.12
892.952	13844.12
893.192	13952.12
893.432	13881.12
893.671	13955.12
893.911	13847.12
894.15	13761.12
894.39	13619.12
894.629	13568.12
894.869	13580.12
895.108	13422.12
895.347	13398.12
895.587	13441.12
895.826	13399.12
896.065	13375.12
896.304	13369.12
896.543	13435.12
896.782	13274.12
897.021	13444.12
897.26	13331.12
897.499	13373.12
897.738	13321.12
897.977	13272.12
898.216	13186.12
898.454	12981.12
898.693	12991.12
898.932	13011.12
899.17	12899.12
899.409	12907.12
899.647	12918.12
899.886	12882.12
900.124	12915.12
900.363	12988.12
900.601	12973.12
900.839	13047.12
901.078	13108.12
901.316	13148.12
901.554	13308.12
901.792	13402.12
902.03	13397.12
902.268	13399.12
902.506	13346.12
902.744	13197.12
902.982	13019.12
903.22	12861.12
903.458	12594.12
903.695	12288.12
903.933	12166.12
904.171	11931.12
904.409	11775.12
904.646	11626.12
904.884	11457.12
905.121	11299.12
905.359	11169.12
905.596	11066.12
905.833	10889.12
906.071	10831.12
906.308	10860.12
906.545	10750.12
906.783	10691.12
907.02	10724.12
907.257	10646.12
907.494	10616.12
907.731	10629.12
907.968	10569.12
908.205	10425.12
908.442	10344.12
908.679	10341.12
908.915	10255.12
909.152	10158.12
909.389	10061.12
909.626	9953.12
909.862	9876.12
910.099	9917.12
910.335	9888.12
910.572	9777.12
910.808	9748.12
911.045	9777.12
911.281	9658.12
911.518	9681.12
911.754	9569.12
911.99	9480.12
912.226	9491.12
912.463	9373.12
912.699	9275.12
912.935	9263.12
913.171	9158.12
913.407	8994.12
913.643	9049.12
913.879	8936.12
914.114	8857.12
914.35	8858.12
914.586	8746.12
914.822	8620.12
915.057	8700.12
915.293	8485.12
915.529	8441.12
915.764	8568.12
916	8504.12
916.235	8464.12
916.471	8432.12
916.706	8355.12
916.941	8377.12
917.177	8449.12
917.412	8411.12
917.647	8451.12
917.882	8261.12
918.117	8400.12
918.352	8297.12
918.588	8376.12
918.823	8196.12
919.057	8153.12
919.292	8036.12
919.527	8064.12
919.762	7921.12
919.997	7870.12
920.232	7748.12
920.466	7796.12
920.701	7608.12
920.935	7575.12
921.17	7565.12
921.405	7470.12
921.639	7564.12
921.873	7390.12
922.108	7464.12
922.342	7414.12
922.576	7346.12
922.811	7341.12
923.045	7367.12
923.279	7363.12
923.513	7189.12
923.747	7248.12
923.981	7158.12
924.215	7112.12
924.449	7081.12
924.683	7005.12
924.917	7005.12
925.151	6963.12
925.385	7009.12
925.618	6946.12
925.852	6954.12
926.086	6837.12
926.319	6900.12
926.553	6806.12
926.786	6859.12
927.02	6903.12
927.253	6890.12
927.486	6897.12
927.72	6750.12
927.953	6852.12
928.186	6809.12
928.42	6797.12
928.653	6700.12
928.886	6657.12
929.119	6716.12
929.352	6641.12
929.585	6654.12
929.818	6525.12
930.051	6514.12
930.284	6464.12
930.516	6400.12
930.749	6347.12
930.982	6327.12
931.215	6358.12
931.447	6265.12
931.68	6278.12
931.912	6231.12
932.145	6225.12
932.377	6231.12
932.61	6397.12
932.842	6189.12
933.074	6221.12
933.307	6111.12
933.539	6279.12
933.771	6295.12
934.003	6202.12
934.236	6286.12
934.468	6297.12
934.7	6166.12
934.932	6220.12
935.164	6129.12
935.395	6117.12
935.627	6113.12
935.859	6111.12
936.091	6017.12
936.323	6079.12
936.554	6049.12
936.786	5991.12
937.017	5941.12
937.249	5962.12
937.481	5903.12
937.712	5955.12
937.943	5958.12
938.175	5942.12
938.406	5899.12
938.637	5942.12
938.869	5792.12
939.1	5856.12
939.331	5802.12
939.562	5831.12
939.793	5800.12
940.024	5789.12
940.255	5759.12
940.486	5712.12
940.717	5676.12
940.948	5713.12
941.179	5594.12
941.409	5602.12
941.64	5603.12
941.871	5667.12
942.102	5566.12
942.332	5557.12
942.563	5662.12
942.793	5598.12
943.024	5525.12
943.254	5607.12
943.484	5668.12
943.715	5639.12
943.945	5592.12
944.175	5530.12
944.405	5505.12
944.636	5479.12
944.866	5530.12
945.096	5531.12
945.326	5433.12
945.556	5476.12
945.786	5495.12
946.016	5381.12
946.245	5338.12
946.475	5294.12
946.705	5290.12
946.935	5280.12
947.164	5247.12
947.394	5188.12
947.624	5239.12
947.853	5236.12
948.083	5185.12
948.312	5092.12
948.542	5042.12
948.771	5021.12
949	5065.12
949.23	5019.12
949.459	5020.12
949.688	5113.12
949.917	5018.12
950.146	5036.12
950.375	5046.12
950.604	4953.12
950.833	5019.12
951.062	5000.12
951.291	4926.12
951.52	4868.12
951.749	4939.12
951.978	4889.12
952.206	4859.12
952.435	4890.12
952.664	4830.12
952.892	4881.12
953.121	4826.12
953.349	4830.12
953.578	4750.12
953.806	4784.12
954.035	4715.12
954.263	4736.12
954.491	4665.12
954.719	4712.12
954.948	4644.12
955.176	4565.12
955.404	4590.12
955.632	4586.12
955.86	4573.12
956.088	4556.12
956.316	4589.12
956.544	4551.12
956.772	4477.12
956.999	4458.12
957.227	4530.12
957.455	4387.12
957.683	4411.12
957.91	4293.12
958.138	4300.12
958.365	4278.12
958.593	4276.12
958.82	4230.12
959.048	4287.12
959.275	4282.12
959.502	4214.12
959.73	4226.12
959.957	4287.12
960.184	4216.12
960.411	4128.12
960.638	4274.12
960.865	4150.12
961.092	4246.12
961.319	4079.12
961.546	4188.12
961.773	4167.12
962	4164.12
962.227	4208.12
962.454	4134.12
962.68	4068.12
962.907	4063.12
963.134	4002.12
963.36	4081.12
963.587	4050.12
963.813	3972.12
964.04	3985.12
964.266	3949.12
964.493	3986.12
964.719	3978.12
964.945	3910.12
965.171	3808.12
965.398	3860.12
965.624	3919.12
965.85	3804.12
966.076	3744.12
966.302	3836.12
966.528	3725.12
966.754	3795.12
966.98	3762.12
967.206	3720.12
967.431	3705.12
967.657	3758.12
967.883	3714.12
968.109	3699.12
968.334	3611.12
968.56	3632.12
968.785	3621.12
969.011	3573.12
969.236	3636.12
969.462	3550.12
969.687	3574.12
969.912	3597.12
970.138	3605.12
970.363	3549.12
970.588	3538.12
970.813	3479.12
971.038	3503.12
971.263	3559.12
971.488	3526.12
971.713	3530.12
971.938	3508.12
972.163	3390.12
972.388	3414.12
972.613	3420.12
972.838	3401.12
973.062	3354.12
973.287	3354.12
973.512	3280.12
973.736	3316.12
973.961	3319.12
974.185	3290.12
974.41	3328.12
974.634	3193.12
974.858	3219.12
975.083	3256.12
975.307	3234.12
975.531	3180.12
975.755	3088.12
975.98	3112.12
976.204	3037.12
976.428	3041.12
976.652	3050.12
976.876	3028.12
977.1	3061.12
977.324	2974.12
977.547	3028.12
977.771	3053.12
977.995	3019.12
978.219	3006.12
978.442	3072.12
978.666	2997.12
978.89	2978.12
979.113	2960.12
979.337	2998.12
979.56	2941.12
979.783	2987.12
980.007	2885.12
980.23	2942.12
980.453	2883.12
980.677	2915.12
980.9	2874.12
981.123	2784.12
981.346	2891.12
981.569	2839.12
981.792	2852.12
982.015	2838.12
982.238	2782.12
982.461	2793.12
982.684	2770.12
982.907	2714.12
983.129	2727.12
983.352	2777.12
983.575	2734.12
983.797	2702.12
984.02	2646.12
984.242	2659.12
984.465	2669.12
984.687	2684.12
984.91	2701.12
985.132	2654.12
985.354	2698.12
985.577	2593.12
985.799	2600.12
986.021	2540.12
986.243	2549.12
986.465	2576.12
986.687	2605.12
986.909	2627.12
987.131	2565.12
987.353	2537.12
987.575	2573.12
987.797	2487.12
988.019	2463.12
988.241	2482.12
988.462	2466.12
988.684	2531.12
988.906	2536.12
989.127	2544.12
989.349	2410.12
989.57	2459.12
989.792	2508.12
990.013	2488.12
990.234	2513.12
990.456	2502.12
990.677	2466.12
990.898	2402.12
991.119	2415.12
991.341	2422.12
991.562	2336.12
991.783	2398.12
992.004	2375.12
992.225	2312.12
992.446	2357.12
992.667	2269.12
992.887	2332.12
993.108	2235.12
993.329	2367.12
993.55	2300.12
993.77	2256.12
993.991	2228.12
994.212	2265.12
994.432	2242.12
994.653	2274.12
994.873	2216.12
995.093	2126.12
995.314	2189.12
995.534	2253.12
995.754	2236.12
995.975	2284.12
996.195	2183.12
996.415	2215.12
996.635	2198.12
996.855	2184.12
997.075	2133.12
997.295	2145.12
997.515	2135.12
997.735	2209.12
997.955	2163.12
998.174	2129.12
998.394	2126.12
998.614	2176.12
998.834	2123.12
999.053	2178.12
999.273	2126.12
999.492	2193.12
999.712	2126.12
999.931	2073.12
1000.151	2102.12
1000.37	2078.12
1000.589	2117.12
1000.809	2060.12
1001.028	2157.12
1001.247	2087.12
1001.466	1986.12
1001.685	2098.12
1001.904	2042.12
1002.123	2049.12
1002.342	2003.12
1002.561	1964.12
1002.78	1996.12
1002.999	2045.12
1003.218	1993.12
1003.436	1925.12
1003.655	2024.12
1003.874	1945.12
1004.092	1963.12
1004.311	1999.12
1004.53	1953.12
1004.748	2023.12
1004.966	1911.12
1005.185	1994.12
1005.403	1989.12
1005.622	1948.12
1005.84	2009.12
1006.058	1906.12
1006.276	1955.12
1006.494	2467.12
1006.712	1963.12
1006.931	2033.12
1007.149	1931.12
1007.367	1946.12
1007.584	1974.12
1007.802	2045.12
1008.02	1975.12
1008.238	2090.12
1008.456	2073.12
1008.673	1969.12
1008.891	2067.12
1009.109	2025.12
1009.326	2130.12
1009.544	2204.12
1009.761	2174.12
1009.979	2251.12
1010.196	2316.12
1010.413	2444.12
1010.631	2501.12
1010.848	2568.12
1011.065	2624.12
1011.282	2587.12
1011.5	2524.12
1011.717	2626.12
1011.934	2574.12
1012.151	2593.12
1012.368	2559.12
1012.585	2518.12
1012.801	2557.12
1013.018	2533.12
1013.235	2522.12
1013.452	2606.12
1013.669	2560.12
1013.885	2580.12
1014.102	2610.12
1014.318	2597.12
1014.535	2531.12
1014.751	2592.12
1014.968	2566.12
1015.184	2613.12
1015.401	2494.12
1015.617	2511.12
1015.833	2493.12
1016.049	2480.12
1016.266	2467.12
1016.482	2420.12
1016.698	2346.12
1016.914	2394.12
1017.13	2346.12
1017.346	2329.12
1017.562	2402.12
1017.778	2337.12
1017.993	2303.12
1018.209	2350.12
1018.425	2347.12
1018.641	2316.12
1018.856	2269.12
1019.072	2304.12
1019.288	2354.12
1019.503	2328.12
1019.719	2215.12
1019.934	2260.12
1020.149	2316.12
1020.365	2229.12
1020.58	2179.12
1020.795	2188.12
1021.011	2071.12
1021.226	2067.12
1021.441	2087.12
1021.656	1933.12
1021.871	1879.12
1022.086	1868.12
1022.301	1832.12
1022.516	1797.12
1022.731	1860.12
1022.946	1760.12
1023.16	1730.12
1023.375	1743.12
1023.59	1654.12
1023.804	1622.12
1024.019	1685.12
1024.234	1572.12
1024.448	1582.12
1024.663	1489.12
1024.877	1504.12
1025.092	1501.12
1025.306	1484.12
1025.52	1372.12
1025.734	1430.12
1025.949	1321.12
1026.163	1310.12
1026.377	1235.12
1026.591	1283.12
1026.805	1197.12
1027.019	1190.12
1027.233	1145.12
1027.447	1088.12
1027.661	1160.12
1027.875	1115.12
1028.088	1109.12
1028.302	1028.12
1028.516	1029.12
1028.73	1000.12
1028.943	987.12
1029.157	915.12
1029.37	864.12
1029.584	-2.88
1029.797	-5.88
1030.011	-1.88
1030.224	0.12
