Data from QEP037381__10__15-10-55-854.txt Node

Date: Fri Dec 16 15:10:55 EST 2022
User: dcclab
Spectrometer: QEP03738
Trigger mode: 4
Integration Time (sec): 1.000000E1
Scans to average: 1
Electric dark correction enabled: true
Nonlinearity correction enabled: false
Boxcar width: 0
XAxis mode: Wavelengths
Number of Pixels in Spectrum: 1044
>>>>>Begin Spectral Data<<<<<
784.041	10.25
784.3	0.25
784.558	-5.75
784.817	-2.75
785.075	89312.25
785.334	15554.25
785.592	7243.25
785.851	5015.25
786.109	3801.25
786.368	2993.25
786.626	2400.25
786.884	1987.25
787.143	1659.25
787.401	1409.25
787.659	1257.25
787.917	1098.25
788.175	997.25
788.433	886.25
788.691	812.25
788.949	747.25
789.207	732.25
789.465	627.25
789.723	614.25
789.98	556.25
790.238	594.25
790.496	564.25
790.753	526.25
791.011	590.25
791.268	521.25
791.526	500.25
791.783	527.25
792.041	521.25
792.298	430.25
792.556	497.25
792.813	482.25
793.07	455.25
793.327	448.25
793.584	543.25
793.841	462.25
794.099	491.25
794.356	546.25
794.613	427.25
794.869	469.25
795.126	428.25
795.383	414.25
795.64	438.25
795.897	392.25
796.153	452.25
796.41	441.25
796.667	420.25
796.923	415.25
797.18	427.25
797.436	458.25
797.693	411.25
797.949	468.25
798.206	514.25
798.462	414.25
798.718	475.25
798.974	455.25
799.231	500.25
799.487	488.25
799.743	488.25
799.999	539.25
800.255	537.25
800.511	514.25
800.767	574.25
801.023	556.25
801.279	566.25
801.534	619.25
801.79	648.25
802.046	696.25
802.302	844.25
802.557	940.25
802.813	1189.25
803.068	1456.25
803.324	2032.25
803.579	2732.25
803.835	3761.25
804.09	5162.25
804.345	6769.25
804.601	8593.25
804.856	10390.25
805.111	12084.25
805.366	13338.25
805.621	14311.25
805.876	14937.25
806.131	15339.25
806.386	15735.25
806.641	15983.25
806.896	16294.25
807.151	16635.25
807.406	16809.25
807.661	17241.25
807.915	17561.25
808.17	17852.25
808.425	18026.25
808.679	18237.25
808.934	18580.25
809.188	18768.25
809.443	18922.25
809.697	19241.25
809.951	19278.25
810.206	19618.25
810.46	19851.25
810.714	20140.25
810.968	20228.25
811.223	20396.25
811.477	20488.25
811.731	20773.25
811.985	20746.25
812.239	20877.25
812.493	21019.25
812.747	21222.25
813	21221.25
813.254	21298.25
813.508	21459.25
813.762	21501.25
814.015	21714.25
814.269	21770.25
814.522	22038.25
814.776	22324.25
815.03	22577.25
815.283	22956.25
815.536	23325.25
815.79	23518.25
816.043	24138.25
816.296	24420.25
816.55	24713.25
816.803	25164.25
817.056	25476.25
817.309	25657.25
817.562	25931.25
817.815	26305.25
818.068	26562.25
818.321	26728.25
818.574	27171.25
818.827	27411.25
819.079	27868.25
819.332	28491.25
819.585	28726.25
819.838	29073.25
820.09	29236.25
820.343	29567.25
820.595	29613.25
820.848	29822.25
821.1	30095.25
821.353	30098.25
821.605	29934.25
821.857	30003.25
822.11	29840.25
822.362	29843.25
822.614	29724.25
822.866	29869.25
823.118	29794.25
823.37	29903.25
823.622	30040.25
823.874	30061.25
824.126	30205.25
824.378	30164.25
824.63	30378.25
824.882	30533.25
825.134	30361.25
825.385	30451.25
825.637	30282.25
825.888	30356.25
826.14	30312.25
826.392	30163.25
826.643	29937.25
826.895	29912.25
827.146	29895.25
827.397	29712.25
827.649	29713.25
827.9	29643.25
828.151	29761.25
828.402	29929.25
828.653	29906.25
828.905	29914.25
829.156	30077.25
829.407	30069.25
829.658	30089.25
829.909	30023.25
830.159	30249.25
830.41	29924.25
830.661	29818.25
830.912	29512.25
831.162	29585.25
831.413	29629.25
831.664	29678.25
831.914	29464.25
832.165	29469.25
832.415	29528.25
832.666	29401.25
832.916	29551.25
833.167	29435.25
833.417	29529.25
833.667	29381.25
833.917	29228.25
834.168	29278.25
834.418	29187.25
834.668	29140.25
834.918	28881.25
835.168	28694.25
835.418	28638.25
835.668	28573.25
835.918	28542.25
836.167	28543.25
836.417	28428.25
836.667	28426.25
836.917	28413.25
837.166	28218.25
837.416	28357.25
837.666	28280.25
837.915	28266.25
838.165	28192.25
838.414	28158.25
838.663	28143.25
838.913	28181.25
839.162	28123.25
839.411	28175.25
839.661	27951.25
839.91	27904.25
840.159	27845.25
840.408	27753.25
840.657	27797.25
840.906	27925.25
841.155	27905.25
841.404	27863.25
841.653	28043.25
841.902	28017.25
842.15	28070.25
842.399	28049.25
842.648	27889.25
842.897	27715.25
843.145	27507.25
843.394	27483.25
843.642	27181.25
843.891	27257.25
844.139	27037.25
844.388	26920.25
844.636	26863.25
844.884	26798.25
845.133	26676.25
845.381	26818.25
845.629	26759.25
845.877	26777.25
846.125	26749.25
846.373	26684.25
846.621	26592.25
846.869	26597.25
847.117	26454.25
847.365	26282.25
847.613	26106.25
847.861	26020.25
848.108	25965.25
848.356	25992.25
848.604	25992.25
848.851	25978.25
849.099	26002.25
849.346	26003.25
849.594	26135.25
849.841	26311.25
850.089	26213.25
850.336	26300.25
850.583	26250.25
850.831	26158.25
851.078	26074.25
851.325	26178.25
851.572	26249.25
851.819	25972.25
852.066	25441.25
852.313	25104.25
852.56	24815.25
852.807	24758.25
853.054	24570.25
853.301	24607.25
853.548	24617.25
853.794	24886.25
854.041	24840.25
854.288	24925.25
854.534	25212.25
854.781	25021.25
855.028	25044.25
855.274	25013.25
855.52	24923.25
855.767	24676.25
856.013	24752.25
856.26	24989.25
856.506	24509.25
856.752	24475.25
856.998	24562.25
857.244	24651.25
857.49	24651.25
857.736	24689.25
857.982	24870.25
858.228	24757.25
858.474	24566.25
858.72	24411.25
858.966	24154.25
859.212	23917.25
859.458	23693.25
859.703	23581.25
859.949	23159.25
860.195	23130.25
860.44	22944.25
860.686	22875.25
860.931	22778.25
861.177	22754.25
861.422	22727.25
861.667	22479.25
861.913	22568.25
862.158	22682.25
862.403	22637.25
862.648	22765.25
862.893	22847.25
863.138	22818.25
863.384	22773.25
863.629	22681.25
863.873	22568.25
864.118	22634.25
864.363	22509.25
864.608	22491.25
864.853	22480.25
865.098	22332.25
865.342	22144.25
865.587	22155.25
865.832	22157.25
866.076	22048.25
866.321	21973.25
866.565	21911.25
866.81	21786.25
867.054	21725.25
867.298	21693.25
867.543	21704.25
867.787	21741.25
868.031	21557.25
868.275	21563.25
868.519	21563.25
868.764	21517.25
869.008	21519.25
869.252	21474.25
869.496	21480.25
869.739	21389.25
869.983	21438.25
870.227	21351.25
870.471	21396.25
870.715	21458.25
870.958	21588.25
871.202	21750.25
871.446	21675.25
871.689	21568.25
871.933	21606.25
872.176	21663.25
872.42	21442.25
872.663	21398.25
872.906	21408.25
873.15	21284.25
873.393	21186.25
873.636	21198.25
873.879	20950.25
874.122	20789.25
874.366	20444.25
874.609	20508.25
874.852	20315.25
875.095	20166.25
875.337	20222.25
875.58	19926.25
875.823	20058.25
876.066	19952.25
876.309	19919.25
876.551	19708.25
876.794	19581.25
877.037	19565.25
877.279	19579.25
877.522	19484.25
877.764	19617.25
878.007	19465.25
878.249	19517.25
878.491	19381.25
878.734	19382.25
878.976	19257.25
879.218	19285.25
879.46	19020.25
879.702	18989.25
879.945	18858.25
880.187	18685.25
880.429	18639.25
880.671	18571.25
880.912	18486.25
881.154	18466.25
881.396	18256.25
881.638	18427.25
881.88	18326.25
882.121	18230.25
882.363	18211.25
882.605	18379.25
882.846	18244.25
883.088	18113.25
883.329	18133.25
883.571	18187.25
883.812	18208.25
884.053	18541.25
884.295	18882.25
884.536	19069.25
884.777	18985.25
885.018	18964.25
885.259	18815.25
885.5	18777.25
885.742	19039.25
885.982	18658.25
886.223	18520.25
886.464	18438.25
886.705	18189.25
886.946	18021.25
887.187	17714.25
887.428	17578.25
887.668	17338.25
887.909	17132.25
888.15	17009.25
888.39	16814.25
888.631	16745.25
888.871	16626.25
889.111	16593.25
889.352	16378.25
889.592	16174.25
889.833	16040.25
890.073	15968.25
890.313	15921.25
890.553	15721.25
890.793	15739.25
891.033	15682.25
891.273	15618.25
891.513	15513.25
891.753	15617.25
891.993	15513.25
892.233	15585.25
892.473	15753.25
892.713	15632.25
892.952	15602.25
893.192	15700.25
893.432	15618.25
893.671	15596.25
893.911	15518.25
894.15	15464.25
894.39	15246.25
894.629	15257.25
894.869	15236.25
895.108	15172.25
895.347	15013.25
895.587	15117.25
895.826	15026.25
896.065	15016.25
896.304	15029.25
896.543	14962.25
896.782	14952.25
897.021	14899.25
897.26	14976.25
897.499	15074.25
897.738	14893.25
897.977	14769.25
898.216	14681.25
898.454	14608.25
898.693	14433.25
898.932	14532.25
899.17	14459.25
899.409	14401.25
899.647	14408.25
899.886	14406.25
900.124	14525.25
900.363	14397.25
900.601	14465.25
900.839	14483.25
901.078	14556.25
901.316	14604.25
901.554	14772.25
901.792	14834.25
902.03	14779.25
902.268	14854.25
902.506	14780.25
902.744	14680.25
902.982	14538.25
903.22	14174.25
903.458	13987.25
903.695	13849.25
903.933	13572.25
904.171	13358.25
904.409	13169.25
904.646	13011.25
904.884	12816.25
905.121	12727.25
905.359	12533.25
905.596	12432.25
905.833	12245.25
906.071	12152.25
906.308	12255.25
906.545	12103.25
906.783	12093.25
907.02	12065.25
907.257	12016.25
907.494	11899.25
907.731	11946.25
907.968	11828.25
908.205	11751.25
908.442	11671.25
908.679	11659.25
908.915	11476.25
909.152	11472.25
909.389	11330.25
909.626	11283.25
909.862	11171.25
910.099	11156.25
910.335	11124.25
910.572	10901.25
910.808	10981.25
911.045	10925.25
911.281	10892.25
911.518	10996.25
911.754	10818.25
911.99	10785.25
912.226	10746.25
912.463	10629.25
912.699	10540.25
912.935	10466.25
913.171	10394.25
913.407	10230.25
913.643	10164.25
913.879	10077.25
914.114	10008.25
914.35	9914.25
914.586	9844.25
914.822	9692.25
915.057	9753.25
915.293	9482.25
915.529	9601.25
915.764	9632.25
916	9537.25
916.235	9545.25
916.471	9567.25
916.706	9426.25
916.941	9453.25
917.177	9453.25
917.412	9397.25
917.647	9362.25
917.882	9417.25
918.117	9432.25
918.352	9314.25
918.588	9342.25
918.823	9169.25
919.057	9121.25
919.292	9025.25
919.527	9039.25
919.762	8886.25
919.997	8879.25
920.232	8723.25
920.466	8694.25
920.701	8517.25
920.935	8515.25
921.17	8538.25
921.405	8488.25
921.639	8502.25
921.873	8399.25
922.108	8397.25
922.342	8347.25
922.576	8267.25
922.811	8281.25
923.045	8235.25
923.279	8229.25
923.513	8081.25
923.747	8149.25
923.981	8081.25
924.215	8055.25
924.449	7996.25
924.683	7883.25
924.917	7921.25
925.151	7834.25
925.385	7855.25
925.618	7761.25
925.852	7763.25
926.086	7683.25
926.319	7803.25
926.553	7785.25
926.786	7748.25
927.02	7729.25
927.253	7770.25
927.486	7696.25
927.72	7616.25
927.953	7686.25
928.186	7597.25
928.42	7596.25
928.653	7556.25
928.886	7510.25
929.119	7514.25
929.352	7420.25
929.585	7397.25
929.818	7270.25
930.051	7321.25
930.284	7243.25
930.516	7160.25
930.749	7139.25
930.982	7122.25
931.215	7104.25
931.447	6996.25
931.68	6969.25
931.912	7000.25
932.145	6997.25
932.377	6978.25
932.61	7182.25
932.842	6902.25
933.074	6971.25
933.307	6944.25
933.539	7021.25
933.771	6959.25
934.003	6972.25
934.236	6946.25
934.468	7070.25
934.7	6917.25
934.932	6967.25
935.164	6861.25
935.395	6820.25
935.627	6857.25
935.859	6824.25
936.091	6801.25
936.323	6746.25
936.554	6782.25
936.786	6788.25
937.017	6649.25
937.249	6688.25
937.481	6606.25
937.712	6654.25
937.943	6635.25
938.175	6591.25
938.406	6569.25
938.637	6604.25
938.869	6477.25
939.1	6630.25
939.331	6511.25
939.562	6540.25
939.793	6510.25
940.024	6505.25
940.255	6495.25
940.486	6426.25
940.717	6360.25
940.948	6380.25
941.179	6309.25
941.409	6308.25
941.64	6279.25
941.871	6313.25
942.102	6230.25
942.332	6309.25
942.563	6271.25
942.793	6304.25
943.024	6234.25
943.254	6254.25
943.484	6313.25
943.715	6265.25
943.945	6266.25
944.175	6148.25
944.405	6132.25
944.636	6174.25
944.866	6174.25
945.096	6201.25
945.326	6119.25
945.556	6117.25
945.786	6180.25
946.016	6033.25
946.245	6014.25
946.475	5938.25
946.705	5933.25
946.935	5912.25
947.164	5887.25
947.394	5825.25
947.624	5804.25
947.853	5820.25
948.083	5768.25
948.312	5689.25
948.542	5701.25
948.771	5645.25
949	5617.25
949.23	5675.25
949.459	5685.25
949.688	5715.25
949.917	5644.25
950.146	5659.25
950.375	5720.25
950.604	5602.25
950.833	5638.25
951.062	5629.25
951.291	5563.25
951.52	5499.25
951.749	5516.25
951.978	5502.25
952.206	5498.25
952.435	5482.25
952.664	5506.25
952.892	5420.25
953.121	5384.25
953.349	5414.25
953.578	5335.25
953.806	5415.25
954.035	5298.25
954.263	5300.25
954.491	5256.25
954.719	5206.25
954.948	5198.25
955.176	5179.25
955.404	5061.25
955.632	5170.25
955.86	5141.25
956.088	5104.25
956.316	5069.25
956.544	5053.25
956.772	5029.25
956.999	4984.25
957.227	5016.25
957.455	4919.25
957.683	4896.25
957.91	4855.25
958.138	4897.25
958.365	4842.25
958.593	4804.25
958.82	4747.25
959.048	4795.25
959.275	4767.25
959.502	4759.25
959.73	4696.25
959.957	4750.25
960.184	4791.25
960.411	4683.25
960.638	4748.25
960.865	4715.25
961.092	4660.25
961.319	4644.25
961.546	4664.25
961.773	4706.25
962	4634.25
962.227	4694.25
962.454	4630.25
962.68	4633.25
962.907	4593.25
963.134	4500.25
963.36	4556.25
963.587	4543.25
963.813	4429.25
964.04	4452.25
964.266	4395.25
964.493	4448.25
964.719	4416.25
964.945	4411.25
965.171	4272.25
965.398	4334.25
965.624	4319.25
965.85	4260.25
966.076	4239.25
966.302	4226.25
966.528	4246.25
966.754	4192.25
966.98	4205.25
967.206	4196.25
967.431	4135.25
967.657	4195.25
967.883	4189.25
968.109	4162.25
968.334	4079.25
968.56	4077.25
968.785	4070.25
969.011	4053.25
969.236	4072.25
969.462	4002.25
969.687	4041.25
969.912	4022.25
970.138	4023.25
970.363	3981.25
970.588	3984.25
970.813	3965.25
971.038	3904.25
971.263	3927.25
971.488	3968.25
971.713	3987.25
971.938	3946.25
972.163	3820.25
972.388	3844.25
972.613	3807.25
972.838	3812.25
973.062	3819.25
973.287	3765.25
973.512	3727.25
973.736	3732.25
973.961	3721.25
974.185	3684.25
974.41	3727.25
974.634	3597.25
974.858	3636.25
975.083	3634.25
975.307	3595.25
975.531	3548.25
975.755	3512.25
975.98	3525.25
976.204	3479.25
976.428	3425.25
976.652	3454.25
976.876	3394.25
977.1	3411.25
977.324	3384.25
977.547	3443.25
977.771	3374.25
977.995	3386.25
978.219	3319.25
978.442	3446.25
978.666	3382.25
978.89	3328.25
979.113	3314.25
979.337	3328.25
979.56	3272.25
979.783	3357.25
980.007	3207.25
980.23	3253.25
980.453	3256.25
980.677	3228.25
980.9	3214.25
981.123	3156.25
981.346	3241.25
981.569	3153.25
981.792	3195.25
982.015	3116.25
982.238	3092.25
982.461	3138.25
982.684	3100.25
982.907	3047.25
983.129	3058.25
983.352	3076.25
983.575	3053.25
983.797	3010.25
984.02	3000.25
984.242	2974.25
984.465	2995.25
984.687	2980.25
984.91	2995.25
985.132	2963.25
985.354	2950.25
985.577	2894.25
985.799	2905.25
986.021	2779.25
986.243	2843.25
986.465	2842.25
986.687	2915.25
986.909	2933.25
987.131	2858.25
987.353	2811.25
987.575	2837.25
987.797	2792.25
988.019	2743.25
988.241	2783.25
988.462	2733.25
988.684	2744.25
988.906	2817.25
989.127	2846.25
989.349	2685.25
989.57	2710.25
989.792	2774.25
990.013	2777.25
990.234	2749.25
990.456	2756.25
990.677	2725.25
990.898	2685.25
991.119	2685.25
991.341	2682.25
991.562	2620.25
991.783	2668.25
992.004	2569.25
992.225	2550.25
992.446	2645.25
992.667	2531.25
992.887	2597.25
993.108	2498.25
993.329	2571.25
993.55	2518.25
993.77	2473.25
993.991	2454.25
994.212	2474.25
994.432	2481.25
994.653	2472.25
994.873	2475.25
995.093	2373.25
995.314	2407.25
995.534	2449.25
995.754	2434.25
995.975	2440.25
996.195	2358.25
996.415	2422.25
996.635	2406.25
996.855	2394.25
997.075	2346.25
997.295	2363.25
997.515	2334.25
997.735	2379.25
997.955	2390.25
998.174	2348.25
998.394	2313.25
998.614	2338.25
998.834	2318.25
999.053	2362.25
999.273	2326.25
999.492	2405.25
999.712	2334.25
999.931	2277.25
1000.151	2314.25
1000.37	2255.25
1000.589	2328.25
1000.809	2219.25
1001.028	2355.25
1001.247	2244.25
1001.466	2132.25
1001.685	2297.25
1001.904	2245.25
1002.123	2157.25
1002.342	2201.25
1002.561	2138.25
1002.78	2159.25
1002.999	2238.25
1003.218	2160.25
1003.436	2158.25
1003.655	2164.25
1003.874	2097.25
1004.092	2118.25
1004.311	2165.25
1004.53	2097.25
1004.748	2180.25
1004.966	2088.25
1005.185	2145.25
1005.403	2134.25
1005.622	2087.25
1005.84	2159.25
1006.058	2054.25
1006.276	2085.25
1006.494	2598.25
1006.712	2062.25
1006.931	2158.25
1007.149	2076.25
1007.367	2080.25
1007.584	2106.25
1007.802	2141.25
1008.02	2069.25
1008.238	2185.25
1008.456	2135.25
1008.673	2062.25
1008.891	2169.25
1009.109	2132.25
1009.326	2223.25
1009.544	2301.25
1009.761	2212.25
1009.979	2319.25
1010.196	2340.25
1010.413	2457.25
1010.631	2535.25
1010.848	2594.25
1011.065	2643.25
1011.282	2576.25
1011.5	2499.25
1011.717	2612.25
1011.934	2561.25
1012.151	2569.25
1012.368	2588.25
1012.585	2535.25
1012.801	2615.25
1013.018	2575.25
1013.235	2622.25
1013.452	2679.25
1013.669	2721.25
1013.885	2641.25
1014.102	2671.25
1014.318	2602.25
1014.535	2561.25
1014.751	2555.25
1014.968	2548.25
1015.184	2589.25
1015.401	2467.25
1015.617	2501.25
1015.833	2454.25
1016.049	2428.25
1016.266	2430.25
1016.482	2447.25
1016.698	2309.25
1016.914	2363.25
1017.13	2373.25
1017.346	2321.25
1017.562	2403.25
1017.778	2329.25
1017.993	2276.25
1018.209	2373.25
1018.425	2348.25
1018.641	2315.25
1018.856	2271.25
1019.072	2333.25
1019.288	2370.25
1019.503	2340.25
1019.719	2270.25
1019.934	2238.25
1020.149	2327.25
1020.365	2220.25
1020.58	2204.25
1020.795	2208.25
1021.011	2104.25
1021.226	2097.25
1021.441	2092.25
1021.656	1980.25
1021.871	1930.25
1022.086	1883.25
1022.301	1907.25
1022.516	1854.25
1022.731	1874.25
1022.946	1774.25
1023.16	1785.25
1023.375	1707.25
1023.59	1730.25
1023.804	1639.25
1024.019	1751.25
1024.234	1589.25
1024.448	1614.25
1024.663	1531.25
1024.877	1567.25
1025.092	1540.25
1025.306	1535.25
1025.52	1430.25
1025.734	1483.25
1025.949	1396.25
1026.163	1370.25
1026.377	1270.25
1026.591	1321.25
1026.805	1237.25
1027.019	1266.25
1027.233	1208.25
1027.447	1136.25
1027.661	1245.25
1027.875	1164.25
1028.088	1158.25
1028.302	1082.25
1028.516	1066.25
1028.73	1031.25
1028.943	1025.25
1029.157	959.25
1029.37	924.25
1029.584	1.25
1029.797	-1.75
1030.011	-0.75
1030.224	-0.75
