Data from QEP037381__13__15-11-25-854.txt Node

Date: Fri Dec 16 15:11:25 EST 2022
User: dcclab
Spectrometer: QEP03738
Trigger mode: 4
Integration Time (sec): 1.000000E1
Scans to average: 1
Electric dark correction enabled: true
Nonlinearity correction enabled: false
Boxcar width: 0
XAxis mode: Wavelengths
Number of Pixels in Spectrum: 1044
>>>>>Begin Spectral Data<<<<<
784.041	11.62
784.3	0.62
784.558	-1.38
784.817	-1.38
785.075	89250.62
785.334	15444.62
785.592	7255.62
785.851	4997.62
786.109	3778.62
786.368	2977.62
786.626	2426.62
786.884	1966.62
787.143	1662.62
787.401	1378.62
787.659	1243.62
787.917	1085.62
788.175	1014.62
788.433	899.62
788.691	788.62
788.949	740.62
789.207	706.62
789.465	633.62
789.723	608.62
789.98	549.62
790.238	589.62
790.496	571.62
790.753	535.62
791.011	582.62
791.268	527.62
791.526	519.62
791.783	537.62
792.041	505.62
792.298	438.62
792.556	495.62
792.813	473.62
793.07	457.62
793.327	454.62
793.584	524.62
793.841	463.62
794.099	484.62
794.356	544.62
794.613	434.62
794.869	478.62
795.126	426.62
795.383	404.62
795.64	418.62
795.897	385.62
796.153	441.62
796.41	422.62
796.667	406.62
796.923	424.62
797.18	416.62
797.436	442.62
797.693	406.62
797.949	453.62
798.206	490.62
798.462	408.62
798.718	475.62
798.974	433.62
799.231	492.62
799.487	469.62
799.743	494.62
799.999	521.62
800.255	524.62
800.511	524.62
800.767	571.62
801.023	545.62
801.279	555.62
801.534	608.62
801.79	642.62
802.046	670.62
802.302	804.62
802.557	897.62
802.813	1122.62
803.068	1391.62
803.324	1890.62
803.579	2549.62
803.835	3505.62
804.09	4857.62
804.345	6292.62
804.601	7908.62
804.856	9600.62
805.111	11202.62
805.366	12250.62
805.621	13099.62
805.876	13683.62
806.131	14079.62
806.386	14255.62
806.641	14600.62
806.896	14913.62
807.151	15145.62
807.406	15393.62
807.661	15628.62
807.915	16023.62
808.17	16267.62
808.425	16443.62
808.679	16590.62
808.934	16835.62
809.188	17025.62
809.443	17259.62
809.697	17432.62
809.951	17529.62
810.206	17706.62
810.46	17944.62
810.714	18160.62
810.968	18394.62
811.223	18443.62
811.477	18460.62
811.731	18695.62
811.985	18760.62
812.239	18829.62
812.493	19001.62
812.747	18972.62
813	19176.62
813.254	19241.62
813.508	19436.62
813.762	19384.62
814.015	19482.62
814.269	19631.62
814.522	19748.62
814.776	20046.62
815.03	20349.62
815.283	20622.62
815.536	21087.62
815.79	21274.62
816.043	21517.62
816.296	21958.62
816.55	22145.62
816.803	22524.62
817.056	22848.62
817.309	22984.62
817.562	23180.62
817.815	23474.62
818.068	23610.62
818.321	23803.62
818.574	24206.62
818.827	24550.62
819.079	24856.62
819.332	25185.62
819.585	25547.62
819.838	25833.62
820.09	26058.62
820.343	26190.62
820.595	26289.62
820.848	26493.62
821.1	26538.62
821.353	26726.62
821.605	26512.62
821.857	26607.62
822.11	26455.62
822.362	26305.62
822.614	26260.62
822.866	26432.62
823.118	26372.62
823.37	26500.62
823.622	26502.62
823.874	26557.62
824.126	26732.62
824.378	26778.62
824.63	26853.62
824.882	26876.62
825.134	26837.62
825.385	26762.62
825.637	26742.62
825.888	26681.62
826.14	26625.62
826.392	26529.62
826.643	26373.62
826.895	26402.62
827.146	26127.62
827.397	26043.62
827.649	26250.62
827.9	26059.62
828.151	26112.62
828.402	26257.62
828.653	26208.62
828.905	26423.62
829.156	26451.62
829.407	26353.62
829.658	26349.62
829.909	26440.62
830.159	26590.62
830.41	26406.62
830.661	26187.62
830.912	26113.62
831.162	25969.62
831.413	25942.62
831.664	26082.62
831.914	25851.62
832.165	25795.62
832.415	25892.62
832.666	25835.62
832.916	25946.62
833.167	25932.62
833.417	25909.62
833.667	25780.62
833.917	25700.62
834.168	25788.62
834.418	25492.62
834.668	25526.62
834.918	25297.62
835.168	25275.62
835.418	25108.62
835.668	25028.62
835.918	24913.62
836.167	24928.62
836.417	24735.62
836.667	24759.62
836.917	24906.62
837.166	24754.62
837.416	24823.62
837.666	24793.62
837.915	24637.62
838.165	24719.62
838.414	24581.62
838.663	24663.62
838.913	24589.62
839.162	24552.62
839.411	24564.62
839.661	24483.62
839.91	24312.62
840.159	24472.62
840.408	24373.62
840.657	24309.62
840.906	24319.62
841.155	24467.62
841.404	24366.62
841.653	24419.62
841.902	24417.62
842.15	24507.62
842.399	24354.62
842.648	24304.62
842.897	24303.62
843.145	24171.62
843.394	24031.62
843.642	23885.62
843.891	23739.62
844.139	23600.62
844.388	23492.62
844.636	23449.62
844.884	23420.62
845.133	23353.62
845.381	23398.62
845.629	23397.62
845.877	23300.62
846.125	23304.62
846.373	23291.62
846.621	23133.62
846.869	23101.62
847.117	23015.62
847.365	22892.62
847.613	22718.62
847.861	22612.62
848.108	22625.62
848.356	22573.62
848.604	22525.62
848.851	22619.62
849.099	22609.62
849.346	22712.62
849.594	22796.62
849.841	22861.62
850.089	22873.62
850.336	22907.62
850.583	22786.62
850.831	22684.62
851.078	22640.62
851.325	22758.62
851.572	22994.62
851.819	22597.62
852.066	22115.62
852.313	21942.62
852.56	21631.62
852.807	21510.62
853.054	21505.62
853.301	21452.62
853.548	21455.62
853.794	21578.62
854.041	21637.62
854.288	21730.62
854.534	21881.62
854.781	21805.62
855.028	21819.62
855.274	21833.62
855.52	21686.62
855.767	21683.62
856.013	21599.62
856.26	21911.62
856.506	21374.62
856.752	21389.62
856.998	21394.62
857.244	21461.62
857.49	21535.62
857.736	21644.62
857.982	21629.62
858.228	21556.62
858.474	21449.62
858.72	21300.62
858.966	21087.62
859.212	20832.62
859.458	20558.62
859.703	20464.62
859.949	20280.62
860.195	20083.62
860.44	20068.62
860.686	19969.62
860.931	19950.62
861.177	19787.62
861.422	19721.62
861.667	19628.62
861.913	19627.62
862.158	19649.62
862.403	19665.62
862.648	19836.62
862.893	19780.62
863.138	19695.62
863.384	19653.62
863.629	19644.62
863.873	19694.62
864.118	19714.62
864.363	19442.62
864.608	19511.62
864.853	19401.62
865.098	19243.62
865.342	19290.62
865.587	19182.62
865.832	19170.62
866.076	19030.62
866.321	19020.62
866.565	18932.62
866.81	18923.62
867.054	18778.62
867.298	18856.62
867.543	18740.62
867.787	18688.62
868.031	18671.62
868.275	18770.62
868.519	18755.62
868.764	18688.62
869.008	18617.62
869.252	18647.62
869.496	18567.62
869.739	18609.62
869.983	18598.62
870.227	18613.62
870.471	18635.62
870.715	18798.62
870.958	18969.62
871.202	18898.62
871.446	18938.62
871.689	18902.62
871.933	18862.62
872.176	18785.62
872.42	18757.62
872.663	18698.62
872.906	18691.62
873.15	18601.62
873.393	18605.62
873.636	18506.62
873.879	18317.62
874.122	18237.62
874.366	17945.62
874.609	17779.62
874.852	17661.62
875.095	17503.62
875.337	17549.62
875.58	17367.62
875.823	17340.62
876.066	17299.62
876.309	17271.62
876.551	17144.62
876.794	17100.62
877.037	17109.62
877.279	16816.62
877.522	16889.62
877.764	16919.62
878.007	16911.62
878.249	16883.62
878.491	16743.62
878.734	16794.62
878.976	16685.62
879.218	16542.62
879.46	16579.62
879.702	16459.62
879.945	16203.62
880.187	16165.62
880.429	16175.62
880.671	15959.62
880.912	15961.62
881.154	15990.62
881.396	15872.62
881.638	15946.62
881.88	15856.62
882.121	15848.62
882.363	15793.62
882.605	15975.62
882.846	15810.62
883.088	15739.62
883.329	15804.62
883.571	15831.62
883.812	15848.62
884.053	16295.62
884.295	16590.62
884.536	16826.62
884.777	16687.62
885.018	16598.62
885.259	16509.62
885.5	16499.62
885.742	16685.62
885.982	16510.62
886.223	16265.62
886.464	16136.62
886.705	15925.62
886.946	15752.62
887.187	15412.62
887.428	15365.62
887.668	15052.62
887.909	14784.62
888.15	14608.62
888.39	14613.62
888.631	14468.62
888.871	14306.62
889.111	14260.62
889.352	14154.62
889.592	14043.62
889.833	13902.62
890.073	13810.62
890.313	13905.62
890.553	13625.62
890.793	13631.62
891.033	13557.62
891.273	13409.62
891.513	13431.62
891.753	13490.62
891.993	13408.62
892.233	13496.62
892.473	13511.62
892.713	13528.62
892.952	13517.62
893.192	13547.62
893.432	13443.62
893.671	13539.62
893.911	13385.62
894.15	13342.62
894.39	13126.62
894.629	13194.62
894.869	13166.62
895.108	13093.62
895.347	12956.62
895.587	13026.62
895.826	13078.62
896.065	12946.62
896.304	12987.62
896.543	13066.62
896.782	12908.62
897.021	12961.62
897.26	13002.62
897.499	13015.62
897.738	13013.62
897.977	12858.62
898.216	12819.62
898.454	12730.62
898.693	12669.62
898.932	12642.62
899.17	12544.62
899.409	12462.62
899.647	12499.62
899.886	12500.62
900.124	12644.62
900.363	12582.62
900.601	12634.62
900.839	12767.62
901.078	12740.62
901.316	12765.62
901.554	12875.62
901.792	13025.62
902.03	13000.62
902.268	13033.62
902.506	13006.62
902.744	12819.62
902.982	12683.62
903.22	12467.62
903.458	12303.62
903.695	12071.62
903.933	11869.62
904.171	11597.62
904.409	11475.62
904.646	11337.62
904.884	11162.62
905.121	11013.62
905.359	10850.62
905.596	10715.62
905.833	10614.62
906.071	10538.62
906.308	10535.62
906.545	10472.62
906.783	10373.62
907.02	10323.62
907.257	10289.62
907.494	10314.62
907.731	10258.62
907.968	10243.62
908.205	10079.62
908.442	10055.62
908.679	10024.62
908.915	9910.62
909.152	9896.62
909.389	9733.62
909.626	9660.62
909.862	9598.62
910.099	9607.62
910.335	9610.62
910.572	9475.62
910.808	9499.62
911.045	9467.62
911.281	9339.62
911.518	9502.62
911.754	9394.62
911.99	9228.62
912.226	9171.62
912.463	9152.62
912.699	9032.62
912.935	8945.62
913.171	8899.62
913.407	8761.62
913.643	8802.62
913.879	8700.62
914.114	8637.62
914.35	8579.62
914.586	8461.62
914.822	8376.62
915.057	8408.62
915.293	8232.62
915.529	8203.62
915.764	8334.62
916	8283.62
916.235	8262.62
916.471	8267.62
916.706	8128.62
916.941	8166.62
917.177	8107.62
917.412	8181.62
917.647	8155.62
917.882	8069.62
918.117	8130.62
918.352	8041.62
918.588	8019.62
918.823	7953.62
919.057	7903.62
919.292	7709.62
919.527	7767.62
919.762	7675.62
919.997	7660.62
920.232	7567.62
920.466	7503.62
920.701	7421.62
920.935	7352.62
921.17	7331.62
921.405	7287.62
921.639	7296.62
921.873	7277.62
922.108	7291.62
922.342	7208.62
922.576	7156.62
922.811	7129.62
923.045	7159.62
923.279	7119.62
923.513	6991.62
923.747	7112.62
923.981	7001.62
924.215	6937.62
924.449	6841.62
924.683	6775.62
924.917	6767.62
925.151	6754.62
925.385	6814.62
925.618	6749.62
925.852	6733.62
926.086	6640.62
926.319	6699.62
926.553	6717.62
926.786	6695.62
927.02	6641.62
927.253	6699.62
927.486	6701.62
927.72	6644.62
927.953	6641.62
928.186	6625.62
928.42	6647.62
928.653	6524.62
928.886	6510.62
929.119	6472.62
929.352	6446.62
929.585	6441.62
929.818	6374.62
930.051	6367.62
930.284	6355.62
930.516	6139.62
930.749	6136.62
930.982	6183.62
931.215	6138.62
931.447	6086.62
931.68	6133.62
931.912	6035.62
932.145	6021.62
932.377	6086.62
932.61	6214.62
932.842	6015.62
933.074	6139.62
933.307	6005.62
933.539	6109.62
933.771	6144.62
934.003	6121.62
934.236	6243.62
934.468	6359.62
934.7	6309.62
934.932	6331.62
935.164	6338.62
935.395	6203.62
935.627	6193.62
935.859	6090.62
936.091	5972.62
936.323	5973.62
936.554	5925.62
936.786	5919.62
937.017	5855.62
937.249	5864.62
937.481	5726.62
937.712	5837.62
937.943	5775.62
938.175	5752.62
938.406	5755.62
938.637	5881.62
938.869	5769.62
939.1	5781.62
939.331	5777.62
939.562	5806.62
939.793	5868.62
940.024	6109.62
940.255	6649.62
940.486	7517.62
940.717	8071.62
940.948	7935.62
941.179	7344.62
941.409	6807.62
941.64	6323.62
941.871	5994.62
942.102	5707.62
942.332	5606.62
942.563	5552.62
942.793	5560.62
943.024	5463.62
943.254	5525.62
943.484	5539.62
943.715	5492.62
943.945	5450.62
944.175	5366.62
944.405	5326.62
944.636	5356.62
944.866	5341.62
945.096	5355.62
945.326	5264.62
945.556	5384.62
945.786	5319.62
946.016	5244.62
946.245	5205.62
946.475	5175.62
946.705	5198.62
946.935	5177.62
947.164	5153.62
947.394	5042.62
947.624	5072.62
947.853	5081.62
948.083	5037.62
948.312	4991.62
948.542	4953.62
948.771	4904.62
949	4893.62
949.23	4941.62
949.459	4966.62
949.688	4966.62
949.917	4933.62
950.146	4903.62
950.375	4968.62
950.604	4812.62
950.833	4916.62
951.062	4880.62
951.291	4849.62
951.52	4808.62
951.749	4829.62
951.978	4758.62
952.206	4758.62
952.435	4714.62
952.664	4756.62
952.892	4751.62
953.121	4708.62
953.349	4691.62
953.578	4716.62
953.806	4703.62
954.035	4591.62
954.263	4622.62
954.491	4492.62
954.719	4567.62
954.948	4507.62
955.176	4490.62
955.404	4411.62
955.632	4525.62
955.86	4512.62
956.088	4431.62
956.316	4426.62
956.544	4427.62
956.772	4324.62
956.999	4295.62
957.227	4377.62
957.455	4345.62
957.683	4287.62
957.91	4231.62
958.138	4224.62
958.365	4222.62
958.593	4203.62
958.82	4134.62
959.048	4196.62
959.275	4164.62
959.502	4090.62
959.73	4092.62
959.957	4140.62
960.184	4142.62
960.411	4068.62
960.638	4122.62
960.865	4138.62
961.092	4110.62
961.319	4038.62
961.546	4097.62
961.773	4106.62
962	4060.62
962.227	4084.62
962.454	4027.62
962.68	4027.62
962.907	4017.62
963.134	3916.62
963.36	3966.62
963.587	4026.62
963.813	3880.62
964.04	3922.62
964.266	3848.62
964.493	3863.62
964.719	3840.62
964.945	3889.62
965.171	3766.62
965.398	3816.62
965.624	3787.62
965.85	3705.62
966.076	3723.62
966.302	3713.62
966.528	3716.62
966.754	3725.62
966.98	3690.62
967.206	3684.62
967.431	3589.62
967.657	3674.62
967.883	3618.62
968.109	3615.62
968.334	3524.62
968.56	3509.62
968.785	3558.62
969.011	3528.62
969.236	3537.62
969.462	3503.62
969.687	3528.62
969.912	3517.62
970.138	3597.62
970.363	3489.62
970.588	3505.62
970.813	3464.62
971.038	3438.62
971.263	3458.62
971.488	3418.62
971.713	3477.62
971.938	3434.62
972.163	3329.62
972.388	3324.62
972.613	3338.62
972.838	3345.62
973.062	3331.62
973.287	3322.62
973.512	3245.62
973.736	3298.62
973.961	3246.62
974.185	3232.62
974.41	3273.62
974.634	3138.62
974.858	3176.62
975.083	3173.62
975.307	3176.62
975.531	3115.62
975.755	3086.62
975.98	3064.62
976.204	3025.62
976.428	3018.62
976.652	2999.62
976.876	2978.62
977.1	2988.62
977.324	2971.62
977.547	3020.62
977.771	2980.62
977.995	2998.62
978.219	2869.62
978.442	3026.62
978.666	2962.62
978.89	2913.62
979.113	2968.62
979.337	2935.62
979.56	2888.62
979.783	2985.62
980.007	2843.62
980.23	2888.62
980.453	2859.62
980.677	2871.62
980.9	2814.62
981.123	2731.62
981.346	2818.62
981.569	2809.62
981.792	2835.62
982.015	2798.62
982.238	2754.62
982.461	2789.62
982.684	2728.62
982.907	2677.62
983.129	2664.62
983.352	2700.62
983.575	2671.62
983.797	2668.62
984.02	2607.62
984.242	2600.62
984.465	2639.62
984.687	2687.62
984.91	2653.62
985.132	2617.62
985.354	2623.62
985.577	2607.62
985.799	2564.62
986.021	2481.62
986.243	2507.62
986.465	2518.62
986.687	2569.62
986.909	2585.62
987.131	2562.62
987.353	2476.62
987.575	2518.62
987.797	2508.62
988.019	2414.62
988.241	2505.62
988.462	2400.62
988.684	2469.62
988.906	2513.62
989.127	2523.62
989.349	2399.62
989.57	2423.62
989.792	2446.62
990.013	2473.62
990.234	2433.62
990.456	2485.62
990.677	2442.62
990.898	2379.62
991.119	2384.62
991.341	2421.62
991.562	2353.62
991.783	2380.62
992.004	2314.62
992.225	2297.62
992.446	2307.62
992.667	2243.62
992.887	2371.62
993.108	2240.62
993.329	2336.62
993.55	2279.62
993.77	2195.62
993.991	2229.62
994.212	2248.62
994.432	2208.62
994.653	2217.62
994.873	2215.62
995.093	2082.62
995.314	2159.62
995.534	2235.62
995.754	2210.62
995.975	2259.62
996.195	2105.62
996.415	2152.62
996.635	2158.62
996.855	2147.62
997.075	2096.62
997.295	2134.62
997.515	2093.62
997.735	2153.62
997.955	2135.62
998.174	2135.62
998.394	2069.62
998.614	2130.62
998.834	2069.62
999.053	2146.62
999.273	2108.62
999.492	2173.62
999.712	2111.62
999.931	2042.62
1000.151	2069.62
1000.37	2028.62
1000.589	2135.62
1000.809	2021.62
1001.028	2133.62
1001.247	2048.62
1001.466	1942.62
1001.685	2084.62
1001.904	2009.62
1002.123	2005.62
1002.342	2008.62
1002.561	1962.62
1002.78	1972.62
1002.999	2021.62
1003.218	1974.62
1003.436	1903.62
1003.655	1976.62
1003.874	1957.62
1004.092	1958.62
1004.311	1985.62
1004.53	1929.62
1004.748	2007.62
1004.966	1936.62
1005.185	1992.62
1005.403	1947.62
1005.622	1935.62
1005.84	2005.62
1006.058	1925.62
1006.276	1941.62
1006.494	2419.62
1006.712	1948.62
1006.931	1966.62
1007.149	1914.62
1007.367	1890.62
1007.584	1955.62
1007.802	1981.62
1008.02	1919.62
1008.238	2062.62
1008.456	2023.62
1008.673	1947.62
1008.891	2031.62
1009.109	1991.62
1009.326	2072.62
1009.544	2179.62
1009.761	2098.62
1009.979	2230.62
1010.196	2246.62
1010.413	2368.62
1010.631	2479.62
1010.848	2565.62
1011.065	2567.62
1011.282	2530.62
1011.5	2496.62
1011.717	2606.62
1011.934	2520.62
1012.151	2519.62
1012.368	2539.62
1012.585	2453.62
1012.801	2540.62
1013.018	2537.62
1013.235	2579.62
1013.452	2655.62
1013.669	2646.62
1013.885	2619.62
1014.102	2612.62
1014.318	2553.62
1014.535	2512.62
1014.751	2535.62
1014.968	2508.62
1015.184	2568.62
1015.401	2413.62
1015.617	2433.62
1015.833	2430.62
1016.049	2393.62
1016.266	2346.62
1016.482	2342.62
1016.698	2338.62
1016.914	2348.62
1017.13	2272.62
1017.346	2273.62
1017.562	2327.62
1017.778	2253.62
1017.993	2234.62
1018.209	2285.62
1018.425	2284.62
1018.641	2254.62
1018.856	2246.62
1019.072	2295.62
1019.288	2303.62
1019.503	2264.62
1019.719	2164.62
1019.934	2183.62
1020.149	2257.62
1020.365	2161.62
1020.58	2107.62
1020.795	2150.62
1021.011	2045.62
1021.226	2005.62
1021.441	2044.62
1021.656	1932.62
1021.871	1813.62
1022.086	1833.62
1022.301	1822.62
1022.516	1796.62
1022.731	1831.62
1022.946	1715.62
1023.16	1742.62
1023.375	1658.62
1023.59	1623.62
1023.804	1603.62
1024.019	1671.62
1024.234	1515.62
1024.448	1569.62
1024.663	1478.62
1024.877	1479.62
1025.092	1461.62
1025.306	1486.62
1025.52	1359.62
1025.734	1415.62
1025.949	1341.62
1026.163	1311.62
1026.377	1220.62
1026.591	1249.62
1026.805	1183.62
1027.019	1157.62
1027.233	1113.62
1027.447	1090.62
1027.661	1172.62
1027.875	1118.62
1028.088	1097.62
1028.302	1010.62
1028.516	988.62
1028.73	1021.62
1028.943	976.62
1029.157	907.62
1029.37	865.62
1029.584	0.62
1029.797	-3.38
1030.011	-3.38
1030.224	-3.38
