Data from QEP037381__107__15-27-05-867.txt Node

Date: Fri Dec 16 15:27:05 EST 2022
User: dcclab
Spectrometer: QEP03738
Trigger mode: 4
Integration Time (sec): 1.000000E1
Scans to average: 1
Electric dark correction enabled: true
Nonlinearity correction enabled: false
Boxcar width: 0
XAxis mode: Wavelengths
Number of Pixels in Spectrum: 1044
>>>>>Begin Spectral Data<<<<<
784.041	9.5
784.3	-1.5
784.558	-3.5
784.817	0.5
785.075	92624.5
785.334	16071.5
785.592	7445.5
785.851	5184.5
786.109	3925.5
786.368	3097.5
786.626	2494.5
786.884	2073.5
787.143	1747.5
787.401	1447.5
787.659	1312.5
787.917	1123.5
788.175	1022.5
788.433	928.5
788.691	834.5
788.949	767.5
789.207	727.5
789.465	646.5
789.723	626.5
789.98	568.5
790.238	621.5
790.496	586.5
790.753	549.5
791.011	603.5
791.268	536.5
791.526	514.5
791.783	528.5
792.041	511.5
792.298	441.5
792.556	497.5
792.813	485.5
793.07	471.5
793.327	450.5
793.584	532.5
793.841	458.5
794.099	466.5
794.356	521.5
794.613	455.5
794.869	493.5
795.126	431.5
795.383	421.5
795.64	433.5
795.897	394.5
796.153	442.5
796.41	438.5
796.667	427.5
796.923	433.5
797.18	435.5
797.436	452.5
797.693	432.5
797.949	462.5
798.206	520.5
798.462	427.5
798.718	476.5
798.974	464.5
799.231	492.5
799.487	500.5
799.743	506.5
799.999	532.5
800.255	529.5
800.511	515.5
800.767	555.5
801.023	546.5
801.279	575.5
801.534	643.5
801.79	683.5
802.046	710.5
802.302	861.5
802.557	1003.5
802.813	1231.5
803.068	1527.5
803.324	2104.5
803.579	2910.5
803.835	4046.5
804.09	5531.5
804.345	7322.5
804.601	9290.5
804.856	11294.5
805.111	12972.5
805.366	14322.5
805.621	15295.5
805.876	15951.5
806.131	16438.5
806.386	16719.5
806.641	17082.5
806.896	17371.5
807.151	17684.5
807.406	17912.5
807.661	18287.5
807.915	18671.5
808.17	18884.5
808.425	19133.5
808.679	19315.5
808.934	19647.5
809.188	19747.5
809.443	19981.5
809.697	20281.5
809.951	20431.5
810.206	20679.5
810.46	20884.5
810.714	21027.5
810.968	21231.5
811.223	21405.5
811.477	21646.5
811.731	21864.5
811.985	22002.5
812.239	22097.5
812.493	22119.5
812.747	22223.5
813	22380.5
813.254	22437.5
813.508	22654.5
813.762	22724.5
814.015	22815.5
814.269	23062.5
814.522	23216.5
814.776	23510.5
815.03	23878.5
815.283	24134.5
815.536	24538.5
815.79	25074.5
816.043	25304.5
816.296	25643.5
816.55	25928.5
816.803	26282.5
817.056	26691.5
817.309	26895.5
817.562	27056.5
817.815	27452.5
818.068	27603.5
818.321	27908.5
818.574	28369.5
818.827	28687.5
819.079	29076.5
819.332	29644.5
819.585	30087.5
819.838	30433.5
820.09	30628.5
820.343	30848.5
820.595	30879.5
820.848	31094.5
821.1	31108.5
821.353	31236.5
821.605	31187.5
821.857	31291.5
822.11	31169.5
822.362	31058.5
822.614	31038.5
822.866	31162.5
823.118	31098.5
823.37	31204.5
823.622	31393.5
823.874	31358.5
824.126	31602.5
824.378	31528.5
824.63	31697.5
824.882	31855.5
825.134	31655.5
825.385	31681.5
825.637	31730.5
825.888	31516.5
826.14	31636.5
826.392	31542.5
826.643	31294.5
826.895	31163.5
827.146	31098.5
827.397	31027.5
827.649	31129.5
827.9	31043.5
828.151	31079.5
828.402	31232.5
828.653	31268.5
828.905	31454.5
829.156	31336.5
829.407	31363.5
829.658	31436.5
829.909	31527.5
830.159	31405.5
830.41	31374.5
830.661	31058.5
830.912	30952.5
831.162	30779.5
831.413	30902.5
831.664	30918.5
831.914	30707.5
832.165	30879.5
832.415	30828.5
832.666	30845.5
832.916	30842.5
833.167	30788.5
833.417	31038.5
833.667	30682.5
833.917	30646.5
834.168	30578.5
834.418	30552.5
834.668	30413.5
834.918	30322.5
835.168	30227.5
835.418	30034.5
835.668	30040.5
835.918	29897.5
836.167	29783.5
836.417	29744.5
836.667	29849.5
836.917	29702.5
837.166	29613.5
837.416	29796.5
837.666	29707.5
837.915	29759.5
838.165	29622.5
838.414	29552.5
838.663	29484.5
838.913	29509.5
839.162	29463.5
839.411	29474.5
839.661	29291.5
839.91	29245.5
840.159	29208.5
840.408	29328.5
840.657	29196.5
840.906	29221.5
841.155	29313.5
841.404	29164.5
841.653	29252.5
841.902	29260.5
842.15	29338.5
842.399	29416.5
842.648	29247.5
842.897	29222.5
843.145	28906.5
843.394	28808.5
843.642	28625.5
843.891	28626.5
844.139	28477.5
844.388	28295.5
844.636	28290.5
844.884	28141.5
845.133	28222.5
845.381	28105.5
845.629	28103.5
845.877	28199.5
846.125	28130.5
846.373	27975.5
846.621	27999.5
846.869	27828.5
847.117	27618.5
847.365	27431.5
847.613	27344.5
847.861	27348.5
848.108	27384.5
848.356	27355.5
848.604	27253.5
848.851	27248.5
849.099	27326.5
849.346	27308.5
849.594	27493.5
849.841	27553.5
850.089	27554.5
850.336	27673.5
850.583	27490.5
850.831	27438.5
851.078	27386.5
851.325	27379.5
851.572	27491.5
851.819	27239.5
852.066	26804.5
852.313	26324.5
852.56	26250.5
852.807	26146.5
853.054	26063.5
853.301	26075.5
853.548	25978.5
853.794	26201.5
854.041	26322.5
854.288	26312.5
854.534	26734.5
854.781	26607.5
855.028	26543.5
855.274	26535.5
855.52	26218.5
855.767	26196.5
856.013	26398.5
856.26	26593.5
856.506	26099.5
856.752	26022.5
856.998	26003.5
857.244	26234.5
857.49	26169.5
857.736	26304.5
857.982	26256.5
858.228	26180.5
858.474	25950.5
858.72	25919.5
858.966	25689.5
859.212	25480.5
859.458	25142.5
859.703	24917.5
859.949	24682.5
860.195	24683.5
860.44	24512.5
860.686	24405.5
860.931	24320.5
861.177	24191.5
861.422	24214.5
861.667	24068.5
861.913	24047.5
862.158	24108.5
862.403	24123.5
862.648	24222.5
862.893	24314.5
863.138	24260.5
863.384	24157.5
863.629	24085.5
863.873	24140.5
864.118	24075.5
864.363	23990.5
864.608	23936.5
864.853	23807.5
865.098	23864.5
865.342	23683.5
865.587	23631.5
865.832	23550.5
866.076	23588.5
866.321	23581.5
866.565	23413.5
866.81	23286.5
867.054	23297.5
867.298	23206.5
867.543	23125.5
867.787	23146.5
868.031	23023.5
868.275	22875.5
868.519	22973.5
868.764	23011.5
869.008	22792.5
869.252	22898.5
869.496	22855.5
869.739	22812.5
869.983	22826.5
870.227	22789.5
870.471	22832.5
870.715	22972.5
870.958	22967.5
871.202	22985.5
871.446	23022.5
871.689	23049.5
871.933	23041.5
872.176	23082.5
872.42	23040.5
872.663	22958.5
872.906	22878.5
873.15	22903.5
873.393	22840.5
873.636	22694.5
873.879	22555.5
874.122	22399.5
874.366	22089.5
874.609	21847.5
874.852	21765.5
875.095	21600.5
875.337	21481.5
875.58	21372.5
875.823	21371.5
876.066	21339.5
876.309	21302.5
876.551	21141.5
876.794	20955.5
877.037	20962.5
877.279	20898.5
877.522	21047.5
877.764	20991.5
878.007	20906.5
878.249	20936.5
878.491	20879.5
878.734	20854.5
878.976	20810.5
879.218	20646.5
879.46	20632.5
879.702	20453.5
879.945	20348.5
880.187	20148.5
880.429	20053.5
880.671	19836.5
880.912	19787.5
881.154	19847.5
881.396	19699.5
881.638	19782.5
881.88	19809.5
882.121	19757.5
882.363	19669.5
882.605	19676.5
882.846	19618.5
883.088	19631.5
883.329	19551.5
883.571	19662.5
883.812	19824.5
884.053	20068.5
884.295	20383.5
884.536	20724.5
884.777	20550.5
885.018	20436.5
885.259	20395.5
885.5	20168.5
885.742	20495.5
885.982	20192.5
886.223	20021.5
886.464	19924.5
886.705	19788.5
886.946	19573.5
887.187	19274.5
887.428	19078.5
887.668	18710.5
887.909	18642.5
888.15	18417.5
888.39	18195.5
888.631	18157.5
888.871	18071.5
889.111	17905.5
889.352	17754.5
889.592	17605.5
889.833	17530.5
890.073	17389.5
890.313	17425.5
890.553	17176.5
890.793	17124.5
891.033	17138.5
891.273	16996.5
891.513	17027.5
891.753	17012.5
891.993	16907.5
892.233	17035.5
892.473	16974.5
892.713	17049.5
892.952	16968.5
893.192	17066.5
893.432	17022.5
893.671	17040.5
893.911	16894.5
894.15	16826.5
894.39	16748.5
894.629	16714.5
894.869	16560.5
895.108	16512.5
895.347	16521.5
895.587	16392.5
895.826	16426.5
896.065	16383.5
896.304	16420.5
896.543	16329.5
896.782	16322.5
897.021	16346.5
897.26	16330.5
897.499	16366.5
897.738	16253.5
897.977	16178.5
898.216	16023.5
898.454	15992.5
898.693	15834.5
898.932	15902.5
899.17	15866.5
899.409	15749.5
899.647	15708.5
899.886	15853.5
900.124	15759.5
900.363	15726.5
900.601	15808.5
900.839	15846.5
901.078	15951.5
901.316	15931.5
901.554	16043.5
901.792	16174.5
902.03	16018.5
902.268	16013.5
902.506	16099.5
902.744	16008.5
902.982	15935.5
903.22	15571.5
903.458	15359.5
903.695	15148.5
903.933	14954.5
904.171	14784.5
904.409	14435.5
904.646	14222.5
904.884	14058.5
905.121	13832.5
905.359	13789.5
905.596	13729.5
905.833	13473.5
906.071	13473.5
906.308	13417.5
906.545	13354.5
906.783	13315.5
907.02	13247.5
907.257	13113.5
907.494	13182.5
907.731	13187.5
907.968	13065.5
908.205	12945.5
908.442	12864.5
908.679	12836.5
908.915	12792.5
909.152	12664.5
909.389	12514.5
909.626	12523.5
909.862	12321.5
910.099	12373.5
910.335	12329.5
910.572	12150.5
910.808	12119.5
911.045	12082.5
911.281	12113.5
911.518	12065.5
911.754	11999.5
911.99	11902.5
912.226	11831.5
912.463	11701.5
912.699	11689.5
912.935	11515.5
913.171	11497.5
913.407	11262.5
913.643	11317.5
913.879	11245.5
914.114	11128.5
914.35	11014.5
914.586	10888.5
914.822	10780.5
915.057	10825.5
915.293	10648.5
915.529	10688.5
915.764	10710.5
916	10649.5
916.235	10601.5
916.471	10628.5
916.706	10470.5
916.941	10489.5
917.177	10532.5
917.412	10464.5
917.647	10505.5
917.882	10427.5
918.117	10495.5
918.352	10370.5
918.588	10432.5
918.823	10211.5
919.057	10195.5
919.292	10137.5
919.527	10105.5
919.762	9910.5
919.997	9873.5
920.232	9700.5
920.466	9635.5
920.701	9554.5
920.935	9501.5
921.17	9483.5
921.405	9428.5
921.639	9414.5
921.873	9375.5
922.108	9360.5
922.342	9296.5
922.576	9237.5
922.811	9238.5
923.045	9260.5
923.279	9247.5
923.513	9099.5
923.747	9149.5
923.981	9051.5
924.215	8910.5
924.449	8941.5
924.683	8777.5
924.917	8828.5
925.151	8786.5
925.385	8819.5
925.618	8732.5
925.852	8707.5
926.086	8678.5
926.319	8718.5
926.553	8654.5
926.786	8713.5
927.02	8668.5
927.253	8728.5
927.486	8650.5
927.72	8563.5
927.953	8653.5
928.186	8563.5
928.42	8577.5
928.653	8468.5
928.886	8408.5
929.119	8481.5
929.352	8377.5
929.585	8388.5
929.818	8281.5
930.051	8238.5
930.284	8187.5
930.516	8055.5
930.749	8040.5
930.982	8009.5
931.215	7969.5
931.447	7943.5
931.68	7893.5
931.912	7849.5
932.145	7875.5
932.377	7867.5
932.61	8038.5
932.842	7762.5
933.074	7917.5
933.307	7770.5
933.539	7949.5
933.771	7901.5
934.003	7883.5
934.236	7880.5
934.468	7883.5
934.7	7807.5
934.932	7791.5
935.164	7757.5
935.395	7697.5
935.627	7736.5
935.859	7728.5
936.091	7644.5
936.323	7655.5
936.554	7710.5
936.786	7583.5
937.017	7596.5
937.249	7580.5
937.481	7505.5
937.712	7539.5
937.943	7462.5
938.175	7474.5
938.406	7412.5
938.637	7521.5
938.869	7399.5
939.1	7478.5
939.331	7364.5
939.562	7360.5
939.793	7365.5
940.024	7397.5
940.255	7338.5
940.486	7331.5
940.717	7246.5
940.948	7215.5
941.179	7131.5
941.409	7169.5
941.64	7188.5
941.871	7089.5
942.102	7158.5
942.332	7144.5
942.563	7155.5
942.793	7133.5
943.024	7084.5
943.254	7088.5
943.484	7148.5
943.715	7152.5
943.945	7157.5
944.175	7025.5
944.405	7000.5
944.636	7012.5
944.866	7069.5
945.096	7010.5
945.326	6922.5
945.556	7044.5
945.786	6982.5
946.016	6942.5
946.245	6834.5
946.475	6778.5
946.705	6759.5
946.935	6786.5
947.164	6675.5
947.394	6666.5
947.624	6593.5
947.853	6661.5
948.083	6618.5
948.312	6557.5
948.542	6491.5
948.771	6435.5
949	6460.5
949.23	6441.5
949.459	6450.5
949.688	6510.5
949.917	6493.5
950.146	6434.5
950.375	6427.5
950.604	6352.5
950.833	6443.5
951.062	6444.5
951.291	6405.5
951.52	6268.5
951.749	6352.5
951.978	6222.5
952.206	6322.5
952.435	6294.5
952.664	6315.5
952.892	6204.5
953.121	6257.5
953.349	6230.5
953.578	6150.5
953.806	6139.5
954.035	6035.5
954.263	6071.5
954.491	5992.5
954.719	6037.5
954.948	5972.5
955.176	5951.5
955.404	5819.5
955.632	5891.5
955.86	5862.5
956.088	5788.5
956.316	5891.5
956.544	5860.5
956.772	5795.5
956.999	5709.5
957.227	5734.5
957.455	5633.5
957.683	5646.5
957.91	5616.5
958.138	5567.5
958.365	5532.5
958.593	5554.5
958.82	5473.5
959.048	5537.5
959.275	5475.5
959.502	5406.5
959.73	5470.5
959.957	5469.5
960.184	5432.5
960.411	5367.5
960.638	5434.5
960.865	5362.5
961.092	5360.5
961.319	5305.5
961.546	5382.5
961.773	5378.5
962	5315.5
962.227	5388.5
962.454	5265.5
962.68	5273.5
962.907	5239.5
963.134	5210.5
963.36	5201.5
963.587	5220.5
963.813	5129.5
964.04	5132.5
964.266	5062.5
964.493	5079.5
964.719	5066.5
964.945	5062.5
965.171	4913.5
965.398	4942.5
965.624	4940.5
965.85	4859.5
966.076	4869.5
966.302	4905.5
966.528	4856.5
966.754	4870.5
966.98	4821.5
967.206	4837.5
967.431	4730.5
967.657	4792.5
967.883	4756.5
968.109	4771.5
968.334	4662.5
968.56	4668.5
968.785	4665.5
969.011	4583.5
969.236	4705.5
969.462	4612.5
969.687	4552.5
969.912	4659.5
970.138	4615.5
970.363	4548.5
970.588	4550.5
970.813	4496.5
971.038	4496.5
971.263	4530.5
971.488	4453.5
971.713	4525.5
971.938	4486.5
972.163	4384.5
972.388	4434.5
972.613	4391.5
972.838	4324.5
973.062	4330.5
973.287	4358.5
973.512	4258.5
973.736	4326.5
973.961	4262.5
974.185	4231.5
974.41	4248.5
974.634	4124.5
974.858	4151.5
975.083	4154.5
975.307	4133.5
975.531	4086.5
975.755	4032.5
975.98	4010.5
976.204	3961.5
976.428	3934.5
976.652	4014.5
976.876	3914.5
977.1	3947.5
977.324	3836.5
977.547	3918.5
977.771	3918.5
977.995	3887.5
978.219	3835.5
978.442	3936.5
978.666	3825.5
978.89	3881.5
979.113	3819.5
979.337	3817.5
979.56	3770.5
979.783	3859.5
980.007	3729.5
980.23	3751.5
980.453	3707.5
980.677	3746.5
980.9	3702.5
981.123	3644.5
981.346	3763.5
981.569	3653.5
981.792	3675.5
982.015	3639.5
982.238	3590.5
982.461	3563.5
982.684	3560.5
982.907	3508.5
983.129	3495.5
983.352	3518.5
983.575	3515.5
983.797	3517.5
984.02	3410.5
984.242	3423.5
984.465	3416.5
984.687	3429.5
984.91	3428.5
985.132	3401.5
985.354	3405.5
985.577	3394.5
985.799	3373.5
986.021	3259.5
986.243	3271.5
986.465	3299.5
986.687	3319.5
986.909	3333.5
987.131	3254.5
987.353	3268.5
987.575	3246.5
987.797	3241.5
988.019	3131.5
988.241	3234.5
988.462	3132.5
988.684	3185.5
988.906	3238.5
989.127	3231.5
989.349	3111.5
989.57	3157.5
989.792	3187.5
990.013	3176.5
990.234	3169.5
990.456	3197.5
990.677	3177.5
990.898	3109.5
991.119	3096.5
991.341	3105.5
991.562	3024.5
991.783	3060.5
992.004	3003.5
992.225	2925.5
992.446	2982.5
992.667	2891.5
992.887	2942.5
993.108	2881.5
993.329	2947.5
993.55	2899.5
993.77	2819.5
993.991	2908.5
994.212	2875.5
994.432	2819.5
994.653	2837.5
994.873	2847.5
995.093	2724.5
995.314	2701.5
995.534	2823.5
995.754	2823.5
995.975	2804.5
996.195	2685.5
996.415	2742.5
996.635	2710.5
996.855	2734.5
997.075	2727.5
997.295	2710.5
997.515	2709.5
997.735	2774.5
997.955	2670.5
998.174	2677.5
998.394	2644.5
998.614	2721.5
998.834	2627.5
999.053	2694.5
999.273	2720.5
999.492	2724.5
999.712	2637.5
999.931	2594.5
1000.151	2616.5
1000.37	2589.5
1000.589	2603.5
1000.809	2549.5
1001.028	2630.5
1001.247	2631.5
1001.466	2467.5
1001.685	2601.5
1001.904	2521.5
1002.123	2502.5
1002.342	2518.5
1002.561	2462.5
1002.78	2488.5
1002.999	2514.5
1003.218	2416.5
1003.436	2411.5
1003.655	2463.5
1003.874	2427.5
1004.092	2422.5
1004.311	2476.5
1004.53	2377.5
1004.748	2483.5
1004.966	2400.5
1005.185	2414.5
1005.403	2437.5
1005.622	2361.5
1005.84	2489.5
1006.058	2366.5
1006.276	2379.5
1006.494	2864.5
1006.712	2385.5
1006.931	2419.5
1007.149	2347.5
1007.367	2361.5
1007.584	2421.5
1007.802	2448.5
1008.02	2391.5
1008.238	2490.5
1008.456	2542.5
1008.673	2377.5
1008.891	2500.5
1009.109	2483.5
1009.326	2552.5
1009.544	2632.5
1009.761	2589.5
1009.979	2699.5
1010.196	2757.5
1010.413	2897.5
1010.631	3023.5
1010.848	3086.5
1011.065	3119.5
1011.282	3124.5
1011.5	3049.5
1011.717	3108.5
1011.934	3016.5
1012.151	3056.5
1012.368	3052.5
1012.585	2987.5
1012.801	3028.5
1013.018	3054.5
1013.235	3013.5
1013.452	3030.5
1013.669	3076.5
1013.885	3031.5
1014.102	3073.5
1014.318	3023.5
1014.535	3016.5
1014.751	3045.5
1014.968	3002.5
1015.184	3027.5
1015.401	2939.5
1015.617	2939.5
1015.833	2898.5
1016.049	2856.5
1016.266	2847.5
1016.482	2833.5
1016.698	2747.5
1016.914	2766.5
1017.13	2777.5
1017.346	2678.5
1017.562	2763.5
1017.778	2684.5
1017.993	2622.5
1018.209	2728.5
1018.425	2669.5
1018.641	2606.5
1018.856	2593.5
1019.072	2626.5
1019.288	2699.5
1019.503	2678.5
1019.719	2530.5
1019.934	2531.5
1020.149	2630.5
1020.365	2529.5
1020.58	2439.5
1020.795	2484.5
1021.011	2422.5
1021.226	2341.5
1021.441	2368.5
1021.656	2283.5
1021.871	2164.5
1022.086	2156.5
1022.301	2112.5
1022.516	2082.5
1022.731	2119.5
1022.946	2028.5
1023.16	2010.5
1023.375	1943.5
1023.59	1930.5
1023.804	1868.5
1024.019	1953.5
1024.234	1801.5
1024.448	1821.5
1024.663	1710.5
1024.877	1749.5
1025.092	1700.5
1025.306	1681.5
1025.52	1612.5
1025.734	1672.5
1025.949	1522.5
1026.163	1546.5
1026.377	1457.5
1026.591	1485.5
1026.805	1392.5
1027.019	1397.5
1027.233	1338.5
1027.447	1268.5
1027.661	1392.5
1027.875	1331.5
1028.088	1304.5
1028.302	1221.5
1028.516	1205.5
1028.73	1191.5
1028.943	1162.5
1029.157	1062.5
1029.37	1012.5
1029.584	0.5
1029.797	-3.5
1030.011	-0.5
1030.224	-1.5
