Data from QEP037381__12__15-11-15-853.txt Node

Date: Fri Dec 16 15:11:15 EST 2022
User: dcclab
Spectrometer: QEP03738
Trigger mode: 4
Integration Time (sec): 1.000000E1
Scans to average: 1
Electric dark correction enabled: true
Nonlinearity correction enabled: false
Boxcar width: 0
XAxis mode: Wavelengths
Number of Pixels in Spectrum: 1044
>>>>>Begin Spectral Data<<<<<
784.041	12.12
784.3	-0.88
784.558	-1.88
784.817	-3.88
785.075	90235.12
785.334	16004.12
785.592	7592.12
785.851	5244.12
786.109	3948.12
786.368	3078.12
786.626	2485.12
786.884	2050.12
787.143	1696.12
787.401	1434.12
787.659	1302.12
787.917	1132.12
788.175	1050.12
788.433	918.12
788.691	825.12
788.949	766.12
789.207	740.12
789.465	658.12
789.723	636.12
789.98	568.12
790.238	604.12
790.496	565.12
790.753	552.12
791.011	593.12
791.268	528.12
791.526	524.12
791.783	550.12
792.041	516.12
792.298	441.12
792.556	495.12
792.813	490.12
793.07	454.12
793.327	456.12
793.584	544.12
793.841	453.12
794.099	497.12
794.356	546.12
794.613	413.12
794.869	491.12
795.126	433.12
795.383	405.12
795.64	447.12
795.897	398.12
796.153	464.12
796.41	453.12
796.667	433.12
796.923	430.12
797.18	442.12
797.436	466.12
797.693	441.12
797.949	477.12
798.206	519.12
798.462	423.12
798.718	483.12
798.974	478.12
799.231	518.12
799.487	497.12
799.743	506.12
799.999	550.12
800.255	546.12
800.511	521.12
800.767	598.12
801.023	605.12
801.279	594.12
801.534	653.12
801.79	685.12
802.046	725.12
802.302	898.12
802.557	1015.12
802.813	1284.12
803.068	1557.12
803.324	2155.12
803.579	3021.12
803.835	4156.12
804.09	5764.12
804.345	7560.12
804.601	9563.12
804.856	11633.12
805.111	13430.12
805.366	14845.12
805.621	16011.12
805.876	16686.12
806.131	17171.12
806.386	17572.12
806.641	17901.12
806.896	18220.12
807.151	18526.12
807.406	18813.12
807.661	19154.12
807.915	19664.12
808.17	19974.12
808.425	20219.12
808.679	20349.12
808.934	20642.12
809.188	20867.12
809.443	21218.12
809.697	21457.12
809.951	21536.12
810.206	21745.12
810.46	22019.12
810.714	22402.12
810.968	22647.12
811.223	22766.12
811.477	22886.12
811.731	23058.12
811.985	23274.12
812.239	23245.12
812.493	23545.12
812.747	23613.12
813	23712.12
813.254	23834.12
813.508	24040.12
813.762	24108.12
814.015	24175.12
814.269	24382.12
814.522	24642.12
814.776	24826.12
815.03	25230.12
815.283	25759.12
815.536	26167.12
815.79	26523.12
816.043	27136.12
816.296	27325.12
816.55	27598.12
816.803	27995.12
817.056	28541.12
817.309	28733.12
817.562	29013.12
817.815	29356.12
818.068	29587.12
818.321	29935.12
818.574	30332.12
818.827	30597.12
819.079	31141.12
819.332	31650.12
819.585	32084.12
819.838	32573.12
820.09	32739.12
820.343	33003.12
820.595	33155.12
820.848	33356.12
821.1	33573.12
821.353	33667.12
821.605	33599.12
821.857	33660.12
822.11	33501.12
822.362	33331.12
822.614	33311.12
822.866	33423.12
823.118	33373.12
823.37	33467.12
823.622	33541.12
823.874	33658.12
824.126	33866.12
824.378	33997.12
824.63	34009.12
824.882	34226.12
825.134	34113.12
825.385	34148.12
825.637	34056.12
825.888	34086.12
826.14	33949.12
826.392	33958.12
826.643	33650.12
826.895	33657.12
827.146	33423.12
827.397	33328.12
827.649	33398.12
827.9	33394.12
828.151	33379.12
828.402	33533.12
828.653	33689.12
828.905	33634.12
829.156	33847.12
829.407	33846.12
829.658	33797.12
829.909	33802.12
830.159	33894.12
830.41	33790.12
830.661	33525.12
830.912	33390.12
831.162	33254.12
831.413	33282.12
831.664	33303.12
831.914	33246.12
832.165	33054.12
832.415	33145.12
832.666	33276.12
832.916	33197.12
833.167	33299.12
833.417	33210.12
833.667	32993.12
833.917	32943.12
834.168	32813.12
834.418	32859.12
834.668	32767.12
834.918	32549.12
835.168	32538.12
835.418	32378.12
835.668	32364.12
835.918	32331.12
836.167	32261.12
836.417	32135.12
836.667	32120.12
836.917	32017.12
837.166	31927.12
837.416	32018.12
837.666	31937.12
837.915	31914.12
838.165	31897.12
838.414	31724.12
838.663	31711.12
838.913	31690.12
839.162	31730.12
839.411	31688.12
839.661	31541.12
839.91	31551.12
840.159	31490.12
840.408	31367.12
840.657	31468.12
840.906	31491.12
841.155	31522.12
841.404	31436.12
841.653	31472.12
841.902	31609.12
842.15	31587.12
842.399	31400.12
842.648	31558.12
842.897	31361.12
843.145	31320.12
843.394	31162.12
843.642	30853.12
843.891	30782.12
844.139	30614.12
844.388	30439.12
844.636	30398.12
844.884	30343.12
845.133	30338.12
845.381	30331.12
845.629	30290.12
845.877	30313.12
846.125	30284.12
846.373	30147.12
846.621	29992.12
846.869	30112.12
847.117	29953.12
847.365	29788.12
847.613	29524.12
847.861	29552.12
848.108	29352.12
848.356	29352.12
848.604	29321.12
848.851	29332.12
849.099	29268.12
849.346	29523.12
849.594	29765.12
849.841	29737.12
850.089	29720.12
850.336	29748.12
850.583	29655.12
850.831	29546.12
851.078	29466.12
851.325	29517.12
851.572	29726.12
851.819	29472.12
852.066	28769.12
852.313	28367.12
852.56	28242.12
852.807	28048.12
853.054	27880.12
853.301	27868.12
853.548	27961.12
853.794	28128.12
854.041	28131.12
854.288	28236.12
854.534	28604.12
854.781	28575.12
855.028	28446.12
855.274	28371.12
855.52	28194.12
855.767	28072.12
856.013	27944.12
856.26	28365.12
856.506	27853.12
856.752	27789.12
856.998	27792.12
857.244	27967.12
857.49	28046.12
857.736	28149.12
857.982	28109.12
858.228	28026.12
858.474	27738.12
858.72	27640.12
858.966	27408.12
859.212	27138.12
859.458	26809.12
859.703	26694.12
859.949	26398.12
860.195	26165.12
860.44	26145.12
860.686	26036.12
860.931	25993.12
861.177	25710.12
861.422	25670.12
861.667	25584.12
861.913	25650.12
862.158	25723.12
862.403	25835.12
862.648	25907.12
862.893	25826.12
863.138	25762.12
863.384	25881.12
863.629	25764.12
863.873	25760.12
864.118	25679.12
864.363	25505.12
864.608	25530.12
864.853	25488.12
865.098	25295.12
865.342	25366.12
865.587	25077.12
865.832	25098.12
866.076	25126.12
866.321	24967.12
866.565	24850.12
866.81	24702.12
867.054	24746.12
867.298	24609.12
867.543	24546.12
867.787	24593.12
868.031	24553.12
868.275	24459.12
868.519	24516.12
868.764	24462.12
869.008	24373.12
869.252	24455.12
869.496	24344.12
869.739	24365.12
869.983	24206.12
870.227	24334.12
870.471	24311.12
870.715	24405.12
870.958	24485.12
871.202	24613.12
871.446	24544.12
871.689	24581.12
871.933	24517.12
872.176	24521.12
872.42	24405.12
872.663	24428.12
872.906	24247.12
873.15	24077.12
873.393	24148.12
873.636	24028.12
873.879	23819.12
874.122	23498.12
874.366	23306.12
874.609	23149.12
874.852	22923.12
875.095	22852.12
875.337	22845.12
875.58	22742.12
875.823	22606.12
876.066	22681.12
876.309	22590.12
876.551	22350.12
876.794	22272.12
877.037	22200.12
877.279	22175.12
877.522	22188.12
877.764	22167.12
878.007	22097.12
878.249	22101.12
878.491	22166.12
878.734	22081.12
878.976	21884.12
879.218	21806.12
879.46	21776.12
879.702	21603.12
879.945	21511.12
880.187	21292.12
880.429	21185.12
880.671	20935.12
880.912	20976.12
881.154	21000.12
881.396	20908.12
881.638	20957.12
881.88	20863.12
882.121	20869.12
882.363	20794.12
882.605	20901.12
882.846	20843.12
883.088	20737.12
883.329	20709.12
883.571	20615.12
883.812	20801.12
884.053	21017.12
884.295	21383.12
884.536	21652.12
884.777	21512.12
885.018	21427.12
885.259	21385.12
885.5	21245.12
885.742	21454.12
885.982	21246.12
886.223	20905.12
886.464	20777.12
886.705	20740.12
886.946	20464.12
887.187	20170.12
887.428	20064.12
887.668	19725.12
887.909	19558.12
888.15	19313.12
888.39	19132.12
888.631	19081.12
888.871	18871.12
889.111	18831.12
889.352	18632.12
889.592	18560.12
889.833	18474.12
890.073	18353.12
890.313	18275.12
890.553	18048.12
890.793	18021.12
891.033	17989.12
891.273	17853.12
891.513	17839.12
891.753	17846.12
891.993	17754.12
892.233	17822.12
892.473	17840.12
892.713	17823.12
892.952	17872.12
893.192	17930.12
893.432	17822.12
893.671	17774.12
893.911	17812.12
894.15	17584.12
894.39	17453.12
894.629	17443.12
894.869	17330.12
895.108	17223.12
895.347	17209.12
895.587	17184.12
895.826	17145.12
896.065	17133.12
896.304	17193.12
896.543	17103.12
896.782	17020.12
897.021	17027.12
897.26	16973.12
897.499	17097.12
897.738	16926.12
897.977	16875.12
898.216	16727.12
898.454	16696.12
898.693	16567.12
898.932	16567.12
899.17	16393.12
899.409	16403.12
899.647	16369.12
899.886	16359.12
900.124	16487.12
900.363	16409.12
900.601	16511.12
900.839	16555.12
901.078	16594.12
901.316	16632.12
901.554	16673.12
901.792	16824.12
902.03	16720.12
902.268	16799.12
902.506	16666.12
902.744	16636.12
902.982	16334.12
903.22	16186.12
903.458	15932.12
903.695	15716.12
903.933	15536.12
904.171	15241.12
904.409	14950.12
904.646	14802.12
904.884	14623.12
905.121	14451.12
905.359	14299.12
905.596	14106.12
905.833	13966.12
906.071	13987.12
906.308	13986.12
906.545	13902.12
906.783	13814.12
907.02	13701.12
907.257	13688.12
907.494	13647.12
907.731	13549.12
907.968	13622.12
908.205	13413.12
908.442	13372.12
908.679	13260.12
908.915	13231.12
909.152	13095.12
909.389	12993.12
909.626	12889.12
909.862	12806.12
910.099	12788.12
910.335	12798.12
910.572	12634.12
910.808	12684.12
911.045	12571.12
911.281	12487.12
911.518	12596.12
911.754	12438.12
911.99	12363.12
912.226	12280.12
912.463	12162.12
912.699	12087.12
912.935	11958.12
913.171	11808.12
913.407	11754.12
913.643	11732.12
913.879	11597.12
914.114	11538.12
914.35	11373.12
914.586	11351.12
914.822	11211.12
915.057	11236.12
915.293	11036.12
915.529	10990.12
915.764	11009.12
916	11023.12
916.235	10967.12
916.471	10971.12
916.706	10870.12
916.941	10962.12
917.177	10816.12
917.412	10802.12
917.647	10884.12
917.882	10690.12
918.117	10808.12
918.352	10775.12
918.588	10706.12
918.823	10577.12
919.057	10564.12
919.292	10335.12
919.527	10372.12
919.762	10295.12
919.997	10164.12
920.232	10030.12
920.466	10065.12
920.701	9860.12
920.935	9789.12
921.17	9769.12
921.405	9747.12
921.639	9748.12
921.873	9617.12
922.108	9634.12
922.342	9596.12
922.576	9648.12
922.811	9494.12
923.045	9531.12
923.279	9398.12
923.513	9252.12
923.747	9383.12
923.981	9323.12
924.215	9150.12
924.449	9161.12
924.683	9056.12
924.917	9028.12
925.151	8957.12
925.385	9108.12
925.618	8969.12
925.852	8965.12
926.086	8822.12
926.319	8913.12
926.553	8888.12
926.786	8972.12
927.02	8867.12
927.253	8913.12
927.486	8843.12
927.72	8782.12
927.953	8800.12
928.186	8739.12
928.42	8749.12
928.653	8698.12
928.886	8606.12
929.119	8686.12
929.352	8563.12
929.585	8535.12
929.818	8441.12
930.051	8438.12
930.284	8423.12
930.516	8296.12
930.749	8193.12
930.982	8205.12
931.215	8194.12
931.447	8087.12
931.68	8066.12
931.912	8074.12
932.145	8054.12
932.377	8042.12
932.61	8210.12
932.842	7942.12
933.074	8065.12
933.307	7991.12
933.539	8105.12
933.771	8047.12
934.003	7986.12
934.236	8092.12
934.468	8026.12
934.7	7970.12
934.932	7985.12
935.164	7900.12
935.395	7885.12
935.627	7838.12
935.859	7879.12
936.091	7781.12
936.323	7861.12
936.554	7810.12
936.786	7786.12
937.017	7616.12
937.249	7684.12
937.481	7605.12
937.712	7724.12
937.943	7643.12
938.175	7564.12
938.406	7582.12
938.637	7574.12
938.869	7541.12
939.1	7558.12
939.331	7503.12
939.562	7466.12
939.793	7450.12
940.024	7446.12
940.255	7417.12
940.486	7364.12
940.717	7343.12
940.948	7342.12
941.179	7243.12
941.409	7259.12
941.64	7272.12
941.871	7240.12
942.102	7188.12
942.332	7246.12
942.563	7317.12
942.793	7214.12
943.024	7180.12
943.254	7163.12
943.484	7191.12
943.715	7283.12
943.945	7186.12
944.175	7140.12
944.405	7104.12
944.636	7084.12
944.866	7081.12
945.096	7125.12
945.326	7055.12
945.556	7043.12
945.786	7040.12
946.016	6961.12
946.245	6932.12
946.475	6886.12
946.705	6780.12
946.935	6848.12
947.164	6763.12
947.394	6747.12
947.624	6732.12
947.853	6689.12
948.083	6688.12
948.312	6609.12
948.542	6535.12
948.771	6496.12
949	6530.12
949.23	6531.12
949.459	6517.12
949.688	6603.12
949.917	6569.12
950.146	6481.12
950.375	6537.12
950.604	6438.12
950.833	6511.12
951.062	6552.12
951.291	6467.12
951.52	6392.12
951.749	6363.12
951.978	6347.12
952.206	6317.12
952.435	6287.12
952.664	6317.12
952.892	6303.12
953.121	6261.12
953.349	6251.12
953.578	6210.12
953.806	6149.12
954.035	6125.12
954.263	6127.12
954.491	6035.12
954.719	6052.12
954.948	6025.12
955.176	5955.12
955.404	5933.12
955.632	6005.12
955.86	5935.12
956.088	5873.12
956.316	5909.12
956.544	5889.12
956.772	5812.12
956.999	5731.12
957.227	5786.12
957.455	5669.12
957.683	5678.12
957.91	5635.12
958.138	5593.12
958.365	5576.12
958.593	5574.12
958.82	5499.12
959.048	5541.12
959.275	5487.12
959.502	5509.12
959.73	5439.12
959.957	5477.12
960.184	5490.12
960.411	5456.12
960.638	5473.12
960.865	5407.12
961.092	5449.12
961.319	5331.12
961.546	5429.12
961.773	5419.12
962	5348.12
962.227	5413.12
962.454	5330.12
962.68	5304.12
962.907	5368.12
963.134	5230.12
963.36	5265.12
963.587	5272.12
963.813	5130.12
964.04	5137.12
964.266	5070.12
964.493	5158.12
964.719	5103.12
964.945	5085.12
965.171	4916.12
965.398	5015.12
965.624	5006.12
965.85	4879.12
966.076	4888.12
966.302	4905.12
966.528	4892.12
966.754	4872.12
966.98	4821.12
967.206	4805.12
967.431	4760.12
967.657	4828.12
967.883	4789.12
968.109	4778.12
968.334	4674.12
968.56	4656.12
968.785	4681.12
969.011	4696.12
969.236	4731.12
969.462	4692.12
969.687	4638.12
969.912	4628.12
970.138	4659.12
970.363	4587.12
970.588	4555.12
970.813	4591.12
971.038	4500.12
971.263	4522.12
971.488	4529.12
971.713	4557.12
971.938	4488.12
972.163	4406.12
972.388	4419.12
972.613	4405.12
972.838	4384.12
973.062	4365.12
973.287	4357.12
973.512	4279.12
973.736	4275.12
973.961	4265.12
974.185	4208.12
974.41	4280.12
974.634	4120.12
974.858	4152.12
975.083	4201.12
975.307	4157.12
975.531	4078.12
975.755	4050.12
975.98	4022.12
976.204	3992.12
976.428	3958.12
976.652	3964.12
976.876	3938.12
977.1	3935.12
977.324	3927.12
977.547	3926.12
977.771	3932.12
977.995	3870.12
978.219	3805.12
978.442	3942.12
978.666	3815.12
978.89	3882.12
979.113	3810.12
979.337	3790.12
979.56	3797.12
979.783	3850.12
980.007	3766.12
980.23	3777.12
980.453	3759.12
980.677	3702.12
980.9	3703.12
981.123	3608.12
981.346	3711.12
981.569	3651.12
981.792	3713.12
982.015	3635.12
982.238	3553.12
982.461	3565.12
982.684	3521.12
982.907	3510.12
983.129	3501.12
983.352	3506.12
983.575	3484.12
983.797	3478.12
984.02	3437.12
984.242	3414.12
984.465	3423.12
984.687	3412.12
984.91	3403.12
985.132	3395.12
985.354	3417.12
985.577	3376.12
985.799	3326.12
986.021	3254.12
986.243	3267.12
986.465	3291.12
986.687	3291.12
986.909	3317.12
987.131	3270.12
987.353	3251.12
987.575	3260.12
987.797	3194.12
988.019	3125.12
988.241	3196.12
988.462	3145.12
988.684	3201.12
988.906	3225.12
989.127	3217.12
989.349	3095.12
989.57	3125.12
989.792	3153.12
990.013	3182.12
990.234	3136.12
990.456	3159.12
990.677	3107.12
990.898	3072.12
991.119	3063.12
991.341	3094.12
991.562	2983.12
991.783	3003.12
992.004	2949.12
992.225	2939.12
992.446	2971.12
992.667	2849.12
992.887	2966.12
993.108	2847.12
993.329	2958.12
993.55	2866.12
993.77	2815.12
993.991	2849.12
994.212	2851.12
994.432	2808.12
994.653	2798.12
994.873	2829.12
995.093	2631.12
995.314	2656.12
995.534	2776.12
995.754	2775.12
995.975	2774.12
996.195	2689.12
996.415	2740.12
996.635	2699.12
996.855	2713.12
997.075	2689.12
997.295	2714.12
997.515	2645.12
997.735	2708.12
997.955	2691.12
998.174	2652.12
998.394	2651.12
998.614	2664.12
998.834	2612.12
999.053	2669.12
999.273	2622.12
999.492	2686.12
999.712	2622.12
999.931	2586.12
1000.151	2574.12
1000.37	2582.12
1000.589	2636.12
1000.809	2506.12
1001.028	2649.12
1001.247	2543.12
1001.466	2421.12
1001.685	2591.12
1001.904	2488.12
1002.123	2471.12
1002.342	2484.12
1002.561	2379.12
1002.78	2468.12
1002.999	2474.12
1003.218	2379.12
1003.436	2379.12
1003.655	2476.12
1003.874	2353.12
1004.092	2417.12
1004.311	2414.12
1004.53	2352.12
1004.748	2439.12
1004.966	2343.12
1005.185	2383.12
1005.403	2389.12
1005.622	2368.12
1005.84	2435.12
1006.058	2316.12
1006.276	2335.12
1006.494	2823.12
1006.712	2333.12
1006.931	2389.12
1007.149	2291.12
1007.367	2291.12
1007.584	2345.12
1007.802	2378.12
1008.02	2323.12
1008.238	2443.12
1008.456	2436.12
1008.673	2280.12
1008.891	2412.12
1009.109	2423.12
1009.326	2438.12
1009.544	2563.12
1009.761	2450.12
1009.979	2547.12
1010.196	2569.12
1010.413	2736.12
1010.631	2795.12
1010.848	2833.12
1011.065	2860.12
1011.282	2837.12
1011.5	2754.12
1011.717	2914.12
1011.934	2790.12
1012.151	2836.12
1012.368	2818.12
1012.585	2778.12
1012.801	2870.12
1013.018	2851.12
1013.235	2893.12
1013.452	2886.12
1013.669	2909.12
1013.885	2875.12
1014.102	2864.12
1014.318	2819.12
1014.535	2742.12
1014.751	2773.12
1014.968	2794.12
1015.184	2821.12
1015.401	2699.12
1015.617	2716.12
1015.833	2668.12
1016.049	2640.12
1016.266	2629.12
1016.482	2618.12
1016.698	2518.12
1016.914	2572.12
1017.13	2511.12
1017.346	2501.12
1017.562	2552.12
1017.778	2513.12
1017.993	2495.12
1018.209	2552.12
1018.425	2494.12
1018.641	2466.12
1018.856	2457.12
1019.072	2496.12
1019.288	2543.12
1019.503	2503.12
1019.719	2397.12
1019.934	2426.12
1020.149	2597.12
1020.365	2518.12
1020.58	2375.12
1020.795	2369.12
1021.011	2276.12
1021.226	2218.12
1021.441	2262.12
1021.656	2105.12
1021.871	2051.12
1022.086	2052.12
1022.301	2022.12
1022.516	1987.12
1022.731	2009.12
1022.946	1952.12
1023.16	1895.12
1023.375	1868.12
1023.59	1817.12
1023.804	1777.12
1024.019	1854.12
1024.234	1698.12
1024.448	1713.12
1024.663	1658.12
1024.877	1641.12
1025.092	1658.12
1025.306	1648.12
1025.52	1527.12
1025.734	1605.12
1025.949	1499.12
1026.163	1457.12
1026.377	1392.12
1026.591	1416.12
1026.805	1347.12
1027.019	1308.12
1027.233	1302.12
1027.447	1234.12
1027.661	1313.12
1027.875	1249.12
1028.088	1236.12
1028.302	1160.12
1028.516	1125.12
1028.73	1129.12
1028.943	1094.12
1029.157	1034.12
1029.37	968.12
1029.584	0.12
1029.797	-1.88
1030.011	-1.88
1030.224	-1.88
