Data from QEP037381__74__15-21-35-862.txt Node

Date: Fri Dec 16 15:21:35 EST 2022
User: dcclab
Spectrometer: QEP03738
Trigger mode: 4
Integration Time (sec): 1.000000E1
Scans to average: 1
Electric dark correction enabled: true
Nonlinearity correction enabled: false
Boxcar width: 0
XAxis mode: Wavelengths
Number of Pixels in Spectrum: 1044
>>>>>Begin Spectral Data<<<<<
784.041	15.5
784.3	-0.5
784.558	-4.5
784.817	-3.5
785.075	87110.5
785.334	15091.5
785.592	6991.5
785.851	4895.5
786.109	3687.5
786.368	2848.5
786.626	2329.5
786.884	1949.5
787.143	1652.5
787.401	1366.5
787.659	1238.5
787.917	1071.5
788.175	1005.5
788.433	870.5
788.691	792.5
788.949	728.5
789.207	713.5
789.465	602.5
789.723	584.5
789.98	549.5
790.238	590.5
790.496	550.5
790.753	521.5
791.011	595.5
791.268	527.5
791.526	497.5
791.783	509.5
792.041	493.5
792.298	419.5
792.556	494.5
792.813	457.5
793.07	441.5
793.327	442.5
793.584	523.5
793.841	445.5
794.099	454.5
794.356	505.5
794.613	427.5
794.869	461.5
795.126	421.5
795.383	410.5
795.64	414.5
795.897	382.5
796.153	444.5
796.41	409.5
796.667	411.5
796.923	410.5
797.18	399.5
797.436	447.5
797.693	404.5
797.949	442.5
798.206	474.5
798.462	412.5
798.718	452.5
798.974	429.5
799.231	477.5
799.487	453.5
799.743	473.5
799.999	499.5
800.255	486.5
800.511	471.5
800.767	504.5
801.023	507.5
801.279	539.5
801.534	571.5
801.79	606.5
802.046	639.5
802.302	747.5
802.557	863.5
802.813	1068.5
803.068	1273.5
803.324	1767.5
803.579	2391.5
803.835	3249.5
804.09	4479.5
804.345	5782.5
804.601	7227.5
804.856	8834.5
805.111	10199.5
805.366	11141.5
805.621	11987.5
805.876	12496.5
806.131	12798.5
806.386	12992.5
806.641	13317.5
806.896	13445.5
807.151	13763.5
807.406	13922.5
807.661	14156.5
807.915	14421.5
808.17	14722.5
808.425	14869.5
808.679	14873.5
808.934	15176.5
809.188	15261.5
809.443	15534.5
809.697	15690.5
809.951	15760.5
810.206	15936.5
810.46	16068.5
810.714	16272.5
810.968	16603.5
811.223	16595.5
811.477	16835.5
811.731	16912.5
811.985	16845.5
812.239	17008.5
812.493	17006.5
812.747	17166.5
813	17147.5
813.254	17353.5
813.508	17430.5
813.762	17408.5
814.015	17570.5
814.269	17659.5
814.522	17849.5
814.776	18088.5
815.03	18200.5
815.283	18487.5
815.536	18766.5
815.79	19117.5
816.043	19378.5
816.296	19603.5
816.55	19856.5
816.803	20138.5
817.056	20398.5
817.309	20603.5
817.562	20825.5
817.815	20998.5
818.068	21165.5
818.321	21371.5
818.574	21548.5
818.827	21876.5
819.079	22133.5
819.332	22551.5
819.585	22820.5
819.838	23097.5
820.09	23128.5
820.343	23399.5
820.595	23496.5
820.848	23683.5
821.1	23757.5
821.353	23721.5
821.605	23757.5
821.857	23717.5
822.11	23562.5
822.362	23469.5
822.614	23508.5
822.866	23482.5
823.118	23523.5
823.37	23549.5
823.622	23732.5
823.874	23841.5
824.126	23934.5
824.378	23822.5
824.63	24066.5
824.882	23981.5
825.134	23886.5
825.385	23887.5
825.637	23906.5
825.888	23721.5
826.14	23839.5
826.392	23638.5
826.643	23470.5
826.895	23464.5
827.146	23417.5
827.397	23277.5
827.649	23385.5
827.9	23238.5
828.151	23391.5
828.402	23331.5
828.653	23414.5
828.905	23405.5
829.156	23642.5
829.407	23458.5
829.658	23554.5
829.909	23624.5
830.159	23565.5
830.41	23496.5
830.661	23351.5
830.912	23241.5
831.162	23148.5
831.413	23044.5
831.664	23120.5
831.914	23163.5
832.165	23124.5
832.415	23071.5
832.666	23128.5
832.916	23091.5
833.167	23149.5
833.417	23179.5
833.667	22961.5
833.917	22936.5
834.168	22929.5
834.418	22832.5
834.668	22886.5
834.918	22635.5
835.168	22570.5
835.418	22414.5
835.668	22370.5
835.918	22357.5
836.167	22342.5
836.417	22158.5
836.667	22246.5
836.917	22184.5
837.166	22128.5
837.416	22189.5
837.666	22134.5
837.915	22131.5
838.165	22068.5
838.414	21978.5
838.663	21847.5
838.913	21966.5
839.162	21836.5
839.411	22011.5
839.661	21882.5
839.91	21728.5
840.159	21780.5
840.408	21585.5
840.657	21759.5
840.906	21700.5
841.155	21738.5
841.404	21690.5
841.653	21707.5
841.902	21559.5
842.15	21824.5
842.399	21763.5
842.648	21716.5
842.897	21676.5
843.145	21580.5
843.394	21350.5
843.642	21240.5
843.891	21178.5
844.139	21085.5
844.388	20903.5
844.636	20868.5
844.884	20861.5
845.133	20772.5
845.381	20803.5
845.629	20914.5
845.877	20756.5
846.125	20791.5
846.373	20753.5
846.621	20594.5
846.869	20508.5
847.117	20504.5
847.365	20370.5
847.613	20244.5
847.861	20303.5
848.108	20215.5
848.356	20205.5
848.604	20211.5
848.851	20138.5
849.099	20083.5
849.346	20250.5
849.594	20293.5
849.841	20416.5
850.089	20417.5
850.336	20294.5
850.583	20439.5
850.831	20298.5
851.078	20179.5
851.325	20233.5
851.572	20495.5
851.819	20249.5
852.066	19757.5
852.313	19424.5
852.56	19258.5
852.807	19113.5
853.054	19123.5
853.301	19172.5
853.548	19203.5
853.794	19309.5
854.041	19303.5
854.288	19445.5
854.534	19591.5
854.781	19598.5
855.028	19387.5
855.274	19494.5
855.52	19352.5
855.767	19358.5
856.013	19391.5
856.26	19562.5
856.506	19134.5
856.752	19058.5
856.998	19139.5
857.244	19130.5
857.49	19314.5
857.736	19306.5
857.982	19325.5
858.228	19266.5
858.474	19059.5
858.72	18937.5
858.966	18776.5
859.212	18574.5
859.458	18453.5
859.703	18192.5
859.949	18056.5
860.195	18040.5
860.44	18039.5
860.686	17889.5
860.931	17900.5
861.177	17704.5
861.422	17682.5
861.667	17496.5
861.913	17480.5
862.158	17465.5
862.403	17600.5
862.648	17613.5
862.893	17684.5
863.138	17614.5
863.384	17516.5
863.629	17588.5
863.873	17489.5
864.118	17495.5
864.363	17406.5
864.608	17447.5
864.853	17367.5
865.098	17207.5
865.342	17084.5
865.587	17127.5
865.832	16997.5
866.076	17103.5
866.321	17027.5
866.565	16975.5
866.81	16898.5
867.054	16904.5
867.298	16787.5
867.543	16766.5
867.787	16757.5
868.031	16750.5
868.275	16794.5
868.519	16627.5
868.764	16757.5
869.008	16646.5
869.252	16655.5
869.496	16525.5
869.739	16556.5
869.983	16598.5
870.227	16710.5
870.471	16609.5
870.715	16783.5
870.958	16789.5
871.202	16773.5
871.446	16847.5
871.689	16740.5
871.933	16896.5
872.176	16793.5
872.42	16724.5
872.663	16733.5
872.906	16745.5
873.15	16621.5
873.393	16591.5
873.636	16650.5
873.879	16463.5
874.122	16305.5
874.366	16074.5
874.609	15924.5
874.852	15806.5
875.095	15684.5
875.337	15564.5
875.58	15439.5
875.823	15557.5
876.066	15518.5
876.309	15524.5
876.551	15351.5
876.794	15244.5
877.037	15268.5
877.279	15151.5
877.522	15184.5
877.764	15211.5
878.007	15098.5
878.249	15099.5
878.491	15059.5
878.734	14955.5
878.976	14981.5
879.218	14871.5
879.46	14795.5
879.702	14717.5
879.945	14553.5
880.187	14396.5
880.429	14370.5
880.671	14286.5
880.912	14326.5
881.154	14204.5
881.396	14104.5
881.638	14200.5
881.88	14184.5
882.121	14112.5
882.363	14169.5
882.605	14126.5
882.846	14104.5
883.088	14198.5
883.329	14099.5
883.571	14247.5
883.812	14353.5
884.053	14660.5
884.295	14946.5
884.536	15252.5
884.777	15116.5
885.018	14983.5
885.259	14906.5
885.5	14781.5
885.742	15068.5
885.982	14756.5
886.223	14500.5
886.464	14493.5
886.705	14344.5
886.946	14091.5
887.187	13884.5
887.428	13691.5
887.668	13466.5
887.909	13222.5
888.15	13132.5
888.39	13004.5
888.631	12944.5
888.871	12846.5
889.111	12699.5
889.352	12643.5
889.592	12447.5
889.833	12413.5
890.073	12317.5
890.313	12358.5
890.553	12114.5
890.793	12214.5
891.033	12077.5
891.273	12064.5
891.513	12055.5
891.753	12040.5
891.993	11989.5
892.233	12044.5
892.473	12091.5
892.713	12137.5
892.952	12077.5
893.192	12105.5
893.432	12127.5
893.671	12080.5
893.911	12012.5
894.15	12010.5
894.39	11809.5
894.629	11784.5
894.869	11824.5
895.108	11649.5
895.347	11690.5
895.587	11624.5
895.826	11612.5
896.065	11608.5
896.304	11672.5
896.543	11717.5
896.782	11563.5
897.021	11642.5
897.26	11620.5
897.499	11673.5
897.738	11617.5
897.977	11547.5
898.216	11432.5
898.454	11399.5
898.693	11347.5
898.932	11337.5
899.17	11333.5
899.409	11287.5
899.647	11281.5
899.886	11315.5
900.124	11272.5
900.363	11359.5
900.601	11452.5
900.839	11513.5
901.078	11350.5
901.316	11547.5
901.554	11594.5
901.792	11692.5
902.03	11643.5
902.268	11712.5
902.506	11712.5
902.744	11547.5
902.982	11465.5
903.22	11191.5
903.458	11058.5
903.695	10786.5
903.933	10659.5
904.171	10488.5
904.409	10252.5
904.646	10139.5
904.884	10001.5
905.121	9874.5
905.359	9717.5
905.596	9625.5
905.833	9516.5
906.071	9403.5
906.308	9458.5
906.545	9372.5
906.783	9358.5
907.02	9259.5
907.257	9180.5
907.494	9240.5
907.731	9205.5
907.968	9162.5
908.205	9044.5
908.442	9000.5
908.679	8894.5
908.915	8959.5
909.152	8829.5
909.389	8769.5
909.626	8716.5
909.862	8590.5
910.099	8569.5
910.335	8528.5
910.572	8442.5
910.808	8528.5
911.045	8496.5
911.281	8370.5
911.518	8465.5
911.754	8334.5
911.99	8323.5
912.226	8232.5
912.463	8055.5
912.699	8055.5
912.935	8003.5
913.171	7982.5
913.407	7867.5
913.643	7836.5
913.879	7817.5
914.114	7766.5
914.35	7632.5
914.586	7560.5
914.822	7483.5
915.057	7547.5
915.293	7367.5
915.529	7388.5
915.764	7363.5
916	7382.5
916.235	7339.5
916.471	7336.5
916.706	7302.5
916.941	7275.5
917.177	7262.5
917.412	7245.5
917.647	7293.5
917.882	7220.5
918.117	7257.5
918.352	7217.5
918.588	7298.5
918.823	7167.5
919.057	7040.5
919.292	6897.5
919.527	7023.5
919.762	6878.5
919.997	6909.5
920.232	6718.5
920.466	6740.5
920.701	6588.5
920.935	6572.5
921.17	6588.5
921.405	6555.5
921.639	6547.5
921.873	6460.5
922.108	6538.5
922.342	6528.5
922.576	6410.5
922.811	6409.5
923.045	6405.5
923.279	6406.5
923.513	6189.5
923.747	6307.5
923.981	6274.5
924.215	6191.5
924.449	6158.5
924.683	6138.5
924.917	6100.5
925.151	6046.5
925.385	6060.5
925.618	6092.5
925.852	6048.5
926.086	5922.5
926.319	5978.5
926.553	6042.5
926.786	5988.5
927.02	5995.5
927.253	5995.5
927.486	6012.5
927.72	5924.5
927.953	5974.5
928.186	5949.5
928.42	5944.5
928.653	5859.5
928.886	5831.5
929.119	5897.5
929.352	5769.5
929.585	5824.5
929.818	5684.5
930.051	5742.5
930.284	5667.5
930.516	5547.5
930.749	5496.5
930.982	5534.5
931.215	5582.5
931.447	5494.5
931.68	5457.5
931.912	5418.5
932.145	5437.5
932.377	5415.5
932.61	5575.5
932.842	5344.5
933.074	5437.5
933.307	5379.5
933.539	5491.5
933.771	5485.5
934.003	5436.5
934.236	5498.5
934.468	5517.5
934.7	5394.5
934.932	5429.5
935.164	5308.5
935.395	5315.5
935.627	5325.5
935.859	5343.5
936.091	5246.5
936.323	5302.5
936.554	5299.5
936.786	5241.5
937.017	5222.5
937.249	5261.5
937.481	5140.5
937.712	5229.5
937.943	5192.5
938.175	5152.5
938.406	5182.5
938.637	5158.5
938.869	5119.5
939.1	5186.5
939.331	5096.5
939.562	5121.5
939.793	5093.5
940.024	5084.5
940.255	5084.5
940.486	5052.5
940.717	5018.5
940.948	5014.5
941.179	4927.5
941.409	4931.5
941.64	4967.5
941.871	4969.5
942.102	4903.5
942.332	4943.5
942.563	4957.5
942.793	4927.5
943.024	4873.5
943.254	4907.5
943.484	4933.5
943.715	4901.5
943.945	4918.5
944.175	4852.5
944.405	4814.5
944.636	4801.5
944.866	4874.5
945.096	4926.5
945.326	4727.5
945.556	4831.5
945.786	4843.5
946.016	4781.5
946.245	4701.5
946.475	4662.5
946.705	4668.5
946.935	4627.5
947.164	4658.5
947.394	4556.5
947.624	4583.5
947.853	4639.5
948.083	4546.5
948.312	4512.5
948.542	4424.5
948.771	4423.5
949	4442.5
949.23	4460.5
949.459	4460.5
949.688	4483.5
949.917	4399.5
950.146	4433.5
950.375	4477.5
950.604	4379.5
950.833	4455.5
951.062	4437.5
951.291	4331.5
951.52	4334.5
951.749	4358.5
951.978	4330.5
952.206	4298.5
952.435	4285.5
952.664	4313.5
952.892	4303.5
953.121	4295.5
953.349	4246.5
953.578	4230.5
953.806	4199.5
954.035	4130.5
954.263	4187.5
954.491	4107.5
954.719	4162.5
954.948	4075.5
955.176	4080.5
955.404	4004.5
955.632	4066.5
955.86	4024.5
956.088	4022.5
956.316	4015.5
956.544	4028.5
956.772	3961.5
956.999	3901.5
957.227	3963.5
957.455	3853.5
957.683	3895.5
957.91	3847.5
958.138	3777.5
958.365	3808.5
958.593	3810.5
958.82	3759.5
959.048	3810.5
959.275	3759.5
959.502	3747.5
959.73	3697.5
959.957	3722.5
960.184	3751.5
960.411	3687.5
960.638	3784.5
960.865	3729.5
961.092	3701.5
961.319	3580.5
961.546	3684.5
961.773	3718.5
962	3700.5
962.227	3708.5
962.454	3628.5
962.68	3630.5
962.907	3673.5
963.134	3544.5
963.36	3558.5
963.587	3600.5
963.813	3534.5
964.04	3530.5
964.266	3487.5
964.493	3550.5
964.719	3512.5
964.945	3469.5
965.171	3378.5
965.398	3433.5
965.624	3452.5
965.85	3354.5
966.076	3329.5
966.302	3409.5
966.528	3350.5
966.754	3356.5
966.98	3345.5
967.206	3349.5
967.431	3241.5
967.657	3341.5
967.883	3284.5
968.109	3298.5
968.334	3249.5
968.56	3221.5
968.785	3243.5
969.011	3192.5
969.236	3238.5
969.462	3161.5
969.687	3174.5
969.912	3201.5
970.138	3242.5
970.363	3155.5
970.588	3136.5
970.813	3158.5
971.038	3116.5
971.263	3152.5
971.488	3080.5
971.713	3131.5
971.938	3117.5
972.163	3030.5
972.388	3072.5
972.613	3039.5
972.838	3034.5
973.062	3016.5
973.287	3019.5
973.512	2907.5
973.736	2962.5
973.961	2928.5
974.185	2903.5
974.41	2947.5
974.634	2839.5
974.858	2863.5
975.083	2912.5
975.307	2937.5
975.531	2804.5
975.755	2753.5
975.98	2829.5
976.204	2686.5
976.428	2715.5
976.652	2738.5
976.876	2729.5
977.1	2757.5
977.324	2677.5
977.547	2748.5
977.771	2776.5
977.995	2739.5
978.219	2626.5
978.442	2731.5
978.666	2670.5
978.89	2642.5
979.113	2682.5
979.337	2683.5
979.56	2639.5
979.783	2693.5
980.007	2592.5
980.23	2610.5
980.453	2565.5
980.677	2590.5
980.9	2556.5
981.123	2459.5
981.346	2591.5
981.569	2574.5
981.792	2586.5
982.015	2516.5
982.238	2496.5
982.461	2509.5
982.684	2480.5
982.907	2476.5
983.129	2446.5
983.352	2467.5
983.575	2477.5
983.797	2441.5
984.02	2384.5
984.242	2387.5
984.465	2383.5
984.687	2431.5
984.91	2422.5
985.132	2409.5
985.354	2368.5
985.577	2397.5
985.799	2396.5
986.021	2289.5
986.243	2289.5
986.465	2316.5
986.687	2360.5
986.909	2388.5
987.131	2315.5
987.353	2272.5
987.575	2297.5
987.797	2304.5
988.019	2195.5
988.241	2270.5
988.462	2229.5
988.684	2276.5
988.906	2321.5
989.127	2340.5
989.349	2201.5
989.57	2266.5
989.792	2273.5
990.013	2288.5
990.234	2301.5
990.456	2324.5
990.677	2250.5
990.898	2197.5
991.119	2188.5
991.341	2209.5
991.562	2139.5
991.783	2185.5
992.004	2123.5
992.225	2103.5
992.446	2166.5
992.667	2049.5
992.887	2157.5
993.108	2018.5
993.329	2179.5
993.55	2112.5
993.77	2018.5
993.991	2043.5
994.212	2045.5
994.432	2070.5
994.653	2123.5
994.873	2032.5
995.093	1960.5
995.314	1999.5
995.534	2021.5
995.754	2036.5
995.975	2057.5
996.195	1974.5
996.415	2014.5
996.635	1983.5
996.855	2011.5
997.075	1967.5
997.295	1966.5
997.515	1981.5
997.735	2013.5
997.955	1990.5
998.174	1944.5
998.394	1952.5
998.614	1994.5
998.834	1945.5
999.053	2003.5
999.273	1983.5
999.492	2032.5
999.712	1950.5
999.931	1901.5
1000.151	1960.5
1000.37	1921.5
1000.589	1967.5
1000.809	1876.5
1001.028	1990.5
1001.247	1896.5
1001.466	1812.5
1001.685	1947.5
1001.904	1889.5
1002.123	1884.5
1002.342	1877.5
1002.561	1832.5
1002.78	1856.5
1002.999	1896.5
1003.218	1853.5
1003.436	1817.5
1003.655	1909.5
1003.874	1817.5
1004.092	1829.5
1004.311	1871.5
1004.53	1843.5
1004.748	1870.5
1004.966	1785.5
1005.185	1879.5
1005.403	1864.5
1005.622	1811.5
1005.84	1921.5
1006.058	1761.5
1006.276	1816.5
1006.494	2331.5
1006.712	1830.5
1006.931	1869.5
1007.149	1799.5
1007.367	1797.5
1007.584	1870.5
1007.802	1905.5
1008.02	1831.5
1008.238	1967.5
1008.456	1959.5
1008.673	1833.5
1008.891	1960.5
1009.109	1905.5
1009.326	1984.5
1009.544	2098.5
1009.761	2034.5
1009.979	2162.5
1010.196	2227.5
1010.413	2336.5
1010.631	2447.5
1010.848	2498.5
1011.065	2490.5
1011.282	2482.5
1011.5	2445.5
1011.717	2560.5
1011.934	2439.5
1012.151	2469.5
1012.368	2481.5
1012.585	2422.5
1012.801	2454.5
1013.018	2470.5
1013.235	2416.5
1013.452	2458.5
1013.669	2518.5
1013.885	2437.5
1014.102	2536.5
1014.318	2502.5
1014.535	2491.5
1014.751	2475.5
1014.968	2478.5
1015.184	2504.5
1015.401	2382.5
1015.617	2430.5
1015.833	2374.5
1016.049	2381.5
1016.266	2320.5
1016.482	2341.5
1016.698	2269.5
1016.914	2287.5
1017.13	2218.5
1017.346	2244.5
1017.562	2294.5
1017.778	2239.5
1017.993	2187.5
1018.209	2245.5
1018.425	2265.5
1018.641	2189.5
1018.856	2167.5
1019.072	2220.5
1019.288	2230.5
1019.503	2213.5
1019.719	2120.5
1019.934	2108.5
1020.149	2206.5
1020.365	2122.5
1020.58	2087.5
1020.795	2087.5
1021.011	1999.5
1021.226	1963.5
1021.441	1976.5
1021.656	1850.5
1021.871	1809.5
1022.086	1784.5
1022.301	1745.5
1022.516	1750.5
1022.731	1757.5
1022.946	1682.5
1023.16	1664.5
1023.375	1641.5
1023.59	1545.5
1023.804	1536.5
1024.019	1631.5
1024.234	1476.5
1024.448	1494.5
1024.663	1396.5
1024.877	1425.5
1025.092	1427.5
1025.306	1420.5
1025.52	1299.5
1025.734	1375.5
1025.949	1282.5
1026.163	1246.5
1026.377	1187.5
1026.591	1233.5
1026.805	1151.5
1027.019	1123.5
1027.233	1082.5
1027.447	1032.5
1027.661	1140.5
1027.875	1067.5
1028.088	1081.5
1028.302	973.5
1028.516	983.5
1028.73	952.5
1028.943	939.5
1029.157	886.5
1029.37	821.5
1029.584	-1.5
1029.797	-2.5
1030.011	-0.5
1030.224	-2.5
