Data from QEP037381__115__15-28-25-867.txt Node

Date: Fri Dec 16 15:28:25 EST 2022
User: dcclab
Spectrometer: QEP03738
Trigger mode: 4
Integration Time (sec): 1.000000E1
Scans to average: 1
Electric dark correction enabled: true
Nonlinearity correction enabled: false
Boxcar width: 0
XAxis mode: Wavelengths
Number of Pixels in Spectrum: 1044
>>>>>Begin Spectral Data<<<<<
784.041	10.62
784.3	0.62
784.558	-2.38
784.817	-4.38
785.075	91323.62
785.334	15893.62
785.592	7579.62
785.851	5173.62
786.109	3891.62
786.368	3064.62
786.626	2501.62
786.884	2046.62
787.143	1763.62
787.401	1452.62
787.659	1309.62
787.917	1141.62
788.175	1023.62
788.433	931.62
788.691	825.62
788.949	777.62
789.207	741.62
789.465	652.62
789.723	639.62
789.98	570.62
790.238	626.62
790.496	577.62
790.753	556.62
791.011	590.62
791.268	539.62
791.526	530.62
791.783	549.62
792.041	512.62
792.298	439.62
792.556	515.62
792.813	486.62
793.07	464.62
793.327	445.62
793.584	540.62
793.841	448.62
794.099	480.62
794.356	534.62
794.613	440.62
794.869	492.62
795.126	433.62
795.383	420.62
795.64	439.62
795.897	403.62
796.153	457.62
796.41	444.62
796.667	427.62
796.923	431.62
797.18	435.62
797.436	464.62
797.693	417.62
797.949	480.62
798.206	508.62
798.462	426.62
798.718	480.62
798.974	462.62
799.231	494.62
799.487	496.62
799.743	498.62
799.999	537.62
800.255	541.62
800.511	517.62
800.767	562.62
801.023	559.62
801.279	596.62
801.534	619.62
801.79	688.62
802.046	710.62
802.302	850.62
802.557	981.62
802.813	1221.62
803.068	1505.62
803.324	2105.62
803.579	2942.62
803.835	4011.62
804.09	5565.62
804.345	7351.62
804.601	9401.62
804.856	11391.62
805.111	13243.62
805.366	14653.62
805.621	15737.62
805.876	16393.62
806.131	16830.62
806.386	17129.62
806.641	17447.62
806.896	17835.62
807.151	18132.62
807.406	18517.62
807.661	18762.62
807.915	19133.62
808.17	19397.62
808.425	19725.62
808.679	19802.62
808.934	20165.62
809.188	20385.62
809.443	20711.62
809.697	20961.62
809.951	20933.62
810.206	21225.62
810.46	21494.62
810.714	21761.62
810.968	21917.62
811.223	22132.62
811.477	22318.62
811.731	22524.62
811.985	22695.62
812.239	22852.62
812.493	22848.62
812.747	22918.62
813	23239.62
813.254	23237.62
813.508	23440.62
813.762	23468.62
814.015	23555.62
814.269	23872.62
814.522	24088.62
814.776	24366.62
815.03	24697.62
815.283	24992.62
815.536	25426.62
815.79	25805.62
816.043	26232.62
816.296	26647.62
816.55	27007.62
816.803	27217.62
817.056	27676.62
817.309	27860.62
817.562	28329.62
817.815	28444.62
818.068	28848.62
818.321	29033.62
818.574	29450.62
818.827	29863.62
819.079	30292.62
819.332	30860.62
819.585	31201.62
819.838	31534.62
820.09	31819.62
820.343	31976.62
820.595	32152.62
820.848	32648.62
821.1	32613.62
821.353	32611.62
821.605	32843.62
821.857	32651.62
822.11	32586.62
822.362	32458.62
822.614	32623.62
822.866	32512.62
823.118	32496.62
823.37	32602.62
823.622	32854.62
823.874	32861.62
824.126	33006.62
824.378	33017.62
824.63	33111.62
824.882	33290.62
825.134	33186.62
825.385	33254.62
825.637	33251.62
825.888	33114.62
826.14	33228.62
826.392	32991.62
826.643	32797.62
826.895	32781.62
827.146	32779.62
827.397	32687.62
827.649	32661.62
827.9	32636.62
828.151	32716.62
828.402	32782.62
828.653	32910.62
828.905	33110.62
829.156	33072.62
829.407	32998.62
829.658	33095.62
829.909	33155.62
830.159	33191.62
830.41	32969.62
830.661	32836.62
830.912	32559.62
831.162	32617.62
831.413	32474.62
831.664	32545.62
831.914	32563.62
832.165	32522.62
832.415	32636.62
832.666	32567.62
832.916	32651.62
833.167	32597.62
833.417	32512.62
833.667	32517.62
833.917	32282.62
834.168	32357.62
834.418	32385.62
834.668	32164.62
834.918	31863.62
835.168	31869.62
835.418	31792.62
835.668	31802.62
835.918	31719.62
836.167	31788.62
836.417	31577.62
836.667	31558.62
836.917	31664.62
837.166	31422.62
837.416	31562.62
837.666	31440.62
837.915	31381.62
838.165	31511.62
838.414	31280.62
838.663	31298.62
838.913	31351.62
839.162	31346.62
839.411	31228.62
839.661	31093.62
839.91	31004.62
840.159	30993.62
840.408	30944.62
840.657	31066.62
840.906	31109.62
841.155	31141.62
841.404	31084.62
841.653	31038.62
841.902	31113.62
842.15	31135.62
842.399	31298.62
842.648	31152.62
842.897	30955.62
843.145	30872.62
843.394	30694.62
843.642	30581.62
843.891	30421.62
844.139	30249.62
844.388	30167.62
844.636	30017.62
844.884	30199.62
845.133	30007.62
845.381	29980.62
845.629	30099.62
845.877	29860.62
846.125	29792.62
846.373	29956.62
846.621	29806.62
846.869	29838.62
847.117	29768.62
847.365	29430.62
847.613	29277.62
847.861	29189.62
848.108	29109.62
848.356	29191.62
848.604	29129.62
848.851	29069.62
849.099	29282.62
849.346	29269.62
849.594	29484.62
849.841	29504.62
850.089	29553.62
850.336	29631.62
850.583	29543.62
850.831	29554.62
851.078	29378.62
851.325	29325.62
851.572	29400.62
851.819	29239.62
852.066	28685.62
852.313	28277.62
852.56	28118.62
852.807	27994.62
853.054	27894.62
853.301	28012.62
853.548	27897.62
853.794	28138.62
854.041	28187.62
854.288	28300.62
854.534	28549.62
854.781	28644.62
855.028	28507.62
855.274	28428.62
855.52	28306.62
855.767	28119.62
856.013	28208.62
856.26	28435.62
856.506	27929.62
856.752	27965.62
856.998	28051.62
857.244	27987.62
857.49	28161.62
857.736	28138.62
857.982	28263.62
858.228	28071.62
858.474	28036.62
858.72	27741.62
858.966	27605.62
859.212	27428.62
859.458	27188.62
859.703	26856.62
859.949	26620.62
860.195	26517.62
860.44	26380.62
860.686	26308.62
860.931	26206.62
861.177	25975.62
861.422	26078.62
861.667	25919.62
861.913	25884.62
862.158	26038.62
862.403	26221.62
862.648	26172.62
862.893	26239.62
863.138	26246.62
863.384	26097.62
863.629	26191.62
863.873	26185.62
864.118	26021.62
864.363	25918.62
864.608	26028.62
864.853	25793.62
865.098	25622.62
865.342	25620.62
865.587	25539.62
865.832	25599.62
866.076	25439.62
866.321	25321.62
866.565	25315.62
866.81	25242.62
867.054	25219.62
867.298	25080.62
867.543	24984.62
867.787	25043.62
868.031	24976.62
868.275	25023.62
868.519	24911.62
868.764	24970.62
869.008	24974.62
869.252	24774.62
869.496	24807.62
869.739	24751.62
869.983	24686.62
870.227	24752.62
870.471	24693.62
870.715	24744.62
870.958	24842.62
871.202	24996.62
871.446	25042.62
871.689	25050.62
871.933	24892.62
872.176	24983.62
872.42	24832.62
872.663	24892.62
872.906	24820.62
873.15	24644.62
873.393	24745.62
873.636	24569.62
873.879	24356.62
874.122	24193.62
874.366	23835.62
874.609	23787.62
874.852	23587.62
875.095	23501.62
875.337	23424.62
875.58	23300.62
875.823	23425.62
876.066	23205.62
876.309	23181.62
876.551	22952.62
876.794	22891.62
877.037	23014.62
877.279	22831.62
877.522	22857.62
877.764	22927.62
878.007	22789.62
878.249	22835.62
878.491	22776.62
878.734	22819.62
878.976	22716.62
879.218	22471.62
879.46	22473.62
879.702	22397.62
879.945	22159.62
880.187	21992.62
880.429	21826.62
880.671	21767.62
880.912	21639.62
881.154	21723.62
881.396	21563.62
881.638	21704.62
881.88	21603.62
882.121	21605.62
882.363	21599.62
882.605	21602.62
882.846	21473.62
883.088	21352.62
883.329	21365.62
883.571	21504.62
883.812	21568.62
884.053	21841.62
884.295	22105.62
884.536	22439.62
884.777	22208.62
885.018	22142.62
885.259	22078.62
885.5	21921.62
885.742	22228.62
885.982	21978.62
886.223	21832.62
886.464	21598.62
886.705	21486.62
886.946	21403.62
887.187	21008.62
887.428	20911.62
887.668	20758.62
887.909	20446.62
888.15	20140.62
888.39	20138.62
888.631	19970.62
888.871	19771.62
889.111	19672.62
889.352	19569.62
889.592	19474.62
889.833	19298.62
890.073	19237.62
890.313	19345.62
890.553	18997.62
890.793	19008.62
891.033	18930.62
891.273	18803.62
891.513	18773.62
891.753	18794.62
891.993	18704.62
892.233	18720.62
892.473	18892.62
892.713	18787.62
892.952	18854.62
893.192	18822.62
893.432	18851.62
893.671	18875.62
893.911	18681.62
894.15	18625.62
894.39	18552.62
894.629	18441.62
894.869	18305.62
895.108	18301.62
895.347	18228.62
895.587	18228.62
895.826	18142.62
896.065	18088.62
896.304	18148.62
896.543	18143.62
896.782	18017.62
897.021	18043.62
897.26	17978.62
897.499	18032.62
897.738	18037.62
897.977	17859.62
898.216	17698.62
898.454	17609.62
898.693	17514.62
898.932	17538.62
899.17	17471.62
899.409	17372.62
899.647	17444.62
899.886	17500.62
900.124	17447.62
900.363	17366.62
900.601	17479.62
900.839	17490.62
901.078	17556.62
901.316	17611.62
901.554	17693.62
901.792	17777.62
902.03	17667.62
902.268	17758.62
902.506	17704.62
902.744	17498.62
902.982	17441.62
903.22	17216.62
903.458	16967.62
903.695	16853.62
903.933	16583.62
904.171	16237.62
904.409	15962.62
904.646	15891.62
904.884	15582.62
905.121	15531.62
905.359	15311.62
905.596	15191.62
905.833	15085.62
906.071	14941.62
906.308	14887.62
906.545	14779.62
906.783	14796.62
907.02	14766.62
907.257	14700.62
907.494	14583.62
907.731	14618.62
907.968	14526.62
908.205	14357.62
908.442	14367.62
908.679	14366.62
908.915	14173.62
909.152	14084.62
909.389	13890.62
909.626	13938.62
909.862	13792.62
910.099	13719.62
910.335	13772.62
910.572	13543.62
910.808	13629.62
911.045	13579.62
911.281	13464.62
911.518	13466.62
911.754	13369.62
911.99	13294.62
912.226	13228.62
912.463	13099.62
912.699	13046.62
912.935	12925.62
913.171	12863.62
913.407	12689.62
913.643	12728.62
913.879	12544.62
914.114	12438.62
914.35	12256.62
914.586	12295.62
914.822	12125.62
915.057	12190.62
915.293	11993.62
915.529	11909.62
915.764	11989.62
916	11887.62
916.235	11964.62
916.471	11862.62
916.706	11743.62
916.941	11774.62
917.177	11746.62
917.412	11796.62
917.647	11797.62
917.882	11603.62
918.117	11747.62
918.352	11687.62
918.588	11695.62
918.823	11509.62
919.057	11490.62
919.292	11272.62
919.527	11368.62
919.762	11196.62
919.997	11066.62
920.232	10988.62
920.466	10967.62
920.701	10705.62
920.935	10768.62
921.17	10768.62
921.405	10575.62
921.639	10592.62
921.873	10505.62
922.108	10483.62
922.342	10570.62
922.576	10430.62
922.811	10361.62
923.045	10406.62
923.279	10354.62
923.513	10195.62
923.747	10167.62
923.981	10195.62
924.215	10030.62
924.449	10051.62
924.683	9920.62
924.917	9844.62
925.151	9880.62
925.385	9931.62
925.618	9850.62
925.852	9800.62
926.086	9809.62
926.319	9817.62
926.553	9821.62
926.786	9712.62
927.02	9796.62
927.253	9811.62
927.486	9769.62
927.72	9729.62
927.953	9799.62
928.186	9696.62
928.42	9606.62
928.653	9582.62
928.886	9492.62
929.119	9517.62
929.352	9406.62
929.585	9398.62
929.818	9365.62
930.051	9310.62
930.284	9263.62
930.516	9067.62
930.749	9107.62
930.982	9152.62
931.215	9070.62
931.447	8905.62
931.68	8950.62
931.912	8915.62
932.145	8881.62
932.377	8906.62
932.61	9065.62
932.842	8853.62
933.074	8900.62
933.307	8864.62
933.539	8915.62
933.771	8907.62
934.003	8845.62
934.236	8903.62
934.468	8899.62
934.7	8817.62
934.932	8797.62
935.164	8760.62
935.395	8770.62
935.627	8760.62
935.859	8774.62
936.091	8577.62
936.323	8726.62
936.554	8666.62
936.786	8489.62
937.017	8488.62
937.249	8609.62
937.481	8479.62
937.712	8520.62
937.943	8478.62
938.175	8490.62
938.406	8439.62
938.637	8483.62
938.869	8367.62
939.1	8436.62
939.331	8396.62
939.562	8358.62
939.793	8287.62
940.024	8351.62
940.255	8319.62
940.486	8250.62
940.717	8163.62
940.948	8141.62
941.179	8099.62
941.409	8128.62
941.64	8092.62
941.871	8167.62
942.102	8028.62
942.332	8029.62
942.563	8147.62
942.793	8104.62
943.024	8006.62
943.254	7987.62
943.484	8153.62
943.715	8055.62
943.945	8052.62
944.175	7984.62
944.405	7970.62
944.636	7996.62
944.866	7997.62
945.096	7992.62
945.326	7874.62
945.556	7911.62
945.786	7921.62
946.016	7846.62
946.245	7743.62
946.475	7741.62
946.705	7690.62
946.935	7679.62
947.164	7596.62
947.394	7522.62
947.624	7527.62
947.853	7563.62
948.083	7480.62
948.312	7447.62
948.542	7335.62
948.771	7373.62
949	7383.62
949.23	7363.62
949.459	7328.62
949.688	7381.62
949.917	7312.62
950.146	7352.62
950.375	7323.62
950.604	7222.62
950.833	7322.62
951.062	7310.62
951.291	7239.62
951.52	7202.62
951.749	7201.62
951.978	7103.62
952.206	7136.62
952.435	7119.62
952.664	7069.62
952.892	7075.62
953.121	7053.62
953.349	7049.62
953.578	7029.62
953.806	6940.62
954.035	6914.62
954.263	6901.62
954.491	6875.62
954.719	6871.62
954.948	6753.62
955.176	6743.62
955.404	6688.62
955.632	6701.62
955.86	6726.62
956.088	6615.62
956.316	6648.62
956.544	6616.62
956.772	6555.62
956.999	6490.62
957.227	6538.62
957.455	6459.62
957.683	6417.62
957.91	6392.62
958.138	6370.62
958.365	6279.62
958.593	6307.62
958.82	6201.62
959.048	6315.62
959.275	6185.62
959.502	6234.62
959.73	6173.62
959.957	6287.62
960.184	6225.62
960.411	6108.62
960.638	6203.62
960.865	6113.62
961.092	6147.62
961.319	6076.62
961.546	6111.62
961.773	6124.62
962	6083.62
962.227	6102.62
962.454	6070.62
962.68	6033.62
962.907	6053.62
963.134	5958.62
963.36	5978.62
963.587	5944.62
963.813	5825.62
964.04	5865.62
964.266	5791.62
964.493	5768.62
964.719	5784.62
964.945	5742.62
965.171	5634.62
965.398	5680.62
965.624	5671.62
965.85	5577.62
966.076	5561.62
966.302	5578.62
966.528	5516.62
966.754	5584.62
966.98	5510.62
967.206	5474.62
967.431	5406.62
967.657	5483.62
967.883	5453.62
968.109	5405.62
968.334	5363.62
968.56	5353.62
968.785	5361.62
969.011	5267.62
969.236	5352.62
969.462	5252.62
969.687	5271.62
969.912	5293.62
970.138	5322.62
970.363	5225.62
970.588	5223.62
970.813	5236.62
971.038	5131.62
971.263	5176.62
971.488	5180.62
971.713	5141.62
971.938	5152.62
972.163	4996.62
972.388	5037.62
972.613	5041.62
972.838	4989.62
973.062	4982.62
973.287	4967.62
973.512	4891.62
973.736	4915.62
973.961	4867.62
974.185	4834.62
974.41	4887.62
974.634	4728.62
974.858	4754.62
975.083	4791.62
975.307	4716.62
975.531	4710.62
975.755	4615.62
975.98	4607.62
976.204	4542.62
976.428	4540.62
976.652	4597.62
976.876	4511.62
977.1	4533.62
977.324	4469.62
977.547	4468.62
977.771	4515.62
977.995	4415.62
978.219	4344.62
978.442	4482.62
978.666	4407.62
978.89	4408.62
979.113	4358.62
979.337	4375.62
979.56	4296.62
979.783	4419.62
980.007	4297.62
980.23	4319.62
980.453	4236.62
980.677	4271.62
980.9	4272.62
981.123	4143.62
981.346	4235.62
981.569	4194.62
981.792	4201.62
982.015	4148.62
982.238	4092.62
982.461	4141.62
982.684	4066.62
982.907	4051.62
983.129	3977.62
983.352	4015.62
983.575	3958.62
983.797	3992.62
984.02	3919.62
984.242	3916.62
984.465	3927.62
984.687	3948.62
984.91	3925.62
985.132	3835.62
985.354	3901.62
985.577	3831.62
985.799	3831.62
986.021	3718.62
986.243	3740.62
986.465	3746.62
986.687	3790.62
986.909	3810.62
987.131	3738.62
987.353	3680.62
987.575	3760.62
987.797	3683.62
988.019	3627.62
988.241	3654.62
988.462	3551.62
988.684	3674.62
988.906	3681.62
989.127	3673.62
989.349	3548.62
989.57	3578.62
989.792	3668.62
990.013	3628.62
990.234	3621.62
990.456	3631.62
990.677	3604.62
990.898	3552.62
991.119	3513.62
991.341	3534.62
991.562	3434.62
991.783	3480.62
992.004	3379.62
992.225	3344.62
992.446	3399.62
992.667	3349.62
992.887	3340.62
993.108	3265.62
993.329	3365.62
993.55	3278.62
993.77	3232.62
993.991	3245.62
994.212	3238.62
994.432	3221.62
994.653	3203.62
994.873	3239.62
995.093	3075.62
995.314	3106.62
995.534	3147.62
995.754	3208.62
995.975	3188.62
996.195	3069.62
996.415	3145.62
996.635	3109.62
996.855	3111.62
997.075	3086.62
997.295	3054.62
997.515	3068.62
997.735	3070.62
997.955	3059.62
998.174	3014.62
998.394	3029.62
998.614	3050.62
998.834	2976.62
999.053	3062.62
999.273	3025.62
999.492	3073.62
999.712	3010.62
999.931	2935.62
1000.151	2944.62
1000.37	2929.62
1000.589	3013.62
1000.809	2915.62
1001.028	2979.62
1001.247	2909.62
1001.466	2778.62
1001.685	2912.62
1001.904	2892.62
1002.123	2838.62
1002.342	2822.62
1002.561	2801.62
1002.78	2812.62
1002.999	2849.62
1003.218	2779.62
1003.436	2729.62
1003.655	2810.62
1003.874	2697.62
1004.092	2683.62
1004.311	2766.62
1004.53	2724.62
1004.748	2776.62
1004.966	2708.62
1005.185	2728.62
1005.403	2703.62
1005.622	2679.62
1005.84	2716.62
1006.058	2606.62
1006.276	2674.62
1006.494	3131.62
1006.712	2652.62
1006.931	2744.62
1007.149	2610.62
1007.367	2618.62
1007.584	2657.62
1007.802	2753.62
1008.02	2654.62
1008.238	2758.62
1008.456	2753.62
1008.673	2625.62
1008.891	2769.62
1009.109	2721.62
1009.326	2783.62
1009.544	2893.62
1009.761	2845.62
1009.979	2968.62
1010.196	2976.62
1010.413	3118.62
1010.631	3218.62
1010.848	3325.62
1011.065	3320.62
1011.282	3281.62
1011.5	3227.62
1011.717	3331.62
1011.934	3232.62
1012.151	3220.62
1012.368	3240.62
1012.585	3197.62
1012.801	3201.62
1013.018	3198.62
1013.235	3164.62
1013.452	3168.62
1013.669	3229.62
1013.885	3193.62
1014.102	3297.62
1014.318	3236.62
1014.535	3187.62
1014.751	3230.62
1014.968	3174.62
1015.184	3193.62
1015.401	3111.62
1015.617	3106.62
1015.833	3055.62
1016.049	3026.62
1016.266	3008.62
1016.482	3043.62
1016.698	2962.62
1016.914	2963.62
1017.13	2887.62
1017.346	2885.62
1017.562	2956.62
1017.778	2869.62
1017.993	2823.62
1018.209	2886.62
1018.425	2853.62
1018.641	2813.62
1018.856	2814.62
1019.072	2807.62
1019.288	2862.62
1019.503	2849.62
1019.719	2740.62
1019.934	2755.62
1020.149	2782.62
1020.365	2742.62
1020.58	2670.62
1020.795	2671.62
1021.011	2560.62
1021.226	2555.62
1021.441	2560.62
1021.656	2437.62
1021.871	2362.62
1022.086	2339.62
1022.301	2308.62
1022.516	2255.62
1022.731	2289.62
1022.946	2218.62
1023.16	2144.62
1023.375	2138.62
1023.59	2106.62
1023.804	2040.62
1024.019	2105.62
1024.234	1964.62
1024.448	1964.62
1024.663	1895.62
1024.877	1925.62
1025.092	1872.62
1025.306	1857.62
1025.52	1767.62
1025.734	1807.62
1025.949	1729.62
1026.163	1675.62
1026.377	1608.62
1026.591	1608.62
1026.805	1547.62
1027.019	1523.62
1027.233	1475.62
1027.447	1400.62
1027.661	1503.62
1027.875	1429.62
1028.088	1421.62
1028.302	1325.62
1028.516	1311.62
1028.73	1294.62
1028.943	1250.62
1029.157	1198.62
1029.37	1110.62
1029.584	-1.38
1029.797	-1.38
1030.011	-1.38
1030.224	-0.38
