Data from QEP037381__25__15-13-25-858.txt Node

Date: Fri Dec 16 15:13:25 EST 2022
User: dcclab
Spectrometer: QEP03738
Trigger mode: 4
Integration Time (sec): 1.000000E1
Scans to average: 1
Electric dark correction enabled: true
Nonlinearity correction enabled: false
Boxcar width: 0
XAxis mode: Wavelengths
Number of Pixels in Spectrum: 1044
>>>>>Begin Spectral Data<<<<<
784.041	11.88
784.3	1.88
784.558	-2.12
784.817	-4.12
785.075	90526.88
785.334	15436.88
785.592	7246.88
785.851	4956.88
786.109	3706.88
786.368	2907.88
786.626	2382.88
786.884	1977.88
787.143	1661.88
787.401	1412.88
787.659	1259.88
787.917	1077.88
788.175	1022.88
788.433	888.88
788.691	809.88
788.949	762.88
789.207	729.88
789.465	629.88
789.723	601.88
789.98	554.88
790.238	601.88
790.496	559.88
790.753	534.88
791.011	576.88
791.268	527.88
791.526	510.88
791.783	516.88
792.041	501.88
792.298	428.88
792.556	500.88
792.813	489.88
793.07	440.88
793.327	447.88
793.584	519.88
793.841	445.88
794.099	471.88
794.356	519.88
794.613	421.88
794.869	454.88
795.126	428.88
795.383	416.88
795.64	441.88
795.897	398.88
796.153	445.88
796.41	423.88
796.667	407.88
796.923	407.88
797.18	432.88
797.436	441.88
797.693	400.88
797.949	473.88
798.206	499.88
798.462	408.88
798.718	493.88
798.974	440.88
799.231	480.88
799.487	477.88
799.743	491.88
799.999	510.88
800.255	504.88
800.511	511.88
800.767	544.88
801.023	542.88
801.279	566.88
801.534	612.88
801.79	670.88
802.046	702.88
802.302	848.88
802.557	945.88
802.813	1189.88
803.068	1462.88
803.324	2005.88
803.579	2746.88
803.835	3748.88
804.09	5239.88
804.345	6858.88
804.601	8641.88
804.856	10452.88
805.111	12106.88
805.366	13372.88
805.621	14347.88
805.876	15017.88
806.131	15328.88
806.386	15674.88
806.641	15921.88
806.896	16157.88
807.151	16619.88
807.406	16851.88
807.661	17218.88
807.915	17462.88
808.17	17746.88
808.425	17964.88
808.679	18133.88
808.934	18515.88
809.188	18539.88
809.443	18774.88
809.697	19101.88
809.951	19220.88
810.206	19455.88
810.46	19575.88
810.714	19810.88
810.968	20015.88
811.223	20295.88
811.477	20323.88
811.731	20460.88
811.985	20619.88
812.239	20817.88
812.493	20910.88
812.747	20917.88
813	20956.88
813.254	20976.88
813.508	21255.88
813.762	21258.88
814.015	21472.88
814.269	21664.88
814.522	21729.88
814.776	22118.88
815.03	22263.88
815.283	22499.88
815.536	23058.88
815.79	23301.88
816.043	23796.88
816.296	24123.88
816.55	24354.88
816.803	24739.88
817.056	25130.88
817.309	25243.88
817.562	25422.88
817.815	25827.88
818.068	25956.88
818.321	26295.88
818.574	26663.88
818.827	27020.88
819.079	27173.88
819.332	27819.88
819.585	28058.88
819.838	28558.88
820.09	28634.88
820.343	28898.88
820.595	28934.88
820.848	29199.88
821.1	29466.88
821.353	29447.88
821.605	29385.88
821.857	29281.88
822.11	29159.88
822.362	29136.88
822.614	29110.88
822.866	29145.88
823.118	29149.88
823.37	29334.88
823.622	29366.88
823.874	29434.88
824.126	29550.88
824.378	29666.88
824.63	29708.88
824.882	29701.88
825.134	29773.88
825.385	29681.88
825.637	29633.88
825.888	29655.88
826.14	29534.88
826.392	29485.88
826.643	29385.88
826.895	29155.88
827.146	29111.88
827.397	29245.88
827.649	29111.88
827.9	29028.88
828.151	29018.88
828.402	29043.88
828.653	29253.88
828.905	29221.88
829.156	29370.88
829.407	29351.88
829.658	29469.88
829.909	29521.88
830.159	29370.88
830.41	29311.88
830.661	29021.88
830.912	28931.88
831.162	28893.88
831.413	28849.88
831.664	28862.88
831.914	28812.88
832.165	28755.88
832.415	28669.88
832.666	28765.88
832.916	28766.88
833.167	28862.88
833.417	28752.88
833.667	28622.88
833.917	28568.88
834.168	28575.88
834.418	28418.88
834.668	28225.88
834.918	28175.88
835.168	28025.88
835.418	28097.88
835.668	27967.88
835.918	27945.88
836.167	27788.88
836.417	27846.88
836.667	27781.88
836.917	27703.88
837.166	27544.88
837.416	27691.88
837.666	27770.88
837.915	27630.88
838.165	27550.88
838.414	27472.88
838.663	27416.88
838.913	27455.88
839.162	27375.88
839.411	27452.88
839.661	27264.88
839.91	27187.88
840.159	27199.88
840.408	27145.88
840.657	27160.88
840.906	27275.88
841.155	27277.88
841.404	27331.88
841.653	27121.88
841.902	27126.88
842.15	27249.88
842.399	27255.88
842.648	27207.88
842.897	27231.88
843.145	26911.88
843.394	26821.88
843.642	26665.88
843.891	26644.88
844.139	26282.88
844.388	26265.88
844.636	26165.88
844.884	26133.88
845.133	26194.88
845.381	26212.88
845.629	26238.88
845.877	26205.88
846.125	26232.88
846.373	26051.88
846.621	25987.88
846.869	25852.88
847.117	25856.88
847.365	25569.88
847.613	25443.88
847.861	25430.88
848.108	25542.88
848.356	25392.88
848.604	25327.88
848.851	25359.88
849.099	25479.88
849.346	25487.88
849.594	25688.88
849.841	25653.88
850.089	25622.88
850.336	25701.88
850.583	25604.88
850.831	25503.88
851.078	25400.88
851.325	25449.88
851.572	25548.88
851.819	25399.88
852.066	24905.88
852.313	24443.88
852.56	24451.88
852.807	24224.88
853.054	24186.88
853.301	24149.88
853.548	24165.88
853.794	24424.88
854.041	24407.88
854.288	24574.88
854.534	24744.88
854.781	24632.88
855.028	24549.88
855.274	24577.88
855.52	24385.88
855.767	24335.88
856.013	24351.88
856.26	24655.88
856.506	24162.88
856.752	24040.88
856.998	24212.88
857.244	24091.88
857.49	24367.88
857.736	24327.88
857.982	24351.88
858.228	24315.88
858.474	24052.88
858.72	24063.88
858.966	23807.88
859.212	23544.88
859.458	23341.88
859.703	23017.88
859.949	22849.88
860.195	22880.88
860.44	22688.88
860.686	22543.88
860.931	22666.88
861.177	22357.88
861.422	22310.88
861.667	22255.88
861.913	22237.88
862.158	22244.88
862.403	22435.88
862.648	22359.88
862.893	22466.88
863.138	22492.88
863.384	22363.88
863.629	22336.88
863.873	22330.88
864.118	22245.88
864.363	22161.88
864.608	22243.88
864.853	22117.88
865.098	21967.88
865.342	21865.88
865.587	21734.88
865.832	21753.88
866.076	21696.88
866.321	21625.88
866.565	21653.88
866.81	21462.88
867.054	21434.88
867.298	21357.88
867.543	21336.88
867.787	21350.88
868.031	21342.88
868.275	21332.88
868.519	21319.88
868.764	21164.88
869.008	21141.88
869.252	21225.88
869.496	21146.88
869.739	21134.88
869.983	21136.88
870.227	21100.88
870.471	21184.88
870.715	21255.88
870.958	21376.88
871.202	21297.88
871.446	21314.88
871.689	21280.88
871.933	21436.88
872.176	21343.88
872.42	21393.88
872.663	21154.88
872.906	21158.88
873.15	21079.88
873.393	20965.88
873.636	21001.88
873.879	20811.88
874.122	20711.88
874.366	20476.88
874.609	20293.88
874.852	20100.88
875.095	20065.88
875.337	19811.88
875.58	19834.88
875.823	19796.88
876.066	19733.88
876.309	19676.88
876.551	19499.88
876.794	19447.88
877.037	19342.88
877.279	19398.88
877.522	19467.88
877.764	19423.88
878.007	19261.88
878.249	19369.88
878.491	19212.88
878.734	19277.88
878.976	19199.88
879.218	19084.88
879.46	18951.88
879.702	18860.88
879.945	18760.88
880.187	18489.88
880.429	18431.88
880.671	18373.88
880.912	18309.88
881.154	18258.88
881.396	18165.88
881.638	18261.88
881.88	18242.88
882.121	18114.88
882.363	18218.88
882.605	18212.88
882.846	18075.88
883.088	18098.88
883.329	18103.88
883.571	18075.88
883.812	18264.88
884.053	18542.88
884.295	18824.88
884.536	18988.88
884.777	19009.88
885.018	18895.88
885.259	18876.88
885.5	18720.88
885.742	18999.88
885.982	18564.88
886.223	18502.88
886.464	18394.88
886.705	18254.88
886.946	18061.88
887.187	17648.88
887.428	17548.88
887.668	17270.88
887.909	17093.88
888.15	16944.88
888.39	16828.88
888.631	16772.88
888.871	16659.88
889.111	16550.88
889.352	16320.88
889.592	16266.88
889.833	16188.88
890.073	16039.88
890.313	15990.88
890.553	15817.88
890.793	15749.88
891.033	15752.88
891.273	15609.88
891.513	15673.88
891.753	15589.88
891.993	15554.88
892.233	15573.88
892.473	15668.88
892.713	15723.88
892.952	15607.88
893.192	15671.88
893.432	15689.88
893.671	15654.88
893.911	15576.88
894.15	15482.88
894.39	15289.88
894.629	15302.88
894.869	15255.88
895.108	15240.88
895.347	15123.88
895.587	15135.88
895.826	15043.88
896.065	15070.88
896.304	15093.88
896.543	15115.88
896.782	14996.88
897.021	14975.88
897.26	15057.88
897.499	15014.88
897.738	15059.88
897.977	14959.88
898.216	14776.88
898.454	14726.88
898.693	14632.88
898.932	14589.88
899.17	14522.88
899.409	14526.88
899.647	14553.88
899.886	14390.88
900.124	14584.88
900.363	14526.88
900.601	14646.88
900.839	14589.88
901.078	14702.88
901.316	14774.88
901.554	14738.88
901.792	14928.88
902.03	14918.88
902.268	14854.88
902.506	14771.88
902.744	14710.88
902.982	14634.88
903.22	14339.88
903.458	14089.88
903.695	13934.88
903.933	13781.88
904.171	13466.88
904.409	13294.88
904.646	13158.88
904.884	12864.88
905.121	12837.88
905.359	12622.88
905.596	12554.88
905.833	12309.88
906.071	12235.88
906.308	12306.88
906.545	12237.88
906.783	12188.88
907.02	12222.88
907.257	12053.88
907.494	12042.88
907.731	12018.88
907.968	11914.88
908.205	11877.88
908.442	11721.88
908.679	11750.88
908.915	11595.88
909.152	11551.88
909.389	11435.88
909.626	11363.88
909.862	11267.88
910.099	11178.88
910.335	11191.88
910.572	11094.88
910.808	11117.88
911.045	11024.88
911.281	10973.88
911.518	11056.88
911.754	10878.88
911.99	10916.88
912.226	10780.88
912.463	10700.88
912.699	10618.88
912.935	10520.88
913.171	10389.88
913.407	10405.88
913.643	10295.88
913.879	10200.88
914.114	10143.88
914.35	10012.88
914.586	10048.88
914.822	9834.88
915.057	9896.88
915.293	9694.88
915.529	9657.88
915.764	9817.88
916	9690.88
916.235	9645.88
916.471	9684.88
916.706	9558.88
916.941	9627.88
917.177	9602.88
917.412	9602.88
917.647	9603.88
917.882	9483.88
918.117	9545.88
918.352	9475.88
918.588	9480.88
918.823	9390.88
919.057	9331.88
919.292	9122.88
919.527	9226.88
919.762	9059.88
919.997	8980.88
920.232	8881.88
920.466	8821.88
920.701	8653.88
920.935	8697.88
921.17	8619.88
921.405	8583.88
921.639	8600.88
921.873	8531.88
922.108	8489.88
922.342	8525.88
922.576	8401.88
922.811	8415.88
923.045	8389.88
923.279	8355.88
923.513	8261.88
923.747	8335.88
923.981	8192.88
924.215	8101.88
924.449	8115.88
924.683	7991.88
924.917	7993.88
925.151	7973.88
925.385	8017.88
925.618	7954.88
925.852	7930.88
926.086	7882.88
926.319	7887.88
926.553	7889.88
926.786	7879.88
927.02	7885.88
927.253	7891.88
927.486	7843.88
927.72	7853.88
927.953	7868.88
928.186	7769.88
928.42	7757.88
928.653	7750.88
928.886	7683.88
929.119	7696.88
929.352	7578.88
929.585	7643.88
929.818	7526.88
930.051	7444.88
930.284	7493.88
930.516	7312.88
930.749	7242.88
930.982	7314.88
931.215	7258.88
931.447	7222.88
931.68	7185.88
931.912	7118.88
932.145	7130.88
932.377	7171.88
932.61	7333.88
932.842	7152.88
933.074	7154.88
933.307	7107.88
933.539	7195.88
933.771	7249.88
934.003	7170.88
934.236	7220.88
934.468	7180.88
934.7	7149.88
934.932	7124.88
935.164	7091.88
935.395	7030.88
935.627	7021.88
935.859	6950.88
936.091	6940.88
936.323	6977.88
936.554	6965.88
936.786	6876.88
937.017	6790.88
937.249	6844.88
937.481	6823.88
937.712	6803.88
937.943	6875.88
938.175	6829.88
938.406	6739.88
938.637	6827.88
938.869	6726.88
939.1	6733.88
939.331	6716.88
939.562	6742.88
939.793	6685.88
940.024	6698.88
940.255	6692.88
940.486	6538.88
940.717	6538.88
940.948	6589.88
941.179	6503.88
941.409	6549.88
941.64	6474.88
941.871	6445.88
942.102	6485.88
942.332	6419.88
942.563	6523.88
942.793	6438.88
943.024	6345.88
943.254	6421.88
943.484	6472.88
943.715	6465.88
943.945	6429.88
944.175	6355.88
944.405	6340.88
944.636	6328.88
944.866	6374.88
945.096	6369.88
945.326	6227.88
945.556	6321.88
945.786	6317.88
946.016	6257.88
946.245	6211.88
946.475	6135.88
946.705	6158.88
946.935	6082.88
947.164	6095.88
947.394	6009.88
947.624	5973.88
947.853	6011.88
948.083	5960.88
948.312	5902.88
948.542	5861.88
948.771	5815.88
949	5765.88
949.23	5870.88
949.459	5808.88
949.688	5868.88
949.917	5848.88
950.146	5812.88
950.375	5875.88
950.604	5716.88
950.833	5851.88
951.062	5864.88
951.291	5730.88
951.52	5691.88
951.749	5684.88
951.978	5644.88
952.206	5677.88
952.435	5627.88
952.664	5680.88
952.892	5654.88
953.121	5607.88
953.349	5595.88
953.578	5573.88
953.806	5545.88
954.035	5459.88
954.263	5438.88
954.491	5380.88
954.719	5452.88
954.948	5382.88
955.176	5417.88
955.404	5281.88
955.632	5369.88
955.86	5316.88
956.088	5246.88
956.316	5288.88
956.544	5330.88
956.772	5221.88
956.999	5159.88
957.227	5234.88
957.455	5075.88
957.683	5050.88
957.91	5052.88
958.138	5026.88
958.365	5080.88
958.593	5014.88
958.82	4922.88
959.048	4984.88
959.275	4945.88
959.502	4931.88
959.73	4873.88
959.957	4916.88
960.184	4932.88
960.411	4841.88
960.638	4917.88
960.865	4821.88
961.092	4867.88
961.319	4796.88
961.546	4902.88
961.773	4910.88
962	4790.88
962.227	4815.88
962.454	4783.88
962.68	4758.88
962.907	4820.88
963.134	4675.88
963.36	4712.88
963.587	4731.88
963.813	4646.88
964.04	4665.88
964.266	4542.88
964.493	4632.88
964.719	4594.88
964.945	4541.88
965.171	4467.88
965.398	4487.88
965.624	4481.88
965.85	4434.88
966.076	4398.88
966.302	4429.88
966.528	4378.88
966.754	4425.88
966.98	4407.88
967.206	4353.88
967.431	4253.88
967.657	4355.88
967.883	4327.88
968.109	4293.88
968.334	4229.88
968.56	4196.88
968.785	4223.88
969.011	4187.88
969.236	4200.88
969.462	4200.88
969.687	4173.88
969.912	4193.88
970.138	4202.88
970.363	4134.88
970.588	4130.88
970.813	4121.88
971.038	4053.88
971.263	4096.88
971.488	4083.88
971.713	4087.88
971.938	4078.88
972.163	3950.88
972.388	3960.88
972.613	3947.88
972.838	3973.88
973.062	3904.88
973.287	3951.88
973.512	3833.88
973.736	3844.88
973.961	3865.88
974.185	3829.88
974.41	3842.88
974.634	3746.88
974.858	3739.88
975.083	3764.88
975.307	3769.88
975.531	3674.88
975.755	3647.88
975.98	3646.88
976.204	3542.88
976.428	3578.88
976.652	3529.88
976.876	3537.88
977.1	3527.88
977.324	3541.88
977.547	3571.88
977.771	3552.88
977.995	3503.88
978.219	3431.88
978.442	3563.88
978.666	3503.88
978.89	3464.88
979.113	3465.88
979.337	3403.88
979.56	3414.88
979.783	3509.88
980.007	3342.88
980.23	3432.88
980.453	3366.88
980.677	3409.88
980.9	3385.88
981.123	3290.88
981.346	3338.88
981.569	3322.88
981.792	3356.88
982.015	3251.88
982.238	3232.88
982.461	3265.88
982.684	3207.88
982.907	3185.88
983.129	3136.88
983.352	3207.88
983.575	3132.88
983.797	3156.88
984.02	3125.88
984.242	3096.88
984.465	3077.88
984.687	3081.88
984.91	3130.88
985.132	3085.88
985.354	3081.88
985.577	3077.88
985.799	3071.88
986.021	2970.88
986.243	2962.88
986.465	2986.88
986.687	3017.88
986.909	3040.88
987.131	2932.88
987.353	2902.88
987.575	2978.88
987.797	2915.88
988.019	2824.88
988.241	2932.88
988.462	2854.88
988.684	2928.88
988.906	2947.88
989.127	2929.88
989.349	2793.88
989.57	2849.88
989.792	2849.88
990.013	2899.88
990.234	2848.88
990.456	2878.88
990.677	2839.88
990.898	2805.88
991.119	2793.88
991.341	2848.88
991.562	2748.88
991.783	2781.88
992.004	2701.88
992.225	2682.88
992.446	2732.88
992.667	2599.88
992.887	2711.88
993.108	2597.88
993.329	2698.88
993.55	2645.88
993.77	2575.88
993.991	2587.88
994.212	2588.88
994.432	2589.88
994.653	2574.88
994.873	2562.88
995.093	2422.88
995.314	2477.88
995.534	2535.88
995.754	2552.88
995.975	2601.88
996.195	2439.88
996.415	2511.88
996.635	2510.88
996.855	2497.88
997.075	2475.88
997.295	2470.88
997.515	2437.88
997.735	2509.88
997.955	2481.88
998.174	2463.88
998.394	2428.88
998.614	2480.88
998.834	2406.88
999.053	2470.88
999.273	2437.88
999.492	2488.88
999.712	2391.88
999.931	2372.88
1000.151	2368.88
1000.37	2366.88
1000.589	2410.88
1000.809	2340.88
1001.028	2426.88
1001.247	2372.88
1001.466	2238.88
1001.685	2367.88
1001.904	2338.88
1002.123	2284.88
1002.342	2285.88
1002.561	2246.88
1002.78	2243.88
1002.999	2315.88
1003.218	2234.88
1003.436	2208.88
1003.655	2249.88
1003.874	2196.88
1004.092	2179.88
1004.311	2232.88
1004.53	2190.88
1004.748	2261.88
1004.966	2195.88
1005.185	2215.88
1005.403	2196.88
1005.622	2166.88
1005.84	2262.88
1006.058	2195.88
1006.276	2140.88
1006.494	2676.88
1006.712	2171.88
1006.931	2228.88
1007.149	2193.88
1007.367	2149.88
1007.584	2207.88
1007.802	2211.88
1008.02	2175.88
1008.238	2299.88
1008.456	2284.88
1008.673	2125.88
1008.891	2277.88
1009.109	2259.88
1009.326	2299.88
1009.544	2402.88
1009.761	2327.88
1009.979	2441.88
1010.196	2508.88
1010.413	2655.88
1010.631	2701.88
1010.848	2767.88
1011.065	2795.88
1011.282	2768.88
1011.5	2714.88
1011.717	2817.88
1011.934	2744.88
1012.151	2745.88
1012.368	2744.88
1012.585	2670.88
1012.801	2729.88
1013.018	2728.88
1013.235	2701.88
1013.452	2685.88
1013.669	2745.88
1013.885	2717.88
1014.102	2780.88
1014.318	2740.88
1014.535	2692.88
1014.751	2751.88
1014.968	2751.88
1015.184	2745.88
1015.401	2649.88
1015.617	2642.88
1015.833	2591.88
1016.049	2617.88
1016.266	2541.88
1016.482	2586.88
1016.698	2491.88
1016.914	2520.88
1017.13	2443.88
1017.346	2484.88
1017.562	2535.88
1017.778	2476.88
1017.993	2425.88
1018.209	2483.88
1018.425	2490.88
1018.641	2412.88
1018.856	2380.88
1019.072	2433.88
1019.288	2416.88
1019.503	2446.88
1019.719	2370.88
1019.934	2363.88
1020.149	2421.88
1020.365	2371.88
1020.58	2275.88
1020.795	2336.88
1021.011	2208.88
1021.226	2183.88
1021.441	2181.88
1021.656	2091.88
1021.871	1976.88
1022.086	1986.88
1022.301	1981.88
1022.516	1944.88
1022.731	1954.88
1022.946	1877.88
1023.16	1836.88
1023.375	1841.88
1023.59	1798.88
1023.804	1722.88
1024.019	1823.88
1024.234	1689.88
1024.448	1688.88
1024.663	1601.88
1024.877	1639.88
1025.092	1597.88
1025.306	1600.88
1025.52	1485.88
1025.734	1565.88
1025.949	1441.88
1026.163	1420.88
1026.377	1345.88
1026.591	1391.88
1026.805	1319.88
1027.019	1292.88
1027.233	1251.88
1027.447	1192.88
1027.661	1278.88
1027.875	1245.88
1028.088	1209.88
1028.302	1125.88
1028.516	1132.88
1028.73	1097.88
1028.943	1086.88
1029.157	975.88
1029.37	939.88
1029.584	-3.12
1029.797	-0.12
1030.011	-3.12
1030.224	-1.12
