Data from QEP037381__38__15-15-35-858.txt Node

Date: Fri Dec 16 15:15:35 EST 2022
User: dcclab
Spectrometer: QEP03738
Trigger mode: 4
Integration Time (sec): 1.000000E1
Scans to average: 1
Electric dark correction enabled: true
Nonlinearity correction enabled: false
Boxcar width: 0
XAxis mode: Wavelengths
Number of Pixels in Spectrum: 1044
>>>>>Begin Spectral Data<<<<<
784.041	13.12
784.3	1.12
784.558	-4.88
784.817	-2.88
785.075	90027.12
785.334	15594.12
785.592	7348.12
785.851	5068.12
786.109	3796.12
786.368	2930.12
786.626	2410.12
786.884	2013.12
787.143	1692.12
787.401	1401.12
787.659	1295.12
787.917	1101.12
788.175	1017.12
788.433	897.12
788.691	813.12
788.949	764.12
789.207	720.12
789.465	626.12
789.723	613.12
789.98	572.12
790.238	596.12
790.496	563.12
790.753	535.12
791.011	576.12
791.268	516.12
791.526	518.12
791.783	520.12
792.041	506.12
792.298	417.12
792.556	493.12
792.813	470.12
793.07	450.12
793.327	439.12
793.584	522.12
793.841	433.12
794.099	452.12
794.356	509.12
794.613	436.12
794.869	448.12
795.126	421.12
795.383	404.12
795.64	421.12
795.897	376.12
796.153	439.12
796.41	420.12
796.667	408.12
796.923	417.12
797.18	420.12
797.436	451.12
797.693	398.12
797.949	454.12
798.206	477.12
798.462	401.12
798.718	454.12
798.974	417.12
799.231	486.12
799.487	463.12
799.743	473.12
799.999	497.12
800.255	496.12
800.511	483.12
800.767	518.12
801.023	502.12
801.279	534.12
801.534	600.12
801.79	620.12
802.046	641.12
802.302	773.12
802.557	876.12
802.813	1092.12
803.068	1328.12
803.324	1803.12
803.579	2428.12
803.835	3336.12
804.09	4634.12
804.345	6015.12
804.601	7618.12
804.856	9281.12
805.111	10752.12
805.366	11812.12
805.621	12611.12
805.876	13255.12
806.131	13554.12
806.386	13758.12
806.641	13982.12
806.896	14298.12
807.151	14600.12
807.406	14823.12
807.661	15064.12
807.915	15389.12
808.17	15564.12
808.425	15817.12
808.679	15866.12
808.934	16165.12
809.188	16308.12
809.443	16427.12
809.697	16798.12
809.951	16794.12
810.206	16871.12
810.46	17151.12
810.714	17267.12
810.968	17499.12
811.223	17596.12
811.477	17675.12
811.731	17796.12
811.985	17941.12
812.239	18083.12
812.493	18259.12
812.747	18221.12
813	18277.12
813.254	18399.12
813.508	18499.12
813.762	18539.12
814.015	18697.12
814.269	18749.12
814.522	19003.12
814.776	19171.12
815.03	19258.12
815.283	19726.12
815.536	19988.12
815.79	20452.12
816.043	20592.12
816.296	20831.12
816.55	21103.12
816.803	21470.12
817.056	21787.12
817.309	21849.12
817.562	22080.12
817.815	22301.12
818.068	22422.12
818.321	22786.12
818.574	22914.12
818.827	23313.12
819.079	23499.12
819.332	23971.12
819.585	24264.12
819.838	24573.12
820.09	24682.12
820.343	24897.12
820.595	24945.12
820.848	25202.12
821.1	25203.12
821.353	25264.12
821.605	25272.12
821.857	25256.12
822.11	25006.12
822.362	25120.12
822.614	25058.12
822.866	24982.12
823.118	24955.12
823.37	25107.12
823.622	25307.12
823.874	25273.12
824.126	25354.12
824.378	25322.12
824.63	25496.12
824.882	25593.12
825.134	25481.12
825.385	25475.12
825.637	25317.12
825.888	25348.12
826.14	25202.12
826.392	25180.12
826.643	24903.12
826.895	25010.12
827.146	24830.12
827.397	24753.12
827.649	24818.12
827.9	24807.12
828.151	24759.12
828.402	24755.12
828.653	24924.12
828.905	25020.12
829.156	25080.12
829.407	25008.12
829.658	25074.12
829.909	25045.12
830.159	25128.12
830.41	25027.12
830.661	24691.12
830.912	24689.12
831.162	24524.12
831.413	24599.12
831.664	24531.12
831.914	24529.12
832.165	24479.12
832.415	24393.12
832.666	24347.12
832.916	24508.12
833.167	24411.12
833.417	24407.12
833.667	24412.12
833.917	24326.12
834.168	24306.12
834.418	24188.12
834.668	24075.12
834.918	23866.12
835.168	23831.12
835.418	23744.12
835.668	23685.12
835.918	23602.12
836.167	23517.12
836.417	23512.12
836.667	23414.12
836.917	23521.12
837.166	23451.12
837.416	23526.12
837.666	23367.12
837.915	23416.12
838.165	23340.12
838.414	23306.12
838.663	23191.12
838.913	23244.12
839.162	23210.12
839.411	23093.12
839.661	23029.12
839.91	23019.12
840.159	23090.12
840.408	22951.12
840.657	22972.12
840.906	22905.12
841.155	23019.12
841.404	22927.12
841.653	22815.12
841.902	22909.12
842.15	23087.12
842.399	23072.12
842.648	22952.12
842.897	22903.12
843.145	22650.12
843.394	22598.12
843.642	22491.12
843.891	22370.12
844.139	22274.12
844.388	22128.12
844.636	21955.12
844.884	22103.12
845.133	21894.12
845.381	21995.12
845.629	21995.12
845.877	21920.12
846.125	21958.12
846.373	21913.12
846.621	21931.12
846.869	21681.12
847.117	21684.12
847.365	21483.12
847.613	21478.12
847.861	21359.12
848.108	21411.12
848.356	21308.12
848.604	21236.12
848.851	21295.12
849.099	21234.12
849.346	21307.12
849.594	21416.12
849.841	21503.12
850.089	21445.12
850.336	21510.12
850.583	21382.12
850.831	21179.12
851.078	21358.12
851.325	21266.12
851.572	21437.12
851.819	21229.12
852.066	20847.12
852.313	20481.12
852.56	20336.12
852.807	20257.12
853.054	20145.12
853.301	20120.12
853.548	20146.12
853.794	20323.12
854.041	20256.12
854.288	20362.12
854.534	20598.12
854.781	20523.12
855.028	20537.12
855.274	20399.12
855.52	20394.12
855.767	20219.12
856.013	20259.12
856.26	20662.12
856.506	20033.12
856.752	20141.12
856.998	20142.12
857.244	20186.12
857.49	20299.12
857.736	20295.12
857.982	20210.12
858.228	20232.12
858.474	20007.12
858.72	19932.12
858.966	19774.12
859.212	19524.12
859.458	19329.12
859.703	19118.12
859.949	18900.12
860.195	18854.12
860.44	18871.12
860.686	18685.12
860.931	18766.12
861.177	18588.12
861.422	18552.12
861.667	18356.12
861.913	18304.12
862.158	18393.12
862.403	18406.12
862.648	18541.12
862.893	18571.12
863.138	18629.12
863.384	18304.12
863.629	18434.12
863.873	18453.12
864.118	18445.12
864.363	18254.12
864.608	18241.12
864.853	18159.12
865.098	18025.12
865.342	18015.12
865.587	17791.12
865.832	18012.12
866.076	17901.12
866.321	17884.12
866.565	17816.12
866.81	17712.12
867.054	17652.12
867.298	17640.12
867.543	17477.12
867.787	17590.12
868.031	17579.12
868.275	17475.12
868.519	17533.12
868.764	17515.12
869.008	17464.12
869.252	17600.12
869.496	17453.12
869.739	17434.12
869.983	17365.12
870.227	17300.12
870.471	17465.12
870.715	17502.12
870.958	17663.12
871.202	17546.12
871.446	17623.12
871.689	17689.12
871.933	17681.12
872.176	17661.12
872.42	17570.12
872.663	17522.12
872.906	17489.12
873.15	17525.12
873.393	17410.12
873.636	17436.12
873.879	17219.12
874.122	17024.12
874.366	16791.12
874.609	16753.12
874.852	16586.12
875.095	16479.12
875.337	16446.12
875.58	16219.12
875.823	16254.12
876.066	16231.12
876.309	16267.12
876.551	15985.12
876.794	16042.12
877.037	15885.12
877.279	15938.12
877.522	15900.12
877.764	15900.12
878.007	15737.12
878.249	15784.12
878.491	15737.12
878.734	15693.12
878.976	15687.12
879.218	15490.12
879.46	15509.12
879.702	15309.12
879.945	15217.12
880.187	15130.12
880.429	15037.12
880.671	14943.12
880.912	14945.12
881.154	14921.12
881.396	14834.12
881.638	14917.12
881.88	14913.12
882.121	14757.12
882.363	14800.12
882.605	14864.12
882.846	14746.12
883.088	14756.12
883.329	14755.12
883.571	14843.12
883.812	14946.12
884.053	15244.12
884.295	15651.12
884.536	15824.12
884.777	15791.12
885.018	15768.12
885.259	15665.12
885.5	15564.12
885.742	15742.12
885.982	15362.12
886.223	15212.12
886.464	15138.12
886.705	14929.12
886.946	14774.12
887.187	14381.12
887.428	14371.12
887.668	14068.12
887.909	13827.12
888.15	13673.12
888.39	13599.12
888.631	13575.12
888.871	13323.12
889.111	13236.12
889.352	13215.12
889.592	13076.12
889.833	12973.12
890.073	12937.12
890.313	12828.12
890.553	12746.12
890.793	12598.12
891.033	12639.12
891.273	12526.12
891.513	12512.12
891.753	12584.12
891.993	12586.12
892.233	12560.12
892.473	12591.12
892.713	12656.12
892.952	12608.12
893.192	12626.12
893.432	12594.12
893.671	12680.12
893.911	12534.12
894.15	12445.12
894.39	12321.12
894.629	12366.12
894.869	12309.12
895.108	12320.12
895.347	12180.12
895.587	12233.12
895.826	12175.12
896.065	12170.12
896.304	12170.12
896.543	12163.12
896.782	12018.12
897.021	12056.12
897.26	12123.12
897.499	12204.12
897.738	12210.12
897.977	12116.12
898.216	11967.12
898.454	11886.12
898.693	11834.12
898.932	11858.12
899.17	11748.12
899.409	11749.12
899.647	11693.12
899.886	11711.12
900.124	11862.12
900.363	11771.12
900.601	11847.12
900.839	11907.12
901.078	11932.12
901.316	12039.12
901.554	12133.12
901.792	12240.12
902.03	12176.12
902.268	12230.12
902.506	12268.12
902.744	12013.12
902.982	11969.12
903.22	11786.12
903.458	11567.12
903.695	11273.12
903.933	11077.12
904.171	10851.12
904.409	10743.12
904.646	10590.12
904.884	10461.12
905.121	10323.12
905.359	10149.12
905.596	10080.12
905.833	9995.12
906.071	9834.12
906.308	9779.12
906.545	9830.12
906.783	9715.12
907.02	9768.12
907.257	9617.12
907.494	9654.12
907.731	9662.12
907.968	9650.12
908.205	9485.12
908.442	9392.12
908.679	9355.12
908.915	9325.12
909.152	9196.12
909.389	9044.12
909.626	9073.12
909.862	8980.12
910.099	8908.12
910.335	9036.12
910.572	8828.12
910.808	8804.12
911.045	8804.12
911.281	8743.12
911.518	8708.12
911.754	8700.12
911.99	8620.12
912.226	8540.12
912.463	8540.12
912.699	8409.12
912.935	8350.12
913.171	8374.12
913.407	8228.12
913.643	8133.12
913.879	8119.12
914.114	8078.12
914.35	7956.12
914.586	7919.12
914.822	7819.12
915.057	7837.12
915.293	7706.12
915.529	7728.12
915.764	7746.12
916	7688.12
916.235	7655.12
916.471	7646.12
916.706	7585.12
916.941	7531.12
917.177	7540.12
917.412	7571.12
917.647	7573.12
917.882	7458.12
918.117	7561.12
918.352	7463.12
918.588	7514.12
918.823	7372.12
919.057	7333.12
919.292	7173.12
919.527	7237.12
919.762	7175.12
919.997	7095.12
920.232	7057.12
920.466	6962.12
920.701	6821.12
920.935	6829.12
921.17	6812.12
921.405	6790.12
921.639	6828.12
921.873	6790.12
922.108	6799.12
922.342	6680.12
922.576	6624.12
922.811	6688.12
923.045	6638.12
923.279	6615.12
923.513	6474.12
923.747	6549.12
923.981	6545.12
924.215	6459.12
924.449	6370.12
924.683	6344.12
924.917	6320.12
925.151	6303.12
925.385	6319.12
925.618	6303.12
925.852	6273.12
926.086	6172.12
926.319	6310.12
926.553	6307.12
926.786	6301.12
927.02	6228.12
927.253	6263.12
927.486	6195.12
927.72	6170.12
927.953	6214.12
928.186	6130.12
928.42	6167.12
928.653	6015.12
928.886	6077.12
929.119	6032.12
929.352	6007.12
929.585	5996.12
929.818	5902.12
930.051	5918.12
930.284	5842.12
930.516	5763.12
930.749	5740.12
930.982	5780.12
931.215	5745.12
931.447	5682.12
931.68	5633.12
931.912	5626.12
932.145	5673.12
932.377	5662.12
932.61	5803.12
932.842	5594.12
933.074	5633.12
933.307	5581.12
933.539	5671.12
933.771	5699.12
934.003	5606.12
934.236	5705.12
934.468	5707.12
934.7	5625.12
934.932	5651.12
935.164	5503.12
935.395	5548.12
935.627	5581.12
935.859	5525.12
936.091	5462.12
936.323	5464.12
936.554	5527.12
936.786	5441.12
937.017	5411.12
937.249	5446.12
937.481	5295.12
937.712	5365.12
937.943	5391.12
938.175	5331.12
938.406	5282.12
938.637	5371.12
938.869	5320.12
939.1	5331.12
939.331	5283.12
939.562	5292.12
939.793	5284.12
940.024	5302.12
940.255	5266.12
940.486	5220.12
940.717	5150.12
940.948	5137.12
941.179	5142.12
941.409	5106.12
941.64	5123.12
941.871	5116.12
942.102	5044.12
942.332	5072.12
942.563	5156.12
942.793	5057.12
943.024	5066.12
943.254	5034.12
943.484	5118.12
943.715	5095.12
943.945	5054.12
944.175	4977.12
944.405	4966.12
944.636	5008.12
944.866	5028.12
945.096	5076.12
945.326	4959.12
945.556	5021.12
945.786	5007.12
946.016	4918.12
946.245	4894.12
946.475	4795.12
946.705	4832.12
946.935	4819.12
947.164	4752.12
947.394	4683.12
947.624	4708.12
947.853	4726.12
948.083	4717.12
948.312	4657.12
948.542	4592.12
948.771	4616.12
949	4613.12
949.23	4571.12
949.459	4620.12
949.688	4649.12
949.917	4547.12
950.146	4581.12
950.375	4590.12
950.604	4480.12
950.833	4591.12
951.062	4562.12
951.291	4553.12
951.52	4480.12
951.749	4480.12
951.978	4458.12
952.206	4422.12
952.435	4426.12
952.664	4464.12
952.892	4422.12
953.121	4426.12
953.349	4428.12
953.578	4422.12
953.806	4358.12
954.035	4284.12
954.263	4335.12
954.491	4249.12
954.719	4281.12
954.948	4211.12
955.176	4199.12
955.404	4114.12
955.632	4193.12
955.86	4174.12
956.088	4157.12
956.316	4136.12
956.544	4177.12
956.772	4085.12
956.999	4062.12
957.227	4157.12
957.455	4013.12
957.683	4036.12
957.91	3955.12
958.138	3931.12
958.365	3915.12
958.593	3890.12
958.82	3847.12
959.048	3932.12
959.275	3895.12
959.502	3845.12
959.73	3814.12
959.957	3834.12
960.184	3899.12
960.411	3777.12
960.638	3836.12
960.865	3789.12
961.092	3834.12
961.319	3755.12
961.546	3881.12
961.773	3867.12
962	3765.12
962.227	3774.12
962.454	3770.12
962.68	3747.12
962.907	3721.12
963.134	3691.12
963.36	3697.12
963.587	3726.12
963.813	3654.12
964.04	3678.12
964.266	3566.12
964.493	3631.12
964.719	3611.12
964.945	3588.12
965.171	3478.12
965.398	3521.12
965.624	3562.12
965.85	3420.12
966.076	3470.12
966.302	3464.12
966.528	3463.12
966.754	3451.12
966.98	3422.12
967.206	3409.12
967.431	3368.12
967.657	3462.12
967.883	3446.12
968.109	3395.12
968.334	3338.12
968.56	3332.12
968.785	3352.12
969.011	3287.12
969.236	3342.12
969.462	3260.12
969.687	3299.12
969.912	3348.12
970.138	3314.12
970.363	3241.12
970.588	3270.12
970.813	3183.12
971.038	3203.12
971.263	3210.12
971.488	3232.12
971.713	3231.12
971.938	3238.12
972.163	3132.12
972.388	3155.12
972.613	3125.12
972.838	3126.12
973.062	3134.12
973.287	3120.12
973.512	3017.12
973.736	3066.12
973.961	3052.12
974.185	3008.12
974.41	3044.12
974.634	2933.12
974.858	2952.12
975.083	2953.12
975.307	3014.12
975.531	2904.12
975.755	2874.12
975.98	2867.12
976.204	2804.12
976.428	2811.12
976.652	2823.12
976.876	2778.12
977.1	2832.12
977.324	2789.12
977.547	2846.12
977.771	2840.12
977.995	2818.12
978.219	2721.12
978.442	2836.12
978.666	2764.12
978.89	2738.12
979.113	2769.12
979.337	2748.12
979.56	2705.12
979.783	2796.12
980.007	2659.12
980.23	2696.12
980.453	2628.12
980.677	2673.12
980.9	2660.12
981.123	2580.12
981.346	2637.12
981.569	2610.12
981.792	2643.12
982.015	2609.12
982.238	2601.12
982.461	2600.12
982.684	2529.12
982.907	2522.12
983.129	2492.12
983.352	2544.12
983.575	2506.12
983.797	2529.12
984.02	2483.12
984.242	2459.12
984.465	2483.12
984.687	2488.12
984.91	2498.12
985.132	2471.12
985.354	2476.12
985.577	2433.12
985.799	2447.12
986.021	2320.12
986.243	2379.12
986.465	2406.12
986.687	2435.12
986.909	2466.12
987.131	2397.12
987.353	2335.12
987.575	2393.12
987.797	2323.12
988.019	2284.12
988.241	2327.12
988.462	2290.12
988.684	2366.12
988.906	2379.12
989.127	2356.12
989.349	2238.12
989.57	2298.12
989.792	2356.12
990.013	2322.12
990.234	2287.12
990.456	2331.12
990.677	2306.12
990.898	2276.12
991.119	2250.12
991.341	2267.12
991.562	2203.12
991.783	2252.12
992.004	2183.12
992.225	2135.12
992.446	2210.12
992.667	2158.12
992.887	2204.12
993.108	2082.12
993.329	2220.12
993.55	2140.12
993.77	2102.12
993.991	2085.12
994.212	2119.12
994.432	2096.12
994.653	2090.12
994.873	2094.12
995.093	1976.12
995.314	2041.12
995.534	2117.12
995.754	2098.12
995.975	2124.12
996.195	2029.12
996.415	2076.12
996.635	2041.12
996.855	2058.12
997.075	2021.12
997.295	2029.12
997.515	2015.12
997.735	2050.12
997.955	2074.12
998.174	2044.12
998.394	2023.12
998.614	2053.12
998.834	1973.12
999.053	2050.12
999.273	2033.12
999.492	2046.12
999.712	1997.12
999.931	1920.12
1000.151	1999.12
1000.37	1957.12
1000.589	2020.12
1000.809	1953.12
1001.028	2068.12
1001.247	1976.12
1001.466	1875.12
1001.685	2051.12
1001.904	1954.12
1002.123	1922.12
1002.342	1929.12
1002.561	1887.12
1002.78	1901.12
1002.999	1949.12
1003.218	1900.12
1003.436	1858.12
1003.655	1901.12
1003.874	1821.12
1004.092	1865.12
1004.311	1897.12
1004.53	1884.12
1004.748	1936.12
1004.966	1895.12
1005.185	1896.12
1005.403	1879.12
1005.622	1882.12
1005.84	1945.12
1006.058	1829.12
1006.276	1888.12
1006.494	2379.12
1006.712	1843.12
1006.931	1934.12
1007.149	1857.12
1007.367	1825.12
1007.584	1897.12
1007.802	1939.12
1008.02	1905.12
1008.238	2015.12
1008.456	1989.12
1008.673	1891.12
1008.891	2023.12
1009.109	1973.12
1009.326	2037.12
1009.544	2150.12
1009.761	2081.12
1009.979	2208.12
1010.196	2245.12
1010.413	2393.12
1010.631	2490.12
1010.848	2581.12
1011.065	2617.12
1011.282	2544.12
1011.5	2505.12
1011.717	2621.12
1011.934	2535.12
1012.151	2550.12
1012.368	2541.12
1012.585	2492.12
1012.801	2533.12
1013.018	2528.12
1013.235	2501.12
1013.452	2546.12
1013.669	2559.12
1013.885	2521.12
1014.102	2601.12
1014.318	2566.12
1014.535	2546.12
1014.751	2532.12
1014.968	2546.12
1015.184	2559.12
1015.401	2456.12
1015.617	2494.12
1015.833	2437.12
1016.049	2460.12
1016.266	2415.12
1016.482	2436.12
1016.698	2344.12
1016.914	2422.12
1017.13	2319.12
1017.346	2338.12
1017.562	2360.12
1017.778	2290.12
1017.993	2281.12
1018.209	2354.12
1018.425	2334.12
1018.641	2275.12
1018.856	2266.12
1019.072	2331.12
1019.288	2350.12
1019.503	2316.12
1019.719	2216.12
1019.934	2224.12
1020.149	2317.12
1020.365	2259.12
1020.58	2166.12
1020.795	2183.12
1021.011	2094.12
1021.226	2052.12
1021.441	2055.12
1021.656	1957.12
1021.871	1885.12
1022.086	1873.12
1022.301	1832.12
1022.516	1818.12
1022.731	1827.12
1022.946	1748.12
1023.16	1689.12
1023.375	1703.12
1023.59	1655.12
1023.804	1598.12
1024.019	1660.12
1024.234	1550.12
1024.448	1573.12
1024.663	1480.12
1024.877	1465.12
1025.092	1474.12
1025.306	1483.12
1025.52	1365.12
1025.734	1436.12
1025.949	1354.12
1026.163	1301.12
1026.377	1216.12
1026.591	1270.12
1026.805	1169.12
1027.019	1166.12
1027.233	1139.12
1027.447	1065.12
1027.661	1184.12
1027.875	1100.12
1028.088	1114.12
1028.302	1038.12
1028.516	1036.12
1028.73	999.12
1028.943	963.12
1029.157	919.12
1029.37	849.12
1029.584	0.12
1029.797	0.12
1030.011	-3.88
1030.224	-2.88
