Data from QEP037381__96__15-25-15-866.txt Node

Date: Fri Dec 16 15:25:15 EST 2022
User: dcclab
Spectrometer: QEP03738
Trigger mode: 4
Integration Time (sec): 1.000000E1
Scans to average: 1
Electric dark correction enabled: true
Nonlinearity correction enabled: false
Boxcar width: 0
XAxis mode: Wavelengths
Number of Pixels in Spectrum: 1044
>>>>>Begin Spectral Data<<<<<
784.041	10.12
784.3	1.12
784.558	0.12
784.817	-4.88
785.075	88851.12
785.334	15220.12
785.592	7044.12
785.851	4833.12
786.109	3692.12
786.368	2891.12
786.626	2315.12
786.884	1958.12
787.143	1644.12
787.401	1390.12
787.659	1250.12
787.917	1056.12
788.175	988.12
788.433	874.12
788.691	772.12
788.949	732.12
789.207	698.12
789.465	631.12
789.723	607.12
789.98	564.12
790.238	610.12
790.496	560.12
790.753	548.12
791.011	589.12
791.268	523.12
791.526	512.12
791.783	530.12
792.041	514.12
792.298	431.12
792.556	474.12
792.813	480.12
793.07	463.12
793.327	450.12
793.584	526.12
793.841	434.12
794.099	452.12
794.356	519.12
794.613	420.12
794.869	459.12
795.126	420.12
795.383	416.12
795.64	441.12
795.897	390.12
796.153	451.12
796.41	433.12
796.667	426.12
796.923	437.12
797.18	433.12
797.436	464.12
797.693	416.12
797.949	479.12
798.206	491.12
798.462	415.12
798.718	468.12
798.974	457.12
799.231	505.12
799.487	486.12
799.743	481.12
799.999	531.12
800.255	516.12
800.511	521.12
800.767	568.12
801.023	542.12
801.279	568.12
801.534	623.12
801.79	678.12
802.046	716.12
802.302	861.12
802.557	969.12
802.813	1231.12
803.068	1518.12
803.324	2064.12
803.579	2853.12
803.835	3968.12
804.09	5432.12
804.345	7175.12
804.601	9039.12
804.856	11008.12
805.111	12631.12
805.366	14009.12
805.621	14969.12
805.876	15610.12
806.131	16058.12
806.386	16278.12
806.641	16621.12
806.896	16976.12
807.151	17266.12
807.406	17507.12
807.661	17884.12
807.915	18250.12
808.17	18490.12
808.425	18654.12
808.679	18844.12
808.934	19139.12
809.188	19318.12
809.443	19539.12
809.697	19939.12
809.951	19922.12
810.206	20222.12
810.46	20444.12
810.714	20606.12
810.968	20873.12
811.223	21049.12
811.477	21301.12
811.731	21462.12
811.985	21646.12
812.239	21651.12
812.493	21785.12
812.747	21886.12
813	21887.12
813.254	22073.12
813.508	22249.12
813.762	22435.12
814.015	22398.12
814.269	22699.12
814.522	22906.12
814.776	23061.12
815.03	23403.12
815.283	23837.12
815.536	24276.12
815.79	24642.12
816.043	24959.12
816.296	25378.12
816.55	25645.12
816.803	25991.12
817.056	26291.12
817.309	26504.12
817.562	26765.12
817.815	27176.12
818.068	27334.12
818.321	27742.12
818.574	28053.12
818.827	28592.12
819.079	28860.12
819.332	29358.12
819.585	29775.12
819.838	30143.12
820.09	30292.12
820.343	30582.12
820.595	30741.12
820.848	30953.12
821.1	31139.12
821.353	31150.12
821.605	31199.12
821.857	31086.12
822.11	30938.12
822.362	30924.12
822.614	30869.12
822.866	31045.12
823.118	30755.12
823.37	31050.12
823.622	31170.12
823.874	31227.12
824.126	31345.12
824.378	31484.12
824.63	31557.12
824.882	31720.12
825.134	31669.12
825.385	31663.12
825.637	31666.12
825.888	31371.12
826.14	31480.12
826.392	31271.12
826.643	31235.12
826.895	31122.12
827.146	30943.12
827.397	30906.12
827.649	30891.12
827.9	30926.12
828.151	31031.12
828.402	31067.12
828.653	31221.12
828.905	31283.12
829.156	31484.12
829.407	31403.12
829.658	31347.12
829.909	31415.12
830.159	31480.12
830.41	31350.12
830.661	31181.12
830.912	30995.12
831.162	30878.12
831.413	30854.12
831.664	30957.12
831.914	30840.12
832.165	30875.12
832.415	30902.12
832.666	30907.12
832.916	30896.12
833.167	31006.12
833.417	30787.12
833.667	30821.12
833.917	30797.12
834.168	30611.12
834.418	30531.12
834.668	30397.12
834.918	30377.12
835.168	30258.12
835.418	30131.12
835.668	30079.12
835.918	29993.12
836.167	30049.12
836.417	29716.12
836.667	29916.12
836.917	29896.12
837.166	29851.12
837.416	29969.12
837.666	29915.12
837.915	29800.12
838.165	29692.12
838.414	29631.12
838.663	29577.12
838.913	29653.12
839.162	29641.12
839.411	29549.12
839.661	29517.12
839.91	29484.12
840.159	29380.12
840.408	29319.12
840.657	29320.12
840.906	29492.12
841.155	29450.12
841.404	29365.12
841.653	29457.12
841.902	29308.12
842.15	29597.12
842.399	29673.12
842.648	29526.12
842.897	29495.12
843.145	29164.12
843.394	29099.12
843.642	28950.12
843.891	28896.12
844.139	28700.12
844.388	28580.12
844.636	28304.12
844.884	28424.12
845.133	28484.12
845.381	28327.12
845.629	28452.12
845.877	28226.12
846.125	28346.12
846.373	28275.12
846.621	28193.12
846.869	28185.12
847.117	27967.12
847.365	27927.12
847.613	27661.12
847.861	27658.12
848.108	27640.12
848.356	27595.12
848.604	27525.12
848.851	27514.12
849.099	27541.12
849.346	27629.12
849.594	27858.12
849.841	28051.12
850.089	27861.12
850.336	27975.12
850.583	28000.12
850.831	27884.12
851.078	27668.12
851.325	27772.12
851.572	27853.12
851.819	27541.12
852.066	27032.12
852.313	26731.12
852.56	26572.12
852.807	26432.12
853.054	26366.12
853.301	26319.12
853.548	26402.12
853.794	26606.12
854.041	26466.12
854.288	26638.12
854.534	26908.12
854.781	26919.12
855.028	26956.12
855.274	26694.12
855.52	26713.12
855.767	26522.12
856.013	26719.12
856.26	26845.12
856.506	26191.12
856.752	26234.12
856.998	26378.12
857.244	26474.12
857.49	26544.12
857.736	26569.12
857.982	26643.12
858.228	26468.12
858.474	26380.12
858.72	26219.12
858.966	25920.12
859.212	25736.12
859.458	25463.12
859.703	25194.12
859.949	25102.12
860.195	24862.12
860.44	24836.12
860.686	24718.12
860.931	24694.12
861.177	24521.12
861.422	24408.12
861.667	24336.12
861.913	24306.12
862.158	24383.12
862.403	24523.12
862.648	24664.12
862.893	24602.12
863.138	24693.12
863.384	24561.12
863.629	24486.12
863.873	24545.12
864.118	24445.12
864.363	24296.12
864.608	24321.12
864.853	24159.12
865.098	24126.12
865.342	24084.12
865.587	23986.12
865.832	24010.12
866.076	23940.12
866.321	23811.12
866.565	23730.12
866.81	23655.12
867.054	23657.12
867.298	23565.12
867.543	23531.12
867.787	23542.12
868.031	23450.12
868.275	23351.12
868.519	23341.12
868.764	23428.12
869.008	23420.12
869.252	23440.12
869.496	23301.12
869.739	23288.12
869.983	23362.12
870.227	23249.12
870.471	23279.12
870.715	23368.12
870.958	23379.12
871.202	23333.12
871.446	23521.12
871.689	23533.12
871.933	23547.12
872.176	23420.12
872.42	23502.12
872.663	23321.12
872.906	23306.12
873.15	23271.12
873.393	23139.12
873.636	23060.12
873.879	22846.12
874.122	22715.12
874.366	22330.12
874.609	22232.12
874.852	22136.12
875.095	22003.12
875.337	21876.12
875.58	21759.12
875.823	21764.12
876.066	21774.12
876.309	21683.12
876.551	21560.12
876.794	21403.12
877.037	21440.12
877.279	21381.12
877.522	21360.12
877.764	21418.12
878.007	21359.12
878.249	21289.12
878.491	21287.12
878.734	21299.12
878.976	21210.12
879.218	21065.12
879.46	20987.12
879.702	20876.12
879.945	20623.12
880.187	20485.12
880.429	20424.12
880.671	20318.12
880.912	20308.12
881.154	20225.12
881.396	20203.12
881.638	20194.12
881.88	20235.12
882.121	20172.12
882.363	20204.12
882.605	20234.12
882.846	20087.12
883.088	20054.12
883.329	20083.12
883.571	20042.12
883.812	20173.12
884.053	20359.12
884.295	20743.12
884.536	20978.12
884.777	20850.12
885.018	20825.12
885.259	20780.12
885.5	20599.12
885.742	20795.12
885.982	20538.12
886.223	20344.12
886.464	20363.12
886.705	19991.12
886.946	19929.12
887.187	19642.12
887.428	19510.12
887.668	19176.12
887.909	18991.12
888.15	18787.12
888.39	18746.12
888.631	18561.12
888.871	18403.12
889.111	18296.12
889.352	18255.12
889.592	18093.12
889.833	17886.12
890.073	17802.12
890.313	17802.12
890.553	17585.12
890.793	17534.12
891.033	17511.12
891.273	17370.12
891.513	17387.12
891.753	17395.12
891.993	17321.12
892.233	17338.12
892.473	17515.12
892.713	17449.12
892.952	17397.12
893.192	17444.12
893.432	17500.12
893.671	17404.12
893.911	17274.12
894.15	17299.12
894.39	17127.12
894.629	17134.12
894.869	17068.12
895.108	16895.12
895.347	16857.12
895.587	16858.12
895.826	16870.12
896.065	16792.12
896.304	16806.12
896.543	16754.12
896.782	16723.12
897.021	16756.12
897.26	16655.12
897.499	16817.12
897.738	16742.12
897.977	16611.12
898.216	16507.12
898.454	16362.12
898.693	16283.12
898.932	16320.12
899.17	16147.12
899.409	16140.12
899.647	16219.12
899.886	16220.12
900.124	16283.12
900.363	16269.12
900.601	16204.12
900.839	16320.12
901.078	16330.12
901.316	16500.12
901.554	16455.12
901.792	16693.12
902.03	16480.12
902.268	16575.12
902.506	16583.12
902.744	16376.12
902.982	16265.12
903.22	16043.12
903.458	15758.12
903.695	15600.12
903.933	15382.12
904.171	15028.12
904.409	14986.12
904.646	14698.12
904.884	14370.12
905.121	14326.12
905.359	14216.12
905.596	13971.12
905.833	13910.12
906.071	13767.12
906.308	13761.12
906.545	13710.12
906.783	13611.12
907.02	13588.12
907.257	13489.12
907.494	13518.12
907.731	13507.12
907.968	13375.12
908.205	13325.12
908.442	13259.12
908.679	13184.12
908.915	13032.12
909.152	12979.12
909.389	12836.12
909.626	12849.12
909.862	12677.12
910.099	12659.12
910.335	12638.12
910.572	12499.12
910.808	12509.12
911.045	12534.12
911.281	12433.12
911.518	12384.12
911.754	12321.12
911.99	12233.12
912.226	12069.12
912.463	12044.12
912.699	12003.12
912.935	11919.12
913.171	11815.12
913.407	11692.12
913.643	11729.12
913.879	11499.12
914.114	11472.12
914.35	11392.12
914.586	11250.12
914.822	11057.12
915.057	11117.12
915.293	10949.12
915.529	10977.12
915.764	10931.12
916	10996.12
916.235	10988.12
916.471	10886.12
916.706	10842.12
916.941	10795.12
917.177	10794.12
917.412	10885.12
917.647	10737.12
917.882	10776.12
918.117	10774.12
918.352	10703.12
918.588	10735.12
918.823	10612.12
919.057	10549.12
919.292	10413.12
919.527	10399.12
919.762	10308.12
919.997	10179.12
920.232	10003.12
920.466	10035.12
920.701	9813.12
920.935	9788.12
921.17	9815.12
921.405	9710.12
921.639	9736.12
921.873	9690.12
922.108	9685.12
922.342	9633.12
922.576	9588.12
922.811	9518.12
923.045	9486.12
923.279	9518.12
923.513	9367.12
923.747	9421.12
923.981	9318.12
924.215	9238.12
924.449	9190.12
924.683	9104.12
924.917	9086.12
925.151	9003.12
925.385	9125.12
925.618	8999.12
925.852	8954.12
926.086	8875.12
926.319	8945.12
926.553	8953.12
926.786	8927.12
927.02	8898.12
927.253	9000.12
927.486	8913.12
927.72	8907.12
927.953	8920.12
928.186	8828.12
928.42	8846.12
928.653	8757.12
928.886	8753.12
929.119	8735.12
929.352	8741.12
929.585	8645.12
929.818	8591.12
930.051	8526.12
930.284	8468.12
930.516	8314.12
930.749	8334.12
930.982	8316.12
931.215	8296.12
931.447	8207.12
931.68	8158.12
931.912	8172.12
932.145	8105.12
932.377	8247.12
932.61	8283.12
932.842	8111.12
933.074	8144.12
933.307	8092.12
933.539	8216.12
933.771	8186.12
934.003	8090.12
934.236	8175.12
934.468	8215.12
934.7	8066.12
934.932	8122.12
935.164	8046.12
935.395	8047.12
935.627	8085.12
935.859	7991.12
936.091	7915.12
936.323	7957.12
936.554	7987.12
936.786	7882.12
937.017	7810.12
937.249	7913.12
937.481	7788.12
937.712	7831.12
937.943	7771.12
938.175	7801.12
938.406	7697.12
938.637	7776.12
938.869	7689.12
939.1	7750.12
939.331	7711.12
939.562	7694.12
939.793	7686.12
940.024	7678.12
940.255	7623.12
940.486	7506.12
940.717	7504.12
940.948	7490.12
941.179	7463.12
941.409	7494.12
941.64	7430.12
941.871	7479.12
942.102	7400.12
942.332	7410.12
942.563	7439.12
942.793	7403.12
943.024	7353.12
943.254	7345.12
943.484	7410.12
943.715	7427.12
943.945	7389.12
944.175	7361.12
944.405	7257.12
944.636	7260.12
944.866	7359.12
945.096	7347.12
945.326	7257.12
945.556	7268.12
945.786	7277.12
946.016	7185.12
946.245	7051.12
946.475	7083.12
946.705	6988.12
946.935	7062.12
947.164	7000.12
947.394	6925.12
947.624	6885.12
947.853	6945.12
948.083	6866.12
948.312	6792.12
948.542	6715.12
948.771	6681.12
949	6712.12
949.23	6736.12
949.459	6756.12
949.688	6756.12
949.917	6627.12
950.146	6703.12
950.375	6738.12
950.604	6640.12
950.833	6693.12
951.062	6699.12
951.291	6620.12
951.52	6624.12
951.749	6611.12
951.978	6538.12
952.206	6510.12
952.435	6504.12
952.664	6546.12
952.892	6544.12
953.121	6445.12
953.349	6475.12
953.578	6452.12
953.806	6435.12
954.035	6306.12
954.263	6326.12
954.491	6247.12
954.719	6258.12
954.948	6238.12
955.176	6174.12
955.404	6100.12
955.632	6194.12
955.86	6142.12
956.088	6052.12
956.316	6118.12
956.544	6104.12
956.772	6025.12
956.999	5995.12
957.227	6025.12
957.455	5915.12
957.683	5924.12
957.91	5876.12
958.138	5870.12
958.365	5801.12
958.593	5759.12
958.82	5785.12
959.048	5786.12
959.275	5734.12
959.502	5689.12
959.73	5628.12
959.957	5735.12
960.184	5725.12
960.411	5637.12
960.638	5719.12
960.865	5663.12
961.092	5656.12
961.319	5515.12
961.546	5639.12
961.773	5666.12
962	5582.12
962.227	5652.12
962.454	5587.12
962.68	5569.12
962.907	5516.12
963.134	5463.12
963.36	5510.12
963.587	5445.12
963.813	5417.12
964.04	5430.12
964.266	5349.12
964.493	5342.12
964.719	5333.12
964.945	5299.12
965.171	5163.12
965.398	5221.12
965.624	5215.12
965.85	5154.12
966.076	5113.12
966.302	5101.12
966.528	5055.12
966.754	5154.12
966.98	5077.12
967.206	5016.12
967.431	4981.12
967.657	5075.12
967.883	5029.12
968.109	4987.12
968.334	4955.12
968.56	4917.12
968.785	4915.12
969.011	4881.12
969.236	4928.12
969.462	4863.12
969.687	4880.12
969.912	4896.12
970.138	4878.12
970.363	4777.12
970.588	4790.12
970.813	4737.12
971.038	4759.12
971.263	4788.12
971.488	4774.12
971.713	4784.12
971.938	4756.12
972.163	4628.12
972.388	4673.12
972.613	4581.12
972.838	4577.12
973.062	4549.12
973.287	4564.12
973.512	4504.12
973.736	4534.12
973.961	4546.12
974.185	4414.12
974.41	4482.12
974.634	4358.12
974.858	4401.12
975.083	4415.12
975.307	4381.12
975.531	4333.12
975.755	4252.12
975.98	4267.12
976.204	4222.12
976.428	4143.12
976.652	4178.12
976.876	4161.12
977.1	4200.12
977.324	4090.12
977.547	4194.12
977.771	4142.12
977.995	4143.12
978.219	4066.12
978.442	4166.12
978.666	4058.12
978.89	4085.12
979.113	4045.12
979.337	4045.12
979.56	4000.12
979.783	4044.12
980.007	3949.12
980.23	4004.12
980.453	3935.12
980.677	3929.12
980.9	3957.12
981.123	3842.12
981.346	3948.12
981.569	3890.12
981.792	3870.12
982.015	3840.12
982.238	3776.12
982.461	3791.12
982.684	3770.12
982.907	3672.12
983.129	3698.12
983.352	3741.12
983.575	3744.12
983.797	3707.12
984.02	3659.12
984.242	3636.12
984.465	3598.12
984.687	3632.12
984.91	3639.12
985.132	3600.12
985.354	3587.12
985.577	3560.12
985.799	3548.12
986.021	3446.12
986.243	3465.12
986.465	3502.12
986.687	3495.12
986.909	3516.12
987.131	3443.12
987.353	3429.12
987.575	3464.12
987.797	3393.12
988.019	3342.12
988.241	3397.12
988.462	3312.12
988.684	3392.12
988.906	3421.12
989.127	3411.12
989.349	3271.12
989.57	3330.12
989.792	3362.12
990.013	3385.12
990.234	3352.12
990.456	3345.12
990.677	3343.12
990.898	3298.12
991.119	3277.12
991.341	3300.12
991.562	3221.12
991.783	3259.12
992.004	3168.12
992.225	3128.12
992.446	3142.12
992.667	3073.12
992.887	3139.12
993.108	3027.12
993.329	3162.12
993.55	3086.12
993.77	3028.12
993.991	2992.12
994.212	3034.12
994.432	3017.12
994.653	3015.12
994.873	3014.12
995.093	2855.12
995.314	2895.12
995.534	2961.12
995.754	2970.12
995.975	2998.12
996.195	2883.12
996.415	2954.12
996.635	2940.12
996.855	2893.12
997.075	2885.12
997.295	2865.12
997.515	2850.12
997.735	2850.12
997.955	2900.12
998.174	2837.12
998.394	2836.12
998.614	2868.12
998.834	2819.12
999.053	2859.12
999.273	2819.12
999.492	2886.12
999.712	2787.12
999.931	2750.12
1000.151	2764.12
1000.37	2753.12
1000.589	2788.12
1000.809	2697.12
1001.028	2769.12
1001.247	2733.12
1001.466	2639.12
1001.685	2747.12
1001.904	2677.12
1002.123	2660.12
1002.342	2669.12
1002.561	2592.12
1002.78	2606.12
1002.999	2656.12
1003.218	2605.12
1003.436	2574.12
1003.655	2588.12
1003.874	2550.12
1004.092	2568.12
1004.311	2574.12
1004.53	2531.12
1004.748	2610.12
1004.966	2535.12
1005.185	2613.12
1005.403	2537.12
1005.622	2537.12
1005.84	2610.12
1006.058	2507.12
1006.276	2465.12
1006.494	3002.12
1006.712	2566.12
1006.931	2578.12
1007.149	2493.12
1007.367	2492.12
1007.584	2511.12
1007.802	2560.12
1008.02	2536.12
1008.238	2612.12
1008.456	2598.12
1008.673	2492.12
1008.891	2611.12
1009.109	2569.12
1009.326	2681.12
1009.544	2739.12
1009.761	2665.12
1009.979	2822.12
1010.196	2825.12
1010.413	3010.12
1010.631	3117.12
1010.848	3149.12
1011.065	3214.12
1011.282	3166.12
1011.5	3105.12
1011.717	3200.12
1011.934	3114.12
1012.151	3169.12
1012.368	3094.12
1012.585	3031.12
1012.801	3093.12
1013.018	3105.12
1013.235	3022.12
1013.452	3080.12
1013.669	3122.12
1013.885	3129.12
1014.102	3132.12
1014.318	3116.12
1014.535	3080.12
1014.751	3074.12
1014.968	3050.12
1015.184	3077.12
1015.401	2993.12
1015.617	3013.12
1015.833	2945.12
1016.049	2934.12
1016.266	2894.12
1016.482	2917.12
1016.698	2822.12
1016.914	2853.12
1017.13	2787.12
1017.346	2765.12
1017.562	2808.12
1017.778	2779.12
1017.993	2754.12
1018.209	2780.12
1018.425	2794.12
1018.641	2770.12
1018.856	2770.12
1019.072	2765.12
1019.288	2810.12
1019.503	2785.12
1019.719	2679.12
1019.934	2690.12
1020.149	2745.12
1020.365	2649.12
1020.58	2605.12
1020.795	2628.12
1021.011	2550.12
1021.226	2460.12
1021.441	2480.12
1021.656	2372.12
1021.871	2297.12
1022.086	2269.12
1022.301	2228.12
1022.516	2185.12
1022.731	2259.12
1022.946	2123.12
1023.16	2102.12
1023.375	2060.12
1023.59	2011.12
1023.804	1956.12
1024.019	2077.12
1024.234	1917.12
1024.448	1908.12
1024.663	1871.12
1024.877	1841.12
1025.092	1843.12
1025.306	1809.12
1025.52	1707.12
1025.734	1766.12
1025.949	1646.12
1026.163	1623.12
1026.377	1515.12
1026.591	1537.12
1026.805	1460.12
1027.019	1456.12
1027.233	1430.12
1027.447	1347.12
1027.661	1455.12
1027.875	1366.12
1028.088	1378.12
1028.302	1269.12
1028.516	1238.12
1028.73	1235.12
1028.943	1183.12
1029.157	1136.12
1029.37	1077.12
1029.584	-1.88
1029.797	1.12
1030.011	-0.88
1030.224	-4.88
