Data from QEP037381__23__10-16-01-060.txt Node

Date: Fri Apr 21 10:16:01 EDT 2023
User: dcclab
Spectrometer: QEP03738
Trigger mode: 4
Integration Time (sec): 1.000000E1
Scans to average: 1
Electric dark correction enabled: true
Nonlinearity correction enabled: false
Boxcar width: 0
XAxis mode: Wavelengths
Number of Pixels in Spectrum: 1044
>>>>>Begin Spectral Data<<<<<
784.041	9.25
784.3	0.25
784.558	-1.75
784.817	-0.75
785.075	231.25
785.334	199.25
785.592	204.25
785.851	200.25
786.109	228.25
786.368	233.25
786.626	251.25
786.884	279.25
787.143	266.25
787.401	214.25
787.659	277.25
787.917	268.25
788.175	291.25
788.433	265.25
788.691	276.25
788.949	278.25
789.207	303.25
789.465	264.25
789.723	271.25
789.98	253.25
790.238	314.25
790.496	288.25
790.753	297.25
791.011	365.25
791.268	310.25
791.526	302.25
791.783	330.25
792.041	310.25
792.298	252.25
792.556	331.25
792.813	314.25
793.07	299.25
793.327	298.25
793.584	371.25
793.841	308.25
794.099	316.25
794.356	371.25
794.613	291.25
794.869	345.25
795.126	307.25
795.383	275.25
795.64	320.25
795.897	267.25
796.153	317.25
796.41	296.25
796.667	287.25
796.923	297.25
797.18	306.25
797.436	329.25
797.693	270.25
797.949	349.25
798.206	363.25
798.462	267.25
798.718	321.25
798.974	305.25
799.231	347.25
799.487	318.25
799.743	322.25
799.999	341.25
800.255	325.25
800.511	307.25
800.767	332.25
801.023	298.25
801.279	322.25
801.534	323.25
801.79	335.25
802.046	301.25
802.302	344.25
802.557	328.25
802.813	352.25
803.068	297.25
803.324	341.25
803.579	310.25
803.835	289.25
804.09	335.25
804.345	294.25
804.601	281.25
804.856	299.25
805.111	328.25
805.366	306.25
805.621	322.25
805.876	331.25
806.131	317.25
806.386	307.25
806.641	283.25
806.896	301.25
807.151	375.25
807.406	316.25
807.661	320.25
807.915	327.25
808.17	340.25
808.425	329.25
808.679	287.25
808.934	369.25
809.188	313.25
809.443	336.25
809.697	365.25
809.951	295.25
810.206	309.25
810.46	357.25
810.714	329.25
810.968	365.25
811.223	285.25
811.477	326.25
811.731	342.25
811.985	273.25
812.239	243.25
812.493	289.25
812.747	321.25
813	266.25
813.254	317.25
813.508	356.25
813.762	297.25
814.015	302.25
814.269	309.25
814.522	340.25
814.776	344.25
815.03	332.25
815.283	332.25
815.536	339.25
815.79	344.25
816.043	332.25
816.296	321.25
816.55	320.25
816.803	318.25
817.056	409.25
817.309	332.25
817.562	329.25
817.815	367.25
818.068	280.25
818.321	292.25
818.574	298.25
818.827	335.25
819.079	296.25
819.332	423.25
819.585	341.25
819.838	391.25
820.09	312.25
820.343	372.25
820.595	280.25
820.848	329.25
821.1	349.25
821.353	327.25
821.605	306.25
821.857	389.25
822.11	283.25
822.362	297.25
822.614	287.25
822.866	325.25
823.118	266.25
823.37	359.25
823.622	318.25
823.874	297.25
824.126	357.25
824.378	278.25
824.63	308.25
824.882	334.25
825.134	312.25
825.385	343.25
825.637	326.25
825.888	291.25
826.14	327.25
826.392	311.25
826.643	291.25
826.895	379.25
827.146	319.25
827.397	307.25
827.649	394.25
827.9	297.25
828.151	279.25
828.402	282.25
828.653	327.25
828.905	334.25
829.156	372.25
829.407	297.25
829.658	328.25
829.909	357.25
830.159	348.25
830.41	347.25
830.661	353.25
830.912	345.25
831.162	317.25
831.413	302.25
831.664	354.25
831.914	336.25
832.165	320.25
832.415	337.25
832.666	345.25
832.916	376.25
833.167	297.25
833.417	385.25
833.667	345.25
833.917	329.25
834.168	383.25
834.418	347.25
834.668	322.25
834.918	275.25
835.168	308.25
835.418	259.25
835.668	324.25
835.918	373.25
836.167	346.25
836.417	291.25
836.667	359.25
836.917	395.25
837.166	325.25
837.416	348.25
837.666	380.25
837.915	325.25
838.165	348.25
838.414	294.25
838.663	289.25
838.913	336.25
839.162	293.25
839.411	376.25
839.661	317.25
839.91	332.25
840.159	312.25
840.408	344.25
840.657	323.25
840.906	335.25
841.155	374.25
841.404	324.25
841.653	333.25
841.902	293.25
842.15	331.25
842.399	343.25
842.648	328.25
842.897	349.25
843.145	284.25
843.394	316.25
843.642	309.25
843.891	367.25
844.139	332.25
844.388	285.25
844.636	263.25
844.884	326.25
845.133	307.25
845.381	322.25
845.629	358.25
845.877	293.25
846.125	312.25
846.373	333.25
846.621	288.25
846.869	348.25
847.117	335.25
847.365	323.25
847.613	336.25
847.861	351.25
848.108	379.25
848.356	349.25
848.604	304.25
848.851	340.25
849.099	333.25
849.346	316.25
849.594	341.25
849.841	349.25
850.089	317.25
850.336	294.25
850.583	301.25
850.831	321.25
851.078	332.25
851.325	303.25
851.572	368.25
851.819	352.25
852.066	328.25
852.313	316.25
852.56	289.25
852.807	274.25
853.054	302.25
853.301	320.25
853.548	313.25
853.794	408.25
854.041	341.25
854.288	281.25
854.534	402.25
854.781	310.25
855.028	303.25
855.274	387.25
855.52	332.25
855.767	305.25
856.013	349.25
856.26	640.25
856.506	316.25
856.752	367.25
856.998	327.25
857.244	312.25
857.49	348.25
857.736	339.25
857.982	343.25
858.228	366.25
858.474	294.25
858.72	334.25
858.966	344.25
859.212	345.25
859.458	330.25
859.703	346.25
859.949	313.25
860.195	374.25
860.44	369.25
860.686	314.25
860.931	389.25
861.177	314.25
861.422	379.25
861.667	322.25
861.913	331.25
862.158	326.25
862.403	369.25
862.648	370.25
862.893	387.25
863.138	343.25
863.384	297.25
863.629	354.25
863.873	349.25
864.118	331.25
864.363	281.25
864.608	347.25
864.853	361.25
865.098	348.25
865.342	347.25
865.587	329.25
865.832	380.25
866.076	367.25
866.321	324.25
866.565	330.25
866.81	273.25
867.054	329.25
867.298	343.25
867.543	314.25
867.787	367.25
868.031	331.25
868.275	346.25
868.519	332.25
868.764	339.25
869.008	324.25
869.252	373.25
869.496	337.25
869.739	346.25
869.983	377.25
870.227	365.25
870.471	305.25
870.715	351.25
870.958	352.25
871.202	310.25
871.446	328.25
871.689	315.25
871.933	333.25
872.176	353.25
872.42	331.25
872.663	308.25
872.906	386.25
873.15	333.25
873.393	295.25
873.636	381.25
873.879	372.25
874.122	404.25
874.366	334.25
874.609	379.25
874.852	328.25
875.095	354.25
875.337	329.25
875.58	271.25
875.823	349.25
876.066	381.25
876.309	395.25
876.551	322.25
876.794	294.25
877.037	383.25
877.279	302.25
877.522	318.25
877.764	354.25
878.007	310.25
878.249	342.25
878.491	306.25
878.734	371.25
878.976	371.25
879.218	302.25
879.46	394.25
879.702	375.25
879.945	376.25
880.187	326.25
880.429	372.25
880.671	359.25
880.912	385.25
881.154	365.25
881.396	278.25
881.638	375.25
881.88	351.25
882.121	312.25
882.363	336.25
882.605	400.25
882.846	357.25
883.088	381.25
883.329	328.25
883.571	302.25
883.812	318.25
884.053	326.25
884.295	329.25
884.536	413.25
884.777	327.25
885.018	344.25
885.259	358.25
885.5	307.25
885.742	519.25
885.982	362.25
886.223	317.25
886.464	343.25
886.705	295.25
886.946	348.25
887.187	284.25
887.428	388.25
887.668	327.25
887.909	309.25
888.15	305.25
888.39	364.25
888.631	406.25
888.871	377.25
889.111	371.25
889.352	359.25
889.592	340.25
889.833	352.25
890.073	359.25
890.313	415.25
890.553	312.25
890.793	344.25
891.033	332.25
891.273	329.25
891.513	349.25
891.753	405.25
891.993	341.25
892.233	366.25
892.473	429.25
892.713	375.25
892.952	322.25
893.192	354.25
893.432	323.25
893.671	377.25
893.911	335.25
894.15	351.25
894.39	298.25
894.629	335.25
894.869	364.25
895.108	339.25
895.347	320.25
895.587	368.25
895.826	328.25
896.065	327.25
896.304	365.25
896.543	394.25
896.782	297.25
897.021	350.25
897.26	341.25
897.499	396.25
897.738	404.25
897.977	355.25
898.216	355.25
898.454	341.25
898.693	333.25
898.932	372.25
899.17	348.25
899.409	364.25
899.647	357.25
899.886	318.25
900.124	372.25
900.363	320.25
900.601	363.25
900.839	348.25
901.078	356.25
901.316	349.25
901.554	342.25
901.792	363.25
902.03	297.25
902.268	339.25
902.506	396.25
902.744	337.25
902.982	385.25
903.22	325.25
903.458	323.25
903.695	379.25
903.933	386.25
904.171	321.25
904.409	338.25
904.646	385.25
904.884	356.25
905.121	406.25
905.359	384.25
905.596	377.25
905.833	340.25
906.071	334.25
906.308	390.25
906.545	362.25
906.783	324.25
907.02	351.25
907.257	316.25
907.494	337.25
907.731	371.25
907.968	385.25
908.205	329.25
908.442	338.25
908.679	352.25
908.915	360.25
909.152	374.25
909.389	308.25
909.626	352.25
909.862	338.25
910.099	363.25
910.335	399.25
910.572	306.25
910.808	368.25
911.045	339.25
911.281	322.25
911.518	412.25
911.754	346.25
911.99	362.25
912.226	346.25
912.463	321.25
912.699	338.25
912.935	349.25
913.171	353.25
913.407	326.25
913.643	397.25
913.879	369.25
914.114	358.25
914.35	356.25
914.586	351.25
914.822	326.25
915.057	435.25
915.293	314.25
915.529	332.25
915.764	414.25
916	389.25
916.235	384.25
916.471	399.25
916.706	313.25
916.941	346.25
917.177	351.25
917.412	386.25
917.647	393.25
917.882	337.25
918.117	389.25
918.352	365.25
918.588	429.25
918.823	349.25
919.057	355.25
919.292	296.25
919.527	425.25
919.762	357.25
919.997	435.25
920.232	380.25
920.466	419.25
920.701	322.25
920.935	380.25
921.17	360.25
921.405	348.25
921.639	398.25
921.873	368.25
922.108	389.25
922.342	413.25
922.576	344.25
922.811	359.25
923.045	404.25
923.279	422.25
923.513	325.25
923.747	401.25
923.981	401.25
924.215	358.25
924.449	361.25
924.683	327.25
924.917	348.25
925.151	365.25
925.385	439.25
925.618	378.25
925.852	397.25
926.086	329.25
926.319	379.25
926.553	363.25
926.786	407.25
927.02	374.25
927.253	411.25
927.486	418.25
927.72	344.25
927.953	418.25
928.186	368.25
928.42	406.25
928.653	345.25
928.886	346.25
929.119	390.25
929.352	383.25
929.585	399.25
929.818	342.25
930.051	399.25
930.284	420.25
930.516	338.25
930.749	352.25
930.982	422.25
931.215	405.25
931.447	346.25
931.68	372.25
931.912	374.25
932.145	360.25
932.377	392.25
932.61	514.25
932.842	311.25
933.074	395.25
933.307	340.25
933.539	439.25
933.771	418.25
934.003	361.25
934.236	443.25
934.468	456.25
934.7	361.25
934.932	430.25
935.164	358.25
935.395	352.25
935.627	388.25
935.859	416.25
936.091	333.25
936.323	429.25
936.554	435.25
936.786	397.25
937.017	344.25
937.249	394.25
937.481	323.25
937.712	402.25
937.943	383.25
938.175	355.25
938.406	363.25
938.637	452.25
938.869	347.25
939.1	405.25
939.331	368.25
939.562	417.25
939.793	400.25
940.024	436.25
940.255	432.25
940.486	389.25
940.717	389.25
940.948	387.25
941.179	348.25
941.409	398.25
941.64	381.25
941.871	400.25
942.102	366.25
942.332	379.25
942.563	416.25
942.793	393.25
943.024	333.25
943.254	390.25
943.484	433.25
943.715	430.25
943.945	408.25
944.175	342.25
944.405	326.25
944.636	337.25
944.866	393.25
945.096	394.25
945.326	328.25
945.556	408.25
945.786	426.25
946.016	390.25
946.245	355.25
946.475	372.25
946.705	379.25
946.935	394.25
947.164	415.25
947.394	373.25
947.624	384.25
947.853	429.25
948.083	408.25
948.312	386.25
948.542	346.25
948.771	335.25
949	365.25
949.23	357.25
949.459	375.25
949.688	446.25
949.917	398.25
950.146	399.25
950.375	457.25
950.604	361.25
950.833	456.25
951.062	446.25
951.291	384.25
951.52	369.25
951.749	403.25
951.978	357.25
952.206	370.25
952.435	367.25
952.664	413.25
952.892	425.25
953.121	412.25
953.349	455.25
953.578	443.25
953.806	418.25
954.035	384.25
954.263	419.25
954.491	361.25
954.719	408.25
954.948	372.25
955.176	387.25
955.404	329.25
955.632	406.25
955.86	434.25
956.088	418.25
956.316	447.25
956.544	464.25
956.772	404.25
956.999	386.25
957.227	492.25
957.455	410.25
957.683	424.25
957.91	398.25
958.138	399.25
958.365	414.25
958.593	413.25
958.82	373.25
959.048	435.25
959.275	413.25
959.502	405.25
959.73	384.25
959.957	416.25
960.184	448.25
960.411	387.25
960.638	464.25
960.865	425.25
961.092	456.25
961.319	353.25
961.546	452.25
961.773	457.25
962	421.25
962.227	476.25
962.454	430.25
962.68	424.25
962.907	465.25
963.134	415.25
963.36	448.25
963.587	481.25
963.813	409.25
964.04	462.25
964.266	416.25
964.493	517.25
964.719	492.25
964.945	491.25
965.171	395.25
965.398	466.25
965.624	496.25
965.85	415.25
966.076	432.25
966.302	477.25
966.528	453.25
966.754	465.25
966.98	476.25
967.206	481.25
967.431	418.25
967.657	502.25
967.883	498.25
968.109	463.25
968.334	429.25
968.56	421.25
968.785	468.25
969.011	417.25
969.236	479.25
969.462	419.25
969.687	449.25
969.912	493.25
970.138	523.25
970.363	437.25
970.588	477.25
970.813	447.25
971.038	438.25
971.263	478.25
971.488	470.25
971.713	525.25
971.938	507.25
972.163	423.25
972.388	454.25
972.613	441.25
972.838	470.25
973.062	449.25
973.287	462.25
973.512	394.25
973.736	462.25
973.961	442.25
974.185	443.25
974.41	482.25
974.634	399.25
974.858	438.25
975.083	477.25
975.307	499.25
975.531	438.25
975.755	402.25
975.98	432.25
976.204	374.25
976.428	397.25
976.652	412.25
976.876	395.25
977.1	441.25
977.324	393.25
977.547	451.25
977.771	477.25
977.995	438.25
978.219	382.25
978.442	521.25
978.666	451.25
978.89	427.25
979.113	443.25
979.337	451.25
979.56	405.25
979.783	514.25
980.007	412.25
980.23	447.25
980.453	416.25
980.677	447.25
980.9	450.25
981.123	367.25
981.346	478.25
981.569	467.25
981.792	487.25
982.015	458.25
982.238	421.25
982.461	458.25
982.684	430.25
982.907	419.25
983.129	441.25
983.352	482.25
983.575	459.25
983.797	474.25
984.02	440.25
984.242	446.25
984.465	461.25
984.687	489.25
984.91	527.25
985.132	489.25
985.354	508.25
985.577	492.25
985.799	485.25
986.021	411.25
986.243	442.25
986.465	474.25
986.687	496.25
986.909	565.25
987.131	492.25
987.353	477.25
987.575	510.25
987.797	480.25
988.019	408.25
988.241	475.25
988.462	457.25
988.684	500.25
988.906	538.25
989.127	558.25
989.349	433.25
989.57	482.25
989.792	536.25
990.013	521.25
990.234	542.25
990.456	575.25
990.677	554.25
990.898	517.25
991.119	506.25
991.341	535.25
991.562	475.25
991.783	519.25
992.004	478.25
992.225	459.25
992.446	538.25
992.667	451.25
992.887	546.25
993.108	434.25
993.329	586.25
993.55	525.25
993.77	469.25
993.991	486.25
994.212	527.25
994.432	534.25
994.653	525.25
994.873	535.25
995.093	435.25
995.314	497.25
995.534	557.25
995.754	561.25
995.975	592.25
996.195	487.25
996.415	572.25
996.635	539.25
996.855	553.25
997.075	525.25
997.295	513.25
997.515	512.25
997.735	566.25
997.955	527.25
998.174	531.25
998.394	507.25
998.614	560.25
998.834	520.25
999.053	592.25
999.273	562.25
999.492	617.25
999.712	566.25
999.931	537.25
1000.151	594.25
1000.37	577.25
1000.589	628.25
1000.809	583.25
1001.028	686.25
1001.247	627.25
1001.466	554.25
1001.685	675.25
1001.904	612.25
1002.123	634.25
1002.342	634.25
1002.561	599.25
1002.78	634.25
1002.999	714.25
1003.218	641.25
1003.436	621.25
1003.655	669.25
1003.874	613.25
1004.092	655.25
1004.311	693.25
1004.53	645.25
1004.748	732.25
1004.966	643.25
1005.185	700.25
1005.403	696.25
1005.622	700.25
1005.84	750.25
1006.058	661.25
1006.276	666.25
1006.494	1132.25
1006.712	679.25
1006.931	749.25
1007.149	658.25
1007.367	665.25
1007.584	661.25
1007.802	696.25
1008.02	656.25
1008.238	737.25
1008.456	725.25
1008.673	586.25
1008.891	680.25
1009.109	621.25
1009.326	653.25
1009.544	717.25
1009.761	578.25
1009.979	652.25
1010.196	635.25
1010.413	669.25
1010.631	669.25
1010.848	683.25
1011.065	659.25
1011.282	607.25
1011.5	567.25
1011.717	687.25
1011.934	624.25
1012.151	670.25
1012.368	647.25
1012.585	598.25
1012.801	637.25
1013.018	629.25
1013.235	587.25
1013.452	602.25
1013.669	594.25
1013.885	567.25
1014.102	606.25
1014.318	561.25
1014.535	521.25
1014.751	568.25
1014.968	574.25
1015.184	604.25
1015.401	523.25
1015.617	579.25
1015.833	532.25
1016.049	548.25
1016.266	540.25
1016.482	556.25
1016.698	501.25
1016.914	563.25
1017.13	510.25
1017.346	502.25
1017.562	589.25
1017.778	520.25
1017.993	492.25
1018.209	549.25
1018.425	530.25
1018.641	489.25
1018.856	485.25
1019.072	529.25
1019.288	556.25
1019.503	505.25
1019.719	432.25
1019.934	452.25
1020.149	553.25
1020.365	504.25
1020.58	444.25
1020.795	530.25
1021.011	488.25
1021.226	500.25
1021.441	551.25
1021.656	481.25
1021.871	456.25
1022.086	461.25
1022.301	469.25
1022.516	481.25
1022.731	517.25
1022.946	470.25
1023.16	460.25
1023.375	440.25
1023.59	442.25
1023.804	429.25
1024.019	535.25
1024.234	431.25
1024.448	466.25
1024.663	409.25
1024.877	438.25
1025.092	478.25
1025.306	493.25
1025.52	416.25
1025.734	526.25
1025.949	445.25
1026.163	429.25
1026.377	384.25
1026.591	449.25
1026.805	380.25
1027.019	398.25
1027.233	361.25
1027.447	315.25
1027.661	437.25
1027.875	375.25
1028.088	394.25
1028.302	326.25
1028.516	349.25
1028.73	344.25
1028.943	357.25
1029.157	322.25
1029.37	313.25
1029.584	-1.75
1029.797	0.25
1030.011	-3.75
1030.224	-1.75
