Data from QEP037381__90__10-27-11-075.txt Node

Date: Fri Apr 21 10:27:11 EDT 2023
User: dcclab
Spectrometer: QEP03738
Trigger mode: 4
Integration Time (sec): 1.000000E1
Scans to average: 1
Electric dark correction enabled: true
Nonlinearity correction enabled: false
Boxcar width: 0
XAxis mode: Wavelengths
Number of Pixels in Spectrum: 1044
>>>>>Begin Spectral Data<<<<<
784.041	13.75
784.3	1.75
784.558	-1.25
784.817	-5.25
785.075	211.75
785.334	200.75
785.592	201.75
785.851	194.75
786.109	220.75
786.368	237.75
786.626	249.75
786.884	273.75
787.143	263.75
787.401	215.75
787.659	279.75
787.917	247.75
788.175	304.75
788.433	270.75
788.691	273.75
788.949	285.75
789.207	293.75
789.465	258.75
789.723	260.75
789.98	244.75
790.238	311.75
790.496	305.75
790.753	294.75
791.011	359.75
791.268	305.75
791.526	309.75
791.783	334.75
792.041	319.75
792.298	250.75
792.556	316.75
792.813	303.75
793.07	291.75
793.327	289.75
793.584	379.75
793.841	295.75
794.099	319.75
794.356	384.75
794.613	290.75
794.869	326.75
795.126	301.75
795.383	294.75
795.64	301.75
795.897	264.75
796.153	321.75
796.41	307.75
796.667	281.75
796.923	299.75
797.18	292.75
797.436	317.75
797.693	283.75
797.949	332.75
798.206	371.75
798.462	281.75
798.718	337.75
798.974	292.75
799.231	339.75
799.487	323.75
799.743	329.75
799.999	330.75
800.255	330.75
800.511	308.75
800.767	341.75
801.023	304.75
801.279	326.75
801.534	328.75
801.79	322.75
802.046	301.75
802.302	361.75
802.557	329.75
802.813	349.75
803.068	287.75
803.324	338.75
803.579	300.75
803.835	295.75
804.09	345.75
804.345	290.75
804.601	279.75
804.856	301.75
805.111	323.75
805.366	318.75
805.621	305.75
805.876	334.75
806.131	326.75
806.386	301.75
806.641	269.75
806.896	304.75
807.151	371.75
807.406	325.75
807.661	333.75
807.915	310.75
808.17	331.75
808.425	331.75
808.679	281.75
808.934	367.75
809.188	291.75
809.443	338.75
809.697	343.75
809.951	286.75
810.206	299.75
810.46	360.75
810.714	332.75
810.968	364.75
811.223	271.75
811.477	306.75
811.731	336.75
811.985	277.75
812.239	245.75
812.493	282.75
812.747	310.75
813	258.75
813.254	322.75
813.508	342.75
813.762	293.75
814.015	291.75
814.269	319.75
814.522	343.75
814.776	337.75
815.03	334.75
815.283	316.75
815.536	323.75
815.79	332.75
816.043	343.75
816.296	328.75
816.55	325.75
816.803	306.75
817.056	392.75
817.309	343.75
817.562	333.75
817.815	371.75
818.068	279.75
818.321	292.75
818.574	287.75
818.827	346.75
819.079	287.75
819.332	409.75
819.585	342.75
819.838	382.75
820.09	293.75
820.343	365.75
820.595	282.75
820.848	320.75
821.1	341.75
821.353	312.75
821.605	317.75
821.857	369.75
822.11	273.75
822.362	289.75
822.614	287.75
822.866	315.75
823.118	267.75
823.37	394.75
823.622	313.75
823.874	312.75
824.126	348.75
824.378	289.75
824.63	307.75
824.882	342.75
825.134	302.75
825.385	353.75
825.637	328.75
825.888	301.75
826.14	321.75
826.392	299.75
826.643	283.75
826.895	377.75
827.146	311.75
827.397	311.75
827.649	377.75
827.9	290.75
828.151	286.75
828.402	281.75
828.653	319.75
828.905	329.75
829.156	373.75
829.407	284.75
829.658	325.75
829.909	368.75
830.159	339.75
830.41	332.75
830.661	360.75
830.912	341.75
831.162	315.75
831.413	309.75
831.664	354.75
831.914	319.75
832.165	324.75
832.415	339.75
832.666	335.75
832.916	358.75
833.167	294.75
833.417	379.75
833.667	336.75
833.917	334.75
834.168	390.75
834.418	357.75
834.668	326.75
834.918	275.75
835.168	307.75
835.418	253.75
835.668	319.75
835.918	364.75
836.167	343.75
836.417	301.75
836.667	364.75
836.917	373.75
837.166	330.75
837.416	352.75
837.666	365.75
837.915	311.75
838.165	352.75
838.414	296.75
838.663	263.75
838.913	331.75
839.162	296.75
839.411	394.75
839.661	314.75
839.91	336.75
840.159	308.75
840.408	342.75
840.657	325.75
840.906	329.75
841.155	361.75
841.404	317.75
841.653	345.75
841.902	293.75
842.15	333.75
842.399	350.75
842.648	324.75
842.897	354.75
843.145	281.75
843.394	298.75
843.642	311.75
843.891	351.75
844.139	343.75
844.388	290.75
844.636	266.75
844.884	296.75
845.133	295.75
845.381	324.75
845.629	354.75
845.877	293.75
846.125	302.75
846.373	321.75
846.621	297.75
846.869	350.75
847.117	330.75
847.365	325.75
847.613	346.75
847.861	348.75
848.108	375.75
848.356	352.75
848.604	303.75
848.851	342.75
849.099	311.75
849.346	308.75
849.594	344.75
849.841	355.75
850.089	314.75
850.336	282.75
850.583	305.75
850.831	336.75
851.078	327.75
851.325	297.75
851.572	354.75
851.819	355.75
852.066	321.75
852.313	340.75
852.56	294.75
852.807	292.75
853.054	291.75
853.301	311.75
853.548	317.75
853.794	406.75
854.041	329.75
854.288	281.75
854.534	393.75
854.781	309.75
855.028	306.75
855.274	386.75
855.52	327.75
855.767	294.75
856.013	358.75
856.26	631.75
856.506	302.75
856.752	361.75
856.998	308.75
857.244	299.75
857.49	341.75
857.736	344.75
857.982	344.75
858.228	355.75
858.474	293.75
858.72	320.75
858.966	339.75
859.212	346.75
859.458	325.75
859.703	336.75
859.949	310.75
860.195	373.75
860.44	362.75
860.686	309.75
860.931	387.75
861.177	310.75
861.422	370.75
861.667	328.75
861.913	322.75
862.158	325.75
862.403	381.75
862.648	362.75
862.893	391.75
863.138	342.75
863.384	294.75
863.629	360.75
863.873	349.75
864.118	328.75
864.363	264.75
864.608	346.75
864.853	369.75
865.098	332.75
865.342	352.75
865.587	336.75
865.832	368.75
866.076	361.75
866.321	314.75
866.565	332.75
866.81	270.75
867.054	338.75
867.298	350.75
867.543	306.75
867.787	366.75
868.031	337.75
868.275	347.75
868.519	323.75
868.764	337.75
869.008	330.75
869.252	371.75
869.496	334.75
869.739	339.75
869.983	365.75
870.227	357.75
870.471	319.75
870.715	360.75
870.958	342.75
871.202	321.75
871.446	334.75
871.689	309.75
871.933	346.75
872.176	352.75
872.42	328.75
872.663	328.75
872.906	366.75
873.15	334.75
873.393	288.75
873.636	379.75
873.879	363.75
874.122	397.75
874.366	333.75
874.609	368.75
874.852	328.75
875.095	355.75
875.337	319.75
875.58	275.75
875.823	344.75
876.066	368.75
876.309	400.75
876.551	301.75
876.794	304.75
877.037	377.75
877.279	309.75
877.522	310.75
877.764	358.75
878.007	306.75
878.249	348.75
878.491	296.75
878.734	372.75
878.976	358.75
879.218	291.75
879.46	372.75
879.702	375.75
879.945	364.75
880.187	326.75
880.429	367.75
880.671	368.75
880.912	379.75
881.154	370.75
881.396	277.75
881.638	349.75
881.88	342.75
882.121	305.75
882.363	324.75
882.605	399.75
882.846	351.75
883.088	382.75
883.329	332.75
883.571	294.75
883.812	319.75
884.053	318.75
884.295	322.75
884.536	411.75
884.777	318.75
885.018	340.75
885.259	364.75
885.5	291.75
885.742	515.75
885.982	360.75
886.223	310.75
886.464	329.75
886.705	294.75
886.946	340.75
887.187	302.75
887.428	374.75
887.668	321.75
887.909	317.75
888.15	300.75
888.39	365.75
888.631	409.75
888.871	381.75
889.111	353.75
889.352	355.75
889.592	327.75
889.833	345.75
890.073	367.75
890.313	406.75
890.553	306.75
890.793	344.75
891.033	315.75
891.273	325.75
891.513	362.75
891.753	395.75
891.993	344.75
892.233	384.75
892.473	417.75
892.713	361.75
892.952	308.75
893.192	353.75
893.432	334.75
893.671	368.75
893.911	342.75
894.15	340.75
894.39	291.75
894.629	340.75
894.869	380.75
895.108	349.75
895.347	314.75
895.587	362.75
895.826	338.75
896.065	310.75
896.304	366.75
896.543	391.75
896.782	299.75
897.021	352.75
897.26	340.75
897.499	408.75
897.738	409.75
897.977	360.75
898.216	353.75
898.454	346.75
898.693	330.75
898.932	378.75
899.17	344.75
899.409	356.75
899.647	350.75
899.886	333.75
900.124	374.75
900.363	307.75
900.601	350.75
900.839	355.75
901.078	358.75
901.316	365.75
901.554	340.75
901.792	360.75
902.03	303.75
902.268	340.75
902.506	384.75
902.744	344.75
902.982	381.75
903.22	326.75
903.458	347.75
903.695	378.75
903.933	376.75
904.171	328.75
904.409	333.75
904.646	372.75
904.884	341.75
905.121	397.75
905.359	386.75
905.596	379.75
905.833	343.75
906.071	353.75
906.308	408.75
906.545	376.75
906.783	324.75
907.02	347.75
907.257	306.75
907.494	339.75
907.731	360.75
907.968	375.75
908.205	333.75
908.442	333.75
908.679	352.75
908.915	355.75
909.152	378.75
909.389	298.75
909.626	344.75
909.862	339.75
910.099	367.75
910.335	409.75
910.572	314.75
910.808	374.75
911.045	349.75
911.281	332.75
911.518	407.75
911.754	352.75
911.99	365.75
912.226	358.75
912.463	329.75
912.699	342.75
912.935	359.75
913.171	343.75
913.407	327.75
913.643	400.75
913.879	369.75
914.114	362.75
914.35	339.75
914.586	354.75
914.822	331.75
915.057	435.75
915.293	310.75
915.529	330.75
915.764	405.75
916	383.75
916.235	369.75
916.471	392.75
916.706	324.75
916.941	351.75
917.177	342.75
917.412	389.75
917.647	386.75
917.882	332.75
918.117	406.75
918.352	373.75
918.588	431.75
918.823	364.75
919.057	363.75
919.292	288.75
919.527	421.75
919.762	354.75
919.997	433.75
920.232	366.75
920.466	415.75
920.701	313.75
920.935	387.75
921.17	359.75
921.405	333.75
921.639	397.75
921.873	369.75
922.108	393.75
922.342	395.75
922.576	346.75
922.811	346.75
923.045	391.75
923.279	420.75
923.513	307.75
923.747	401.75
923.981	384.75
924.215	357.75
924.449	373.75
924.683	329.75
924.917	356.75
925.151	354.75
925.385	424.75
925.618	385.75
925.852	400.75
926.086	323.75
926.319	387.75
926.553	377.75
926.786	390.75
927.02	372.75
927.253	422.75
927.486	412.75
927.72	335.75
927.953	416.75
928.186	363.75
928.42	403.75
928.653	344.75
928.886	351.75
929.119	391.75
929.352	377.75
929.585	394.75
929.818	349.75
930.051	396.75
930.284	422.75
930.516	323.75
930.749	364.75
930.982	418.75
931.215	408.75
931.447	338.75
931.68	367.75
931.912	363.75
932.145	369.75
932.377	390.75
932.61	506.75
932.842	316.75
933.074	388.75
933.307	350.75
933.539	435.75
933.771	421.75
934.003	364.75
934.236	435.75
934.468	461.75
934.7	376.75
934.932	417.75
935.164	368.75
935.395	362.75
935.627	386.75
935.859	394.75
936.091	346.75
936.323	406.75
936.554	441.75
936.786	375.75
937.017	358.75
937.249	397.75
937.481	328.75
937.712	407.75
937.943	396.75
938.175	377.75
938.406	377.75
938.637	439.75
938.869	340.75
939.1	412.75
939.331	366.75
939.562	413.75
939.793	386.75
940.024	431.75
940.255	439.75
940.486	389.75
940.717	403.75
940.948	397.75
941.179	357.75
941.409	397.75
941.64	366.75
941.871	383.75
942.102	368.75
942.332	378.75
942.563	410.75
942.793	392.75
943.024	340.75
943.254	382.75
943.484	430.75
943.715	424.75
943.945	399.75
944.175	336.75
944.405	322.75
944.636	341.75
944.866	388.75
945.096	407.75
945.326	346.75
945.556	391.75
945.786	426.75
946.016	365.75
946.245	341.75
946.475	380.75
946.705	372.75
946.935	397.75
947.164	398.75
947.394	366.75
947.624	385.75
947.853	430.75
948.083	408.75
948.312	386.75
948.542	337.75
948.771	347.75
949	359.75
949.23	359.75
949.459	365.75
949.688	439.75
949.917	385.75
950.146	399.75
950.375	438.75
950.604	353.75
950.833	463.75
951.062	448.75
951.291	397.75
951.52	368.75
951.749	385.75
951.978	366.75
952.206	370.75
952.435	371.75
952.664	420.75
952.892	431.75
953.121	426.75
953.349	442.75
953.578	441.75
953.806	427.75
954.035	375.75
954.263	419.75
954.491	374.75
954.719	414.75
954.948	383.75
955.176	391.75
955.404	346.75
955.632	410.75
955.86	417.75
956.088	413.75
956.316	433.75
956.544	467.75
956.772	407.75
956.999	394.75
957.227	483.75
957.455	395.75
957.683	432.75
957.91	388.75
958.138	400.75
958.365	396.75
958.593	407.75
958.82	355.75
959.048	446.75
959.275	406.75
959.502	411.75
959.73	391.75
959.957	438.75
960.184	444.75
960.411	389.75
960.638	462.75
960.865	431.75
961.092	445.75
961.319	357.75
961.546	459.75
961.773	463.75
962	408.75
962.227	466.75
962.454	423.75
962.68	435.75
962.907	457.75
963.134	403.75
963.36	437.75
963.587	472.75
963.813	424.75
964.04	465.75
964.266	402.75
964.493	495.75
964.719	469.75
964.945	498.75
965.171	402.75
965.398	470.75
965.624	499.75
965.85	438.75
966.076	433.75
966.302	478.75
966.528	461.75
966.754	486.75
966.98	471.75
967.206	485.75
967.431	417.75
967.657	504.75
967.883	490.75
968.109	476.75
968.334	430.75
968.56	427.75
968.785	457.75
969.011	418.75
969.236	480.75
969.462	420.75
969.687	464.75
969.912	497.75
970.138	511.75
970.363	428.75
970.588	461.75
970.813	459.75
971.038	444.75
971.263	471.75
971.488	485.75
971.713	508.75
971.938	510.75
972.163	416.75
972.388	457.75
972.613	438.75
972.838	457.75
973.062	457.75
973.287	458.75
973.512	406.75
973.736	458.75
973.961	438.75
974.185	440.75
974.41	487.75
974.634	391.75
974.858	433.75
975.083	471.75
975.307	501.75
975.531	453.75
975.755	399.75
975.98	435.75
976.204	382.75
976.428	401.75
976.652	422.75
976.876	394.75
977.1	429.75
977.324	392.75
977.547	460.75
977.771	465.75
977.995	442.75
978.219	393.75
978.442	515.75
978.666	455.75
978.89	441.75
979.113	457.75
979.337	453.75
979.56	418.75
979.783	507.75
980.007	401.75
980.23	445.75
980.453	437.75
980.677	465.75
980.9	451.75
981.123	367.75
981.346	477.75
981.569	463.75
981.792	479.75
982.015	464.75
982.238	419.75
982.461	446.75
982.684	429.75
982.907	430.75
983.129	420.75
983.352	480.75
983.575	470.75
983.797	475.75
984.02	429.75
984.242	458.75
984.465	462.75
984.687	476.75
984.91	512.75
985.132	487.75
985.354	516.75
985.577	490.75
985.799	479.75
986.021	414.75
986.243	442.75
986.465	467.75
986.687	525.75
986.909	556.75
987.131	498.75
987.353	454.75
987.575	485.75
987.797	477.75
988.019	416.75
988.241	483.75
988.462	453.75
988.684	510.75
988.906	535.75
989.127	565.75
989.349	437.75
989.57	476.75
989.792	528.75
990.013	535.75
990.234	558.75
990.456	573.75
990.677	568.75
990.898	494.75
991.119	515.75
991.341	536.75
991.562	492.75
991.783	537.75
992.004	476.75
992.225	466.75
992.446	534.75
992.667	443.75
992.887	536.75
993.108	444.75
993.329	578.75
993.55	522.75
993.77	480.75
993.991	497.75
994.212	533.75
994.432	529.75
994.653	565.75
994.873	544.75
995.093	435.75
995.314	486.75
995.534	564.75
995.754	574.75
995.975	594.75
996.195	499.75
996.415	553.75
996.635	538.75
996.855	546.75
997.075	520.75
997.295	519.75
997.515	520.75
997.735	565.75
997.955	539.75
998.174	552.75
998.394	506.75
998.614	559.75
998.834	517.75
999.053	590.75
999.273	540.75
999.492	631.75
999.712	567.75
999.931	540.75
1000.151	583.75
1000.37	588.75
1000.589	651.75
1000.809	562.75
1001.028	693.75
1001.247	643.75
1001.466	524.75
1001.685	681.75
1001.904	625.75
1002.123	617.75
1002.342	628.75
1002.561	594.75
1002.78	628.75
1002.999	686.75
1003.218	637.75
1003.436	611.75
1003.655	680.75
1003.874	631.75
1004.092	629.75
1004.311	711.75
1004.53	650.75
1004.748	724.75
1004.966	646.75
1005.185	727.75
1005.403	709.75
1005.622	688.75
1005.84	766.75
1006.058	670.75
1006.276	674.75
1006.494	1167.75
1006.712	678.75
1006.931	741.75
1007.149	633.75
1007.367	652.75
1007.584	693.75
1007.802	728.75
1008.02	641.75
1008.238	734.75
1008.456	712.75
1008.673	596.75
1008.891	689.75
1009.109	628.75
1009.326	659.75
1009.544	719.75
1009.761	612.75
1009.979	665.75
1010.196	622.75
1010.413	667.75
1010.631	667.75
1010.848	683.75
1011.065	657.75
1011.282	603.75
1011.5	550.75
1011.717	667.75
1011.934	622.75
1012.151	654.75
1012.368	648.75
1012.585	583.75
1012.801	628.75
1013.018	599.75
1013.235	576.75
1013.452	591.75
1013.669	602.75
1013.885	557.75
1014.102	606.75
1014.318	568.75
1014.535	534.75
1014.751	552.75
1014.968	565.75
1015.184	598.75
1015.401	528.75
1015.617	572.75
1015.833	549.75
1016.049	543.75
1016.266	540.75
1016.482	563.75
1016.698	493.75
1016.914	559.75
1017.13	513.75
1017.346	523.75
1017.562	590.75
1017.778	516.75
1017.993	484.75
1018.209	546.75
1018.425	529.75
1018.641	488.75
1018.856	484.75
1019.072	503.75
1019.288	561.75
1019.503	500.75
1019.719	426.75
1019.934	441.75
1020.149	546.75
1020.365	486.75
1020.58	468.75
1020.795	528.75
1021.011	499.75
1021.226	494.75
1021.441	552.75
1021.656	491.75
1021.871	452.75
1022.086	455.75
1022.301	466.75
1022.516	464.75
1022.731	524.75
1022.946	469.75
1023.16	457.75
1023.375	456.75
1023.59	444.75
1023.804	416.75
1024.019	534.75
1024.234	424.75
1024.448	461.75
1024.663	420.75
1024.877	436.75
1025.092	467.75
1025.306	504.75
1025.52	401.75
1025.734	500.75
1025.949	445.75
1026.163	435.75
1026.377	374.75
1026.591	438.75
1026.805	385.75
1027.019	385.75
1027.233	361.75
1027.447	313.75
1027.661	419.75
1027.875	375.75
1028.088	379.75
1028.302	333.75
1028.516	336.75
1028.73	357.75
1028.943	349.75
1029.157	324.75
1029.37	304.75
1029.584	-3.25
1029.797	-1.25
1030.011	-3.25
1030.224	-1.25
