Data from QEP037381__76__10-24-51-073.txt Node

Date: Fri Apr 21 10:24:51 EDT 2023
User: dcclab
Spectrometer: QEP03738
Trigger mode: 4
Integration Time (sec): 1.000000E1
Scans to average: 1
Electric dark correction enabled: true
Nonlinearity correction enabled: false
Boxcar width: 0
XAxis mode: Wavelengths
Number of Pixels in Spectrum: 1044
>>>>>Begin Spectral Data<<<<<
784.041	12.38
784.3	3.38
784.558	-1.62
784.817	-3.62
785.075	230.38
785.334	211.38
785.592	198.38
785.851	191.38
786.109	234.38
786.368	243.38
786.626	255.38
786.884	280.38
787.143	271.38
787.401	215.38
787.659	275.38
787.917	252.38
788.175	298.38
788.433	269.38
788.691	271.38
788.949	282.38
789.207	301.38
789.465	247.38
789.723	286.38
789.98	257.38
790.238	314.38
790.496	308.38
790.753	290.38
791.011	354.38
791.268	296.38
791.526	306.38
791.783	336.38
792.041	320.38
792.298	251.38
792.556	323.38
792.813	316.38
793.07	290.38
793.327	293.38
793.584	368.38
793.841	296.38
794.099	333.38
794.356	382.38
794.613	293.38
794.869	331.38
795.126	295.38
795.383	288.38
795.64	329.38
795.897	283.38
796.153	328.38
796.41	314.38
796.667	298.38
796.923	293.38
797.18	294.38
797.436	321.38
797.693	295.38
797.949	333.38
798.206	359.38
798.462	269.38
798.718	336.38
798.974	317.38
799.231	346.38
799.487	333.38
799.743	312.38
799.999	330.38
800.255	327.38
800.511	300.38
800.767	333.38
801.023	309.38
801.279	325.38
801.534	330.38
801.79	327.38
802.046	304.38
802.302	355.38
802.557	333.38
802.813	348.38
803.068	289.38
803.324	346.38
803.579	309.38
803.835	289.38
804.09	346.38
804.345	302.38
804.601	277.38
804.856	300.38
805.111	337.38
805.366	309.38
805.621	315.38
805.876	335.38
806.131	337.38
806.386	305.38
806.641	277.38
806.896	297.38
807.151	367.38
807.406	319.38
807.661	320.38
807.915	319.38
808.17	343.38
808.425	319.38
808.679	285.38
808.934	367.38
809.188	299.38
809.443	335.38
809.697	365.38
809.951	304.38
810.206	304.38
810.46	351.38
810.714	326.38
810.968	347.38
811.223	278.38
811.477	326.38
811.731	353.38
811.985	258.38
812.239	246.38
812.493	281.38
812.747	317.38
813	271.38
813.254	324.38
813.508	334.38
813.762	299.38
814.015	303.38
814.269	320.38
814.522	339.38
814.776	329.38
815.03	332.38
815.283	325.38
815.536	333.38
815.79	338.38
816.043	332.38
816.296	324.38
816.55	317.38
816.803	309.38
817.056	406.38
817.309	349.38
817.562	323.38
817.815	357.38
818.068	277.38
818.321	283.38
818.574	292.38
818.827	341.38
819.079	287.38
819.332	400.38
819.585	335.38
819.838	388.38
820.09	302.38
820.343	355.38
820.595	282.38
820.848	349.38
821.1	347.38
821.353	320.38
821.605	311.38
821.857	399.38
822.11	285.38
822.362	299.38
822.614	277.38
822.866	322.38
823.118	256.38
823.37	367.38
823.622	327.38
823.874	309.38
824.126	360.38
824.378	280.38
824.63	316.38
824.882	321.38
825.134	304.38
825.385	353.38
825.637	321.38
825.888	316.38
826.14	314.38
826.392	289.38
826.643	288.38
826.895	372.38
827.146	307.38
827.397	292.38
827.649	400.38
827.9	288.38
828.151	285.38
828.402	267.38
828.653	323.38
828.905	306.38
829.156	367.38
829.407	295.38
829.658	331.38
829.909	366.38
830.159	348.38
830.41	347.38
830.661	353.38
830.912	332.38
831.162	326.38
831.413	305.38
831.664	346.38
831.914	328.38
832.165	328.38
832.415	337.38
832.666	341.38
832.916	346.38
833.167	305.38
833.417	382.38
833.667	348.38
833.917	330.38
834.168	386.38
834.418	370.38
834.668	332.38
834.918	283.38
835.168	309.38
835.418	258.38
835.668	330.38
835.918	357.38
836.167	359.38
836.417	299.38
836.667	360.38
836.917	374.38
837.166	329.38
837.416	365.38
837.666	350.38
837.915	320.38
838.165	340.38
838.414	302.38
838.663	279.38
838.913	332.38
839.162	281.38
839.411	392.38
839.661	300.38
839.91	324.38
840.159	315.38
840.408	328.38
840.657	326.38
840.906	327.38
841.155	365.38
841.404	324.38
841.653	345.38
841.902	302.38
842.15	344.38
842.399	338.38
842.648	329.38
842.897	350.38
843.145	295.38
843.394	294.38
843.642	311.38
843.891	363.38
844.139	337.38
844.388	298.38
844.636	262.38
844.884	321.38
845.133	300.38
845.381	337.38
845.629	362.38
845.877	300.38
846.125	315.38
846.373	332.38
846.621	309.38
846.869	356.38
847.117	336.38
847.365	332.38
847.613	338.38
847.861	346.38
848.108	370.38
848.356	351.38
848.604	304.38
848.851	338.38
849.099	328.38
849.346	321.38
849.594	349.38
849.841	353.38
850.089	317.38
850.336	300.38
850.583	301.38
850.831	320.38
851.078	326.38
851.325	297.38
851.572	365.38
851.819	366.38
852.066	329.38
852.313	313.38
852.56	295.38
852.807	291.38
853.054	294.38
853.301	315.38
853.548	318.38
853.794	407.38
854.041	326.38
854.288	288.38
854.534	394.38
854.781	317.38
855.028	306.38
855.274	376.38
855.52	323.38
855.767	306.38
856.013	349.38
856.26	634.38
856.506	319.38
856.752	357.38
856.998	328.38
857.244	318.38
857.49	343.38
857.736	344.38
857.982	345.38
858.228	347.38
858.474	291.38
858.72	337.38
858.966	347.38
859.212	342.38
859.458	344.38
859.703	349.38
859.949	314.38
860.195	368.38
860.44	361.38
860.686	315.38
860.931	391.38
861.177	317.38
861.422	377.38
861.667	316.38
861.913	323.38
862.158	330.38
862.403	375.38
862.648	357.38
862.893	382.38
863.138	335.38
863.384	312.38
863.629	359.38
863.873	340.38
864.118	321.38
864.363	268.38
864.608	337.38
864.853	363.38
865.098	337.38
865.342	359.38
865.587	338.38
865.832	368.38
866.076	362.38
866.321	325.38
866.565	327.38
866.81	270.38
867.054	341.38
867.298	346.38
867.543	313.38
867.787	364.38
868.031	341.38
868.275	347.38
868.519	336.38
868.764	342.38
869.008	332.38
869.252	388.38
869.496	329.38
869.739	332.38
869.983	389.38
870.227	365.38
870.471	322.38
870.715	362.38
870.958	353.38
871.202	318.38
871.446	325.38
871.689	323.38
871.933	331.38
872.176	340.38
872.42	353.38
872.663	329.38
872.906	370.38
873.15	331.38
873.393	279.38
873.636	387.38
873.879	370.38
874.122	394.38
874.366	332.38
874.609	377.38
874.852	330.38
875.095	360.38
875.337	315.38
875.58	285.38
875.823	348.38
876.066	378.38
876.309	415.38
876.551	304.38
876.794	301.38
877.037	374.38
877.279	315.38
877.522	321.38
877.764	362.38
878.007	318.38
878.249	336.38
878.491	306.38
878.734	367.38
878.976	354.38
879.218	311.38
879.46	385.38
879.702	384.38
879.945	361.38
880.187	334.38
880.429	374.38
880.671	372.38
880.912	382.38
881.154	360.38
881.396	285.38
881.638	355.38
881.88	353.38
882.121	320.38
882.363	321.38
882.605	393.38
882.846	360.38
883.088	373.38
883.329	310.38
883.571	302.38
883.812	315.38
884.053	320.38
884.295	322.38
884.536	391.38
884.777	323.38
885.018	354.38
885.259	363.38
885.5	302.38
885.742	520.38
885.982	378.38
886.223	312.38
886.464	329.38
886.705	289.38
886.946	347.38
887.187	283.38
887.428	377.38
887.668	314.38
887.909	320.38
888.15	296.38
888.39	368.38
888.631	411.38
888.871	369.38
889.111	365.38
889.352	359.38
889.592	341.38
889.833	360.38
890.073	348.38
890.313	419.38
890.553	310.38
890.793	343.38
891.033	342.38
891.273	322.38
891.513	351.38
891.753	407.38
891.993	352.38
892.233	357.38
892.473	419.38
892.713	363.38
892.952	328.38
893.192	355.38
893.432	335.38
893.671	391.38
893.911	332.38
894.15	340.38
894.39	299.38
894.629	327.38
894.869	371.38
895.108	351.38
895.347	318.38
895.587	376.38
895.826	330.38
896.065	319.38
896.304	370.38
896.543	394.38
896.782	286.38
897.021	354.38
897.26	340.38
897.499	395.38
897.738	412.38
897.977	357.38
898.216	357.38
898.454	354.38
898.693	331.38
898.932	373.38
899.17	355.38
899.409	353.38
899.647	349.38
899.886	333.38
900.124	374.38
900.363	308.38
900.601	361.38
900.839	352.38
901.078	354.38
901.316	353.38
901.554	339.38
901.792	356.38
902.03	302.38
902.268	343.38
902.506	383.38
902.744	352.38
902.982	389.38
903.22	323.38
903.458	330.38
903.695	380.38
903.933	388.38
904.171	325.38
904.409	328.38
904.646	384.38
904.884	349.38
905.121	404.38
905.359	382.38
905.596	383.38
905.833	343.38
906.071	332.38
906.308	391.38
906.545	364.38
906.783	324.38
907.02	355.38
907.257	317.38
907.494	345.38
907.731	367.38
907.968	385.38
908.205	336.38
908.442	327.38
908.679	365.38
908.915	360.38
909.152	369.38
909.389	318.38
909.626	351.38
909.862	338.38
910.099	345.38
910.335	409.38
910.572	306.38
910.808	374.38
911.045	345.38
911.281	332.38
911.518	409.38
911.754	347.38
911.99	364.38
912.226	334.38
912.463	338.38
912.699	336.38
912.935	352.38
913.171	333.38
913.407	333.38
913.643	396.38
913.879	361.38
914.114	364.38
914.35	336.38
914.586	375.38
914.822	333.38
915.057	442.38
915.293	332.38
915.529	336.38
915.764	403.38
916	391.38
916.235	371.38
916.471	400.38
916.706	308.38
916.941	345.38
917.177	356.38
917.412	386.38
917.647	390.38
917.882	337.38
918.117	402.38
918.352	379.38
918.588	424.38
918.823	360.38
919.057	374.38
919.292	291.38
919.527	432.38
919.762	363.38
919.997	437.38
920.232	373.38
920.466	429.38
920.701	317.38
920.935	388.38
921.17	369.38
921.405	337.38
921.639	411.38
921.873	377.38
922.108	405.38
922.342	399.38
922.576	341.38
922.811	347.38
923.045	406.38
923.279	429.38
923.513	309.38
923.747	408.38
923.981	401.38
924.215	363.38
924.449	364.38
924.683	331.38
924.917	359.38
925.151	354.38
925.385	428.38
925.618	390.38
925.852	403.38
926.086	321.38
926.319	387.38
926.553	385.38
926.786	380.38
927.02	361.38
927.253	410.38
927.486	413.38
927.72	346.38
927.953	415.38
928.186	370.38
928.42	400.38
928.653	366.38
928.886	350.38
929.119	401.38
929.352	367.38
929.585	399.38
929.818	359.38
930.051	399.38
930.284	412.38
930.516	339.38
930.749	362.38
930.982	417.38
931.215	411.38
931.447	338.38
931.68	374.38
931.912	356.38
932.145	356.38
932.377	393.38
932.61	508.38
932.842	314.38
933.074	397.38
933.307	347.38
933.539	446.38
933.771	431.38
934.003	372.38
934.236	446.38
934.468	454.38
934.7	367.38
934.932	407.38
935.164	363.38
935.395	348.38
935.627	390.38
935.859	404.38
936.091	347.38
936.323	398.38
936.554	456.38
936.786	396.38
937.017	337.38
937.249	402.38
937.481	329.38
937.712	403.38
937.943	391.38
938.175	377.38
938.406	378.38
938.637	450.38
938.869	333.38
939.1	420.38
939.331	380.38
939.562	409.38
939.793	399.38
940.024	417.38
940.255	440.38
940.486	397.38
940.717	406.38
940.948	402.38
941.179	371.38
941.409	384.38
941.64	366.38
941.871	395.38
942.102	377.38
942.332	381.38
942.563	412.38
942.793	402.38
943.024	339.38
943.254	379.38
943.484	427.38
943.715	440.38
943.945	407.38
944.175	345.38
944.405	336.38
944.636	335.38
944.866	388.38
945.096	398.38
945.326	345.38
945.556	404.38
945.786	424.38
946.016	380.38
946.245	341.38
946.475	375.38
946.705	381.38
946.935	392.38
947.164	401.38
947.394	353.38
947.624	403.38
947.853	432.38
948.083	410.38
948.312	391.38
948.542	350.38
948.771	338.38
949	363.38
949.23	380.38
949.459	382.38
949.688	447.38
949.917	392.38
950.146	395.38
950.375	463.38
950.604	358.38
950.833	470.38
951.062	443.38
951.291	394.38
951.52	386.38
951.749	400.38
951.978	366.38
952.206	378.38
952.435	368.38
952.664	416.38
952.892	416.38
953.121	409.38
953.349	447.38
953.578	427.38
953.806	416.38
954.035	378.38
954.263	407.38
954.491	375.38
954.719	440.38
954.948	381.38
955.176	386.38
955.404	336.38
955.632	411.38
955.86	423.38
956.088	415.38
956.316	434.38
956.544	479.38
956.772	414.38
956.999	410.38
957.227	483.38
957.455	401.38
957.683	435.38
957.91	393.38
958.138	392.38
958.365	407.38
958.593	407.38
958.82	365.38
959.048	437.38
959.275	414.38
959.502	408.38
959.73	379.38
959.957	429.38
960.184	456.38
960.411	395.38
960.638	470.38
960.865	419.38
961.092	454.38
961.319	363.38
961.546	451.38
961.773	457.38
962	408.38
962.227	471.38
962.454	439.38
962.68	426.38
962.907	454.38
963.134	419.38
963.36	428.38
963.587	477.38
963.813	424.38
964.04	470.38
964.266	422.38
964.493	514.38
964.719	478.38
964.945	501.38
965.171	402.38
965.398	464.38
965.624	485.38
965.85	426.38
966.076	437.38
966.302	482.38
966.528	444.38
966.754	489.38
966.98	473.38
967.206	478.38
967.431	413.38
967.657	513.38
967.883	494.38
968.109	475.38
968.334	426.38
968.56	418.38
968.785	452.38
969.011	401.38
969.236	493.38
969.462	415.38
969.687	443.38
969.912	489.38
970.138	520.38
970.363	425.38
970.588	465.38
970.813	441.38
971.038	438.38
971.263	473.38
971.488	488.38
971.713	532.38
971.938	501.38
972.163	412.38
972.388	461.38
972.613	447.38
972.838	460.38
973.062	459.38
973.287	463.38
973.512	407.38
973.736	453.38
973.961	444.38
974.185	432.38
974.41	469.38
974.634	400.38
974.858	435.38
975.083	481.38
975.307	479.38
975.531	454.38
975.755	392.38
975.98	415.38
976.204	384.38
976.428	406.38
976.652	413.38
976.876	389.38
977.1	446.38
977.324	418.38
977.547	461.38
977.771	463.38
977.995	442.38
978.219	393.38
978.442	508.38
978.666	464.38
978.89	461.38
979.113	434.38
979.337	455.38
979.56	409.38
979.783	511.38
980.007	401.38
980.23	455.38
980.453	417.38
980.677	455.38
980.9	459.38
981.123	364.38
981.346	471.38
981.569	464.38
981.792	485.38
982.015	452.38
982.238	421.38
982.461	452.38
982.684	428.38
982.907	424.38
983.129	431.38
983.352	483.38
983.575	475.38
983.797	482.38
984.02	436.38
984.242	443.38
984.465	459.38
984.687	493.38
984.91	513.38
985.132	489.38
985.354	505.38
985.577	488.38
985.799	480.38
986.021	409.38
986.243	453.38
986.465	479.38
986.687	518.38
986.909	554.38
987.131	494.38
987.353	471.38
987.575	502.38
987.797	475.38
988.019	417.38
988.241	486.38
988.462	448.38
988.684	514.38
988.906	543.38
989.127	563.38
989.349	455.38
989.57	504.38
989.792	531.38
990.013	542.38
990.234	541.38
990.456	566.38
990.677	544.38
990.898	517.38
991.119	506.38
991.341	551.38
991.562	490.38
991.783	542.38
992.004	481.38
992.225	462.38
992.446	531.38
992.667	450.38
992.887	556.38
993.108	444.38
993.329	573.38
993.55	547.38
993.77	478.38
993.991	490.38
994.212	540.38
994.432	524.38
994.653	548.38
994.873	554.38
995.093	447.38
995.314	509.38
995.534	568.38
995.754	580.38
995.975	605.38
996.195	497.38
996.415	554.38
996.635	533.38
996.855	553.38
997.075	523.38
997.295	517.38
997.515	517.38
997.735	565.38
997.955	546.38
998.174	546.38
998.394	514.38
998.614	565.38
998.834	531.38
999.053	601.38
999.273	577.38
999.492	633.38
999.712	566.38
999.931	536.38
1000.151	573.38
1000.37	593.38
1000.589	646.38
1000.809	565.38
1001.028	694.38
1001.247	647.38
1001.466	531.38
1001.685	694.38
1001.904	627.38
1002.123	621.38
1002.342	629.38
1002.561	587.38
1002.78	617.38
1002.999	696.38
1003.218	625.38
1003.436	649.38
1003.655	668.38
1003.874	612.38
1004.092	637.38
1004.311	689.38
1004.53	655.38
1004.748	744.38
1004.966	656.38
1005.185	712.38
1005.403	700.38
1005.622	684.38
1005.84	748.38
1006.058	658.38
1006.276	665.38
1006.494	1185.38
1006.712	681.38
1006.931	734.38
1007.149	656.38
1007.367	651.38
1007.584	680.38
1007.802	717.38
1008.02	653.38
1008.238	739.38
1008.456	718.38
1008.673	576.38
1008.891	679.38
1009.109	628.38
1009.326	635.38
1009.544	722.38
1009.761	597.38
1009.979	641.38
1010.196	639.38
1010.413	667.38
1010.631	701.38
1010.848	673.38
1011.065	667.38
1011.282	607.38
1011.5	560.38
1011.717	693.38
1011.934	632.38
1012.151	671.38
1012.368	661.38
1012.585	582.38
1012.801	646.38
1013.018	617.38
1013.235	578.38
1013.452	584.38
1013.669	608.38
1013.885	583.38
1014.102	621.38
1014.318	565.38
1014.535	523.38
1014.751	573.38
1014.968	566.38
1015.184	613.38
1015.401	527.38
1015.617	570.38
1015.833	538.38
1016.049	548.38
1016.266	537.38
1016.482	552.38
1016.698	500.38
1016.914	558.38
1017.13	525.38
1017.346	522.38
1017.562	591.38
1017.778	525.38
1017.993	490.38
1018.209	563.38
1018.425	543.38
1018.641	498.38
1018.856	471.38
1019.072	508.38
1019.288	547.38
1019.503	512.38
1019.719	431.38
1019.934	460.38
1020.149	547.38
1020.365	496.38
1020.58	453.38
1020.795	536.38
1021.011	491.38
1021.226	504.38
1021.441	548.38
1021.656	501.38
1021.871	458.38
1022.086	456.38
1022.301	476.38
1022.516	473.38
1022.731	527.38
1022.946	473.38
1023.16	462.38
1023.375	444.38
1023.59	459.38
1023.804	416.38
1024.019	548.38
1024.234	431.38
1024.448	482.38
1024.663	422.38
1024.877	437.38
1025.092	477.38
1025.306	497.38
1025.52	403.38
1025.734	504.38
1025.949	444.38
1026.163	436.38
1026.377	383.38
1026.591	458.38
1026.805	385.38
1027.019	387.38
1027.233	358.38
1027.447	314.38
1027.661	424.38
1027.875	387.38
1028.088	396.38
1028.302	340.38
1028.516	346.38
1028.73	362.38
1028.943	370.38
1029.157	335.38
1029.37	331.38
1029.584	0.38
1029.797	-3.62
1030.011	-6.62
1030.224	-0.62
