Data from QEP037381__24__10-16-11-060.txt Node

Date: Fri Apr 21 10:16:11 EDT 2023
User: dcclab
Spectrometer: QEP03738
Trigger mode: 4
Integration Time (sec): 1.000000E1
Scans to average: 1
Electric dark correction enabled: true
Nonlinearity correction enabled: false
Boxcar width: 0
XAxis mode: Wavelengths
Number of Pixels in Spectrum: 1044
>>>>>Begin Spectral Data<<<<<
784.041	9.38
784.3	6.38
784.558	-4.62
784.817	-1.62
785.075	238.38
785.334	212.38
785.592	214.38
785.851	195.38
786.109	233.38
786.368	244.38
786.626	262.38
786.884	280.38
787.143	265.38
787.401	210.38
787.659	269.38
787.917	244.38
788.175	296.38
788.433	273.38
788.691	270.38
788.949	278.38
789.207	306.38
789.465	258.38
789.723	279.38
789.98	259.38
790.238	322.38
790.496	299.38
790.753	286.38
791.011	347.38
791.268	312.38
791.526	300.38
791.783	324.38
792.041	311.38
792.298	237.38
792.556	318.38
792.813	309.38
793.07	292.38
793.327	297.38
793.584	374.38
793.841	297.38
794.099	323.38
794.356	389.38
794.613	290.38
794.869	330.38
795.126	284.38
795.383	295.38
795.64	306.38
795.897	262.38
796.153	326.38
796.41	315.38
796.667	300.38
796.923	305.38
797.18	294.38
797.436	318.38
797.693	283.38
797.949	336.38
798.206	364.38
798.462	275.38
798.718	329.38
798.974	304.38
799.231	352.38
799.487	318.38
799.743	317.38
799.999	341.38
800.255	318.38
800.511	303.38
800.767	339.38
801.023	287.38
801.279	314.38
801.534	329.38
801.79	338.38
802.046	292.38
802.302	349.38
802.557	336.38
802.813	348.38
803.068	283.38
803.324	351.38
803.579	311.38
803.835	301.38
804.09	355.38
804.345	296.38
804.601	270.38
804.856	310.38
805.111	319.38
805.366	303.38
805.621	312.38
805.876	322.38
806.131	317.38
806.386	301.38
806.641	282.38
806.896	298.38
807.151	379.38
807.406	313.38
807.661	326.38
807.915	323.38
808.17	331.38
808.425	336.38
808.679	285.38
808.934	372.38
809.188	306.38
809.443	326.38
809.697	376.38
809.951	298.38
810.206	314.38
810.46	345.38
810.714	331.38
810.968	359.38
811.223	287.38
811.477	331.38
811.731	345.38
811.985	258.38
812.239	234.38
812.493	288.38
812.747	320.38
813	272.38
813.254	331.38
813.508	358.38
813.762	302.38
814.015	306.38
814.269	316.38
814.522	338.38
814.776	336.38
815.03	339.38
815.283	340.38
815.536	346.38
815.79	340.38
816.043	333.38
816.296	323.38
816.55	317.38
816.803	316.38
817.056	413.38
817.309	346.38
817.562	339.38
817.815	368.38
818.068	285.38
818.321	301.38
818.574	287.38
818.827	344.38
819.079	273.38
819.332	412.38
819.585	345.38
819.838	403.38
820.09	298.38
820.343	361.38
820.595	284.38
820.848	335.38
821.1	342.38
821.353	329.38
821.605	321.38
821.857	372.38
822.11	282.38
822.362	293.38
822.614	288.38
822.866	332.38
823.118	272.38
823.37	372.38
823.622	310.38
823.874	310.38
824.126	347.38
824.378	284.38
824.63	315.38
824.882	339.38
825.134	316.38
825.385	355.38
825.637	327.38
825.888	307.38
826.14	317.38
826.392	299.38
826.643	300.38
826.895	379.38
827.146	313.38
827.397	307.38
827.649	387.38
827.9	298.38
828.151	279.38
828.402	290.38
828.653	324.38
828.905	335.38
829.156	363.38
829.407	295.38
829.658	324.38
829.909	360.38
830.159	337.38
830.41	348.38
830.661	357.38
830.912	337.38
831.162	320.38
831.413	307.38
831.664	349.38
831.914	328.38
832.165	338.38
832.415	338.38
832.666	338.38
832.916	345.38
833.167	307.38
833.417	386.38
833.667	351.38
833.917	345.38
834.168	380.38
834.418	345.38
834.668	330.38
834.918	283.38
835.168	310.38
835.418	264.38
835.668	328.38
835.918	348.38
836.167	350.38
836.417	282.38
836.667	363.38
836.917	361.38
837.166	329.38
837.416	366.38
837.666	372.38
837.915	337.38
838.165	334.38
838.414	295.38
838.663	269.38
838.913	337.38
839.162	295.38
839.411	383.38
839.661	310.38
839.91	342.38
840.159	305.38
840.408	335.38
840.657	319.38
840.906	340.38
841.155	372.38
841.404	315.38
841.653	341.38
841.902	299.38
842.15	333.38
842.399	342.38
842.648	329.38
842.897	348.38
843.145	288.38
843.394	296.38
843.642	320.38
843.891	365.38
844.139	340.38
844.388	299.38
844.636	274.38
844.884	321.38
845.133	291.38
845.381	326.38
845.629	353.38
845.877	297.38
846.125	308.38
846.373	324.38
846.621	301.38
846.869	354.38
847.117	346.38
847.365	321.38
847.613	343.38
847.861	353.38
848.108	372.38
848.356	348.38
848.604	306.38
848.851	347.38
849.099	336.38
849.346	317.38
849.594	346.38
849.841	364.38
850.089	307.38
850.336	292.38
850.583	302.38
850.831	327.38
851.078	338.38
851.325	293.38
851.572	376.38
851.819	355.38
852.066	330.38
852.313	316.38
852.56	283.38
852.807	293.38
853.054	295.38
853.301	312.38
853.548	302.38
853.794	398.38
854.041	326.38
854.288	280.38
854.534	414.38
854.781	319.38
855.028	302.38
855.274	388.38
855.52	342.38
855.767	309.38
856.013	351.38
856.26	634.38
856.506	311.38
856.752	351.38
856.998	333.38
857.244	307.38
857.49	352.38
857.736	343.38
857.982	350.38
858.228	359.38
858.474	290.38
858.72	342.38
858.966	352.38
859.212	345.38
859.458	338.38
859.703	356.38
859.949	310.38
860.195	359.38
860.44	361.38
860.686	317.38
860.931	392.38
861.177	318.38
861.422	367.38
861.667	326.38
861.913	333.38
862.158	346.38
862.403	370.38
862.648	361.38
862.893	394.38
863.138	341.38
863.384	301.38
863.629	352.38
863.873	347.38
864.118	331.38
864.363	274.38
864.608	356.38
864.853	371.38
865.098	336.38
865.342	346.38
865.587	314.38
865.832	368.38
866.076	369.38
866.321	325.38
866.565	338.38
866.81	271.38
867.054	329.38
867.298	341.38
867.543	302.38
867.787	366.38
868.031	331.38
868.275	345.38
868.519	327.38
868.764	341.38
869.008	322.38
869.252	362.38
869.496	349.38
869.739	336.38
869.983	381.38
870.227	365.38
870.471	305.38
870.715	366.38
870.958	351.38
871.202	303.38
871.446	326.38
871.689	307.38
871.933	346.38
872.176	347.38
872.42	325.38
872.663	331.38
872.906	372.38
873.15	336.38
873.393	289.38
873.636	383.38
873.879	360.38
874.122	394.38
874.366	348.38
874.609	367.38
874.852	333.38
875.095	361.38
875.337	320.38
875.58	275.38
875.823	340.38
876.066	384.38
876.309	401.38
876.551	312.38
876.794	302.38
877.037	376.38
877.279	308.38
877.522	323.38
877.764	374.38
878.007	320.38
878.249	361.38
878.491	303.38
878.734	368.38
878.976	363.38
879.218	303.38
879.46	384.38
879.702	378.38
879.945	353.38
880.187	345.38
880.429	380.38
880.671	385.38
880.912	383.38
881.154	371.38
881.396	280.38
881.638	349.38
881.88	346.38
882.121	307.38
882.363	340.38
882.605	385.38
882.846	362.38
883.088	361.38
883.329	319.38
883.571	309.38
883.812	316.38
884.053	324.38
884.295	324.38
884.536	400.38
884.777	314.38
885.018	351.38
885.259	354.38
885.5	301.38
885.742	517.38
885.982	384.38
886.223	306.38
886.464	329.38
886.705	294.38
886.946	346.38
887.187	290.38
887.428	384.38
887.668	317.38
887.909	319.38
888.15	300.38
888.39	367.38
888.631	406.38
888.871	378.38
889.111	369.38
889.352	361.38
889.592	327.38
889.833	354.38
890.073	349.38
890.313	402.38
890.553	300.38
890.793	345.38
891.033	334.38
891.273	323.38
891.513	356.38
891.753	414.38
891.993	352.38
892.233	375.38
892.473	429.38
892.713	362.38
892.952	318.38
893.192	361.38
893.432	334.38
893.671	382.38
893.911	338.38
894.15	361.38
894.39	294.38
894.629	330.38
894.869	370.38
895.108	355.38
895.347	327.38
895.587	370.38
895.826	319.38
896.065	319.38
896.304	373.38
896.543	382.38
896.782	303.38
897.021	358.38
897.26	354.38
897.499	388.38
897.738	395.38
897.977	359.38
898.216	351.38
898.454	348.38
898.693	342.38
898.932	381.38
899.17	350.38
899.409	362.38
899.647	351.38
899.886	334.38
900.124	369.38
900.363	323.38
900.601	360.38
900.839	350.38
901.078	363.38
901.316	368.38
901.554	350.38
901.792	357.38
902.03	309.38
902.268	339.38
902.506	393.38
902.744	338.38
902.982	397.38
903.22	331.38
903.458	332.38
903.695	374.38
903.933	376.38
904.171	319.38
904.409	342.38
904.646	373.38
904.884	345.38
905.121	418.38
905.359	387.38
905.596	381.38
905.833	349.38
906.071	338.38
906.308	398.38
906.545	381.38
906.783	313.38
907.02	363.38
907.257	304.38
907.494	340.38
907.731	376.38
907.968	380.38
908.205	335.38
908.442	342.38
908.679	376.38
908.915	358.38
909.152	376.38
909.389	300.38
909.626	357.38
909.862	327.38
910.099	361.38
910.335	410.38
910.572	318.38
910.808	372.38
911.045	343.38
911.281	335.38
911.518	416.38
911.754	345.38
911.99	360.38
912.226	335.38
912.463	304.38
912.699	351.38
912.935	347.38
913.171	342.38
913.407	334.38
913.643	398.38
913.879	377.38
914.114	363.38
914.35	339.38
914.586	352.38
914.822	325.38
915.057	433.38
915.293	311.38
915.529	337.38
915.764	412.38
916	393.38
916.235	373.38
916.471	395.38
916.706	308.38
916.941	354.38
917.177	351.38
917.412	391.38
917.647	394.38
917.882	333.38
918.117	412.38
918.352	363.38
918.588	424.38
918.823	362.38
919.057	371.38
919.292	287.38
919.527	412.38
919.762	347.38
919.997	439.38
920.232	366.38
920.466	415.38
920.701	325.38
920.935	380.38
921.17	369.38
921.405	340.38
921.639	400.38
921.873	380.38
922.108	393.38
922.342	397.38
922.576	333.38
922.811	346.38
923.045	401.38
923.279	421.38
923.513	301.38
923.747	403.38
923.981	394.38
924.215	364.38
924.449	374.38
924.683	333.38
924.917	364.38
925.151	360.38
925.385	434.38
925.618	383.38
925.852	383.38
926.086	329.38
926.319	383.38
926.553	369.38
926.786	398.38
927.02	366.38
927.253	415.38
927.486	408.38
927.72	337.38
927.953	406.38
928.186	379.38
928.42	411.38
928.653	353.38
928.886	365.38
929.119	390.38
929.352	379.38
929.585	382.38
929.818	358.38
930.051	388.38
930.284	426.38
930.516	330.38
930.749	360.38
930.982	416.38
931.215	402.38
931.447	348.38
931.68	365.38
931.912	351.38
932.145	366.38
932.377	388.38
932.61	509.38
932.842	320.38
933.074	389.38
933.307	344.38
933.539	435.38
933.771	420.38
934.003	369.38
934.236	438.38
934.468	458.38
934.7	376.38
934.932	421.38
935.164	361.38
935.395	359.38
935.627	387.38
935.859	405.38
936.091	338.38
936.323	418.38
936.554	442.38
936.786	380.38
937.017	341.38
937.249	403.38
937.481	331.38
937.712	404.38
937.943	382.38
938.175	379.38
938.406	374.38
938.637	437.38
938.869	334.38
939.1	413.38
939.331	355.38
939.562	413.38
939.793	388.38
940.024	424.38
940.255	430.38
940.486	389.38
940.717	400.38
940.948	401.38
941.179	362.38
941.409	401.38
941.64	369.38
941.871	394.38
942.102	367.38
942.332	370.38
942.563	401.38
942.793	389.38
943.024	332.38
943.254	373.38
943.484	424.38
943.715	422.38
943.945	397.38
944.175	339.38
944.405	324.38
944.636	345.38
944.866	381.38
945.096	417.38
945.326	333.38
945.556	406.38
945.786	424.38
946.016	376.38
946.245	343.38
946.475	377.38
946.705	378.38
946.935	400.38
947.164	407.38
947.394	362.38
947.624	398.38
947.853	437.38
948.083	404.38
948.312	381.38
948.542	344.38
948.771	332.38
949	356.38
949.23	372.38
949.459	372.38
949.688	455.38
949.917	391.38
950.146	401.38
950.375	456.38
950.604	353.38
950.833	446.38
951.062	439.38
951.291	394.38
951.52	368.38
951.749	395.38
951.978	353.38
952.206	380.38
952.435	361.38
952.664	408.38
952.892	426.38
953.121	405.38
953.349	458.38
953.578	431.38
953.806	407.38
954.035	375.38
954.263	419.38
954.491	347.38
954.719	425.38
954.948	394.38
955.176	375.38
955.404	331.38
955.632	409.38
955.86	428.38
956.088	415.38
956.316	445.38
956.544	460.38
956.772	413.38
956.999	393.38
957.227	496.38
957.455	407.38
957.683	432.38
957.91	399.38
958.138	394.38
958.365	403.38
958.593	406.38
958.82	360.38
959.048	445.38
959.275	413.38
959.502	421.38
959.73	387.38
959.957	413.38
960.184	449.38
960.411	385.38
960.638	480.38
960.865	408.38
961.092	471.38
961.319	363.38
961.546	452.38
961.773	458.38
962	432.38
962.227	467.38
962.454	435.38
962.68	442.38
962.907	449.38
963.134	405.38
963.36	439.38
963.587	480.38
963.813	421.38
964.04	466.38
964.266	420.38
964.493	514.38
964.719	457.38
964.945	493.38
965.171	383.38
965.398	461.38
965.624	501.38
965.85	425.38
966.076	431.38
966.302	489.38
966.528	441.38
966.754	475.38
966.98	478.38
967.206	488.38
967.431	403.38
967.657	497.38
967.883	490.38
968.109	485.38
968.334	431.38
968.56	434.38
968.785	458.38
969.011	416.38
969.236	478.38
969.462	434.38
969.687	443.38
969.912	503.38
970.138	510.38
970.363	431.38
970.588	471.38
970.813	452.38
971.038	434.38
971.263	482.38
971.488	493.38
971.713	511.38
971.938	499.38
972.163	418.38
972.388	446.38
972.613	447.38
972.838	463.38
973.062	452.38
973.287	454.38
973.512	408.38
973.736	469.38
973.961	455.38
974.185	432.38
974.41	491.38
974.634	393.38
974.858	417.38
975.083	476.38
975.307	487.38
975.531	447.38
975.755	404.38
975.98	434.38
976.204	383.38
976.428	388.38
976.652	407.38
976.876	406.38
977.1	435.38
977.324	408.38
977.547	441.38
977.771	462.38
977.995	436.38
978.219	393.38
978.442	508.38
978.666	446.38
978.89	452.38
979.113	452.38
979.337	437.38
979.56	422.38
979.783	514.38
980.007	408.38
980.23	450.38
980.453	409.38
980.677	477.38
980.9	449.38
981.123	374.38
981.346	470.38
981.569	460.38
981.792	487.38
982.015	443.38
982.238	422.38
982.461	453.38
982.684	432.38
982.907	434.38
983.129	415.38
983.352	484.38
983.575	466.38
983.797	472.38
984.02	437.38
984.242	442.38
984.465	451.38
984.687	478.38
984.91	521.38
985.132	496.38
985.354	506.38
985.577	483.38
985.799	482.38
986.021	429.38
986.243	440.38
986.465	473.38
986.687	532.38
986.909	563.38
987.131	480.38
987.353	472.38
987.575	500.38
987.797	454.38
988.019	413.38
988.241	470.38
988.462	446.38
988.684	508.38
988.906	540.38
989.127	554.38
989.349	448.38
989.57	487.38
989.792	542.38
990.013	527.38
990.234	564.38
990.456	582.38
990.677	557.38
990.898	506.38
991.119	503.38
991.341	550.38
991.562	489.38
991.783	532.38
992.004	473.38
992.225	465.38
992.446	524.38
992.667	437.38
992.887	546.38
993.108	456.38
993.329	565.38
993.55	537.38
993.77	469.38
993.991	503.38
994.212	525.38
994.432	529.38
994.653	538.38
994.873	557.38
995.093	446.38
995.314	481.38
995.534	578.38
995.754	574.38
995.975	613.38
996.195	499.38
996.415	574.38
996.635	537.38
996.855	543.38
997.075	532.38
997.295	522.38
997.515	517.38
997.735	578.38
997.955	533.38
998.174	530.38
998.394	519.38
998.614	563.38
998.834	526.38
999.053	594.38
999.273	568.38
999.492	621.38
999.712	558.38
999.931	516.38
1000.151	579.38
1000.37	572.38
1000.589	629.38
1000.809	574.38
1001.028	699.38
1001.247	623.38
1001.466	529.38
1001.685	693.38
1001.904	633.38
1002.123	628.38
1002.342	631.38
1002.561	599.38
1002.78	637.38
1002.999	689.38
1003.218	645.38
1003.436	640.38
1003.655	665.38
1003.874	618.38
1004.092	649.38
1004.311	691.38
1004.53	657.38
1004.748	731.38
1004.966	647.38
1005.185	730.38
1005.403	704.38
1005.622	694.38
1005.84	746.38
1006.058	661.38
1006.276	677.38
1006.494	1186.38
1006.712	687.38
1006.931	734.38
1007.149	643.38
1007.367	657.38
1007.584	681.38
1007.802	708.38
1008.02	652.38
1008.238	737.38
1008.456	719.38
1008.673	587.38
1008.891	698.38
1009.109	633.38
1009.326	642.38
1009.544	713.38
1009.761	589.38
1009.979	666.38
1010.196	621.38
1010.413	656.38
1010.631	663.38
1010.848	674.38
1011.065	672.38
1011.282	627.38
1011.5	569.38
1011.717	688.38
1011.934	624.38
1012.151	657.38
1012.368	654.38
1012.585	601.38
1012.801	647.38
1013.018	612.38
1013.235	590.38
1013.452	598.38
1013.669	597.38
1013.885	570.38
1014.102	595.38
1014.318	565.38
1014.535	532.38
1014.751	578.38
1014.968	579.38
1015.184	629.38
1015.401	536.38
1015.617	577.38
1015.833	526.38
1016.049	548.38
1016.266	530.38
1016.482	562.38
1016.698	495.38
1016.914	556.38
1017.13	509.38
1017.346	519.38
1017.562	587.38
1017.778	526.38
1017.993	497.38
1018.209	550.38
1018.425	519.38
1018.641	480.38
1018.856	452.38
1019.072	508.38
1019.288	548.38
1019.503	498.38
1019.719	436.38
1019.934	461.38
1020.149	548.38
1020.365	508.38
1020.58	459.38
1020.795	533.38
1021.011	503.38
1021.226	506.38
1021.441	546.38
1021.656	495.38
1021.871	441.38
1022.086	472.38
1022.301	474.38
1022.516	478.38
1022.731	520.38
1022.946	472.38
1023.16	461.38
1023.375	455.38
1023.59	450.38
1023.804	419.38
1024.019	552.38
1024.234	425.38
1024.448	481.38
1024.663	415.38
1024.877	440.38
1025.092	472.38
1025.306	487.38
1025.52	410.38
1025.734	506.38
1025.949	452.38
1026.163	442.38
1026.377	382.38
1026.591	454.38
1026.805	384.38
1027.019	392.38
1027.233	356.38
1027.447	315.38
1027.661	423.38
1027.875	392.38
1028.088	383.38
1028.302	338.38
1028.516	334.38
1028.73	348.38
1028.943	358.38
1029.157	333.38
1029.37	302.38
1029.584	-4.62
1029.797	-1.62
1030.011	-1.62
1030.224	-1.62
