Data from QEP037381__44__10-19-31-065.txt Node

Date: Fri Apr 21 10:19:31 EDT 2023
User: dcclab
Spectrometer: QEP03738
Trigger mode: 4
Integration Time (sec): 1.000000E1
Scans to average: 1
Electric dark correction enabled: true
Nonlinearity correction enabled: false
Boxcar width: 0
XAxis mode: Wavelengths
Number of Pixels in Spectrum: 1044
>>>>>Begin Spectral Data<<<<<
784.041	11.25
784.3	2.25
784.558	-3.75
784.817	-1.75
785.075	225.25
785.334	211.25
785.592	207.25
785.851	202.25
786.109	230.25
786.368	232.25
786.626	255.25
786.884	266.25
787.143	263.25
787.401	205.25
787.659	266.25
787.917	250.25
788.175	296.25
788.433	278.25
788.691	269.25
788.949	283.25
789.207	302.25
789.465	242.25
789.723	262.25
789.98	244.25
790.238	318.25
790.496	293.25
790.753	289.25
791.011	358.25
791.268	314.25
791.526	301.25
791.783	327.25
792.041	320.25
792.298	251.25
792.556	316.25
792.813	313.25
793.07	284.25
793.327	289.25
793.584	377.25
793.841	300.25
794.099	314.25
794.356	381.25
794.613	278.25
794.869	331.25
795.126	291.25
795.383	287.25
795.64	316.25
795.897	259.25
796.153	323.25
796.41	310.25
796.667	284.25
796.923	301.25
797.18	301.25
797.436	309.25
797.693	294.25
797.949	331.25
798.206	381.25
798.462	262.25
798.718	335.25
798.974	287.25
799.231	341.25
799.487	309.25
799.743	330.25
799.999	355.25
800.255	338.25
800.511	305.25
800.767	332.25
801.023	314.25
801.279	313.25
801.534	325.25
801.79	329.25
802.046	302.25
802.302	371.25
802.557	337.25
802.813	342.25
803.068	284.25
803.324	328.25
803.579	303.25
803.835	305.25
804.09	342.25
804.345	298.25
804.601	276.25
804.856	298.25
805.111	332.25
805.366	315.25
805.621	317.25
805.876	340.25
806.131	332.25
806.386	304.25
806.641	278.25
806.896	305.25
807.151	362.25
807.406	312.25
807.661	333.25
807.915	312.25
808.17	341.25
808.425	329.25
808.679	284.25
808.934	363.25
809.188	306.25
809.443	346.25
809.697	369.25
809.951	299.25
810.206	306.25
810.46	346.25
810.714	337.25
810.968	363.25
811.223	276.25
811.477	325.25
811.731	341.25
811.985	273.25
812.239	239.25
812.493	290.25
812.747	322.25
813	261.25
813.254	323.25
813.508	335.25
813.762	301.25
814.015	305.25
814.269	314.25
814.522	338.25
814.776	332.25
815.03	344.25
815.283	322.25
815.536	331.25
815.79	334.25
816.043	340.25
816.296	326.25
816.55	316.25
816.803	317.25
817.056	404.25
817.309	345.25
817.562	322.25
817.815	375.25
818.068	279.25
818.321	293.25
818.574	292.25
818.827	344.25
819.079	300.25
819.332	417.25
819.585	329.25
819.838	395.25
820.09	300.25
820.343	371.25
820.595	294.25
820.848	330.25
821.1	344.25
821.353	316.25
821.605	315.25
821.857	372.25
822.11	273.25
822.362	307.25
822.614	280.25
822.866	330.25
823.118	270.25
823.37	372.25
823.622	323.25
823.874	304.25
824.126	357.25
824.378	288.25
824.63	302.25
824.882	328.25
825.134	298.25
825.385	351.25
825.637	326.25
825.888	301.25
826.14	328.25
826.392	294.25
826.643	290.25
826.895	385.25
827.146	313.25
827.397	306.25
827.649	388.25
827.9	303.25
828.151	271.25
828.402	284.25
828.653	333.25
828.905	324.25
829.156	375.25
829.407	285.25
829.658	317.25
829.909	355.25
830.159	326.25
830.41	352.25
830.661	357.25
830.912	329.25
831.162	321.25
831.413	300.25
831.664	347.25
831.914	328.25
832.165	335.25
832.415	330.25
832.666	336.25
832.916	351.25
833.167	310.25
833.417	391.25
833.667	341.25
833.917	321.25
834.168	389.25
834.418	352.25
834.668	329.25
834.918	281.25
835.168	308.25
835.418	261.25
835.668	324.25
835.918	363.25
836.167	327.25
836.417	293.25
836.667	365.25
836.917	382.25
837.166	320.25
837.416	367.25
837.666	374.25
837.915	320.25
838.165	341.25
838.414	301.25
838.663	270.25
838.913	344.25
839.162	292.25
839.411	389.25
839.661	311.25
839.91	332.25
840.159	306.25
840.408	329.25
840.657	325.25
840.906	321.25
841.155	358.25
841.404	309.25
841.653	344.25
841.902	298.25
842.15	339.25
842.399	340.25
842.648	317.25
842.897	349.25
843.145	290.25
843.394	305.25
843.642	307.25
843.891	353.25
844.139	330.25
844.388	296.25
844.636	260.25
844.884	319.25
845.133	304.25
845.381	317.25
845.629	348.25
845.877	293.25
846.125	306.25
846.373	329.25
846.621	306.25
846.869	347.25
847.117	340.25
847.365	329.25
847.613	330.25
847.861	354.25
848.108	377.25
848.356	349.25
848.604	312.25
848.851	344.25
849.099	338.25
849.346	327.25
849.594	344.25
849.841	346.25
850.089	302.25
850.336	293.25
850.583	309.25
850.831	330.25
851.078	325.25
851.325	298.25
851.572	373.25
851.819	347.25
852.066	326.25
852.313	321.25
852.56	289.25
852.807	284.25
853.054	301.25
853.301	326.25
853.548	309.25
853.794	389.25
854.041	332.25
854.288	282.25
854.534	380.25
854.781	311.25
855.028	308.25
855.274	395.25
855.52	335.25
855.767	304.25
856.013	355.25
856.26	642.25
856.506	307.25
856.752	369.25
856.998	327.25
857.244	307.25
857.49	343.25
857.736	341.25
857.982	341.25
858.228	356.25
858.474	285.25
858.72	338.25
858.966	342.25
859.212	336.25
859.458	344.25
859.703	353.25
859.949	311.25
860.195	368.25
860.44	358.25
860.686	326.25
860.931	382.25
861.177	305.25
861.422	373.25
861.667	323.25
861.913	322.25
862.158	335.25
862.403	377.25
862.648	354.25
862.893	387.25
863.138	337.25
863.384	302.25
863.629	357.25
863.873	343.25
864.118	321.25
864.363	262.25
864.608	340.25
864.853	369.25
865.098	338.25
865.342	354.25
865.587	329.25
865.832	373.25
866.076	362.25
866.321	325.25
866.565	323.25
866.81	275.25
867.054	343.25
867.298	351.25
867.543	302.25
867.787	369.25
868.031	343.25
868.275	341.25
868.519	324.25
868.764	350.25
869.008	327.25
869.252	376.25
869.496	327.25
869.739	336.25
869.983	381.25
870.227	372.25
870.471	312.25
870.715	357.25
870.958	346.25
871.202	320.25
871.446	316.25
871.689	313.25
871.933	343.25
872.176	335.25
872.42	335.25
872.663	305.25
872.906	386.25
873.15	319.25
873.393	286.25
873.636	382.25
873.879	363.25
874.122	397.25
874.366	344.25
874.609	374.25
874.852	338.25
875.095	362.25
875.337	329.25
875.58	273.25
875.823	331.25
876.066	370.25
876.309	398.25
876.551	314.25
876.794	297.25
877.037	377.25
877.279	301.25
877.522	328.25
877.764	356.25
878.007	302.25
878.249	338.25
878.491	308.25
878.734	365.25
878.976	349.25
879.218	302.25
879.46	397.25
879.702	381.25
879.945	362.25
880.187	329.25
880.429	378.25
880.671	380.25
880.912	392.25
881.154	377.25
881.396	288.25
881.638	345.25
881.88	340.25
882.121	309.25
882.363	342.25
882.605	369.25
882.846	368.25
883.088	375.25
883.329	327.25
883.571	302.25
883.812	313.25
884.053	313.25
884.295	327.25
884.536	410.25
884.777	322.25
885.018	344.25
885.259	370.25
885.5	291.25
885.742	494.25
885.982	369.25
886.223	315.25
886.464	334.25
886.705	293.25
886.946	335.25
887.187	280.25
887.428	372.25
887.668	329.25
887.909	309.25
888.15	303.25
888.39	367.25
888.631	400.25
888.871	378.25
889.111	364.25
889.352	358.25
889.592	335.25
889.833	342.25
890.073	359.25
890.313	427.25
890.553	308.25
890.793	348.25
891.033	324.25
891.273	329.25
891.513	357.25
891.753	416.25
891.993	352.25
892.233	369.25
892.473	434.25
892.713	375.25
892.952	309.25
893.192	348.25
893.432	320.25
893.671	363.25
893.911	342.25
894.15	342.25
894.39	292.25
894.629	335.25
894.869	373.25
895.108	344.25
895.347	313.25
895.587	364.25
895.826	337.25
896.065	316.25
896.304	369.25
896.543	379.25
896.782	290.25
897.021	349.25
897.26	340.25
897.499	383.25
897.738	396.25
897.977	345.25
898.216	350.25
898.454	346.25
898.693	328.25
898.932	373.25
899.17	351.25
899.409	347.25
899.647	361.25
899.886	343.25
900.124	376.25
900.363	309.25
900.601	353.25
900.839	357.25
901.078	358.25
901.316	352.25
901.554	358.25
901.792	366.25
902.03	302.25
902.268	335.25
902.506	384.25
902.744	344.25
902.982	389.25
903.22	319.25
903.458	337.25
903.695	380.25
903.933	376.25
904.171	331.25
904.409	350.25
904.646	388.25
904.884	346.25
905.121	398.25
905.359	385.25
905.596	379.25
905.833	333.25
906.071	336.25
906.308	402.25
906.545	375.25
906.783	321.25
907.02	352.25
907.257	310.25
907.494	345.25
907.731	372.25
907.968	384.25
908.205	339.25
908.442	338.25
908.679	367.25
908.915	355.25
909.152	370.25
909.389	295.25
909.626	349.25
909.862	320.25
910.099	348.25
910.335	408.25
910.572	309.25
910.808	362.25
911.045	348.25
911.281	328.25
911.518	401.25
911.754	359.25
911.99	371.25
912.226	364.25
912.463	317.25
912.699	346.25
912.935	348.25
913.171	340.25
913.407	333.25
913.643	392.25
913.879	379.25
914.114	358.25
914.35	356.25
914.586	360.25
914.822	337.25
915.057	458.25
915.293	318.25
915.529	312.25
915.764	411.25
916	388.25
916.235	371.25
916.471	398.25
916.706	315.25
916.941	356.25
917.177	353.25
917.412	401.25
917.647	387.25
917.882	341.25
918.117	396.25
918.352	374.25
918.588	416.25
918.823	363.25
919.057	362.25
919.292	299.25
919.527	427.25
919.762	352.25
919.997	435.25
920.232	372.25
920.466	421.25
920.701	316.25
920.935	388.25
921.17	363.25
921.405	337.25
921.639	397.25
921.873	368.25
922.108	405.25
922.342	405.25
922.576	344.25
922.811	355.25
923.045	413.25
923.279	435.25
923.513	310.25
923.747	407.25
923.981	397.25
924.215	349.25
924.449	378.25
924.683	327.25
924.917	361.25
925.151	351.25
925.385	443.25
925.618	392.25
925.852	398.25
926.086	335.25
926.319	376.25
926.553	375.25
926.786	392.25
927.02	372.25
927.253	409.25
927.486	411.25
927.72	346.25
927.953	413.25
928.186	371.25
928.42	418.25
928.653	348.25
928.886	342.25
929.119	399.25
929.352	375.25
929.585	398.25
929.818	355.25
930.051	405.25
930.284	403.25
930.516	337.25
930.749	360.25
930.982	411.25
931.215	416.25
931.447	352.25
931.68	362.25
931.912	355.25
932.145	368.25
932.377	378.25
932.61	517.25
932.842	313.25
933.074	390.25
933.307	351.25
933.539	440.25
933.771	420.25
934.003	369.25
934.236	445.25
934.468	441.25
934.7	373.25
934.932	401.25
935.164	365.25
935.395	341.25
935.627	390.25
935.859	402.25
936.091	345.25
936.323	415.25
936.554	443.25
936.786	378.25
937.017	353.25
937.249	395.25
937.481	320.25
937.712	408.25
937.943	371.25
938.175	367.25
938.406	369.25
938.637	441.25
938.869	343.25
939.1	413.25
939.331	372.25
939.562	412.25
939.793	396.25
940.024	431.25
940.255	445.25
940.486	396.25
940.717	399.25
940.948	411.25
941.179	356.25
941.409	386.25
941.64	373.25
941.871	389.25
942.102	360.25
942.332	381.25
942.563	407.25
942.793	385.25
943.024	345.25
943.254	386.25
943.484	420.25
943.715	435.25
943.945	408.25
944.175	339.25
944.405	333.25
944.636	354.25
944.866	384.25
945.096	391.25
945.326	345.25
945.556	401.25
945.786	431.25
946.016	376.25
946.245	338.25
946.475	371.25
946.705	369.25
946.935	395.25
947.164	398.25
947.394	357.25
947.624	393.25
947.853	440.25
948.083	408.25
948.312	385.25
948.542	337.25
948.771	344.25
949	377.25
949.23	366.25
949.459	386.25
949.688	450.25
949.917	393.25
950.146	394.25
950.375	450.25
950.604	361.25
950.833	464.25
951.062	468.25
951.291	388.25
951.52	367.25
951.749	395.25
951.978	362.25
952.206	367.25
952.435	381.25
952.664	422.25
952.892	430.25
953.121	412.25
953.349	450.25
953.578	425.25
953.806	407.25
954.035	377.25
954.263	422.25
954.491	363.25
954.719	412.25
954.948	387.25
955.176	397.25
955.404	326.25
955.632	395.25
955.86	406.25
956.088	400.25
956.316	439.25
956.544	465.25
956.772	410.25
956.999	403.25
957.227	475.25
957.455	401.25
957.683	437.25
957.91	403.25
958.138	390.25
958.365	419.25
958.593	413.25
958.82	351.25
959.048	446.25
959.275	415.25
959.502	409.25
959.73	394.25
959.957	420.25
960.184	441.25
960.411	386.25
960.638	472.25
960.865	419.25
961.092	450.25
961.319	360.25
961.546	461.25
961.773	456.25
962	427.25
962.227	467.25
962.454	418.25
962.68	433.25
962.907	464.25
963.134	415.25
963.36	441.25
963.587	470.25
963.813	415.25
964.04	479.25
964.266	404.25
964.493	500.25
964.719	491.25
964.945	507.25
965.171	397.25
965.398	460.25
965.624	493.25
965.85	412.25
966.076	413.25
966.302	481.25
966.528	444.25
966.754	480.25
966.98	485.25
967.206	489.25
967.431	415.25
967.657	506.25
967.883	504.25
968.109	466.25
968.334	434.25
968.56	424.25
968.785	454.25
969.011	412.25
969.236	490.25
969.462	418.25
969.687	450.25
969.912	489.25
970.138	529.25
970.363	425.25
970.588	467.25
970.813	447.25
971.038	430.25
971.263	481.25
971.488	491.25
971.713	526.25
971.938	502.25
972.163	420.25
972.388	454.25
972.613	426.25
972.838	462.25
973.062	448.25
973.287	443.25
973.512	398.25
973.736	458.25
973.961	453.25
974.185	437.25
974.41	483.25
974.634	391.25
974.858	436.25
975.083	463.25
975.307	495.25
975.531	445.25
975.755	397.25
975.98	433.25
976.204	381.25
976.428	387.25
976.652	414.25
976.876	390.25
977.1	433.25
977.324	390.25
977.547	475.25
977.771	468.25
977.995	444.25
978.219	394.25
978.442	513.25
978.666	454.25
978.89	447.25
979.113	455.25
979.337	457.25
979.56	408.25
979.783	507.25
980.007	396.25
980.23	441.25
980.453	422.25
980.677	472.25
980.9	460.25
981.123	364.25
981.346	472.25
981.569	473.25
981.792	496.25
982.015	457.25
982.238	424.25
982.461	449.25
982.684	431.25
982.907	414.25
983.129	416.25
983.352	490.25
983.575	458.25
983.797	483.25
984.02	419.25
984.242	434.25
984.465	446.25
984.687	492.25
984.91	525.25
985.132	492.25
985.354	513.25
985.577	485.25
985.799	473.25
986.021	413.25
986.243	450.25
986.465	461.25
986.687	520.25
986.909	555.25
987.131	483.25
987.353	458.25
987.575	512.25
987.797	457.25
988.019	429.25
988.241	469.25
988.462	434.25
988.684	510.25
988.906	550.25
989.127	557.25
989.349	463.25
989.57	481.25
989.792	522.25
990.013	543.25
990.234	539.25
990.456	569.25
990.677	558.25
990.898	506.25
991.119	513.25
991.341	541.25
991.562	490.25
991.783	538.25
992.004	474.25
992.225	466.25
992.446	516.25
992.667	453.25
992.887	552.25
993.108	445.25
993.329	593.25
993.55	520.25
993.77	468.25
993.991	482.25
994.212	531.25
994.432	524.25
994.653	556.25
994.873	551.25
995.093	446.25
995.314	479.25
995.534	564.25
995.754	571.25
995.975	604.25
996.195	485.25
996.415	566.25
996.635	521.25
996.855	553.25
997.075	524.25
997.295	526.25
997.515	508.25
997.735	564.25
997.955	541.25
998.174	515.25
998.394	506.25
998.614	573.25
998.834	510.25
999.053	583.25
999.273	560.25
999.492	629.25
999.712	562.25
999.931	530.25
1000.151	593.25
1000.37	574.25
1000.589	628.25
1000.809	564.25
1001.028	693.25
1001.247	639.25
1001.466	541.25
1001.685	687.25
1001.904	629.25
1002.123	621.25
1002.342	642.25
1002.561	608.25
1002.78	635.25
1002.999	700.25
1003.218	633.25
1003.436	628.25
1003.655	676.25
1003.874	631.25
1004.092	652.25
1004.311	695.25
1004.53	650.25
1004.748	728.25
1004.966	644.25
1005.185	717.25
1005.403	719.25
1005.622	690.25
1005.84	761.25
1006.058	668.25
1006.276	677.25
1006.494	1172.25
1006.712	682.25
1006.931	727.25
1007.149	647.25
1007.367	656.25
1007.584	677.25
1007.802	686.25
1008.02	646.25
1008.238	740.25
1008.456	731.25
1008.673	560.25
1008.891	695.25
1009.109	615.25
1009.326	660.25
1009.544	707.25
1009.761	597.25
1009.979	668.25
1010.196	619.25
1010.413	673.25
1010.631	667.25
1010.848	673.25
1011.065	660.25
1011.282	602.25
1011.5	564.25
1011.717	665.25
1011.934	618.25
1012.151	687.25
1012.368	648.25
1012.585	593.25
1012.801	661.25
1013.018	599.25
1013.235	572.25
1013.452	608.25
1013.669	594.25
1013.885	553.25
1014.102	593.25
1014.318	563.25
1014.535	519.25
1014.751	555.25
1014.968	572.25
1015.184	613.25
1015.401	525.25
1015.617	585.25
1015.833	531.25
1016.049	544.25
1016.266	540.25
1016.482	562.25
1016.698	497.25
1016.914	548.25
1017.13	513.25
1017.346	521.25
1017.562	581.25
1017.778	514.25
1017.993	502.25
1018.209	550.25
1018.425	529.25
1018.641	490.25
1018.856	472.25
1019.072	517.25
1019.288	552.25
1019.503	498.25
1019.719	422.25
1019.934	452.25
1020.149	549.25
1020.365	502.25
1020.58	471.25
1020.795	533.25
1021.011	483.25
1021.226	500.25
1021.441	545.25
1021.656	485.25
1021.871	456.25
1022.086	458.25
1022.301	472.25
1022.516	474.25
1022.731	529.25
1022.946	469.25
1023.16	450.25
1023.375	442.25
1023.59	454.25
1023.804	434.25
1024.019	531.25
1024.234	419.25
1024.448	484.25
1024.663	432.25
1024.877	449.25
1025.092	485.25
1025.306	497.25
1025.52	407.25
1025.734	509.25
1025.949	446.25
1026.163	435.25
1026.377	388.25
1026.591	451.25
1026.805	395.25
1027.019	386.25
1027.233	358.25
1027.447	307.25
1027.661	422.25
1027.875	388.25
1028.088	402.25
1028.302	330.25
1028.516	337.25
1028.73	365.25
1028.943	358.25
1029.157	328.25
1029.37	301.25
1029.584	-4.75
1029.797	-3.75
1030.011	0.25
1030.224	0.25
