Data from QEP037381__26__10-16-31-062.txt Node

Date: Fri Apr 21 10:16:31 EDT 2023
User: dcclab
Spectrometer: QEP03738
Trigger mode: 4
Integration Time (sec): 1.000000E1
Scans to average: 1
Electric dark correction enabled: true
Nonlinearity correction enabled: false
Boxcar width: 0
XAxis mode: Wavelengths
Number of Pixels in Spectrum: 1044
>>>>>Begin Spectral Data<<<<<
784.041	13.62
784.3	-1.38
784.558	-3.38
784.817	-2.38
785.075	232.62
785.334	202.62
785.592	200.62
785.851	192.62
786.109	235.62
786.368	235.62
786.626	251.62
786.884	268.62
787.143	266.62
787.401	207.62
787.659	276.62
787.917	250.62
788.175	297.62
788.433	271.62
788.691	268.62
788.949	283.62
789.207	304.62
789.465	253.62
789.723	271.62
789.98	251.62
790.238	311.62
790.496	285.62
790.753	293.62
791.011	354.62
791.268	310.62
791.526	302.62
791.783	325.62
792.041	319.62
792.298	248.62
792.556	323.62
792.813	307.62
793.07	300.62
793.327	281.62
793.584	367.62
793.841	299.62
794.099	314.62
794.356	385.62
794.613	282.62
794.869	338.62
795.126	296.62
795.383	277.62
795.64	310.62
795.897	259.62
796.153	315.62
796.41	302.62
796.667	288.62
796.923	298.62
797.18	297.62
797.436	316.62
797.693	291.62
797.949	347.62
798.206	361.62
798.462	269.62
798.718	333.62
798.974	302.62
799.231	342.62
799.487	324.62
799.743	320.62
799.999	346.62
800.255	323.62
800.511	301.62
800.767	350.62
801.023	297.62
801.279	317.62
801.534	329.62
801.79	346.62
802.046	307.62
802.302	356.62
802.557	332.62
802.813	358.62
803.068	286.62
803.324	338.62
803.579	307.62
803.835	288.62
804.09	344.62
804.345	295.62
804.601	275.62
804.856	308.62
805.111	324.62
805.366	305.62
805.621	320.62
805.876	341.62
806.131	327.62
806.386	300.62
806.641	271.62
806.896	293.62
807.151	376.62
807.406	315.62
807.661	327.62
807.915	312.62
808.17	323.62
808.425	333.62
808.679	285.62
808.934	366.62
809.188	310.62
809.443	334.62
809.697	359.62
809.951	299.62
810.206	304.62
810.46	356.62
810.714	326.62
810.968	355.62
811.223	271.62
811.477	342.62
811.731	343.62
811.985	268.62
812.239	240.62
812.493	294.62
812.747	319.62
813	268.62
813.254	321.62
813.508	338.62
813.762	313.62
814.015	301.62
814.269	320.62
814.522	340.62
814.776	334.62
815.03	336.62
815.283	330.62
815.536	340.62
815.79	329.62
816.043	341.62
816.296	329.62
816.55	312.62
816.803	314.62
817.056	412.62
817.309	344.62
817.562	328.62
817.815	380.62
818.068	283.62
818.321	301.62
818.574	291.62
818.827	336.62
819.079	282.62
819.332	416.62
819.585	333.62
819.838	397.62
820.09	304.62
820.343	367.62
820.595	283.62
820.848	343.62
821.1	346.62
821.353	334.62
821.605	313.62
821.857	380.62
822.11	282.62
822.362	292.62
822.614	271.62
822.866	326.62
823.118	263.62
823.37	385.62
823.622	309.62
823.874	315.62
824.126	358.62
824.378	290.62
824.63	307.62
824.882	330.62
825.134	311.62
825.385	352.62
825.637	334.62
825.888	301.62
826.14	324.62
826.392	295.62
826.643	300.62
826.895	375.62
827.146	638.62
827.397	625.62
827.649	468.62
827.9	305.62
828.151	286.62
828.402	286.62
828.653	328.62
828.905	336.62
829.156	368.62
829.407	291.62
829.658	332.62
829.909	360.62
830.159	339.62
830.41	341.62
830.661	345.62
830.912	327.62
831.162	315.62
831.413	329.62
831.664	349.62
831.914	330.62
832.165	336.62
832.415	341.62
832.666	338.62
832.916	361.62
833.167	304.62
833.417	395.62
833.667	345.62
833.917	328.62
834.168	382.62
834.418	350.62
834.668	321.62
834.918	290.62
835.168	312.62
835.418	263.62
835.668	329.62
835.918	349.62
836.167	350.62
836.417	293.62
836.667	358.62
836.917	386.62
837.166	324.62
837.416	362.62
837.666	357.62
837.915	332.62
838.165	355.62
838.414	301.62
838.663	274.62
838.913	340.62
839.162	287.62
839.411	380.62
839.661	318.62
839.91	328.62
840.159	312.62
840.408	340.62
840.657	322.62
840.906	335.62
841.155	357.62
841.404	331.62
841.653	337.62
841.902	300.62
842.15	329.62
842.399	345.62
842.648	315.62
842.897	351.62
843.145	287.62
843.394	291.62
843.642	313.62
843.891	363.62
844.139	345.62
844.388	289.62
844.636	260.62
844.884	327.62
845.133	301.62
845.381	315.62
845.629	355.62
845.877	293.62
846.125	310.62
846.373	330.62
846.621	301.62
846.869	367.62
847.117	329.62
847.365	322.62
847.613	343.62
847.861	348.62
848.108	379.62
848.356	343.62
848.604	305.62
848.851	347.62
849.099	326.62
849.346	328.62
849.594	330.62
849.841	360.62
850.089	319.62
850.336	300.62
850.583	313.62
850.831	318.62
851.078	335.62
851.325	300.62
851.572	353.62
851.819	365.62
852.066	325.62
852.313	318.62
852.56	299.62
852.807	282.62
853.054	287.62
853.301	315.62
853.548	308.62
853.794	412.62
854.041	330.62
854.288	277.62
854.534	395.62
854.781	317.62
855.028	299.62
855.274	391.62
855.52	338.62
855.767	297.62
856.013	353.62
856.26	643.62
856.506	313.62
856.752	365.62
856.998	330.62
857.244	309.62
857.49	352.62
857.736	345.62
857.982	336.62
858.228	357.62
858.474	304.62
858.72	328.62
858.966	348.62
859.212	345.62
859.458	344.62
859.703	340.62
859.949	310.62
860.195	375.62
860.44	357.62
860.686	308.62
860.931	376.62
861.177	309.62
861.422	374.62
861.667	329.62
861.913	327.62
862.158	331.62
862.403	366.62
862.648	347.62
862.893	398.62
863.138	344.62
863.384	316.62
863.629	369.62
863.873	346.62
864.118	328.62
864.363	278.62
864.608	342.62
864.853	371.62
865.098	342.62
865.342	351.62
865.587	332.62
865.832	374.62
866.076	365.62
866.321	312.62
866.565	333.62
866.81	272.62
867.054	326.62
867.298	343.62
867.543	306.62
867.787	362.62
868.031	339.62
868.275	343.62
868.519	340.62
868.764	346.62
869.008	326.62
869.252	364.62
869.496	344.62
869.739	346.62
869.983	392.62
870.227	364.62
870.471	311.62
870.715	350.62
870.958	353.62
871.202	306.62
871.446	316.62
871.689	312.62
871.933	343.62
872.176	345.62
872.42	320.62
872.663	317.62
872.906	372.62
873.15	331.62
873.393	283.62
873.636	362.62
873.879	366.62
874.122	401.62
874.366	339.62
874.609	377.62
874.852	348.62
875.095	360.62
875.337	325.62
875.58	266.62
875.823	351.62
876.066	372.62
876.309	421.62
876.551	318.62
876.794	282.62
877.037	374.62
877.279	301.62
877.522	319.62
877.764	364.62
878.007	324.62
878.249	347.62
878.491	313.62
878.734	383.62
878.976	348.62
879.218	302.62
879.46	390.62
879.702	383.62
879.945	370.62
880.187	341.62
880.429	381.62
880.671	372.62
880.912	381.62
881.154	383.62
881.396	290.62
881.638	350.62
881.88	349.62
882.121	312.62
882.363	337.62
882.605	398.62
882.846	361.62
883.088	381.62
883.329	323.62
883.571	297.62
883.812	316.62
884.053	330.62
884.295	329.62
884.536	413.62
884.777	326.62
885.018	344.62
885.259	353.62
885.5	307.62
885.742	513.62
885.982	351.62
886.223	308.62
886.464	329.62
886.705	294.62
886.946	358.62
887.187	268.62
887.428	382.62
887.668	322.62
887.909	309.62
888.15	310.62
888.39	376.62
888.631	398.62
888.871	378.62
889.111	377.62
889.352	362.62
889.592	338.62
889.833	352.62
890.073	360.62
890.313	429.62
890.553	310.62
890.793	349.62
891.033	331.62
891.273	316.62
891.513	353.62
891.753	416.62
891.993	349.62
892.233	375.62
892.473	431.62
892.713	367.62
892.952	327.62
893.192	359.62
893.432	330.62
893.671	371.62
893.911	343.62
894.15	363.62
894.39	287.62
894.629	336.62
894.869	366.62
895.108	343.62
895.347	320.62
895.587	368.62
895.826	338.62
896.065	322.62
896.304	362.62
896.543	379.62
896.782	290.62
897.021	345.62
897.26	339.62
897.499	414.62
897.738	397.62
897.977	358.62
898.216	363.62
898.454	350.62
898.693	331.62
898.932	369.62
899.17	345.62
899.409	356.62
899.647	345.62
899.886	326.62
900.124	363.62
900.363	330.62
900.601	356.62
900.839	353.62
901.078	357.62
901.316	350.62
901.554	343.62
901.792	375.62
902.03	313.62
902.268	329.62
902.506	386.62
902.744	341.62
902.982	381.62
903.22	323.62
903.458	339.62
903.695	378.62
903.933	380.62
904.171	324.62
904.409	342.62
904.646	386.62
904.884	353.62
905.121	410.62
905.359	377.62
905.596	368.62
905.833	353.62
906.071	343.62
906.308	400.62
906.545	366.62
906.783	312.62
907.02	355.62
907.257	310.62
907.494	339.62
907.731	371.62
907.968	385.62
908.205	352.62
908.442	334.62
908.679	359.62
908.915	350.62
909.152	375.62
909.389	299.62
909.626	358.62
909.862	327.62
910.099	371.62
910.335	408.62
910.572	308.62
910.808	362.62
911.045	348.62
911.281	327.62
911.518	408.62
911.754	367.62
911.99	367.62
912.226	354.62
912.463	327.62
912.699	339.62
912.935	363.62
913.171	347.62
913.407	319.62
913.643	413.62
913.879	377.62
914.114	363.62
914.35	350.62
914.586	357.62
914.822	328.62
915.057	431.62
915.293	307.62
915.529	325.62
915.764	404.62
916	371.62
916.235	383.62
916.471	398.62
916.706	317.62
916.941	354.62
917.177	345.62
917.412	384.62
917.647	379.62
917.882	326.62
918.117	399.62
918.352	370.62
918.588	422.62
918.823	369.62
919.057	363.62
919.292	292.62
919.527	424.62
919.762	349.62
919.997	432.62
920.232	380.62
920.466	428.62
920.701	322.62
920.935	373.62
921.17	353.62
921.405	337.62
921.639	403.62
921.873	366.62
922.108	399.62
922.342	409.62
922.576	350.62
922.811	350.62
923.045	394.62
923.279	424.62
923.513	307.62
923.747	412.62
923.981	396.62
924.215	361.62
924.449	364.62
924.683	340.62
924.917	353.62
925.151	368.62
925.385	440.62
925.618	397.62
925.852	394.62
926.086	335.62
926.319	380.62
926.553	378.62
926.786	398.62
927.02	365.62
927.253	429.62
927.486	409.62
927.72	334.62
927.953	420.62
928.186	357.62
928.42	401.62
928.653	349.62
928.886	334.62
929.119	398.62
929.352	378.62
929.585	394.62
929.818	369.62
930.051	391.62
930.284	393.62
930.516	333.62
930.749	365.62
930.982	416.62
931.215	418.62
931.447	348.62
931.68	383.62
931.912	374.62
932.145	353.62
932.377	393.62
932.61	505.62
932.842	311.62
933.074	396.62
933.307	348.62
933.539	436.62
933.771	434.62
934.003	368.62
934.236	446.62
934.468	457.62
934.7	377.62
934.932	414.62
935.164	369.62
935.395	358.62
935.627	376.62
935.859	400.62
936.091	348.62
936.323	386.62
936.554	451.62
936.786	387.62
937.017	340.62
937.249	395.62
937.481	333.62
937.712	407.62
937.943	372.62
938.175	381.62
938.406	381.62
938.637	447.62
938.869	346.62
939.1	395.62
939.331	363.62
939.562	426.62
939.793	398.62
940.024	421.62
940.255	434.62
940.486	390.62
940.717	406.62
940.948	383.62
941.179	342.62
941.409	385.62
941.64	369.62
941.871	389.62
942.102	365.62
942.332	371.62
942.563	423.62
942.793	397.62
943.024	337.62
943.254	385.62
943.484	427.62
943.715	436.62
943.945	408.62
944.175	335.62
944.405	315.62
944.636	327.62
944.866	383.62
945.096	404.62
945.326	326.62
945.556	409.62
945.786	430.62
946.016	383.62
946.245	359.62
946.475	374.62
946.705	384.62
946.935	393.62
947.164	413.62
947.394	363.62
947.624	398.62
947.853	424.62
948.083	411.62
948.312	382.62
948.542	342.62
948.771	335.62
949	370.62
949.23	363.62
949.459	380.62
949.688	450.62
949.917	391.62
950.146	398.62
950.375	440.62
950.604	358.62
950.833	449.62
951.062	450.62
951.291	397.62
951.52	373.62
951.749	388.62
951.978	362.62
952.206	373.62
952.435	381.62
952.664	415.62
952.892	431.62
953.121	403.62
953.349	453.62
953.578	439.62
953.806	422.62
954.035	352.62
954.263	418.62
954.491	362.62
954.719	425.62
954.948	383.62
955.176	381.62
955.404	339.62
955.632	413.62
955.86	419.62
956.088	406.62
956.316	440.62
956.544	474.62
956.772	420.62
956.999	406.62
957.227	489.62
957.455	383.62
957.683	418.62
957.91	397.62
958.138	391.62
958.365	400.62
958.593	413.62
958.82	368.62
959.048	445.62
959.275	411.62
959.502	398.62
959.73	393.62
959.957	439.62
960.184	446.62
960.411	384.62
960.638	470.62
960.865	419.62
961.092	466.62
961.319	355.62
961.546	460.62
961.773	452.62
962	416.62
962.227	463.62
962.454	434.62
962.68	412.62
962.907	451.62
963.134	415.62
963.36	449.62
963.587	476.62
963.813	422.62
964.04	463.62
964.266	417.62
964.493	509.62
964.719	491.62
964.945	498.62
965.171	395.62
965.398	466.62
965.624	484.62
965.85	407.62
966.076	434.62
966.302	479.62
966.528	443.62
966.754	484.62
966.98	484.62
967.206	470.62
967.431	411.62
967.657	512.62
967.883	504.62
968.109	480.62
968.334	423.62
968.56	436.62
968.785	449.62
969.011	396.62
969.236	472.62
969.462	414.62
969.687	430.62
969.912	502.62
970.138	507.62
970.363	439.62
970.588	471.62
970.813	457.62
971.038	437.62
971.263	472.62
971.488	481.62
971.713	497.62
971.938	492.62
972.163	403.62
972.388	454.62
972.613	437.62
972.838	472.62
973.062	456.62
973.287	470.62
973.512	401.62
973.736	464.62
973.961	450.62
974.185	425.62
974.41	487.62
974.634	394.62
974.858	427.62
975.083	480.62
975.307	490.62
975.531	442.62
975.755	396.62
975.98	438.62
976.204	388.62
976.428	391.62
976.652	415.62
976.876	392.62
977.1	443.62
977.324	404.62
977.547	455.62
977.771	470.62
977.995	438.62
978.219	388.62
978.442	528.62
978.666	464.62
978.89	451.62
979.113	456.62
979.337	435.62
979.56	400.62
979.783	512.62
980.007	402.62
980.23	441.62
980.453	424.62
980.677	465.62
980.9	462.62
981.123	372.62
981.346	472.62
981.569	462.62
981.792	490.62
982.015	442.62
982.238	417.62
982.461	446.62
982.684	441.62
982.907	421.62
983.129	416.62
983.352	497.62
983.575	455.62
983.797	478.62
984.02	434.62
984.242	444.62
984.465	451.62
984.687	481.62
984.91	510.62
985.132	494.62
985.354	520.62
985.577	482.62
985.799	486.62
986.021	406.62
986.243	451.62
986.465	474.62
986.687	522.62
986.909	563.62
987.131	491.62
987.353	473.62
987.575	510.62
987.797	482.62
988.019	421.62
988.241	479.62
988.462	444.62
988.684	506.62
988.906	537.62
989.127	569.62
989.349	439.62
989.57	482.62
989.792	518.62
990.013	540.62
990.234	544.62
990.456	560.62
990.677	549.62
990.898	507.62
991.119	518.62
991.341	554.62
991.562	485.62
991.783	532.62
992.004	478.62
992.225	461.62
992.446	517.62
992.667	443.62
992.887	553.62
993.108	433.62
993.329	594.62
993.55	521.62
993.77	477.62
993.991	495.62
994.212	531.62
994.432	528.62
994.653	545.62
994.873	536.62
995.093	453.62
995.314	486.62
995.534	566.62
995.754	575.62
995.975	605.62
996.195	490.62
996.415	559.62
996.635	541.62
996.855	557.62
997.075	526.62
997.295	526.62
997.515	510.62
997.735	580.62
997.955	536.62
998.174	528.62
998.394	509.62
998.614	554.62
998.834	520.62
999.053	598.62
999.273	558.62
999.492	619.62
999.712	574.62
999.931	545.62
1000.151	589.62
1000.37	576.62
1000.589	630.62
1000.809	574.62
1001.028	697.62
1001.247	637.62
1001.466	529.62
1001.685	671.62
1001.904	631.62
1002.123	602.62
1002.342	649.62
1002.561	598.62
1002.78	634.62
1002.999	700.62
1003.218	635.62
1003.436	642.62
1003.655	665.62
1003.874	619.62
1004.092	664.62
1004.311	695.62
1004.53	659.62
1004.748	736.62
1004.966	652.62
1005.185	724.62
1005.403	697.62
1005.622	668.62
1005.84	745.62
1006.058	654.62
1006.276	677.62
1006.494	1192.62
1006.712	673.62
1006.931	742.62
1007.149	665.62
1007.367	646.62
1007.584	684.62
1007.802	704.62
1008.02	657.62
1008.238	736.62
1008.456	710.62
1008.673	578.62
1008.891	680.62
1009.109	626.62
1009.326	653.62
1009.544	698.62
1009.761	600.62
1009.979	669.62
1010.196	635.62
1010.413	662.62
1010.631	671.62
1010.848	667.62
1011.065	667.62
1011.282	612.62
1011.5	572.62
1011.717	670.62
1011.934	624.62
1012.151	675.62
1012.368	643.62
1012.585	589.62
1012.801	644.62
1013.018	612.62
1013.235	595.62
1013.452	603.62
1013.669	597.62
1013.885	592.62
1014.102	601.62
1014.318	555.62
1014.535	520.62
1014.751	571.62
1014.968	569.62
1015.184	614.62
1015.401	520.62
1015.617	575.62
1015.833	514.62
1016.049	542.62
1016.266	539.62
1016.482	553.62
1016.698	490.62
1016.914	544.62
1017.13	505.62
1017.346	506.62
1017.562	596.62
1017.778	513.62
1017.993	500.62
1018.209	542.62
1018.425	520.62
1018.641	490.62
1018.856	472.62
1019.072	498.62
1019.288	573.62
1019.503	501.62
1019.719	428.62
1019.934	456.62
1020.149	533.62
1020.365	498.62
1020.58	471.62
1020.795	518.62
1021.011	490.62
1021.226	503.62
1021.441	548.62
1021.656	496.62
1021.871	445.62
1022.086	458.62
1022.301	470.62
1022.516	485.62
1022.731	518.62
1022.946	464.62
1023.16	467.62
1023.375	453.62
1023.59	456.62
1023.804	432.62
1024.019	547.62
1024.234	404.62
1024.448	471.62
1024.663	421.62
1024.877	441.62
1025.092	463.62
1025.306	500.62
1025.52	407.62
1025.734	511.62
1025.949	443.62
1026.163	437.62
1026.377	379.62
1026.591	455.62
1026.805	381.62
1027.019	386.62
1027.233	365.62
1027.447	325.62
1027.661	429.62
1027.875	372.62
1028.088	407.62
1028.302	344.62
1028.516	358.62
1028.73	335.62
1028.943	360.62
1029.157	334.62
1029.37	312.62
1029.584	-3.38
1029.797	-0.38
1030.011	-0.38
1030.224	-2.38
