Data from QEP037381__62__10-22-31-068.txt Node

Date: Fri Apr 21 10:22:31 EDT 2023
User: dcclab
Spectrometer: QEP03738
Trigger mode: 4
Integration Time (sec): 1.000000E1
Scans to average: 1
Electric dark correction enabled: true
Nonlinearity correction enabled: false
Boxcar width: 0
XAxis mode: Wavelengths
Number of Pixels in Spectrum: 1044
>>>>>Begin Spectral Data<<<<<
784.041	11.25
784.3	2.25
784.558	-0.75
784.817	-2.75
785.075	236.25
785.334	212.25
785.592	194.25
785.851	191.25
786.109	234.25
786.368	235.25
786.626	256.25
786.884	270.25
787.143	266.25
787.401	215.25
787.659	279.25
787.917	248.25
788.175	288.25
788.433	284.25
788.691	270.25
788.949	284.25
789.207	302.25
789.465	256.25
789.723	272.25
789.98	248.25
790.238	315.25
790.496	283.25
790.753	285.25
791.011	361.25
791.268	306.25
791.526	315.25
791.783	332.25
792.041	306.25
792.298	243.25
792.556	324.25
792.813	314.25
793.07	295.25
793.327	287.25
793.584	373.25
793.841	296.25
794.099	320.25
794.356	377.25
794.613	284.25
794.869	338.25
795.126	310.25
795.383	288.25
795.64	311.25
795.897	261.25
796.153	326.25
796.41	308.25
796.667	289.25
796.923	303.25
797.18	299.25
797.436	329.25
797.693	293.25
797.949	349.25
798.206	374.25
798.462	271.25
798.718	336.25
798.974	294.25
799.231	342.25
799.487	326.25
799.743	329.25
799.999	356.25
800.255	336.25
800.511	296.25
800.767	343.25
801.023	304.25
801.279	315.25
801.534	330.25
801.79	330.25
802.046	305.25
802.302	347.25
802.557	333.25
802.813	346.25
803.068	284.25
803.324	333.25
803.579	314.25
803.835	304.25
804.09	352.25
804.345	287.25
804.601	276.25
804.856	294.25
805.111	335.25
805.366	310.25
805.621	318.25
805.876	335.25
806.131	327.25
806.386	301.25
806.641	273.25
806.896	303.25
807.151	377.25
807.406	323.25
807.661	335.25
807.915	323.25
808.17	326.25
808.425	343.25
808.679	290.25
808.934	376.25
809.188	300.25
809.443	337.25
809.697	366.25
809.951	289.25
810.206	288.25
810.46	341.25
810.714	331.25
810.968	346.25
811.223	274.25
811.477	322.25
811.731	349.25
811.985	257.25
812.239	240.25
812.493	292.25
812.747	307.25
813	266.25
813.254	330.25
813.508	349.25
813.762	298.25
814.015	295.25
814.269	326.25
814.522	342.25
814.776	339.25
815.03	339.25
815.283	332.25
815.536	342.25
815.79	325.25
816.043	332.25
816.296	331.25
816.55	323.25
816.803	311.25
817.056	397.25
817.309	324.25
817.562	318.25
817.815	369.25
818.068	289.25
818.321	298.25
818.574	282.25
818.827	325.25
819.079	283.25
819.332	414.25
819.585	338.25
819.838	385.25
820.09	301.25
820.343	350.25
820.595	283.25
820.848	342.25
821.1	351.25
821.353	321.25
821.605	317.25
821.857	377.25
822.11	281.25
822.362	302.25
822.614	283.25
822.866	320.25
823.118	260.25
823.37	375.25
823.622	307.25
823.874	310.25
824.126	363.25
824.378	278.25
824.63	305.25
824.882	324.25
825.134	313.25
825.385	342.25
825.637	327.25
825.888	316.25
826.14	320.25
826.392	299.25
826.643	287.25
826.895	369.25
827.146	310.25
827.397	308.25
827.649	380.25
827.9	297.25
828.151	278.25
828.402	279.25
828.653	319.25
828.905	320.25
829.156	380.25
829.407	290.25
829.658	319.25
829.909	360.25
830.159	336.25
830.41	355.25
830.661	359.25
830.912	337.25
831.162	315.25
831.413	306.25
831.664	356.25
831.914	325.25
832.165	329.25
832.415	335.25
832.666	334.25
832.916	344.25
833.167	307.25
833.417	370.25
833.667	345.25
833.917	337.25
834.168	379.25
834.418	346.25
834.668	329.25
834.918	281.25
835.168	307.25
835.418	262.25
835.668	323.25
835.918	348.25
836.167	331.25
836.417	297.25
836.667	358.25
836.917	382.25
837.166	315.25
837.416	354.25
837.666	358.25
837.915	321.25
838.165	351.25
838.414	291.25
838.663	261.25
838.913	337.25
839.162	296.25
839.411	401.25
839.661	309.25
839.91	326.25
840.159	306.25
840.408	331.25
840.657	325.25
840.906	326.25
841.155	361.25
841.404	329.25
841.653	335.25
841.902	294.25
842.15	336.25
842.399	329.25
842.648	326.25
842.897	354.25
843.145	286.25
843.394	295.25
843.642	316.25
843.891	357.25
844.139	341.25
844.388	273.25
844.636	267.25
844.884	319.25
845.133	300.25
845.381	321.25
845.629	358.25
845.877	296.25
846.125	309.25
846.373	328.25
846.621	304.25
846.869	355.25
847.117	332.25
847.365	337.25
847.613	335.25
847.861	344.25
848.108	375.25
848.356	351.25
848.604	309.25
848.851	340.25
849.099	331.25
849.346	337.25
849.594	340.25
849.841	349.25
850.089	316.25
850.336	296.25
850.583	305.25
850.831	312.25
851.078	329.25
851.325	295.25
851.572	359.25
851.819	357.25
852.066	334.25
852.313	321.25
852.56	298.25
852.807	284.25
853.054	303.25
853.301	307.25
853.548	309.25
853.794	394.25
854.041	328.25
854.288	279.25
854.534	396.25
854.781	324.25
855.028	308.25
855.274	382.25
855.52	320.25
855.767	296.25
856.013	348.25
856.26	621.25
856.506	313.25
856.752	358.25
856.998	322.25
857.244	306.25
857.49	351.25
857.736	339.25
857.982	347.25
858.228	344.25
858.474	290.25
858.72	340.25
858.966	351.25
859.212	346.25
859.458	336.25
859.703	354.25
859.949	315.25
860.195	362.25
860.44	359.25
860.686	311.25
860.931	384.25
861.177	312.25
861.422	378.25
861.667	329.25
861.913	333.25
862.158	331.25
862.403	382.25
862.648	367.25
862.893	385.25
863.138	315.25
863.384	305.25
863.629	363.25
863.873	347.25
864.118	331.25
864.363	281.25
864.608	350.25
864.853	373.25
865.098	343.25
865.342	363.25
865.587	339.25
865.832	368.25
866.076	357.25
866.321	325.25
866.565	341.25
866.81	272.25
867.054	316.25
867.298	354.25
867.543	304.25
867.787	370.25
868.031	352.25
868.275	343.25
868.519	331.25
868.764	340.25
869.008	325.25
869.252	388.25
869.496	340.25
869.739	335.25
869.983	386.25
870.227	360.25
870.471	299.25
870.715	356.25
870.958	348.25
871.202	308.25
871.446	328.25
871.689	298.25
871.933	341.25
872.176	341.25
872.42	326.25
872.663	321.25
872.906	378.25
873.15	319.25
873.393	288.25
873.636	380.25
873.879	381.25
874.122	396.25
874.366	335.25
874.609	366.25
874.852	335.25
875.095	351.25
875.337	324.25
875.58	279.25
875.823	354.25
876.066	384.25
876.309	408.25
876.551	305.25
876.794	294.25
877.037	372.25
877.279	311.25
877.522	315.25
877.764	358.25
878.007	321.25
878.249	348.25
878.491	312.25
878.734	372.25
878.976	359.25
879.218	307.25
879.46	379.25
879.702	377.25
879.945	360.25
880.187	333.25
880.429	384.25
880.671	356.25
880.912	379.25
881.154	361.25
881.396	277.25
881.638	361.25
881.88	356.25
882.121	316.25
882.363	324.25
882.605	394.25
882.846	373.25
883.088	370.25
883.329	324.25
883.571	293.25
883.812	311.25
884.053	320.25
884.295	325.25
884.536	409.25
884.777	309.25
885.018	351.25
885.259	352.25
885.5	289.25
885.742	512.25
885.982	369.25
886.223	306.25
886.464	336.25
886.705	299.25
886.946	350.25
887.187	294.25
887.428	387.25
887.668	329.25
887.909	307.25
888.15	297.25
888.39	368.25
888.631	412.25
888.871	370.25
889.111	360.25
889.352	366.25
889.592	342.25
889.833	348.25
890.073	362.25
890.313	417.25
890.553	309.25
890.793	348.25
891.033	315.25
891.273	315.25
891.513	357.25
891.753	413.25
891.993	355.25
892.233	371.25
892.473	426.25
892.713	359.25
892.952	317.25
893.192	343.25
893.432	325.25
893.671	367.25
893.911	338.25
894.15	359.25
894.39	303.25
894.629	338.25
894.869	360.25
895.108	346.25
895.347	321.25
895.587	346.25
895.826	345.25
896.065	316.25
896.304	369.25
896.543	388.25
896.782	301.25
897.021	356.25
897.26	344.25
897.499	400.25
897.738	398.25
897.977	366.25
898.216	344.25
898.454	356.25
898.693	332.25
898.932	369.25
899.17	349.25
899.409	367.25
899.647	342.25
899.886	336.25
900.124	364.25
900.363	319.25
900.601	357.25
900.839	344.25
901.078	362.25
901.316	347.25
901.554	350.25
901.792	359.25
902.03	326.25
902.268	332.25
902.506	380.25
902.744	330.25
902.982	389.25
903.22	319.25
903.458	339.25
903.695	380.25
903.933	382.25
904.171	319.25
904.409	336.25
904.646	398.25
904.884	334.25
905.121	395.25
905.359	376.25
905.596	378.25
905.833	339.25
906.071	346.25
906.308	399.25
906.545	363.25
906.783	303.25
907.02	348.25
907.257	313.25
907.494	332.25
907.731	369.25
907.968	389.25
908.205	345.25
908.442	333.25
908.679	357.25
908.915	355.25
909.152	370.25
909.389	306.25
909.626	342.25
909.862	331.25
910.099	371.25
910.335	407.25
910.572	314.25
910.808	363.25
911.045	355.25
911.281	329.25
911.518	391.25
911.754	335.25
911.99	362.25
912.226	359.25
912.463	320.25
912.699	341.25
912.935	349.25
913.171	357.25
913.407	330.25
913.643	406.25
913.879	374.25
914.114	370.25
914.35	330.25
914.586	346.25
914.822	334.25
915.057	446.25
915.293	311.25
915.529	332.25
915.764	391.25
916	388.25
916.235	381.25
916.471	396.25
916.706	314.25
916.941	359.25
917.177	332.25
917.412	384.25
917.647	394.25
917.882	334.25
918.117	398.25
918.352	367.25
918.588	430.25
918.823	351.25
919.057	357.25
919.292	303.25
919.527	411.25
919.762	356.25
919.997	428.25
920.232	380.25
920.466	422.25
920.701	321.25
920.935	388.25
921.17	360.25
921.405	335.25
921.639	402.25
921.873	369.25
922.108	389.25
922.342	397.25
922.576	339.25
922.811	339.25
923.045	399.25
923.279	427.25
923.513	313.25
923.747	420.25
923.981	385.25
924.215	350.25
924.449	366.25
924.683	332.25
924.917	362.25
925.151	362.25
925.385	440.25
925.618	384.25
925.852	403.25
926.086	322.25
926.319	383.25
926.553	378.25
926.786	399.25
927.02	374.25
927.253	436.25
927.486	409.25
927.72	338.25
927.953	406.25
928.186	357.25
928.42	417.25
928.653	355.25
928.886	345.25
929.119	406.25
929.352	381.25
929.585	397.25
929.818	361.25
930.051	403.25
930.284	406.25
930.516	326.25
930.749	366.25
930.982	429.25
931.215	413.25
931.447	349.25
931.68	380.25
931.912	362.25
932.145	368.25
932.377	376.25
932.61	499.25
932.842	315.25
933.074	390.25
933.307	352.25
933.539	434.25
933.771	419.25
934.003	375.25
934.236	436.25
934.468	443.25
934.7	358.25
934.932	416.25
935.164	367.25
935.395	361.25
935.627	385.25
935.859	409.25
936.091	354.25
936.323	413.25
936.554	457.25
936.786	380.25
937.017	342.25
937.249	398.25
937.481	324.25
937.712	401.25
937.943	388.25
938.175	362.25
938.406	378.25
938.637	443.25
938.869	338.25
939.1	399.25
939.331	380.25
939.562	403.25
939.793	401.25
940.024	425.25
940.255	439.25
940.486	402.25
940.717	393.25
940.948	390.25
941.179	358.25
941.409	378.25
941.64	373.25
941.871	397.25
942.102	358.25
942.332	375.25
942.563	434.25
942.793	383.25
943.024	330.25
943.254	378.25
943.484	434.25
943.715	432.25
943.945	402.25
944.175	339.25
944.405	315.25
944.636	334.25
944.866	393.25
945.096	409.25
945.326	329.25
945.556	410.25
945.786	420.25
946.016	374.25
946.245	345.25
946.475	373.25
946.705	375.25
946.935	392.25
947.164	401.25
947.394	372.25
947.624	409.25
947.853	436.25
948.083	404.25
948.312	379.25
948.542	342.25
948.771	339.25
949	369.25
949.23	369.25
949.459	388.25
949.688	433.25
949.917	385.25
950.146	411.25
950.375	449.25
950.604	354.25
950.833	455.25
951.062	461.25
951.291	403.25
951.52	371.25
951.749	394.25
951.978	353.25
952.206	366.25
952.435	368.25
952.664	428.25
952.892	440.25
953.121	409.25
953.349	444.25
953.578	440.25
953.806	410.25
954.035	383.25
954.263	417.25
954.491	359.25
954.719	435.25
954.948	395.25
955.176	385.25
955.404	330.25
955.632	408.25
955.86	413.25
956.088	412.25
956.316	452.25
956.544	448.25
956.772	418.25
956.999	387.25
957.227	483.25
957.455	397.25
957.683	425.25
957.91	392.25
958.138	401.25
958.365	399.25
958.593	413.25
958.82	353.25
959.048	434.25
959.275	408.25
959.502	407.25
959.73	400.25
959.957	418.25
960.184	450.25
960.411	400.25
960.638	458.25
960.865	427.25
961.092	465.25
961.319	362.25
961.546	469.25
961.773	472.25
962	413.25
962.227	465.25
962.454	438.25
962.68	426.25
962.907	455.25
963.134	416.25
963.36	439.25
963.587	474.25
963.813	410.25
964.04	470.25
964.266	410.25
964.493	523.25
964.719	469.25
964.945	493.25
965.171	406.25
965.398	473.25
965.624	499.25
965.85	431.25
966.076	424.25
966.302	488.25
966.528	445.25
966.754	484.25
966.98	480.25
967.206	479.25
967.431	416.25
967.657	518.25
967.883	486.25
968.109	484.25
968.334	430.25
968.56	422.25
968.785	448.25
969.011	409.25
969.236	480.25
969.462	427.25
969.687	449.25
969.912	505.25
970.138	523.25
970.363	422.25
970.588	479.25
970.813	448.25
971.038	442.25
971.263	474.25
971.488	490.25
971.713	522.25
971.938	499.25
972.163	407.25
972.388	452.25
972.613	449.25
972.838	463.25
973.062	459.25
973.287	460.25
973.512	394.25
973.736	464.25
973.961	441.25
974.185	438.25
974.41	483.25
974.634	399.25
974.858	438.25
975.083	482.25
975.307	500.25
975.531	430.25
975.755	395.25
975.98	436.25
976.204	372.25
976.428	388.25
976.652	401.25
976.876	386.25
977.1	431.25
977.324	393.25
977.547	473.25
977.771	471.25
977.995	448.25
978.219	395.25
978.442	502.25
978.666	447.25
978.89	450.25
979.113	451.25
979.337	445.25
979.56	419.25
979.783	506.25
980.007	408.25
980.23	439.25
980.453	427.25
980.677	446.25
980.9	461.25
981.123	370.25
981.346	474.25
981.569	461.25
981.792	474.25
982.015	453.25
982.238	436.25
982.461	462.25
982.684	438.25
982.907	426.25
983.129	419.25
983.352	467.25
983.575	468.25
983.797	479.25
984.02	448.25
984.242	454.25
984.465	454.25
984.687	490.25
984.91	499.25
985.132	480.25
985.354	514.25
985.577	482.25
985.799	476.25
986.021	404.25
986.243	435.25
986.465	474.25
986.687	516.25
986.909	557.25
987.131	495.25
987.353	470.25
987.575	499.25
987.797	462.25
988.019	419.25
988.241	482.25
988.462	448.25
988.684	523.25
988.906	540.25
989.127	571.25
989.349	439.25
989.57	488.25
989.792	535.25
990.013	536.25
990.234	550.25
990.456	573.25
990.677	556.25
990.898	509.25
991.119	503.25
991.341	546.25
991.562	472.25
991.783	535.25
992.004	479.25
992.225	455.25
992.446	520.25
992.667	451.25
992.887	541.25
993.108	432.25
993.329	582.25
993.55	540.25
993.77	497.25
993.991	486.25
994.212	534.25
994.432	518.25
994.653	547.25
994.873	559.25
995.093	440.25
995.314	480.25
995.534	559.25
995.754	577.25
995.975	606.25
996.195	500.25
996.415	559.25
996.635	537.25
996.855	545.25
997.075	510.25
997.295	517.25
997.515	505.25
997.735	568.25
997.955	522.25
998.174	533.25
998.394	497.25
998.614	566.25
998.834	525.25
999.053	584.25
999.273	568.25
999.492	615.25
999.712	565.25
999.931	539.25
1000.151	596.25
1000.37	567.25
1000.589	638.25
1000.809	565.25
1001.028	686.25
1001.247	613.25
1001.466	528.25
1001.685	681.25
1001.904	632.25
1002.123	636.25
1002.342	637.25
1002.561	589.25
1002.78	632.25
1002.999	689.25
1003.218	661.25
1003.436	612.25
1003.655	666.25
1003.874	623.25
1004.092	627.25
1004.311	692.25
1004.53	655.25
1004.748	745.25
1004.966	649.25
1005.185	715.25
1005.403	713.25
1005.622	685.25
1005.84	744.25
1006.058	651.25
1006.276	681.25
1006.494	1177.25
1006.712	684.25
1006.931	734.25
1007.149	654.25
1007.367	653.25
1007.584	675.25
1007.802	717.25
1008.02	653.25
1008.238	750.25
1008.456	721.25
1008.673	583.25
1008.891	692.25
1009.109	632.25
1009.326	655.25
1009.544	723.25
1009.761	589.25
1009.979	672.25
1010.196	626.25
1010.413	683.25
1010.631	666.25
1010.848	657.25
1011.065	648.25
1011.282	616.25
1011.5	554.25
1011.717	702.25
1011.934	639.25
1012.151	664.25
1012.368	643.25
1012.585	594.25
1012.801	642.25
1013.018	605.25
1013.235	579.25
1013.452	607.25
1013.669	603.25
1013.885	567.25
1014.102	602.25
1014.318	560.25
1014.535	508.25
1014.751	574.25
1014.968	576.25
1015.184	617.25
1015.401	534.25
1015.617	569.25
1015.833	537.25
1016.049	548.25
1016.266	541.25
1016.482	543.25
1016.698	500.25
1016.914	551.25
1017.13	514.25
1017.346	515.25
1017.562	582.25
1017.778	517.25
1017.993	490.25
1018.209	571.25
1018.425	538.25
1018.641	491.25
1018.856	468.25
1019.072	498.25
1019.288	557.25
1019.503	495.25
1019.719	426.25
1019.934	445.25
1020.149	552.25
1020.365	481.25
1020.58	485.25
1020.795	532.25
1021.011	495.25
1021.226	493.25
1021.441	540.25
1021.656	498.25
1021.871	438.25
1022.086	465.25
1022.301	473.25
1022.516	476.25
1022.731	526.25
1022.946	470.25
1023.16	450.25
1023.375	455.25
1023.59	451.25
1023.804	423.25
1024.019	538.25
1024.234	425.25
1024.448	470.25
1024.663	407.25
1024.877	449.25
1025.092	472.25
1025.306	487.25
1025.52	417.25
1025.734	517.25
1025.949	435.25
1026.163	430.25
1026.377	374.25
1026.591	453.25
1026.805	386.25
1027.019	406.25
1027.233	355.25
1027.447	319.25
1027.661	435.25
1027.875	372.25
1028.088	389.25
1028.302	339.25
1028.516	332.25
1028.73	348.25
1028.943	360.25
1029.157	337.25
1029.37	300.25
1029.584	-0.75
1029.797	-3.75
1030.011	-2.75
1030.224	-2.75
