Data from QEP037381__60__10-22-11-067.txt Node

Date: Fri Apr 21 10:22:11 EDT 2023
User: dcclab
Spectrometer: QEP03738
Trigger mode: 4
Integration Time (sec): 1.000000E1
Scans to average: 1
Electric dark correction enabled: true
Nonlinearity correction enabled: false
Boxcar width: 0
XAxis mode: Wavelengths
Number of Pixels in Spectrum: 1044
>>>>>Begin Spectral Data<<<<<
784.041	12.38
784.3	3.38
784.558	-3.62
784.817	-3.62
785.075	230.38
785.334	213.38
785.592	202.38
785.851	202.38
786.109	233.38
786.368	244.38
786.626	251.38
786.884	265.38
787.143	268.38
787.401	223.38
787.659	278.38
787.917	257.38
788.175	307.38
788.433	274.38
788.691	261.38
788.949	293.38
789.207	306.38
789.465	255.38
789.723	277.38
789.98	251.38
790.238	312.38
790.496	296.38
790.753	292.38
791.011	359.38
791.268	303.38
791.526	303.38
791.783	327.38
792.041	326.38
792.298	261.38
792.556	329.38
792.813	316.38
793.07	294.38
793.327	291.38
793.584	367.38
793.841	284.38
794.099	322.38
794.356	378.38
794.613	293.38
794.869	340.38
795.126	287.38
795.383	288.38
795.64	304.38
795.897	271.38
796.153	323.38
796.41	305.38
796.667	292.38
796.923	297.38
797.18	298.38
797.436	324.38
797.693	282.38
797.949	340.38
798.206	368.38
798.462	281.38
798.718	343.38
798.974	300.38
799.231	348.38
799.487	318.38
799.743	333.38
799.999	337.38
800.255	322.38
800.511	310.38
800.767	337.38
801.023	293.38
801.279	341.38
801.534	319.38
801.79	338.38
802.046	299.38
802.302	362.38
802.557	330.38
802.813	343.38
803.068	305.38
803.324	347.38
803.579	318.38
803.835	294.38
804.09	346.38
804.345	292.38
804.601	280.38
804.856	313.38
805.111	324.38
805.366	323.38
805.621	319.38
805.876	349.38
806.131	325.38
806.386	300.38
806.641	277.38
806.896	305.38
807.151	371.38
807.406	322.38
807.661	326.38
807.915	325.38
808.17	346.38
808.425	339.38
808.679	285.38
808.934	387.38
809.188	308.38
809.443	336.38
809.697	376.38
809.951	302.38
810.206	308.38
810.46	354.38
810.714	349.38
810.968	352.38
811.223	285.38
811.477	313.38
811.731	343.38
811.985	266.38
812.239	245.38
812.493	282.38
812.747	309.38
813	264.38
813.254	322.38
813.508	353.38
813.762	292.38
814.015	297.38
814.269	311.38
814.522	336.38
814.776	339.38
815.03	346.38
815.283	352.38
815.536	345.38
815.79	330.38
816.043	340.38
816.296	324.38
816.55	326.38
816.803	306.38
817.056	411.38
817.309	326.38
817.562	325.38
817.815	370.38
818.068	290.38
818.321	294.38
818.574	284.38
818.827	334.38
819.079	301.38
819.332	412.38
819.585	337.38
819.838	399.38
820.09	303.38
820.343	356.38
820.595	279.38
820.848	343.38
821.1	354.38
821.353	326.38
821.605	314.38
821.857	377.38
822.11	283.38
822.362	297.38
822.614	277.38
822.866	331.38
823.118	277.38
823.37	372.38
823.622	316.38
823.874	323.38
824.126	353.38
824.378	291.38
824.63	310.38
824.882	332.38
825.134	312.38
825.385	346.38
825.637	319.38
825.888	323.38
826.14	320.38
826.392	295.38
826.643	292.38
826.895	374.38
827.146	321.38
827.397	301.38
827.649	384.38
827.9	292.38
828.151	290.38
828.402	282.38
828.653	330.38
828.905	332.38
829.156	373.38
829.407	297.38
829.658	321.38
829.909	364.38
830.159	341.38
830.41	348.38
830.661	371.38
830.912	328.38
831.162	311.38
831.413	312.38
831.664	342.38
831.914	326.38
832.165	338.38
832.415	336.38
832.666	341.38
832.916	347.38
833.167	316.38
833.417	380.38
833.667	359.38
833.917	332.38
834.168	384.38
834.418	357.38
834.668	319.38
834.918	291.38
835.168	302.38
835.418	257.38
835.668	334.38
835.918	364.38
836.167	345.38
836.417	292.38
836.667	368.38
836.917	383.38
837.166	327.38
837.416	352.38
837.666	371.38
837.915	344.38
838.165	347.38
838.414	319.38
838.663	272.38
838.913	334.38
839.162	298.38
839.411	386.38
839.661	310.38
839.91	326.38
840.159	316.38
840.408	331.38
840.657	322.38
840.906	344.38
841.155	361.38
841.404	326.38
841.653	348.38
841.902	288.38
842.15	327.38
842.399	343.38
842.648	338.38
842.897	329.38
843.145	288.38
843.394	309.38
843.642	314.38
843.891	374.38
844.139	334.38
844.388	290.38
844.636	270.38
844.884	323.38
845.133	298.38
845.381	315.38
845.629	353.38
845.877	304.38
846.125	315.38
846.373	344.38
846.621	307.38
846.869	371.38
847.117	330.38
847.365	314.38
847.613	336.38
847.861	340.38
848.108	370.38
848.356	349.38
848.604	315.38
848.851	331.38
849.099	346.38
849.346	313.38
849.594	337.38
849.841	363.38
850.089	316.38
850.336	302.38
850.583	308.38
850.831	327.38
851.078	326.38
851.325	299.38
851.572	353.38
851.819	360.38
852.066	328.38
852.313	314.38
852.56	300.38
852.807	292.38
853.054	300.38
853.301	314.38
853.548	310.38
853.794	412.38
854.041	337.38
854.288	284.38
854.534	405.38
854.781	330.38
855.028	307.38
855.274	383.38
855.52	323.38
855.767	293.38
856.013	360.38
856.26	637.38
856.506	312.38
856.752	356.38
856.998	340.38
857.244	309.38
857.49	340.38
857.736	342.38
857.982	347.38
858.228	338.38
858.474	285.38
858.72	333.38
858.966	354.38
859.212	340.38
859.458	338.38
859.703	349.38
859.949	314.38
860.195	381.38
860.44	365.38
860.686	300.38
860.931	372.38
861.177	319.38
861.422	382.38
861.667	326.38
861.913	340.38
862.158	331.38
862.403	376.38
862.648	371.38
862.893	381.38
863.138	334.38
863.384	307.38
863.629	367.38
863.873	352.38
864.118	318.38
864.363	274.38
864.608	351.38
864.853	368.38
865.098	336.38
865.342	358.38
865.587	343.38
865.832	367.38
866.076	358.38
866.321	319.38
866.565	338.38
866.81	272.38
867.054	312.38
867.298	344.38
867.543	312.38
867.787	369.38
868.031	345.38
868.275	350.38
868.519	336.38
868.764	340.38
869.008	339.38
869.252	387.38
869.496	349.38
869.739	344.38
869.983	386.38
870.227	359.38
870.471	308.38
870.715	347.38
870.958	351.38
871.202	315.38
871.446	323.38
871.689	302.38
871.933	350.38
872.176	329.38
872.42	315.38
872.663	319.38
872.906	371.38
873.15	334.38
873.393	278.38
873.636	392.38
873.879	362.38
874.122	411.38
874.366	348.38
874.609	368.38
874.852	337.38
875.095	350.38
875.337	322.38
875.58	280.38
875.823	343.38
876.066	373.38
876.309	403.38
876.551	313.38
876.794	291.38
877.037	369.38
877.279	293.38
877.522	324.38
877.764	342.38
878.007	316.38
878.249	345.38
878.491	318.38
878.734	375.38
878.976	353.38
879.218	311.38
879.46	390.38
879.702	377.38
879.945	370.38
880.187	335.38
880.429	369.38
880.671	368.38
880.912	388.38
881.154	367.38
881.396	293.38
881.638	364.38
881.88	347.38
882.121	314.38
882.363	326.38
882.605	387.38
882.846	363.38
883.088	377.38
883.329	331.38
883.571	315.38
883.812	320.38
884.053	344.38
884.295	331.38
884.536	402.38
884.777	332.38
885.018	346.38
885.259	353.38
885.5	304.38
885.742	513.38
885.982	366.38
886.223	315.38
886.464	324.38
886.705	291.38
886.946	345.38
887.187	297.38
887.428	377.38
887.668	334.38
887.909	313.38
888.15	303.38
888.39	369.38
888.631	414.38
888.871	370.38
889.111	354.38
889.352	365.38
889.592	343.38
889.833	345.38
890.073	358.38
890.313	422.38
890.553	313.38
890.793	348.38
891.033	306.38
891.273	330.38
891.513	354.38
891.753	407.38
891.993	347.38
892.233	373.38
892.473	421.38
892.713	359.38
892.952	327.38
893.192	360.38
893.432	337.38
893.671	374.38
893.911	335.38
894.15	346.38
894.39	288.38
894.629	338.38
894.869	369.38
895.108	343.38
895.347	327.38
895.587	356.38
895.826	328.38
896.065	314.38
896.304	372.38
896.543	385.38
896.782	303.38
897.021	358.38
897.26	342.38
897.499	401.38
897.738	410.38
897.977	368.38
898.216	355.38
898.454	351.38
898.693	335.38
898.932	377.38
899.17	355.38
899.409	357.38
899.647	349.38
899.886	324.38
900.124	372.38
900.363	327.38
900.601	356.38
900.839	356.38
901.078	358.38
901.316	361.38
901.554	343.38
901.792	374.38
902.03	320.38
902.268	327.38
902.506	386.38
902.744	342.38
902.982	380.38
903.22	325.38
903.458	338.38
903.695	384.38
903.933	386.38
904.171	328.38
904.409	340.38
904.646	383.38
904.884	346.38
905.121	408.38
905.359	381.38
905.596	384.38
905.833	348.38
906.071	352.38
906.308	400.38
906.545	373.38
906.783	316.38
907.02	351.38
907.257	304.38
907.494	355.38
907.731	365.38
907.968	391.38
908.205	337.38
908.442	334.38
908.679	349.38
908.915	351.38
909.152	378.38
909.389	300.38
909.626	359.38
909.862	329.38
910.099	372.38
910.335	396.38
910.572	317.38
910.808	364.38
911.045	348.38
911.281	336.38
911.518	405.38
911.754	349.38
911.99	367.38
912.226	348.38
912.463	327.38
912.699	356.38
912.935	355.38
913.171	350.38
913.407	321.38
913.643	387.38
913.879	371.38
914.114	363.38
914.35	349.38
914.586	363.38
914.822	340.38
915.057	444.38
915.293	327.38
915.529	319.38
915.764	403.38
916	401.38
916.235	382.38
916.471	401.38
916.706	320.38
916.941	341.38
917.177	341.38
917.412	386.38
917.647	390.38
917.882	330.38
918.117	400.38
918.352	375.38
918.588	417.38
918.823	357.38
919.057	383.38
919.292	293.38
919.527	424.38
919.762	344.38
919.997	420.38
920.232	375.38
920.466	425.38
920.701	325.38
920.935	385.38
921.17	370.38
921.405	341.38
921.639	406.38
921.873	370.38
922.108	408.38
922.342	404.38
922.576	330.38
922.811	346.38
923.045	405.38
923.279	415.38
923.513	314.38
923.747	417.38
923.981	394.38
924.215	373.38
924.449	379.38
924.683	333.38
924.917	365.38
925.151	368.38
925.385	435.38
925.618	392.38
925.852	390.38
926.086	332.38
926.319	383.38
926.553	389.38
926.786	391.38
927.02	375.38
927.253	413.38
927.486	419.38
927.72	350.38
927.953	416.38
928.186	369.38
928.42	405.38
928.653	348.38
928.886	358.38
929.119	388.38
929.352	386.38
929.585	387.38
929.818	358.38
930.051	387.38
930.284	412.38
930.516	328.38
930.749	356.38
930.982	415.38
931.215	406.38
931.447	340.38
931.68	367.38
931.912	365.38
932.145	370.38
932.377	394.38
932.61	507.38
932.842	314.38
933.074	398.38
933.307	341.38
933.539	439.38
933.771	425.38
934.003	372.38
934.236	446.38
934.468	471.38
934.7	373.38
934.932	419.38
935.164	368.38
935.395	351.38
935.627	395.38
935.859	408.38
936.091	331.38
936.323	401.38
936.554	443.38
936.786	387.38
937.017	344.38
937.249	409.38
937.481	342.38
937.712	417.38
937.943	387.38
938.175	374.38
938.406	375.38
938.637	446.38
938.869	349.38
939.1	401.38
939.331	373.38
939.562	401.38
939.793	401.38
940.024	418.38
940.255	443.38
940.486	383.38
940.717	405.38
940.948	378.38
941.179	367.38
941.409	390.38
941.64	371.38
941.871	374.38
942.102	382.38
942.332	386.38
942.563	417.38
942.793	401.38
943.024	339.38
943.254	387.38
943.484	432.38
943.715	445.38
943.945	407.38
944.175	348.38
944.405	326.38
944.636	345.38
944.866	387.38
945.096	393.38
945.326	329.38
945.556	396.38
945.786	423.38
946.016	369.38
946.245	341.38
946.475	374.38
946.705	384.38
946.935	391.38
947.164	411.38
947.394	356.38
947.624	390.38
947.853	439.38
948.083	414.38
948.312	390.38
948.542	345.38
948.771	332.38
949	374.38
949.23	370.38
949.459	385.38
949.688	436.38
949.917	393.38
950.146	394.38
950.375	453.38
950.604	350.38
950.833	445.38
951.062	458.38
951.291	398.38
951.52	380.38
951.749	390.38
951.978	367.38
952.206	378.38
952.435	388.38
952.664	420.38
952.892	431.38
953.121	405.38
953.349	436.38
953.578	443.38
953.806	419.38
954.035	381.38
954.263	412.38
954.491	375.38
954.719	420.38
954.948	394.38
955.176	388.38
955.404	322.38
955.632	394.38
955.86	424.38
956.088	418.38
956.316	429.38
956.544	465.38
956.772	407.38
956.999	386.38
957.227	486.38
957.455	402.38
957.683	429.38
957.91	396.38
958.138	390.38
958.365	414.38
958.593	410.38
958.82	366.38
959.048	438.38
959.275	413.38
959.502	409.38
959.73	385.38
959.957	434.38
960.184	456.38
960.411	386.38
960.638	471.38
960.865	424.38
961.092	456.38
961.319	355.38
961.546	489.38
961.773	456.38
962	402.38
962.227	484.38
962.454	432.38
962.68	430.38
962.907	459.38
963.134	410.38
963.36	450.38
963.587	484.38
963.813	425.38
964.04	472.38
964.266	417.38
964.493	509.38
964.719	509.38
964.945	498.38
965.171	405.38
965.398	485.38
965.624	491.38
965.85	428.38
966.076	429.38
966.302	481.38
966.528	450.38
966.754	491.38
966.98	471.38
967.206	474.38
967.431	408.38
967.657	510.38
967.883	489.38
968.109	477.38
968.334	444.38
968.56	419.38
968.785	442.38
969.011	426.38
969.236	482.38
969.462	438.38
969.687	457.38
969.912	495.38
970.138	527.38
970.363	447.38
970.588	489.38
970.813	467.38
971.038	453.38
971.263	463.38
971.488	475.38
971.713	513.38
971.938	503.38
972.163	422.38
972.388	465.38
972.613	438.38
972.838	460.38
973.062	450.38
973.287	465.38
973.512	413.38
973.736	458.38
973.961	453.38
974.185	440.38
974.41	489.38
974.634	396.38
974.858	428.38
975.083	470.38
975.307	503.38
975.531	427.38
975.755	392.38
975.98	442.38
976.204	375.38
976.428	408.38
976.652	408.38
976.876	398.38
977.1	449.38
977.324	412.38
977.547	456.38
977.771	461.38
977.995	446.38
978.219	380.38
978.442	517.38
978.666	452.38
978.89	464.38
979.113	444.38
979.337	448.38
979.56	419.38
979.783	513.38
980.007	398.38
980.23	458.38
980.453	431.38
980.677	461.38
980.9	452.38
981.123	371.38
981.346	480.38
981.569	458.38
981.792	485.38
982.015	454.38
982.238	433.38
982.461	450.38
982.684	426.38
982.907	437.38
983.129	421.38
983.352	481.38
983.575	461.38
983.797	477.38
984.02	441.38
984.242	441.38
984.465	458.38
984.687	485.38
984.91	516.38
985.132	491.38
985.354	520.38
985.577	492.38
985.799	492.38
986.021	419.38
986.243	447.38
986.465	470.38
986.687	528.38
986.909	559.38
987.131	481.38
987.353	472.38
987.575	508.38
987.797	470.38
988.019	422.38
988.241	477.38
988.462	444.38
988.684	514.38
988.906	540.38
989.127	568.38
989.349	454.38
989.57	490.38
989.792	532.38
990.013	559.38
990.234	552.38
990.456	583.38
990.677	556.38
990.898	495.38
991.119	509.38
991.341	548.38
991.562	474.38
991.783	551.38
992.004	486.38
992.225	461.38
992.446	525.38
992.667	456.38
992.887	529.38
993.108	451.38
993.329	581.38
993.55	525.38
993.77	491.38
993.991	493.38
994.212	546.38
994.432	535.38
994.653	547.38
994.873	539.38
995.093	438.38
995.314	486.38
995.534	574.38
995.754	568.38
995.975	616.38
996.195	498.38
996.415	553.38
996.635	552.38
996.855	562.38
997.075	528.38
997.295	530.38
997.515	504.38
997.735	565.38
997.955	535.38
998.174	527.38
998.394	510.38
998.614	561.38
998.834	513.38
999.053	607.38
999.273	538.38
999.492	620.38
999.712	590.38
999.931	542.38
1000.151	587.38
1000.37	591.38
1000.589	636.38
1000.809	557.38
1001.028	685.38
1001.247	642.38
1001.466	529.38
1001.685	676.38
1001.904	638.38
1002.123	607.38
1002.342	627.38
1002.561	593.38
1002.78	636.38
1002.999	697.38
1003.218	644.38
1003.436	608.38
1003.655	673.38
1003.874	619.38
1004.092	644.38
1004.311	698.38
1004.53	649.38
1004.748	730.38
1004.966	658.38
1005.185	728.38
1005.403	703.38
1005.622	697.38
1005.84	754.38
1006.058	664.38
1006.276	677.38
1006.494	1166.38
1006.712	664.38
1006.931	735.38
1007.149	642.38
1007.367	643.38
1007.584	683.38
1007.802	714.38
1008.02	654.38
1008.238	750.38
1008.456	739.38
1008.673	593.38
1008.891	696.38
1009.109	613.38
1009.326	657.38
1009.544	723.38
1009.761	603.38
1009.979	651.38
1010.196	625.38
1010.413	683.38
1010.631	672.38
1010.848	667.38
1011.065	660.38
1011.282	619.38
1011.5	557.38
1011.717	667.38
1011.934	615.38
1012.151	672.38
1012.368	667.38
1012.585	589.38
1012.801	652.38
1013.018	609.38
1013.235	603.38
1013.452	595.38
1013.669	602.38
1013.885	557.38
1014.102	595.38
1014.318	567.38
1014.535	528.38
1014.751	573.38
1014.968	585.38
1015.184	613.38
1015.401	527.38
1015.617	577.38
1015.833	526.38
1016.049	546.38
1016.266	543.38
1016.482	558.38
1016.698	486.38
1016.914	554.38
1017.13	499.38
1017.346	520.38
1017.562	585.38
1017.778	513.38
1017.993	500.38
1018.209	566.38
1018.425	532.38
1018.641	491.38
1018.856	472.38
1019.072	511.38
1019.288	551.38
1019.503	514.38
1019.719	425.38
1019.934	459.38
1020.149	548.38
1020.365	488.38
1020.58	475.38
1020.795	545.38
1021.011	487.38
1021.226	489.38
1021.441	542.38
1021.656	489.38
1021.871	444.38
1022.086	466.38
1022.301	474.38
1022.516	476.38
1022.731	531.38
1022.946	449.38
1023.16	480.38
1023.375	449.38
1023.59	462.38
1023.804	425.38
1024.019	549.38
1024.234	432.38
1024.448	475.38
1024.663	422.38
1024.877	443.38
1025.092	470.38
1025.306	507.38
1025.52	408.38
1025.734	521.38
1025.949	458.38
1026.163	443.38
1026.377	382.38
1026.591	446.38
1026.805	401.38
1027.019	391.38
1027.233	360.38
1027.447	318.38
1027.661	421.38
1027.875	368.38
1028.088	374.38
1028.302	340.38
1028.516	338.38
1028.73	363.38
1028.943	350.38
1029.157	344.38
1029.37	297.38
1029.584	0.38
1029.797	-2.62
1030.011	-3.62
1030.224	-2.62
