Data from QEP037381__72__10-24-11-070.txt Node

Date: Fri Apr 21 10:24:11 EDT 2023
User: dcclab
Spectrometer: QEP03738
Trigger mode: 4
Integration Time (sec): 1.000000E1
Scans to average: 1
Electric dark correction enabled: true
Nonlinearity correction enabled: false
Boxcar width: 0
XAxis mode: Wavelengths
Number of Pixels in Spectrum: 1044
>>>>>Begin Spectral Data<<<<<
784.041	13.5
784.3	-0.5
784.558	-2.5
784.817	-3.5
785.075	230.5
785.334	202.5
785.592	207.5
785.851	197.5
786.109	219.5
786.368	224.5
786.626	249.5
786.884	275.5
787.143	271.5
787.401	215.5
787.659	271.5
787.917	252.5
788.175	301.5
788.433	279.5
788.691	282.5
788.949	277.5
789.207	313.5
789.465	247.5
789.723	276.5
789.98	250.5
790.238	327.5
790.496	300.5
790.753	282.5
791.011	366.5
791.268	311.5
791.526	292.5
791.783	328.5
792.041	323.5
792.298	253.5
792.556	326.5
792.813	315.5
793.07	292.5
793.327	280.5
793.584	376.5
793.841	302.5
794.099	327.5
794.356	371.5
794.613	293.5
794.869	331.5
795.126	297.5
795.383	282.5
795.64	315.5
795.897	267.5
796.153	330.5
796.41	308.5
796.667	292.5
796.923	304.5
797.18	297.5
797.436	330.5
797.693	290.5
797.949	335.5
798.206	360.5
798.462	283.5
798.718	330.5
798.974	302.5
799.231	337.5
799.487	330.5
799.743	331.5
799.999	360.5
800.255	337.5
800.511	303.5
800.767	344.5
801.023	314.5
801.279	323.5
801.534	331.5
801.79	320.5
802.046	303.5
802.302	353.5
802.557	334.5
802.813	363.5
803.068	295.5
803.324	345.5
803.579	301.5
803.835	299.5
804.09	352.5
804.345	301.5
804.601	270.5
804.856	303.5
805.111	325.5
805.366	299.5
805.621	305.5
805.876	328.5
806.131	335.5
806.386	312.5
806.641	282.5
806.896	306.5
807.151	376.5
807.406	319.5
807.661	330.5
807.915	310.5
808.17	339.5
808.425	326.5
808.679	290.5
808.934	380.5
809.188	297.5
809.443	338.5
809.697	365.5
809.951	290.5
810.206	294.5
810.46	361.5
810.714	322.5
810.968	360.5
811.223	283.5
811.477	318.5
811.731	342.5
811.985	270.5
812.239	249.5
812.493	281.5
812.747	301.5
813	274.5
813.254	315.5
813.508	338.5
813.762	295.5
814.015	291.5
814.269	313.5
814.522	337.5
814.776	345.5
815.03	341.5
815.283	334.5
815.536	345.5
815.79	346.5
816.043	334.5
816.296	335.5
816.55	312.5
816.803	312.5
817.056	398.5
817.309	329.5
817.562	351.5
817.815	360.5
818.068	288.5
818.321	286.5
818.574	286.5
818.827	341.5
819.079	294.5
819.332	408.5
819.585	333.5
819.838	393.5
820.09	289.5
820.343	371.5
820.595	286.5
820.848	336.5
821.1	354.5
821.353	319.5
821.605	318.5
821.857	382.5
822.11	273.5
822.362	303.5
822.614	278.5
822.866	331.5
823.118	269.5
823.37	368.5
823.622	307.5
823.874	310.5
824.126	357.5
824.378	295.5
824.63	323.5
824.882	332.5
825.134	311.5
825.385	352.5
825.637	336.5
825.888	290.5
826.14	317.5
826.392	285.5
826.643	281.5
826.895	376.5
827.146	307.5
827.397	308.5
827.649	383.5
827.9	297.5
828.151	279.5
828.402	279.5
828.653	312.5
828.905	325.5
829.156	374.5
829.407	299.5
829.658	319.5
829.909	361.5
830.159	339.5
830.41	338.5
830.661	369.5
830.912	314.5
831.162	304.5
831.413	308.5
831.664	354.5
831.914	318.5
832.165	340.5
832.415	324.5
832.666	343.5
832.916	349.5
833.167	310.5
833.417	382.5
833.667	349.5
833.917	340.5
834.168	396.5
834.418	356.5
834.668	333.5
834.918	294.5
835.168	305.5
835.418	256.5
835.668	336.5
835.918	360.5
836.167	355.5
836.417	292.5
836.667	349.5
836.917	382.5
837.166	333.5
837.416	359.5
837.666	357.5
837.915	325.5
838.165	341.5
838.414	302.5
838.663	274.5
838.913	348.5
839.162	304.5
839.411	389.5
839.661	302.5
839.91	343.5
840.159	312.5
840.408	336.5
840.657	323.5
840.906	337.5
841.155	370.5
841.404	321.5
841.653	334.5
841.902	302.5
842.15	338.5
842.399	342.5
842.648	315.5
842.897	354.5
843.145	285.5
843.394	294.5
843.642	314.5
843.891	360.5
844.139	335.5
844.388	291.5
844.636	261.5
844.884	318.5
845.133	308.5
845.381	312.5
845.629	348.5
845.877	292.5
846.125	311.5
846.373	348.5
846.621	311.5
846.869	345.5
847.117	322.5
847.365	330.5
847.613	345.5
847.861	351.5
848.108	381.5
848.356	362.5
848.604	309.5
848.851	334.5
849.099	328.5
849.346	314.5
849.594	338.5
849.841	343.5
850.089	317.5
850.336	293.5
850.583	314.5
850.831	317.5
851.078	334.5
851.325	310.5
851.572	357.5
851.819	364.5
852.066	329.5
852.313	324.5
852.56	304.5
852.807	283.5
853.054	296.5
853.301	325.5
853.548	314.5
853.794	410.5
854.041	328.5
854.288	281.5
854.534	392.5
854.781	314.5
855.028	299.5
855.274	382.5
855.52	323.5
855.767	308.5
856.013	352.5
856.26	641.5
856.506	308.5
856.752	362.5
856.998	330.5
857.244	304.5
857.49	345.5
857.736	352.5
857.982	347.5
858.228	352.5
858.474	297.5
858.72	338.5
858.966	344.5
859.212	348.5
859.458	354.5
859.703	346.5
859.949	312.5
860.195	358.5
860.44	359.5
860.686	306.5
860.931	390.5
861.177	316.5
861.422	379.5
861.667	328.5
861.913	332.5
862.158	338.5
862.403	374.5
862.648	360.5
862.893	397.5
863.138	339.5
863.384	309.5
863.629	368.5
863.873	356.5
864.118	339.5
864.363	274.5
864.608	346.5
864.853	375.5
865.098	336.5
865.342	350.5
865.587	342.5
865.832	380.5
866.076	359.5
866.321	323.5
866.565	332.5
866.81	282.5
867.054	339.5
867.298	347.5
867.543	310.5
867.787	351.5
868.031	337.5
868.275	342.5
868.519	331.5
868.764	339.5
869.008	326.5
869.252	365.5
869.496	333.5
869.739	346.5
869.983	388.5
870.227	359.5
870.471	313.5
870.715	360.5
870.958	344.5
871.202	307.5
871.446	337.5
871.689	311.5
871.933	343.5
872.176	351.5
872.42	332.5
872.663	325.5
872.906	372.5
873.15	329.5
873.393	282.5
873.636	371.5
873.879	364.5
874.122	394.5
874.366	340.5
874.609	374.5
874.852	347.5
875.095	352.5
875.337	319.5
875.58	280.5
875.823	350.5
876.066	374.5
876.309	398.5
876.551	304.5
876.794	292.5
877.037	371.5
877.279	304.5
877.522	318.5
877.764	359.5
878.007	320.5
878.249	347.5
878.491	303.5
878.734	367.5
878.976	352.5
879.218	299.5
879.46	380.5
879.702	363.5
879.945	362.5
880.187	327.5
880.429	368.5
880.671	369.5
880.912	392.5
881.154	371.5
881.396	284.5
881.638	361.5
881.88	341.5
882.121	317.5
882.363	324.5
882.605	389.5
882.846	365.5
883.088	378.5
883.329	328.5
883.571	293.5
883.812	311.5
884.053	325.5
884.295	336.5
884.536	392.5
884.777	321.5
885.018	348.5
885.259	360.5
885.5	302.5
885.742	514.5
885.982	360.5
886.223	314.5
886.464	327.5
886.705	299.5
886.946	355.5
887.187	279.5
887.428	364.5
887.668	323.5
887.909	307.5
888.15	294.5
888.39	362.5
888.631	414.5
888.871	375.5
889.111	370.5
889.352	348.5
889.592	347.5
889.833	351.5
890.073	346.5
890.313	411.5
890.553	310.5
890.793	341.5
891.033	315.5
891.273	329.5
891.513	356.5
891.753	408.5
891.993	354.5
892.233	382.5
892.473	431.5
892.713	356.5
892.952	309.5
893.192	343.5
893.432	321.5
893.671	387.5
893.911	340.5
894.15	347.5
894.39	297.5
894.629	330.5
894.869	367.5
895.108	342.5
895.347	324.5
895.587	357.5
895.826	335.5
896.065	324.5
896.304	381.5
896.543	392.5
896.782	295.5
897.021	365.5
897.26	346.5
897.499	400.5
897.738	416.5
897.977	367.5
898.216	342.5
898.454	349.5
898.693	340.5
898.932	374.5
899.17	347.5
899.409	349.5
899.647	347.5
899.886	335.5
900.124	381.5
900.363	322.5
900.601	362.5
900.839	357.5
901.078	362.5
901.316	351.5
901.554	349.5
901.792	369.5
902.03	302.5
902.268	331.5
902.506	381.5
902.744	339.5
902.982	378.5
903.22	327.5
903.458	333.5
903.695	371.5
903.933	385.5
904.171	326.5
904.409	340.5
904.646	394.5
904.884	350.5
905.121	405.5
905.359	371.5
905.596	380.5
905.833	351.5
906.071	339.5
906.308	409.5
906.545	366.5
906.783	311.5
907.02	351.5
907.257	301.5
907.494	340.5
907.731	371.5
907.968	384.5
908.205	339.5
908.442	335.5
908.679	357.5
908.915	373.5
909.152	365.5
909.389	297.5
909.626	331.5
909.862	337.5
910.099	359.5
910.335	405.5
910.572	304.5
910.808	372.5
911.045	354.5
911.281	339.5
911.518	415.5
911.754	339.5
911.99	368.5
912.226	355.5
912.463	321.5
912.699	330.5
912.935	344.5
913.171	347.5
913.407	323.5
913.643	402.5
913.879	375.5
914.114	363.5
914.35	346.5
914.586	356.5
914.822	335.5
915.057	422.5
915.293	315.5
915.529	326.5
915.764	406.5
916	392.5
916.235	383.5
916.471	406.5
916.706	308.5
916.941	345.5
917.177	345.5
917.412	388.5
917.647	388.5
917.882	331.5
918.117	401.5
918.352	384.5
918.588	433.5
918.823	360.5
919.057	369.5
919.292	296.5
919.527	415.5
919.762	363.5
919.997	436.5
920.232	371.5
920.466	434.5
920.701	324.5
920.935	398.5
921.17	372.5
921.405	340.5
921.639	409.5
921.873	383.5
922.108	388.5
922.342	398.5
922.576	339.5
922.811	343.5
923.045	395.5
923.279	438.5
923.513	308.5
923.747	414.5
923.981	372.5
924.215	350.5
924.449	362.5
924.683	343.5
924.917	358.5
925.151	351.5
925.385	430.5
925.618	392.5
925.852	417.5
926.086	336.5
926.319	381.5
926.553	364.5
926.786	381.5
927.02	376.5
927.253	420.5
927.486	427.5
927.72	355.5
927.953	402.5
928.186	370.5
928.42	407.5
928.653	349.5
928.886	361.5
929.119	404.5
929.352	390.5
929.585	388.5
929.818	355.5
930.051	396.5
930.284	410.5
930.516	327.5
930.749	363.5
930.982	428.5
931.215	398.5
931.447	354.5
931.68	375.5
931.912	368.5
932.145	367.5
932.377	390.5
932.61	503.5
932.842	327.5
933.074	396.5
933.307	336.5
933.539	445.5
933.771	428.5
934.003	369.5
934.236	444.5
934.468	464.5
934.7	377.5
934.932	420.5
935.164	363.5
935.395	353.5
935.627	383.5
935.859	398.5
936.091	343.5
936.323	400.5
936.554	446.5
936.786	395.5
937.017	343.5
937.249	408.5
937.481	332.5
937.712	413.5
937.943	388.5
938.175	357.5
938.406	383.5
938.637	432.5
938.869	341.5
939.1	403.5
939.331	353.5
939.562	410.5
939.793	400.5
940.024	429.5
940.255	450.5
940.486	394.5
940.717	397.5
940.948	388.5
941.179	353.5
941.409	392.5
941.64	372.5
941.871	394.5
942.102	378.5
942.332	367.5
942.563	417.5
942.793	390.5
943.024	340.5
943.254	378.5
943.484	429.5
943.715	429.5
943.945	398.5
944.175	343.5
944.405	319.5
944.636	341.5
944.866	387.5
945.096	400.5
945.326	333.5
945.556	405.5
945.786	421.5
946.016	375.5
946.245	356.5
946.475	373.5
946.705	370.5
946.935	402.5
947.164	405.5
947.394	363.5
947.624	398.5
947.853	438.5
948.083	410.5
948.312	369.5
948.542	358.5
948.771	336.5
949	364.5
949.23	370.5
949.459	395.5
949.688	451.5
949.917	400.5
950.146	400.5
950.375	436.5
950.604	367.5
950.833	452.5
951.062	439.5
951.291	399.5
951.52	380.5
951.749	394.5
951.978	362.5
952.206	368.5
952.435	387.5
952.664	415.5
952.892	425.5
953.121	399.5
953.349	438.5
953.578	427.5
953.806	405.5
954.035	364.5
954.263	412.5
954.491	371.5
954.719	426.5
954.948	378.5
955.176	377.5
955.404	332.5
955.632	411.5
955.86	421.5
956.088	412.5
956.316	441.5
956.544	463.5
956.772	413.5
956.999	402.5
957.227	498.5
957.455	403.5
957.683	423.5
957.91	392.5
958.138	389.5
958.365	420.5
958.593	412.5
958.82	359.5
959.048	442.5
959.275	418.5
959.502	418.5
959.73	382.5
959.957	407.5
960.184	450.5
960.411	382.5
960.638	478.5
960.865	422.5
961.092	440.5
961.319	354.5
961.546	456.5
961.773	445.5
962	427.5
962.227	484.5
962.454	449.5
962.68	433.5
962.907	447.5
963.134	408.5
963.36	450.5
963.587	471.5
963.813	421.5
964.04	475.5
964.266	414.5
964.493	503.5
964.719	475.5
964.945	495.5
965.171	405.5
965.398	465.5
965.624	491.5
965.85	419.5
966.076	435.5
966.302	497.5
966.528	442.5
966.754	481.5
966.98	468.5
967.206	483.5
967.431	422.5
967.657	497.5
967.883	510.5
968.109	472.5
968.334	439.5
968.56	423.5
968.785	448.5
969.011	414.5
969.236	477.5
969.462	417.5
969.687	443.5
969.912	494.5
970.138	499.5
970.363	427.5
970.588	482.5
970.813	450.5
971.038	441.5
971.263	482.5
971.488	479.5
971.713	505.5
971.938	512.5
972.163	409.5
972.388	464.5
972.613	435.5
972.838	468.5
973.062	467.5
973.287	450.5
973.512	405.5
973.736	453.5
973.961	440.5
974.185	438.5
974.41	465.5
974.634	404.5
974.858	423.5
975.083	485.5
975.307	500.5
975.531	437.5
975.755	402.5
975.98	436.5
976.204	392.5
976.428	396.5
976.652	415.5
976.876	392.5
977.1	440.5
977.324	413.5
977.547	455.5
977.771	486.5
977.995	433.5
978.219	387.5
978.442	505.5
978.666	465.5
978.89	449.5
979.113	452.5
979.337	455.5
979.56	425.5
979.783	498.5
980.007	401.5
980.23	449.5
980.453	420.5
980.677	459.5
980.9	452.5
981.123	371.5
981.346	480.5
981.569	464.5
981.792	497.5
982.015	471.5
982.238	429.5
982.461	449.5
982.684	427.5
982.907	418.5
983.129	417.5
983.352	479.5
983.575	465.5
983.797	468.5
984.02	422.5
984.242	450.5
984.465	460.5
984.687	483.5
984.91	517.5
985.132	502.5
985.354	526.5
985.577	499.5
985.799	488.5
986.021	420.5
986.243	439.5
986.465	446.5
986.687	517.5
986.909	556.5
987.131	504.5
987.353	458.5
987.575	503.5
987.797	477.5
988.019	422.5
988.241	483.5
988.462	449.5
988.684	504.5
988.906	525.5
989.127	570.5
989.349	443.5
989.57	492.5
989.792	510.5
990.013	533.5
990.234	551.5
990.456	579.5
990.677	554.5
990.898	493.5
991.119	504.5
991.341	550.5
991.562	485.5
991.783	543.5
992.004	491.5
992.225	466.5
992.446	532.5
992.667	446.5
992.887	537.5
993.108	441.5
993.329	594.5
993.55	541.5
993.77	476.5
993.991	494.5
994.212	540.5
994.432	532.5
994.653	534.5
994.873	548.5
995.093	448.5
995.314	502.5
995.534	566.5
995.754	582.5
995.975	598.5
996.195	500.5
996.415	555.5
996.635	532.5
996.855	554.5
997.075	521.5
997.295	524.5
997.515	513.5
997.735	550.5
997.955	526.5
998.174	540.5
998.394	495.5
998.614	554.5
998.834	519.5
999.053	607.5
999.273	553.5
999.492	632.5
999.712	571.5
999.931	521.5
1000.151	582.5
1000.37	570.5
1000.589	627.5
1000.809	556.5
1001.028	699.5
1001.247	635.5
1001.466	540.5
1001.685	690.5
1001.904	629.5
1002.123	616.5
1002.342	628.5
1002.561	604.5
1002.78	638.5
1002.999	690.5
1003.218	648.5
1003.436	630.5
1003.655	692.5
1003.874	617.5
1004.092	650.5
1004.311	708.5
1004.53	655.5
1004.748	738.5
1004.966	673.5
1005.185	712.5
1005.403	695.5
1005.622	674.5
1005.84	740.5
1006.058	655.5
1006.276	687.5
1006.494	1184.5
1006.712	666.5
1006.931	748.5
1007.149	648.5
1007.367	646.5
1007.584	676.5
1007.802	713.5
1008.02	657.5
1008.238	750.5
1008.456	732.5
1008.673	572.5
1008.891	678.5
1009.109	621.5
1009.326	659.5
1009.544	727.5
1009.761	601.5
1009.979	649.5
1010.196	627.5
1010.413	666.5
1010.631	670.5
1010.848	673.5
1011.065	643.5
1011.282	605.5
1011.5	556.5
1011.717	683.5
1011.934	637.5
1012.151	681.5
1012.368	651.5
1012.585	582.5
1012.801	655.5
1013.018	608.5
1013.235	572.5
1013.452	592.5
1013.669	593.5
1013.885	566.5
1014.102	599.5
1014.318	556.5
1014.535	536.5
1014.751	570.5
1014.968	577.5
1015.184	606.5
1015.401	522.5
1015.617	577.5
1015.833	536.5
1016.049	542.5
1016.266	543.5
1016.482	559.5
1016.698	502.5
1016.914	564.5
1017.13	500.5
1017.346	504.5
1017.562	588.5
1017.778	512.5
1017.993	491.5
1018.209	539.5
1018.425	547.5
1018.641	505.5
1018.856	476.5
1019.072	495.5
1019.288	553.5
1019.503	500.5
1019.719	434.5
1019.934	448.5
1020.149	546.5
1020.365	491.5
1020.58	470.5
1020.795	542.5
1021.011	504.5
1021.226	511.5
1021.441	539.5
1021.656	487.5
1021.871	441.5
1022.086	458.5
1022.301	481.5
1022.516	462.5
1022.731	534.5
1022.946	466.5
1023.16	470.5
1023.375	461.5
1023.59	448.5
1023.804	424.5
1024.019	542.5
1024.234	420.5
1024.448	470.5
1024.663	411.5
1024.877	435.5
1025.092	468.5
1025.306	492.5
1025.52	413.5
1025.734	520.5
1025.949	451.5
1026.163	439.5
1026.377	384.5
1026.591	439.5
1026.805	380.5
1027.019	389.5
1027.233	356.5
1027.447	322.5
1027.661	432.5
1027.875	380.5
1028.088	388.5
1028.302	325.5
1028.516	343.5
1028.73	350.5
1028.943	362.5
1029.157	336.5
1029.37	310.5
1029.584	-3.5
1029.797	-0.5
1030.011	-2.5
1030.224	-0.5
