Data from QEP037381__70__10-23-51-070.txt Node

Date: Fri Apr 21 10:23:51 EDT 2023
User: dcclab
Spectrometer: QEP03738
Trigger mode: 4
Integration Time (sec): 1.000000E1
Scans to average: 1
Electric dark correction enabled: true
Nonlinearity correction enabled: false
Boxcar width: 0
XAxis mode: Wavelengths
Number of Pixels in Spectrum: 1044
>>>>>Begin Spectral Data<<<<<
784.041	11.62
784.3	-1.38
784.558	-0.38
784.817	0.62
785.075	231.62
785.334	204.62
785.592	206.62
785.851	181.62
786.109	231.62
786.368	235.62
786.626	253.62
786.884	277.62
787.143	264.62
787.401	213.62
787.659	274.62
787.917	260.62
788.175	296.62
788.433	278.62
788.691	279.62
788.949	283.62
789.207	297.62
789.465	257.62
789.723	268.62
789.98	254.62
790.238	310.62
790.496	293.62
790.753	290.62
791.011	348.62
791.268	309.62
791.526	303.62
791.783	324.62
792.041	317.62
792.298	244.62
792.556	325.62
792.813	325.62
793.07	303.62
793.327	298.62
793.584	368.62
793.841	290.62
794.099	318.62
794.356	386.62
794.613	289.62
794.869	324.62
795.126	295.62
795.383	288.62
795.64	317.62
795.897	267.62
796.153	331.62
796.41	316.62
796.667	307.62
796.923	308.62
797.18	301.62
797.436	328.62
797.693	274.62
797.949	321.62
798.206	370.62
798.462	268.62
798.718	330.62
798.974	297.62
799.231	343.62
799.487	322.62
799.743	321.62
799.999	338.62
800.255	327.62
800.511	299.62
800.767	329.62
801.023	305.62
801.279	314.62
801.534	320.62
801.79	330.62
802.046	303.62
802.302	352.62
802.557	335.62
802.813	353.62
803.068	281.62
803.324	339.62
803.579	312.62
803.835	300.62
804.09	326.62
804.345	294.62
804.601	271.62
804.856	310.62
805.111	328.62
805.366	303.62
805.621	310.62
805.876	345.62
806.131	324.62
806.386	310.62
806.641	268.62
806.896	304.62
807.151	370.62
807.406	303.62
807.661	337.62
807.915	318.62
808.17	330.62
808.425	327.62
808.679	290.62
808.934	382.62
809.188	300.62
809.443	355.62
809.697	362.62
809.951	290.62
810.206	292.62
810.46	350.62
810.714	338.62
810.968	359.62
811.223	277.62
811.477	321.62
811.731	352.62
811.985	272.62
812.239	234.62
812.493	281.62
812.747	297.62
813	266.62
813.254	328.62
813.508	331.62
813.762	298.62
814.015	300.62
814.269	309.62
814.522	344.62
814.776	338.62
815.03	331.62
815.283	324.62
815.536	340.62
815.79	333.62
816.043	342.62
816.296	318.62
816.55	321.62
816.803	300.62
817.056	404.62
817.309	333.62
817.562	334.62
817.815	373.62
818.068	298.62
818.321	286.62
818.574	288.62
818.827	347.62
819.079	287.62
819.332	402.62
819.585	321.62
819.838	411.62
820.09	305.62
820.343	359.62
820.595	289.62
820.848	341.62
821.1	345.62
821.353	312.62
821.605	318.62
821.857	368.62
822.11	266.62
822.362	299.62
822.614	275.62
822.866	319.62
823.118	265.62
823.37	362.62
823.622	313.62
823.874	303.62
824.126	350.62
824.378	283.62
824.63	312.62
824.882	339.62
825.134	308.62
825.385	359.62
825.637	333.62
825.888	307.62
826.14	324.62
826.392	301.62
826.643	287.62
826.895	373.62
827.146	314.62
827.397	298.62
827.649	373.62
827.9	286.62
828.151	276.62
828.402	277.62
828.653	320.62
828.905	332.62
829.156	376.62
829.407	298.62
829.658	317.62
829.909	349.62
830.159	338.62
830.41	347.62
830.661	356.62
830.912	339.62
831.162	310.62
831.413	310.62
831.664	355.62
831.914	323.62
832.165	325.62
832.415	326.62
832.666	341.62
832.916	361.62
833.167	310.62
833.417	375.62
833.667	348.62
833.917	335.62
834.168	383.62
834.418	344.62
834.668	319.62
834.918	282.62
835.168	312.62
835.418	260.62
835.668	329.62
835.918	359.62
836.167	331.62
836.417	293.62
836.667	367.62
836.917	367.62
837.166	338.62
837.416	364.62
837.666	374.62
837.915	322.62
838.165	336.62
838.414	306.62
838.663	264.62
838.913	330.62
839.162	287.62
839.411	385.62
839.661	321.62
839.91	322.62
840.159	318.62
840.408	338.62
840.657	320.62
840.906	328.62
841.155	359.62
841.404	310.62
841.653	340.62
841.902	299.62
842.15	336.62
842.399	346.62
842.648	322.62
842.897	346.62
843.145	283.62
843.394	292.62
843.642	305.62
843.891	355.62
844.139	333.62
844.388	289.62
844.636	264.62
844.884	321.62
845.133	294.62
845.381	329.62
845.629	350.62
845.877	298.62
846.125	300.62
846.373	329.62
846.621	302.62
846.869	353.62
847.117	329.62
847.365	321.62
847.613	345.62
847.861	344.62
848.108	375.62
848.356	342.62
848.604	310.62
848.851	333.62
849.099	332.62
849.346	305.62
849.594	340.62
849.841	357.62
850.089	318.62
850.336	288.62
850.583	310.62
850.831	328.62
851.078	332.62
851.325	291.62
851.572	352.62
851.819	357.62
852.066	330.62
852.313	326.62
852.56	294.62
852.807	277.62
853.054	310.62
853.301	319.62
853.548	309.62
853.794	405.62
854.041	347.62
854.288	273.62
854.534	383.62
854.781	328.62
855.028	297.62
855.274	383.62
855.52	325.62
855.767	292.62
856.013	351.62
856.26	648.62
856.506	318.62
856.752	359.62
856.998	318.62
857.244	306.62
857.49	343.62
857.736	353.62
857.982	341.62
858.228	354.62
858.474	289.62
858.72	338.62
858.966	354.62
859.212	346.62
859.458	343.62
859.703	341.62
859.949	323.62
860.195	362.62
860.44	351.62
860.686	302.62
860.931	383.62
861.177	314.62
861.422	385.62
861.667	330.62
861.913	332.62
862.158	319.62
862.403	378.62
862.648	346.62
862.893	386.62
863.138	328.62
863.384	309.62
863.629	365.62
863.873	340.62
864.118	323.62
864.363	269.62
864.608	348.62
864.853	371.62
865.098	329.62
865.342	367.62
865.587	335.62
865.832	378.62
866.076	336.62
866.321	318.62
866.565	331.62
866.81	276.62
867.054	331.62
867.298	339.62
867.543	310.62
867.787	361.62
868.031	337.62
868.275	340.62
868.519	316.62
868.764	342.62
869.008	321.62
869.252	381.62
869.496	340.62
869.739	343.62
869.983	391.62
870.227	366.62
870.471	305.62
870.715	346.62
870.958	349.62
871.202	307.62
871.446	318.62
871.689	298.62
871.933	336.62
872.176	332.62
872.42	323.62
872.663	321.62
872.906	389.62
873.15	342.62
873.393	282.62
873.636	379.62
873.879	364.62
874.122	387.62
874.366	331.62
874.609	366.62
874.852	329.62
875.095	350.62
875.337	328.62
875.58	281.62
875.823	329.62
876.066	374.62
876.309	409.62
876.551	302.62
876.794	297.62
877.037	376.62
877.279	304.62
877.522	319.62
877.764	373.62
878.007	307.62
878.249	339.62
878.491	303.62
878.734	375.62
878.976	361.62
879.218	316.62
879.46	380.62
879.702	388.62
879.945	358.62
880.187	340.62
880.429	370.62
880.671	363.62
880.912	378.62
881.154	357.62
881.396	280.62
881.638	359.62
881.88	346.62
882.121	316.62
882.363	327.62
882.605	385.62
882.846	366.62
883.088	366.62
883.329	323.62
883.571	293.62
883.812	333.62
884.053	328.62
884.295	330.62
884.536	407.62
884.777	332.62
885.018	362.62
885.259	356.62
885.5	292.62
885.742	508.62
885.982	349.62
886.223	309.62
886.464	319.62
886.705	295.62
886.946	348.62
887.187	275.62
887.428	376.62
887.668	324.62
887.909	314.62
888.15	308.62
888.39	352.62
888.631	406.62
888.871	375.62
889.111	358.62
889.352	348.62
889.592	335.62
889.833	355.62
890.073	348.62
890.313	409.62
890.553	301.62
890.793	352.62
891.033	320.62
891.273	331.62
891.513	343.62
891.753	404.62
891.993	355.62
892.233	376.62
892.473	423.62
892.713	371.62
892.952	308.62
893.192	361.62
893.432	326.62
893.671	385.62
893.911	341.62
894.15	340.62
894.39	297.62
894.629	337.62
894.869	371.62
895.108	360.62
895.347	315.62
895.587	374.62
895.826	338.62
896.065	311.62
896.304	355.62
896.543	386.62
896.782	292.62
897.021	359.62
897.26	342.62
897.499	391.62
897.738	412.62
897.977	362.62
898.216	350.62
898.454	345.62
898.693	317.62
898.932	369.62
899.17	352.62
899.409	342.62
899.647	341.62
899.886	326.62
900.124	376.62
900.363	317.62
900.601	358.62
900.839	353.62
901.078	358.62
901.316	354.62
901.554	357.62
901.792	360.62
902.03	313.62
902.268	346.62
902.506	383.62
902.744	329.62
902.982	394.62
903.22	323.62
903.458	337.62
903.695	392.62
903.933	386.62
904.171	324.62
904.409	331.62
904.646	387.62
904.884	344.62
905.121	398.62
905.359	384.62
905.596	371.62
905.833	345.62
906.071	343.62
906.308	405.62
906.545	379.62
906.783	311.62
907.02	343.62
907.257	308.62
907.494	339.62
907.731	365.62
907.968	392.62
908.205	335.62
908.442	340.62
908.679	358.62
908.915	359.62
909.152	375.62
909.389	306.62
909.626	334.62
909.862	331.62
910.099	358.62
910.335	390.62
910.572	301.62
910.808	364.62
911.045	352.62
911.281	334.62
911.518	405.62
911.754	359.62
911.99	370.62
912.226	362.62
912.463	326.62
912.699	344.62
912.935	342.62
913.171	351.62
913.407	333.62
913.643	403.62
913.879	362.62
914.114	373.62
914.35	341.62
914.586	362.62
914.822	328.62
915.057	455.62
915.293	322.62
915.529	326.62
915.764	403.62
916	388.62
916.235	367.62
916.471	390.62
916.706	307.62
916.941	339.62
917.177	339.62
917.412	386.62
917.647	377.62
917.882	333.62
918.117	402.62
918.352	397.62
918.588	420.62
918.823	353.62
919.057	367.62
919.292	285.62
919.527	417.62
919.762	359.62
919.997	428.62
920.232	369.62
920.466	425.62
920.701	322.62
920.935	386.62
921.17	361.62
921.405	327.62
921.639	411.62
921.873	382.62
922.108	387.62
922.342	393.62
922.576	342.62
922.811	349.62
923.045	393.62
923.279	427.62
923.513	318.62
923.747	413.62
923.981	399.62
924.215	349.62
924.449	363.62
924.683	341.62
924.917	350.62
925.151	361.62
925.385	430.62
925.618	378.62
925.852	396.62
926.086	319.62
926.319	384.62
926.553	372.62
926.786	387.62
927.02	375.62
927.253	410.62
927.486	415.62
927.72	349.62
927.953	411.62
928.186	372.62
928.42	403.62
928.653	365.62
928.886	346.62
929.119	402.62
929.352	380.62
929.585	404.62
929.818	352.62
930.051	400.62
930.284	405.62
930.516	330.62
930.749	356.62
930.982	421.62
931.215	396.62
931.447	365.62
931.68	383.62
931.912	351.62
932.145	360.62
932.377	399.62
932.61	513.62
932.842	325.62
933.074	397.62
933.307	347.62
933.539	435.62
933.771	412.62
934.003	374.62
934.236	436.62
934.468	466.62
934.7	374.62
934.932	414.62
935.164	352.62
935.395	353.62
935.627	378.62
935.859	396.62
936.091	350.62
936.323	405.62
936.554	445.62
936.786	395.62
937.017	341.62
937.249	386.62
937.481	332.62
937.712	419.62
937.943	398.62
938.175	367.62
938.406	371.62
938.637	448.62
938.869	345.62
939.1	413.62
939.331	377.62
939.562	414.62
939.793	395.62
940.024	428.62
940.255	446.62
940.486	394.62
940.717	400.62
940.948	388.62
941.179	360.62
941.409	384.62
941.64	380.62
941.871	406.62
942.102	378.62
942.332	378.62
942.563	408.62
942.793	390.62
943.024	341.62
943.254	375.62
943.484	421.62
943.715	418.62
943.945	409.62
944.175	326.62
944.405	329.62
944.636	340.62
944.866	387.62
945.096	406.62
945.326	322.62
945.556	401.62
945.786	417.62
946.016	382.62
946.245	342.62
946.475	377.62
946.705	372.62
946.935	396.62
947.164	409.62
947.394	375.62
947.624	391.62
947.853	437.62
948.083	414.62
948.312	376.62
948.542	339.62
948.771	333.62
949	341.62
949.23	361.62
949.459	394.62
949.688	441.62
949.917	382.62
950.146	401.62
950.375	469.62
950.604	356.62
950.833	446.62
951.062	430.62
951.291	412.62
951.52	368.62
951.749	403.62
951.978	366.62
952.206	376.62
952.435	368.62
952.664	435.62
952.892	415.62
953.121	415.62
953.349	442.62
953.578	438.62
953.806	423.62
954.035	374.62
954.263	418.62
954.491	370.62
954.719	412.62
954.948	394.62
955.176	383.62
955.404	332.62
955.632	412.62
955.86	426.62
956.088	409.62
956.316	456.62
956.544	453.62
956.772	401.62
956.999	393.62
957.227	504.62
957.455	394.62
957.683	425.62
957.91	397.62
958.138	401.62
958.365	423.62
958.593	405.62
958.82	362.62
959.048	445.62
959.275	412.62
959.502	409.62
959.73	382.62
959.957	427.62
960.184	450.62
960.411	387.62
960.638	468.62
960.865	436.62
961.092	459.62
961.319	365.62
961.546	462.62
961.773	455.62
962	422.62
962.227	461.62
962.454	440.62
962.68	425.62
962.907	444.62
963.134	419.62
963.36	444.62
963.587	480.62
963.813	427.62
964.04	473.62
964.266	416.62
964.493	499.62
964.719	485.62
964.945	490.62
965.171	399.62
965.398	474.62
965.624	479.62
965.85	425.62
966.076	442.62
966.302	483.62
966.528	453.62
966.754	487.62
966.98	480.62
967.206	459.62
967.431	409.62
967.657	516.62
967.883	504.62
968.109	473.62
968.334	433.62
968.56	426.62
968.785	452.62
969.011	413.62
969.236	474.62
969.462	429.62
969.687	432.62
969.912	483.62
970.138	511.62
970.363	442.62
970.588	481.62
970.813	458.62
971.038	445.62
971.263	482.62
971.488	477.62
971.713	523.62
971.938	505.62
972.163	415.62
972.388	447.62
972.613	435.62
972.838	472.62
973.062	461.62
973.287	457.62
973.512	416.62
973.736	465.62
973.961	447.62
974.185	435.62
974.41	490.62
974.634	405.62
974.858	433.62
975.083	477.62
975.307	486.62
975.531	434.62
975.755	399.62
975.98	422.62
976.204	383.62
976.428	391.62
976.652	401.62
976.876	397.62
977.1	434.62
977.324	402.62
977.547	457.62
977.771	470.62
977.995	449.62
978.219	398.62
978.442	507.62
978.666	448.62
978.89	463.62
979.113	448.62
979.337	446.62
979.56	410.62
979.783	512.62
980.007	414.62
980.23	444.62
980.453	420.62
980.677	460.62
980.9	455.62
981.123	371.62
981.346	476.62
981.569	458.62
981.792	488.62
982.015	448.62
982.238	437.62
982.461	443.62
982.684	426.62
982.907	424.62
983.129	417.62
983.352	501.62
983.575	470.62
983.797	468.62
984.02	428.62
984.242	451.62
984.465	459.62
984.687	496.62
984.91	512.62
985.132	503.62
985.354	494.62
985.577	490.62
985.799	477.62
986.021	411.62
986.243	449.62
986.465	473.62
986.687	519.62
986.909	547.62
987.131	497.62
987.353	473.62
987.575	498.62
987.797	466.62
988.019	409.62
988.241	478.62
988.462	447.62
988.684	505.62
988.906	538.62
989.127	561.62
989.349	445.62
989.57	488.62
989.792	534.62
990.013	544.62
990.234	544.62
990.456	582.62
990.677	551.62
990.898	511.62
991.119	509.62
991.341	545.62
991.562	489.62
991.783	530.62
992.004	469.62
992.225	461.62
992.446	536.62
992.667	459.62
992.887	537.62
993.108	427.62
993.329	587.62
993.55	532.62
993.77	478.62
993.991	489.62
994.212	547.62
994.432	518.62
994.653	522.62
994.873	536.62
995.093	450.62
995.314	490.62
995.534	556.62
995.754	579.62
995.975	612.62
996.195	501.62
996.415	554.62
996.635	534.62
996.855	557.62
997.075	530.62
997.295	521.62
997.515	506.62
997.735	556.62
997.955	536.62
998.174	536.62
998.394	503.62
998.614	556.62
998.834	523.62
999.053	597.62
999.273	556.62
999.492	619.62
999.712	573.62
999.931	530.62
1000.151	576.62
1000.37	560.62
1000.589	640.62
1000.809	560.62
1001.028	705.62
1001.247	631.62
1001.466	544.62
1001.685	689.62
1001.904	632.62
1002.123	619.62
1002.342	639.62
1002.561	592.62
1002.78	636.62
1002.999	704.62
1003.218	643.62
1003.436	618.62
1003.655	675.62
1003.874	623.62
1004.092	660.62
1004.311	691.62
1004.53	652.62
1004.748	736.62
1004.966	652.62
1005.185	704.62
1005.403	699.62
1005.622	689.62
1005.84	777.62
1006.058	632.62
1006.276	685.62
1006.494	1153.62
1006.712	689.62
1006.931	726.62
1007.149	640.62
1007.367	659.62
1007.584	684.62
1007.802	702.62
1008.02	652.62
1008.238	741.62
1008.456	739.62
1008.673	595.62
1008.891	679.62
1009.109	626.62
1009.326	665.62
1009.544	726.62
1009.761	605.62
1009.979	671.62
1010.196	632.62
1010.413	656.62
1010.631	671.62
1010.848	689.62
1011.065	654.62
1011.282	602.62
1011.5	559.62
1011.717	674.62
1011.934	624.62
1012.151	677.62
1012.368	650.62
1012.585	594.62
1012.801	654.62
1013.018	606.62
1013.235	577.62
1013.452	586.62
1013.669	597.62
1013.885	570.62
1014.102	599.62
1014.318	557.62
1014.535	527.62
1014.751	571.62
1014.968	563.62
1015.184	618.62
1015.401	523.62
1015.617	580.62
1015.833	525.62
1016.049	543.62
1016.266	560.62
1016.482	558.62
1016.698	499.62
1016.914	557.62
1017.13	512.62
1017.346	508.62
1017.562	589.62
1017.778	520.62
1017.993	486.62
1018.209	571.62
1018.425	531.62
1018.641	502.62
1018.856	453.62
1019.072	516.62
1019.288	542.62
1019.503	504.62
1019.719	423.62
1019.934	463.62
1020.149	549.62
1020.365	502.62
1020.58	486.62
1020.795	528.62
1021.011	491.62
1021.226	493.62
1021.441	549.62
1021.656	483.62
1021.871	448.62
1022.086	459.62
1022.301	470.62
1022.516	477.62
1022.731	530.62
1022.946	475.62
1023.16	461.62
1023.375	459.62
1023.59	441.62
1023.804	423.62
1024.019	546.62
1024.234	427.62
1024.448	471.62
1024.663	423.62
1024.877	456.62
1025.092	475.62
1025.306	478.62
1025.52	417.62
1025.734	505.62
1025.949	459.62
1026.163	431.62
1026.377	391.62
1026.591	443.62
1026.805	382.62
1027.019	388.62
1027.233	360.62
1027.447	321.62
1027.661	435.62
1027.875	372.62
1028.088	394.62
1028.302	334.62
1028.516	347.62
1028.73	348.62
1028.943	357.62
1029.157	322.62
1029.37	314.62
1029.584	-2.38
1029.797	-4.38
1030.011	-1.38
1030.224	-2.38
