Data from QEP037381__41__10-19-01-063.txt Node

Date: Fri Apr 21 10:19:01 EDT 2023
User: dcclab
Spectrometer: QEP03738
Trigger mode: 4
Integration Time (sec): 1.000000E1
Scans to average: 1
Electric dark correction enabled: true
Nonlinearity correction enabled: false
Boxcar width: 0
XAxis mode: Wavelengths
Number of Pixels in Spectrum: 1044
>>>>>Begin Spectral Data<<<<<
784.041	12.12
784.3	-0.88
784.558	-3.88
784.817	-2.88
785.075	231.12
785.334	208.12
785.592	199.12
785.851	195.12
786.109	223.12
786.368	236.12
786.626	253.12
786.884	276.12
787.143	272.12
787.401	215.12
787.659	281.12
787.917	261.12
788.175	308.12
788.433	275.12
788.691	282.12
788.949	286.12
789.207	294.12
789.465	260.12
789.723	285.12
789.98	245.12
790.238	319.12
790.496	303.12
790.753	297.12
791.011	361.12
791.268	304.12
791.526	301.12
791.783	331.12
792.041	334.12
792.298	259.12
792.556	329.12
792.813	308.12
793.07	291.12
793.327	290.12
793.584	390.12
793.841	303.12
794.099	317.12
794.356	389.12
794.613	283.12
794.869	343.12
795.126	298.12
795.383	294.12
795.64	304.12
795.897	263.12
796.153	336.12
796.41	309.12
796.667	292.12
796.923	298.12
797.18	302.12
797.436	324.12
797.693	289.12
797.949	337.12
798.206	364.12
798.462	274.12
798.718	316.12
798.974	300.12
799.231	338.12
799.487	314.12
799.743	316.12
799.999	353.12
800.255	316.12
800.511	315.12
800.767	336.12
801.023	306.12
801.279	324.12
801.534	319.12
801.79	336.12
802.046	305.12
802.302	354.12
802.557	321.12
802.813	360.12
803.068	289.12
803.324	350.12
803.579	301.12
803.835	310.12
804.09	352.12
804.345	297.12
804.601	289.12
804.856	292.12
805.111	317.12
805.366	308.12
805.621	318.12
805.876	339.12
806.131	320.12
806.386	313.12
806.641	275.12
806.896	309.12
807.151	377.12
807.406	308.12
807.661	330.12
807.915	315.12
808.17	334.12
808.425	330.12
808.679	291.12
808.934	372.12
809.188	306.12
809.443	335.12
809.697	366.12
809.951	299.12
810.206	308.12
810.46	354.12
810.714	334.12
810.968	363.12
811.223	282.12
811.477	324.12
811.731	340.12
811.985	264.12
812.239	239.12
812.493	276.12
812.747	312.12
813	269.12
813.254	338.12
813.508	344.12
813.762	292.12
814.015	297.12
814.269	314.12
814.522	344.12
814.776	338.12
815.03	331.12
815.283	325.12
815.536	341.12
815.79	330.12
816.043	334.12
816.296	324.12
816.55	314.12
816.803	321.12
817.056	410.12
817.309	332.12
817.562	321.12
817.815	362.12
818.068	284.12
818.321	287.12
818.574	291.12
818.827	334.12
819.079	300.12
819.332	415.12
819.585	338.12
819.838	385.12
820.09	304.12
820.343	350.12
820.595	282.12
820.848	335.12
821.1	355.12
821.353	330.12
821.605	313.12
821.857	375.12
822.11	280.12
822.362	308.12
822.614	277.12
822.866	311.12
823.118	265.12
823.37	387.12
823.622	316.12
823.874	302.12
824.126	345.12
824.378	284.12
824.63	315.12
824.882	324.12
825.134	306.12
825.385	349.12
825.637	334.12
825.888	312.12
826.14	313.12
826.392	309.12
826.643	281.12
826.895	364.12
827.146	317.12
827.397	300.12
827.649	383.12
827.9	300.12
828.151	282.12
828.402	283.12
828.653	329.12
828.905	330.12
829.156	375.12
829.407	296.12
829.658	316.12
829.909	373.12
830.159	337.12
830.41	348.12
830.661	351.12
830.912	321.12
831.162	314.12
831.413	307.12
831.664	354.12
831.914	327.12
832.165	332.12
832.415	334.12
832.666	339.12
832.916	356.12
833.167	303.12
833.417	377.12
833.667	356.12
833.917	350.12
834.168	381.12
834.418	350.12
834.668	318.12
834.918	277.12
835.168	305.12
835.418	257.12
835.668	329.12
835.918	360.12
836.167	349.12
836.417	298.12
836.667	362.12
836.917	373.12
837.166	313.12
837.416	364.12
837.666	355.12
837.915	335.12
838.165	342.12
838.414	317.12
838.663	268.12
838.913	331.12
839.162	301.12
839.411	381.12
839.661	318.12
839.91	336.12
840.159	312.12
840.408	329.12
840.657	313.12
840.906	346.12
841.155	373.12
841.404	320.12
841.653	341.12
841.902	292.12
842.15	343.12
842.399	354.12
842.648	321.12
842.897	345.12
843.145	288.12
843.394	300.12
843.642	312.12
843.891	356.12
844.139	341.12
844.388	290.12
844.636	270.12
844.884	324.12
845.133	303.12
845.381	313.12
845.629	356.12
845.877	291.12
846.125	314.12
846.373	331.12
846.621	302.12
846.869	352.12
847.117	340.12
847.365	312.12
847.613	331.12
847.861	345.12
848.108	373.12
848.356	355.12
848.604	312.12
848.851	346.12
849.099	335.12
849.346	322.12
849.594	342.12
849.841	367.12
850.089	320.12
850.336	302.12
850.583	311.12
850.831	331.12
851.078	344.12
851.325	295.12
851.572	357.12
851.819	359.12
852.066	334.12
852.313	319.12
852.56	295.12
852.807	290.12
853.054	287.12
853.301	327.12
853.548	308.12
853.794	401.12
854.041	330.12
854.288	283.12
854.534	391.12
854.781	324.12
855.028	290.12
855.274	388.12
855.52	328.12
855.767	300.12
856.013	354.12
856.26	644.12
856.506	320.12
856.752	360.12
856.998	330.12
857.244	314.12
857.49	356.12
857.736	350.12
857.982	351.12
858.228	360.12
858.474	284.12
858.72	330.12
858.966	352.12
859.212	342.12
859.458	344.12
859.703	350.12
859.949	316.12
860.195	371.12
860.44	350.12
860.686	313.12
860.931	393.12
861.177	312.12
861.422	384.12
861.667	326.12
861.913	332.12
862.158	330.12
862.403	375.12
862.648	365.12
862.893	390.12
863.138	341.12
863.384	310.12
863.629	359.12
863.873	347.12
864.118	314.12
864.363	272.12
864.608	351.12
864.853	368.12
865.098	337.12
865.342	357.12
865.587	329.12
865.832	388.12
866.076	355.12
866.321	328.12
866.565	338.12
866.81	274.12
867.054	326.12
867.298	342.12
867.543	317.12
867.787	361.12
868.031	339.12
868.275	349.12
868.519	331.12
868.764	332.12
869.008	327.12
869.252	379.12
869.496	341.12
869.739	354.12
869.983	387.12
870.227	361.12
870.471	308.12
870.715	373.12
870.958	355.12
871.202	311.12
871.446	316.12
871.689	313.12
871.933	341.12
872.176	351.12
872.42	326.12
872.663	311.12
872.906	375.12
873.15	342.12
873.393	287.12
873.636	393.12
873.879	367.12
874.122	400.12
874.366	327.12
874.609	386.12
874.852	337.12
875.095	361.12
875.337	323.12
875.58	279.12
875.823	333.12
876.066	369.12
876.309	403.12
876.551	306.12
876.794	293.12
877.037	372.12
877.279	307.12
877.522	322.12
877.764	375.12
878.007	317.12
878.249	349.12
878.491	305.12
878.734	357.12
878.976	357.12
879.218	299.12
879.46	391.12
879.702	394.12
879.945	362.12
880.187	335.12
880.429	355.12
880.671	387.12
880.912	385.12
881.154	373.12
881.396	284.12
881.638	351.12
881.88	356.12
882.121	312.12
882.363	338.12
882.605	390.12
882.846	365.12
883.088	377.12
883.329	338.12
883.571	298.12
883.812	320.12
884.053	331.12
884.295	323.12
884.536	419.12
884.777	338.12
885.018	339.12
885.259	368.12
885.5	294.12
885.742	523.12
885.982	373.12
886.223	302.12
886.464	334.12
886.705	290.12
886.946	366.12
887.187	277.12
887.428	381.12
887.668	313.12
887.909	321.12
888.15	295.12
888.39	365.12
888.631	400.12
888.871	378.12
889.111	371.12
889.352	357.12
889.592	349.12
889.833	352.12
890.073	340.12
890.313	418.12
890.553	307.12
890.793	339.12
891.033	321.12
891.273	334.12
891.513	353.12
891.753	406.12
891.993	356.12
892.233	365.12
892.473	425.12
892.713	362.12
892.952	319.12
893.192	354.12
893.432	321.12
893.671	374.12
893.911	338.12
894.15	358.12
894.39	292.12
894.629	329.12
894.869	371.12
895.108	349.12
895.347	326.12
895.587	359.12
895.826	329.12
896.065	313.12
896.304	361.12
896.543	389.12
896.782	290.12
897.021	355.12
897.26	349.12
897.499	394.12
897.738	400.12
897.977	352.12
898.216	350.12
898.454	333.12
898.693	324.12
898.932	377.12
899.17	346.12
899.409	363.12
899.647	361.12
899.886	321.12
900.124	354.12
900.363	322.12
900.601	371.12
900.839	346.12
901.078	357.12
901.316	349.12
901.554	358.12
901.792	356.12
902.03	309.12
902.268	336.12
902.506	384.12
902.744	340.12
902.982	385.12
903.22	313.12
903.458	331.12
903.695	380.12
903.933	388.12
904.171	319.12
904.409	335.12
904.646	378.12
904.884	341.12
905.121	406.12
905.359	394.12
905.596	379.12
905.833	334.12
906.071	342.12
906.308	393.12
906.545	375.12
906.783	315.12
907.02	357.12
907.257	311.12
907.494	353.12
907.731	365.12
907.968	382.12
908.205	347.12
908.442	338.12
908.679	348.12
908.915	368.12
909.152	368.12
909.389	302.12
909.626	347.12
909.862	328.12
910.099	362.12
910.335	398.12
910.572	309.12
910.808	364.12
911.045	343.12
911.281	331.12
911.518	413.12
911.754	358.12
911.99	377.12
912.226	346.12
912.463	328.12
912.699	346.12
912.935	355.12
913.171	351.12
913.407	345.12
913.643	395.12
913.879	367.12
914.114	376.12
914.35	335.12
914.586	365.12
914.822	340.12
915.057	434.12
915.293	320.12
915.529	328.12
915.764	412.12
916	377.12
916.235	392.12
916.471	409.12
916.706	316.12
916.941	357.12
917.177	345.12
917.412	396.12
917.647	389.12
917.882	328.12
918.117	394.12
918.352	374.12
918.588	423.12
918.823	365.12
919.057	380.12
919.292	294.12
919.527	426.12
919.762	357.12
919.997	447.12
920.232	386.12
920.466	412.12
920.701	324.12
920.935	377.12
921.17	373.12
921.405	330.12
921.639	386.12
921.873	376.12
922.108	403.12
922.342	406.12
922.576	338.12
922.811	368.12
923.045	406.12
923.279	413.12
923.513	321.12
923.747	400.12
923.981	390.12
924.215	362.12
924.449	369.12
924.683	338.12
924.917	348.12
925.151	367.12
925.385	441.12
925.618	390.12
925.852	400.12
926.086	331.12
926.319	393.12
926.553	375.12
926.786	388.12
927.02	374.12
927.253	434.12
927.486	412.12
927.72	341.12
927.953	403.12
928.186	366.12
928.42	404.12
928.653	359.12
928.886	339.12
929.119	385.12
929.352	392.12
929.585	383.12
929.818	350.12
930.051	399.12
930.284	413.12
930.516	329.12
930.749	363.12
930.982	420.12
931.215	408.12
931.447	337.12
931.68	376.12
931.912	364.12
932.145	371.12
932.377	380.12
932.61	519.12
932.842	315.12
933.074	385.12
933.307	338.12
933.539	446.12
933.771	415.12
934.003	375.12
934.236	435.12
934.468	454.12
934.7	362.12
934.932	414.12
935.164	364.12
935.395	374.12
935.627	384.12
935.859	394.12
936.091	346.12
936.323	403.12
936.554	442.12
936.786	400.12
937.017	336.12
937.249	386.12
937.481	336.12
937.712	435.12
937.943	380.12
938.175	381.12
938.406	380.12
938.637	446.12
938.869	331.12
939.1	406.12
939.331	368.12
939.562	417.12
939.793	398.12
940.024	430.12
940.255	436.12
940.486	383.12
940.717	396.12
940.948	394.12
941.179	365.12
941.409	379.12
941.64	378.12
941.871	401.12
942.102	386.12
942.332	376.12
942.563	423.12
942.793	393.12
943.024	341.12
943.254	380.12
943.484	423.12
943.715	445.12
943.945	397.12
944.175	338.12
944.405	322.12
944.636	338.12
944.866	395.12
945.096	398.12
945.326	331.12
945.556	406.12
945.786	432.12
946.016	388.12
946.245	362.12
946.475	373.12
946.705	378.12
946.935	396.12
947.164	399.12
947.394	377.12
947.624	393.12
947.853	423.12
948.083	411.12
948.312	394.12
948.542	341.12
948.771	345.12
949	350.12
949.23	374.12
949.459	376.12
949.688	440.12
949.917	386.12
950.146	392.12
950.375	455.12
950.604	350.12
950.833	458.12
951.062	451.12
951.291	390.12
951.52	373.12
951.749	410.12
951.978	358.12
952.206	368.12
952.435	372.12
952.664	408.12
952.892	416.12
953.121	400.12
953.349	452.12
953.578	434.12
953.806	405.12
954.035	371.12
954.263	404.12
954.491	376.12
954.719	426.12
954.948	387.12
955.176	394.12
955.404	325.12
955.632	405.12
955.86	407.12
956.088	406.12
956.316	445.12
956.544	464.12
956.772	396.12
956.999	396.12
957.227	492.12
957.455	394.12
957.683	434.12
957.91	397.12
958.138	387.12
958.365	410.12
958.593	407.12
958.82	355.12
959.048	439.12
959.275	426.12
959.502	412.12
959.73	390.12
959.957	414.12
960.184	456.12
960.411	386.12
960.638	469.12
960.865	417.12
961.092	452.12
961.319	363.12
961.546	470.12
961.773	452.12
962	416.12
962.227	473.12
962.454	426.12
962.68	413.12
962.907	444.12
963.134	403.12
963.36	429.12
963.587	472.12
963.813	416.12
964.04	474.12
964.266	436.12
964.493	509.12
964.719	483.12
964.945	505.12
965.171	393.12
965.398	473.12
965.624	479.12
965.85	427.12
966.076	435.12
966.302	487.12
966.528	440.12
966.754	479.12
966.98	489.12
967.206	480.12
967.431	408.12
967.657	510.12
967.883	487.12
968.109	488.12
968.334	429.12
968.56	433.12
968.785	452.12
969.011	424.12
969.236	475.12
969.462	414.12
969.687	469.12
969.912	499.12
970.138	522.12
970.363	441.12
970.588	470.12
970.813	466.12
971.038	435.12
971.263	472.12
971.488	479.12
971.713	501.12
971.938	491.12
972.163	416.12
972.388	451.12
972.613	450.12
972.838	467.12
973.062	455.12
973.287	459.12
973.512	412.12
973.736	458.12
973.961	436.12
974.185	432.12
974.41	484.12
974.634	406.12
974.858	425.12
975.083	475.12
975.307	485.12
975.531	464.12
975.755	407.12
975.98	430.12
976.204	384.12
976.428	388.12
976.652	407.12
976.876	392.12
977.1	430.12
977.324	394.12
977.547	459.12
977.771	472.12
977.995	439.12
978.219	383.12
978.442	540.12
978.666	451.12
978.89	445.12
979.113	435.12
979.337	436.12
979.56	414.12
979.783	504.12
980.007	407.12
980.23	449.12
980.453	428.12
980.677	460.12
980.9	467.12
981.123	364.12
981.346	467.12
981.569	481.12
981.792	496.12
982.015	452.12
982.238	422.12
982.461	443.12
982.684	422.12
982.907	417.12
983.129	432.12
983.352	486.12
983.575	465.12
983.797	480.12
984.02	436.12
984.242	452.12
984.465	457.12
984.687	495.12
984.91	509.12
985.132	484.12
985.354	516.12
985.577	498.12
985.799	480.12
986.021	419.12
986.243	439.12
986.465	457.12
986.687	520.12
986.909	556.12
987.131	488.12
987.353	469.12
987.575	501.12
987.797	472.12
988.019	420.12
988.241	480.12
988.462	454.12
988.684	503.12
988.906	547.12
989.127	562.12
989.349	452.12
989.57	482.12
989.792	540.12
990.013	543.12
990.234	553.12
990.456	572.12
990.677	558.12
990.898	487.12
991.119	513.12
991.341	551.12
991.562	482.12
991.783	533.12
992.004	476.12
992.225	465.12
992.446	540.12
992.667	442.12
992.887	555.12
993.108	437.12
993.329	574.12
993.55	542.12
993.77	475.12
993.991	496.12
994.212	547.12
994.432	528.12
994.653	548.12
994.873	547.12
995.093	450.12
995.314	488.12
995.534	581.12
995.754	575.12
995.975	601.12
996.195	490.12
996.415	550.12
996.635	533.12
996.855	547.12
997.075	532.12
997.295	532.12
997.515	507.12
997.735	567.12
997.955	535.12
998.174	537.12
998.394	510.12
998.614	537.12
998.834	535.12
999.053	587.12
999.273	550.12
999.492	634.12
999.712	552.12
999.931	530.12
1000.151	588.12
1000.37	568.12
1000.589	645.12
1000.809	571.12
1001.028	694.12
1001.247	624.12
1001.466	529.12
1001.685	682.12
1001.904	637.12
1002.123	605.12
1002.342	633.12
1002.561	599.12
1002.78	646.12
1002.999	694.12
1003.218	640.12
1003.436	609.12
1003.655	686.12
1003.874	617.12
1004.092	665.12
1004.311	689.12
1004.53	678.12
1004.748	729.12
1004.966	655.12
1005.185	696.12
1005.403	684.12
1005.622	677.12
1005.84	752.12
1006.058	653.12
1006.276	669.12
1006.494	1175.12
1006.712	670.12
1006.931	738.12
1007.149	646.12
1007.367	657.12
1007.584	666.12
1007.802	727.12
1008.02	647.12
1008.238	734.12
1008.456	724.12
1008.673	578.12
1008.891	694.12
1009.109	627.12
1009.326	675.12
1009.544	734.12
1009.761	586.12
1009.979	661.12
1010.196	609.12
1010.413	661.12
1010.631	668.12
1010.848	676.12
1011.065	674.12
1011.282	610.12
1011.5	562.12
1011.717	688.12
1011.934	630.12
1012.151	664.12
1012.368	640.12
1012.585	587.12
1012.801	646.12
1013.018	607.12
1013.235	598.12
1013.452	600.12
1013.669	606.12
1013.885	566.12
1014.102	592.12
1014.318	563.12
1014.535	518.12
1014.751	551.12
1014.968	568.12
1015.184	606.12
1015.401	535.12
1015.617	568.12
1015.833	520.12
1016.049	563.12
1016.266	532.12
1016.482	563.12
1016.698	477.12
1016.914	561.12
1017.13	517.12
1017.346	515.12
1017.562	586.12
1017.778	522.12
1017.993	487.12
1018.209	556.12
1018.425	539.12
1018.641	514.12
1018.856	473.12
1019.072	510.12
1019.288	566.12
1019.503	495.12
1019.719	433.12
1019.934	447.12
1020.149	544.12
1020.365	488.12
1020.58	459.12
1020.795	528.12
1021.011	504.12
1021.226	503.12
1021.441	547.12
1021.656	497.12
1021.871	444.12
1022.086	470.12
1022.301	480.12
1022.516	457.12
1022.731	527.12
1022.946	474.12
1023.16	470.12
1023.375	457.12
1023.59	447.12
1023.804	429.12
1024.019	535.12
1024.234	427.12
1024.448	464.12
1024.663	420.12
1024.877	438.12
1025.092	464.12
1025.306	488.12
1025.52	409.12
1025.734	494.12
1025.949	471.12
1026.163	446.12
1026.377	388.12
1026.591	457.12
1026.805	378.12
1027.019	387.12
1027.233	365.12
1027.447	317.12
1027.661	417.12
1027.875	372.12
1028.088	395.12
1028.302	323.12
1028.516	339.12
1028.73	365.12
1028.943	361.12
1029.157	314.12
1029.37	296.12
1029.584	-1.88
1029.797	-3.88
1030.011	-0.88
1030.224	2.12
