Data from QEP037381__69__10-23-41-071.txt Node

Date: Fri Apr 21 10:23:41 EDT 2023
User: dcclab
Spectrometer: QEP03738
Trigger mode: 4
Integration Time (sec): 1.000000E1
Scans to average: 1
Electric dark correction enabled: true
Nonlinearity correction enabled: false
Boxcar width: 0
XAxis mode: Wavelengths
Number of Pixels in Spectrum: 1044
>>>>>Begin Spectral Data<<<<<
784.041	11.5
784.3	0.5
784.558	-2.5
784.817	-2.5
785.075	223.5
785.334	211.5
785.592	207.5
785.851	191.5
786.109	235.5
786.368	232.5
786.626	255.5
786.884	280.5
787.143	266.5
787.401	211.5
787.659	270.5
787.917	258.5
788.175	308.5
788.433	280.5
788.691	262.5
788.949	281.5
789.207	299.5
789.465	250.5
789.723	266.5
789.98	251.5
790.238	317.5
790.496	299.5
790.753	293.5
791.011	363.5
791.268	317.5
791.526	294.5
791.783	333.5
792.041	321.5
792.298	254.5
792.556	325.5
792.813	315.5
793.07	299.5
793.327	292.5
793.584	375.5
793.841	295.5
794.099	334.5
794.356	372.5
794.613	297.5
794.869	329.5
795.126	292.5
795.383	292.5
795.64	329.5
795.897	264.5
796.153	325.5
796.41	312.5
796.667	297.5
796.923	301.5
797.18	294.5
797.436	331.5
797.693	280.5
797.949	345.5
798.206	362.5
798.462	264.5
798.718	333.5
798.974	298.5
799.231	340.5
799.487	315.5
799.743	331.5
799.999	342.5
800.255	327.5
800.511	299.5
800.767	338.5
801.023	306.5
801.279	323.5
801.534	312.5
801.79	337.5
802.046	288.5
802.302	357.5
802.557	332.5
802.813	348.5
803.068	288.5
803.324	345.5
803.579	317.5
803.835	305.5
804.09	346.5
804.345	290.5
804.601	267.5
804.856	306.5
805.111	322.5
805.366	301.5
805.621	315.5
805.876	324.5
806.131	330.5
806.386	302.5
806.641	262.5
806.896	296.5
807.151	359.5
807.406	322.5
807.661	337.5
807.915	313.5
808.17	327.5
808.425	330.5
808.679	276.5
808.934	371.5
809.188	301.5
809.443	331.5
809.697	362.5
809.951	300.5
810.206	302.5
810.46	347.5
810.714	338.5
810.968	349.5
811.223	279.5
811.477	317.5
811.731	346.5
811.985	268.5
812.239	228.5
812.493	284.5
812.747	294.5
813	259.5
813.254	319.5
813.508	331.5
813.762	297.5
814.015	291.5
814.269	325.5
814.522	338.5
814.776	340.5
815.03	342.5
815.283	331.5
815.536	325.5
815.79	332.5
816.043	328.5
816.296	325.5
816.55	322.5
816.803	320.5
817.056	395.5
817.309	350.5
817.562	335.5
817.815	377.5
818.068	278.5
818.321	298.5
818.574	281.5
818.827	330.5
819.079	281.5
819.332	418.5
819.585	339.5
819.838	397.5
820.09	300.5
820.343	370.5
820.595	289.5
820.848	331.5
821.1	342.5
821.353	314.5
821.605	299.5
821.857	363.5
822.11	278.5
822.362	293.5
822.614	279.5
822.866	327.5
823.118	258.5
823.37	373.5
823.622	314.5
823.874	302.5
824.126	343.5
824.378	274.5
824.63	315.5
824.882	330.5
825.134	306.5
825.385	344.5
825.637	315.5
825.888	297.5
826.14	320.5
826.392	303.5
826.643	293.5
826.895	366.5
827.146	304.5
827.397	302.5
827.649	378.5
827.9	286.5
828.151	278.5
828.402	276.5
828.653	310.5
828.905	327.5
829.156	367.5
829.407	295.5
829.658	328.5
829.909	366.5
830.159	345.5
830.41	349.5
830.661	351.5
830.912	333.5
831.162	309.5
831.413	309.5
831.664	344.5
831.914	333.5
832.165	332.5
832.415	330.5
832.666	334.5
832.916	350.5
833.167	299.5
833.417	386.5
833.667	339.5
833.917	328.5
834.168	372.5
834.418	367.5
834.668	326.5
834.918	281.5
835.168	319.5
835.418	266.5
835.668	328.5
835.918	351.5
836.167	337.5
836.417	291.5
836.667	357.5
836.917	377.5
837.166	317.5
837.416	367.5
837.666	352.5
837.915	322.5
838.165	347.5
838.414	302.5
838.663	272.5
838.913	331.5
839.162	294.5
839.411	382.5
839.661	313.5
839.91	317.5
840.159	310.5
840.408	324.5
840.657	320.5
840.906	338.5
841.155	364.5
841.404	314.5
841.653	336.5
841.902	298.5
842.15	349.5
842.399	330.5
842.648	324.5
842.897	354.5
843.145	281.5
843.394	296.5
843.642	310.5
843.891	363.5
844.139	326.5
844.388	290.5
844.636	260.5
844.884	310.5
845.133	293.5
845.381	327.5
845.629	356.5
845.877	300.5
846.125	308.5
846.373	335.5
846.621	300.5
846.869	356.5
847.117	321.5
847.365	321.5
847.613	342.5
847.861	360.5
848.108	388.5
848.356	347.5
848.604	312.5
848.851	336.5
849.099	336.5
849.346	326.5
849.594	348.5
849.841	353.5
850.089	323.5
850.336	297.5
850.583	304.5
850.831	325.5
851.078	315.5
851.325	299.5
851.572	361.5
851.819	356.5
852.066	317.5
852.313	324.5
852.56	293.5
852.807	283.5
853.054	298.5
853.301	307.5
853.548	315.5
853.794	393.5
854.041	333.5
854.288	276.5
854.534	408.5
854.781	314.5
855.028	299.5
855.274	383.5
855.52	327.5
855.767	300.5
856.013	343.5
856.26	655.5
856.506	314.5
856.752	353.5
856.998	325.5
857.244	307.5
857.49	332.5
857.736	347.5
857.982	352.5
858.228	354.5
858.474	290.5
858.72	334.5
858.966	341.5
859.212	345.5
859.458	336.5
859.703	351.5
859.949	314.5
860.195	376.5
860.44	365.5
860.686	325.5
860.931	395.5
861.177	322.5
861.422	389.5
861.667	311.5
861.913	332.5
862.158	319.5
862.403	369.5
862.648	369.5
862.893	379.5
863.138	339.5
863.384	306.5
863.629	377.5
863.873	339.5
864.118	326.5
864.363	265.5
864.608	344.5
864.853	369.5
865.098	331.5
865.342	363.5
865.587	326.5
865.832	369.5
866.076	356.5
866.321	320.5
866.565	339.5
866.81	263.5
867.054	334.5
867.298	339.5
867.543	314.5
867.787	378.5
868.031	346.5
868.275	332.5
868.519	318.5
868.764	341.5
869.008	337.5
869.252	384.5
869.496	343.5
869.739	338.5
869.983	374.5
870.227	366.5
870.471	309.5
870.715	365.5
870.958	350.5
871.202	309.5
871.446	328.5
871.689	305.5
871.933	330.5
872.176	344.5
872.42	324.5
872.663	319.5
872.906	375.5
873.15	335.5
873.393	284.5
873.636	371.5
873.879	365.5
874.122	396.5
874.366	343.5
874.609	375.5
874.852	338.5
875.095	357.5
875.337	319.5
875.58	276.5
875.823	346.5
876.066	379.5
876.309	399.5
876.551	319.5
876.794	293.5
877.037	373.5
877.279	298.5
877.522	314.5
877.764	353.5
878.007	302.5
878.249	342.5
878.491	314.5
878.734	373.5
878.976	355.5
879.218	303.5
879.46	385.5
879.702	376.5
879.945	363.5
880.187	326.5
880.429	374.5
880.671	365.5
880.912	376.5
881.154	362.5
881.396	291.5
881.638	344.5
881.88	349.5
882.121	314.5
882.363	327.5
882.605	383.5
882.846	368.5
883.088	379.5
883.329	320.5
883.571	295.5
883.812	311.5
884.053	327.5
884.295	328.5
884.536	410.5
884.777	327.5
885.018	353.5
885.259	346.5
885.5	288.5
885.742	516.5
885.982	382.5
886.223	311.5
886.464	328.5
886.705	292.5
886.946	345.5
887.187	278.5
887.428	378.5
887.668	322.5
887.909	313.5
888.15	297.5
888.39	354.5
888.631	401.5
888.871	368.5
889.111	355.5
889.352	358.5
889.592	324.5
889.833	343.5
890.073	355.5
890.313	427.5
890.553	310.5
890.793	356.5
891.033	332.5
891.273	324.5
891.513	348.5
891.753	411.5
891.993	345.5
892.233	369.5
892.473	422.5
892.713	363.5
892.952	325.5
893.192	350.5
893.432	316.5
893.671	373.5
893.911	351.5
894.15	351.5
894.39	289.5
894.629	331.5
894.869	368.5
895.108	345.5
895.347	318.5
895.587	357.5
895.826	327.5
896.065	320.5
896.304	358.5
896.543	377.5
896.782	299.5
897.021	348.5
897.26	349.5
897.499	390.5
897.738	410.5
897.977	367.5
898.216	346.5
898.454	354.5
898.693	328.5
898.932	374.5
899.17	344.5
899.409	353.5
899.647	347.5
899.886	321.5
900.124	363.5
900.363	325.5
900.601	363.5
900.839	356.5
901.078	361.5
901.316	369.5
901.554	354.5
901.792	341.5
902.03	305.5
902.268	342.5
902.506	378.5
902.744	337.5
902.982	397.5
903.22	315.5
903.458	329.5
903.695	373.5
903.933	360.5
904.171	320.5
904.409	329.5
904.646	383.5
904.884	344.5
905.121	394.5
905.359	386.5
905.596	374.5
905.833	326.5
906.071	339.5
906.308	401.5
906.545	363.5
906.783	314.5
907.02	351.5
907.257	303.5
907.494	328.5
907.731	365.5
907.968	380.5
908.205	337.5
908.442	348.5
908.679	373.5
908.915	358.5
909.152	371.5
909.389	303.5
909.626	339.5
909.862	332.5
910.099	355.5
910.335	394.5
910.572	303.5
910.808	367.5
911.045	355.5
911.281	331.5
911.518	409.5
911.754	346.5
911.99	362.5
912.226	351.5
912.463	324.5
912.699	338.5
912.935	353.5
913.171	342.5
913.407	330.5
913.643	400.5
913.879	364.5
914.114	359.5
914.35	344.5
914.586	353.5
914.822	334.5
915.057	444.5
915.293	319.5
915.529	337.5
915.764	397.5
916	382.5
916.235	380.5
916.471	392.5
916.706	314.5
916.941	349.5
917.177	341.5
917.412	396.5
917.647	394.5
917.882	331.5
918.117	389.5
918.352	374.5
918.588	420.5
918.823	355.5
919.057	373.5
919.292	289.5
919.527	418.5
919.762	359.5
919.997	430.5
920.232	376.5
920.466	412.5
920.701	319.5
920.935	388.5
921.17	352.5
921.405	338.5
921.639	402.5
921.873	359.5
922.108	383.5
922.342	402.5
922.576	340.5
922.811	346.5
923.045	405.5
923.279	424.5
923.513	315.5
923.747	416.5
923.981	390.5
924.215	365.5
924.449	376.5
924.683	333.5
924.917	351.5
925.151	352.5
925.385	435.5
925.618	384.5
925.852	393.5
926.086	333.5
926.319	379.5
926.553	380.5
926.786	398.5
927.02	363.5
927.253	417.5
927.486	418.5
927.72	349.5
927.953	396.5
928.186	378.5
928.42	390.5
928.653	345.5
928.886	352.5
929.119	393.5
929.352	393.5
929.585	391.5
929.818	359.5
930.051	391.5
930.284	413.5
930.516	346.5
930.749	372.5
930.982	420.5
931.215	407.5
931.447	352.5
931.68	380.5
931.912	365.5
932.145	358.5
932.377	386.5
932.61	499.5
932.842	320.5
933.074	384.5
933.307	358.5
933.539	445.5
933.771	426.5
934.003	376.5
934.236	436.5
934.468	449.5
934.7	364.5
934.932	408.5
935.164	364.5
935.395	353.5
935.627	377.5
935.859	400.5
936.091	348.5
936.323	410.5
936.554	442.5
936.786	385.5
937.017	344.5
937.249	406.5
937.481	322.5
937.712	424.5
937.943	382.5
938.175	382.5
938.406	374.5
938.637	442.5
938.869	334.5
939.1	419.5
939.331	368.5
939.562	411.5
939.793	394.5
940.024	436.5
940.255	443.5
940.486	403.5
940.717	392.5
940.948	390.5
941.179	345.5
941.409	381.5
941.64	384.5
941.871	391.5
942.102	370.5
942.332	373.5
942.563	403.5
942.793	390.5
943.024	353.5
943.254	379.5
943.484	429.5
943.715	430.5
943.945	407.5
944.175	345.5
944.405	323.5
944.636	346.5
944.866	385.5
945.096	399.5
945.326	334.5
945.556	412.5
945.786	410.5
946.016	383.5
946.245	345.5
946.475	361.5
946.705	375.5
946.935	388.5
947.164	405.5
947.394	382.5
947.624	393.5
947.853	426.5
948.083	401.5
948.312	398.5
948.542	327.5
948.771	337.5
949	366.5
949.23	371.5
949.459	385.5
949.688	420.5
949.917	397.5
950.146	405.5
950.375	451.5
950.604	351.5
950.833	445.5
951.062	448.5
951.291	396.5
951.52	359.5
951.749	382.5
951.978	366.5
952.206	376.5
952.435	370.5
952.664	404.5
952.892	426.5
953.121	405.5
953.349	438.5
953.578	429.5
953.806	407.5
954.035	379.5
954.263	414.5
954.491	367.5
954.719	428.5
954.948	397.5
955.176	389.5
955.404	338.5
955.632	408.5
955.86	404.5
956.088	419.5
956.316	442.5
956.544	458.5
956.772	410.5
956.999	399.5
957.227	493.5
957.455	394.5
957.683	438.5
957.91	406.5
958.138	389.5
958.365	419.5
958.593	408.5
958.82	362.5
959.048	442.5
959.275	424.5
959.502	414.5
959.73	394.5
959.957	433.5
960.184	438.5
960.411	380.5
960.638	462.5
960.865	420.5
961.092	456.5
961.319	345.5
961.546	441.5
961.773	450.5
962	406.5
962.227	479.5
962.454	425.5
962.68	434.5
962.907	442.5
963.134	410.5
963.36	445.5
963.587	464.5
963.813	412.5
964.04	465.5
964.266	424.5
964.493	510.5
964.719	478.5
964.945	502.5
965.171	410.5
965.398	467.5
965.624	490.5
965.85	421.5
966.076	434.5
966.302	474.5
966.528	461.5
966.754	482.5
966.98	478.5
967.206	485.5
967.431	406.5
967.657	522.5
967.883	481.5
968.109	477.5
968.334	442.5
968.56	443.5
968.785	450.5
969.011	427.5
969.236	471.5
969.462	423.5
969.687	454.5
969.912	487.5
970.138	505.5
970.363	435.5
970.588	450.5
970.813	448.5
971.038	434.5
971.263	480.5
971.488	479.5
971.713	537.5
971.938	502.5
972.163	421.5
972.388	458.5
972.613	454.5
972.838	452.5
973.062	463.5
973.287	472.5
973.512	404.5
973.736	458.5
973.961	448.5
974.185	438.5
974.41	482.5
974.634	399.5
974.858	429.5
975.083	467.5
975.307	508.5
975.531	434.5
975.755	390.5
975.98	441.5
976.204	384.5
976.428	395.5
976.652	414.5
976.876	406.5
977.1	437.5
977.324	400.5
977.547	460.5
977.771	466.5
977.995	451.5
978.219	381.5
978.442	505.5
978.666	462.5
978.89	458.5
979.113	449.5
979.337	451.5
979.56	422.5
979.783	510.5
980.007	410.5
980.23	448.5
980.453	415.5
980.677	462.5
980.9	458.5
981.123	364.5
981.346	483.5
981.569	459.5
981.792	497.5
982.015	467.5
982.238	416.5
982.461	458.5
982.684	426.5
982.907	423.5
983.129	429.5
983.352	483.5
983.575	463.5
983.797	464.5
984.02	444.5
984.242	453.5
984.465	445.5
984.687	478.5
984.91	510.5
985.132	494.5
985.354	519.5
985.577	492.5
985.799	477.5
986.021	407.5
986.243	453.5
986.465	461.5
986.687	517.5
986.909	563.5
987.131	498.5
987.353	479.5
987.575	516.5
987.797	460.5
988.019	422.5
988.241	485.5
988.462	452.5
988.684	508.5
988.906	539.5
989.127	575.5
989.349	447.5
989.57	485.5
989.792	524.5
990.013	541.5
990.234	551.5
990.456	578.5
990.677	557.5
990.898	514.5
991.119	509.5
991.341	536.5
991.562	486.5
991.783	533.5
992.004	484.5
992.225	462.5
992.446	535.5
992.667	441.5
992.887	556.5
993.108	433.5
993.329	586.5
993.55	516.5
993.77	484.5
993.991	488.5
994.212	540.5
994.432	530.5
994.653	549.5
994.873	550.5
995.093	438.5
995.314	494.5
995.534	569.5
995.754	575.5
995.975	602.5
996.195	490.5
996.415	568.5
996.635	534.5
996.855	552.5
997.075	515.5
997.295	514.5
997.515	508.5
997.735	562.5
997.955	533.5
998.174	522.5
998.394	503.5
998.614	567.5
998.834	496.5
999.053	595.5
999.273	561.5
999.492	616.5
999.712	560.5
999.931	533.5
1000.151	589.5
1000.37	569.5
1000.589	626.5
1000.809	548.5
1001.028	715.5
1001.247	635.5
1001.466	536.5
1001.685	678.5
1001.904	630.5
1002.123	622.5
1002.342	640.5
1002.561	601.5
1002.78	636.5
1002.999	690.5
1003.218	641.5
1003.436	630.5
1003.655	675.5
1003.874	618.5
1004.092	661.5
1004.311	697.5
1004.53	659.5
1004.748	742.5
1004.966	665.5
1005.185	717.5
1005.403	694.5
1005.622	697.5
1005.84	741.5
1006.058	666.5
1006.276	675.5
1006.494	1168.5
1006.712	688.5
1006.931	751.5
1007.149	646.5
1007.367	635.5
1007.584	678.5
1007.802	695.5
1008.02	635.5
1008.238	740.5
1008.456	714.5
1008.673	577.5
1008.891	678.5
1009.109	638.5
1009.326	660.5
1009.544	735.5
1009.761	592.5
1009.979	666.5
1010.196	605.5
1010.413	659.5
1010.631	654.5
1010.848	675.5
1011.065	663.5
1011.282	612.5
1011.5	549.5
1011.717	668.5
1011.934	624.5
1012.151	669.5
1012.368	642.5
1012.585	595.5
1012.801	645.5
1013.018	615.5
1013.235	578.5
1013.452	590.5
1013.669	589.5
1013.885	566.5
1014.102	608.5
1014.318	570.5
1014.535	522.5
1014.751	567.5
1014.968	574.5
1015.184	609.5
1015.401	512.5
1015.617	562.5
1015.833	523.5
1016.049	546.5
1016.266	523.5
1016.482	553.5
1016.698	491.5
1016.914	573.5
1017.13	510.5
1017.346	525.5
1017.562	589.5
1017.778	524.5
1017.993	502.5
1018.209	534.5
1018.425	533.5
1018.641	491.5
1018.856	480.5
1019.072	506.5
1019.288	552.5
1019.503	498.5
1019.719	429.5
1019.934	446.5
1020.149	559.5
1020.365	482.5
1020.58	463.5
1020.795	535.5
1021.011	491.5
1021.226	480.5
1021.441	542.5
1021.656	483.5
1021.871	446.5
1022.086	457.5
1022.301	469.5
1022.516	466.5
1022.731	531.5
1022.946	483.5
1023.16	459.5
1023.375	458.5
1023.59	445.5
1023.804	432.5
1024.019	535.5
1024.234	427.5
1024.448	478.5
1024.663	417.5
1024.877	438.5
1025.092	465.5
1025.306	479.5
1025.52	405.5
1025.734	524.5
1025.949	437.5
1026.163	422.5
1026.377	377.5
1026.591	439.5
1026.805	398.5
1027.019	381.5
1027.233	350.5
1027.447	323.5
1027.661	426.5
1027.875	380.5
1028.088	387.5
1028.302	335.5
1028.516	330.5
1028.73	355.5
1028.943	360.5
1029.157	330.5
1029.37	315.5
1029.584	-3.5
1029.797	-0.5
1030.011	-1.5
1030.224	-1.5
