Data from QEP037381__64__10-22-51-071.txt Node

Date: Fri Apr 21 10:22:51 EDT 2023
User: dcclab
Spectrometer: QEP03738
Trigger mode: 4
Integration Time (sec): 1.000000E1
Scans to average: 1
Electric dark correction enabled: true
Nonlinearity correction enabled: false
Boxcar width: 0
XAxis mode: Wavelengths
Number of Pixels in Spectrum: 1044
>>>>>Begin Spectral Data<<<<<
784.041	9.5
784.3	-1.5
784.558	-2.5
784.817	-2.5
785.075	227.5
785.334	209.5
785.592	206.5
785.851	200.5
786.109	233.5
786.368	247.5
786.626	258.5
786.884	263.5
787.143	272.5
787.401	211.5
787.659	280.5
787.917	252.5
788.175	300.5
788.433	264.5
788.691	279.5
788.949	290.5
789.207	308.5
789.465	250.5
789.723	278.5
789.98	263.5
790.238	322.5
790.496	305.5
790.753	294.5
791.011	353.5
791.268	303.5
791.526	296.5
791.783	330.5
792.041	331.5
792.298	258.5
792.556	326.5
792.813	322.5
793.07	294.5
793.327	276.5
793.584	374.5
793.841	300.5
794.099	319.5
794.356	376.5
794.613	287.5
794.869	322.5
795.126	293.5
795.383	286.5
795.64	298.5
795.897	266.5
796.153	319.5
796.41	310.5
796.667	303.5
796.923	304.5
797.18	312.5
797.436	334.5
797.693	286.5
797.949	339.5
798.206	362.5
798.462	280.5
798.718	324.5
798.974	302.5
799.231	336.5
799.487	322.5
799.743	324.5
799.999	353.5
800.255	327.5
800.511	310.5
800.767	335.5
801.023	304.5
801.279	311.5
801.534	333.5
801.79	330.5
802.046	299.5
802.302	365.5
802.557	336.5
802.813	342.5
803.068	291.5
803.324	330.5
803.579	318.5
803.835	294.5
804.09	357.5
804.345	300.5
804.601	268.5
804.856	302.5
805.111	329.5
805.366	306.5
805.621	320.5
805.876	338.5
806.131	313.5
806.386	304.5
806.641	269.5
806.896	306.5
807.151	357.5
807.406	318.5
807.661	336.5
807.915	329.5
808.17	340.5
808.425	315.5
808.679	281.5
808.934	365.5
809.188	300.5
809.443	330.5
809.697	371.5
809.951	302.5
810.206	306.5
810.46	363.5
810.714	334.5
810.968	364.5
811.223	280.5
811.477	335.5
811.731	331.5
811.985	279.5
812.239	252.5
812.493	288.5
812.747	306.5
813	251.5
813.254	315.5
813.508	338.5
813.762	311.5
814.015	300.5
814.269	314.5
814.522	332.5
814.776	334.5
815.03	334.5
815.283	323.5
815.536	338.5
815.79	331.5
816.043	336.5
816.296	326.5
816.55	319.5
816.803	310.5
817.056	399.5
817.309	330.5
817.562	332.5
817.815	371.5
818.068	291.5
818.321	289.5
818.574	279.5
818.827	326.5
819.079	303.5
819.332	394.5
819.585	337.5
819.838	406.5
820.09	305.5
820.343	366.5
820.595	288.5
820.848	340.5
821.1	349.5
821.353	329.5
821.605	323.5
821.857	362.5
822.11	295.5
822.362	301.5
822.614	283.5
822.866	318.5
823.118	281.5
823.37	371.5
823.622	318.5
823.874	305.5
824.126	350.5
824.378	282.5
824.63	312.5
824.882	333.5
825.134	298.5
825.385	341.5
825.637	334.5
825.888	311.5
826.14	315.5
826.392	301.5
826.643	294.5
826.895	380.5
827.146	318.5
827.397	296.5
827.649	380.5
827.9	303.5
828.151	282.5
828.402	279.5
828.653	328.5
828.905	324.5
829.156	370.5
829.407	289.5
829.658	324.5
829.909	361.5
830.159	340.5
830.41	355.5
830.661	371.5
830.912	330.5
831.162	307.5
831.413	310.5
831.664	340.5
831.914	328.5
832.165	340.5
832.415	340.5
832.666	332.5
832.916	350.5
833.167	301.5
833.417	374.5
833.667	343.5
833.917	335.5
834.168	388.5
834.418	356.5
834.668	316.5
834.918	290.5
835.168	296.5
835.418	273.5
835.668	328.5
835.918	355.5
836.167	344.5
836.417	298.5
836.667	364.5
836.917	391.5
837.166	333.5
837.416	364.5
837.666	362.5
837.915	341.5
838.165	357.5
838.414	298.5
838.663	263.5
838.913	335.5
839.162	293.5
839.411	384.5
839.661	309.5
839.91	322.5
840.159	310.5
840.408	345.5
840.657	330.5
840.906	328.5
841.155	368.5
841.404	315.5
841.653	341.5
841.902	297.5
842.15	346.5
842.399	339.5
842.648	310.5
842.897	342.5
843.145	295.5
843.394	285.5
843.642	314.5
843.891	368.5
844.139	339.5
844.388	285.5
844.636	277.5
844.884	319.5
845.133	295.5
845.381	312.5
845.629	371.5
845.877	300.5
846.125	313.5
846.373	343.5
846.621	295.5
846.869	363.5
847.117	328.5
847.365	322.5
847.613	343.5
847.861	344.5
848.108	381.5
848.356	344.5
848.604	320.5
848.851	338.5
849.099	335.5
849.346	317.5
849.594	333.5
849.841	359.5
850.089	307.5
850.336	291.5
850.583	312.5
850.831	325.5
851.078	341.5
851.325	298.5
851.572	359.5
851.819	350.5
852.066	323.5
852.313	314.5
852.56	303.5
852.807	285.5
853.054	303.5
853.301	324.5
853.548	301.5
853.794	394.5
854.041	335.5
854.288	280.5
854.534	390.5
854.781	322.5
855.028	309.5
855.274	401.5
855.52	344.5
855.767	305.5
856.013	351.5
856.26	639.5
856.506	309.5
856.752	356.5
856.998	338.5
857.244	307.5
857.49	340.5
857.736	346.5
857.982	356.5
858.228	341.5
858.474	286.5
858.72	332.5
858.966	346.5
859.212	337.5
859.458	334.5
859.703	356.5
859.949	317.5
860.195	377.5
860.44	364.5
860.686	311.5
860.931	381.5
861.177	319.5
861.422	371.5
861.667	326.5
861.913	333.5
862.158	330.5
862.403	379.5
862.648	356.5
862.893	389.5
863.138	333.5
863.384	305.5
863.629	353.5
863.873	347.5
864.118	328.5
864.363	278.5
864.608	353.5
864.853	379.5
865.098	327.5
865.342	349.5
865.587	330.5
865.832	382.5
866.076	356.5
866.321	332.5
866.565	337.5
866.81	268.5
867.054	333.5
867.298	342.5
867.543	310.5
867.787	362.5
868.031	330.5
868.275	356.5
868.519	334.5
868.764	345.5
869.008	325.5
869.252	372.5
869.496	342.5
869.739	340.5
869.983	392.5
870.227	374.5
870.471	308.5
870.715	353.5
870.958	347.5
871.202	320.5
871.446	335.5
871.689	309.5
871.933	348.5
872.176	339.5
872.42	339.5
872.663	322.5
872.906	378.5
873.15	330.5
873.393	280.5
873.636	370.5
873.879	366.5
874.122	396.5
874.366	341.5
874.609	371.5
874.852	339.5
875.095	348.5
875.337	317.5
875.58	277.5
875.823	348.5
876.066	377.5
876.309	394.5
876.551	321.5
876.794	286.5
877.037	374.5
877.279	303.5
877.522	305.5
877.764	365.5
878.007	313.5
878.249	354.5
878.491	301.5
878.734	376.5
878.976	361.5
879.218	304.5
879.46	378.5
879.702	361.5
879.945	373.5
880.187	338.5
880.429	369.5
880.671	370.5
880.912	385.5
881.154	378.5
881.396	293.5
881.638	351.5
881.88	350.5
882.121	302.5
882.363	327.5
882.605	389.5
882.846	362.5
883.088	376.5
883.329	318.5
883.571	290.5
883.812	312.5
884.053	321.5
884.295	330.5
884.536	401.5
884.777	324.5
885.018	355.5
885.259	366.5
885.5	290.5
885.742	503.5
885.982	359.5
886.223	323.5
886.464	335.5
886.705	292.5
886.946	345.5
887.187	279.5
887.428	371.5
887.668	321.5
887.909	312.5
888.15	299.5
888.39	357.5
888.631	410.5
888.871	378.5
889.111	355.5
889.352	356.5
889.592	335.5
889.833	349.5
890.073	345.5
890.313	416.5
890.553	316.5
890.793	345.5
891.033	314.5
891.273	331.5
891.513	362.5
891.753	410.5
891.993	342.5
892.233	357.5
892.473	432.5
892.713	357.5
892.952	324.5
893.192	360.5
893.432	322.5
893.671	384.5
893.911	332.5
894.15	353.5
894.39	299.5
894.629	328.5
894.869	369.5
895.108	341.5
895.347	322.5
895.587	371.5
895.826	335.5
896.065	308.5
896.304	373.5
896.543	399.5
896.782	280.5
897.021	352.5
897.26	352.5
897.499	392.5
897.738	392.5
897.977	346.5
898.216	355.5
898.454	345.5
898.693	337.5
898.932	369.5
899.17	342.5
899.409	353.5
899.647	349.5
899.886	319.5
900.124	373.5
900.363	320.5
900.601	355.5
900.839	338.5
901.078	363.5
901.316	345.5
901.554	349.5
901.792	366.5
902.03	303.5
902.268	323.5
902.506	384.5
902.744	336.5
902.982	370.5
903.22	325.5
903.458	332.5
903.695	376.5
903.933	385.5
904.171	331.5
904.409	341.5
904.646	381.5
904.884	348.5
905.121	403.5
905.359	384.5
905.596	381.5
905.833	330.5
906.071	348.5
906.308	410.5
906.545	365.5
906.783	322.5
907.02	350.5
907.257	304.5
907.494	350.5
907.731	362.5
907.968	380.5
908.205	323.5
908.442	329.5
908.679	353.5
908.915	350.5
909.152	369.5
909.389	303.5
909.626	350.5
909.862	330.5
910.099	359.5
910.335	400.5
910.572	308.5
910.808	363.5
911.045	354.5
911.281	331.5
911.518	419.5
911.754	350.5
911.99	360.5
912.226	355.5
912.463	323.5
912.699	347.5
912.935	346.5
913.171	345.5
913.407	337.5
913.643	404.5
913.879	379.5
914.114	358.5
914.35	348.5
914.586	355.5
914.822	339.5
915.057	440.5
915.293	315.5
915.529	333.5
915.764	411.5
916	392.5
916.235	382.5
916.471	394.5
916.706	312.5
916.941	346.5
917.177	343.5
917.412	392.5
917.647	385.5
917.882	335.5
918.117	402.5
918.352	390.5
918.588	425.5
918.823	363.5
919.057	363.5
919.292	298.5
919.527	421.5
919.762	357.5
919.997	432.5
920.232	365.5
920.466	425.5
920.701	319.5
920.935	385.5
921.17	367.5
921.405	336.5
921.639	411.5
921.873	375.5
922.108	399.5
922.342	393.5
922.576	341.5
922.811	355.5
923.045	391.5
923.279	425.5
923.513	303.5
923.747	423.5
923.981	395.5
924.215	358.5
924.449	364.5
924.683	325.5
924.917	343.5
925.151	363.5
925.385	427.5
925.618	383.5
925.852	386.5
926.086	343.5
926.319	379.5
926.553	372.5
926.786	399.5
927.02	367.5
927.253	407.5
927.486	425.5
927.72	339.5
927.953	401.5
928.186	368.5
928.42	398.5
928.653	332.5
928.886	357.5
929.119	399.5
929.352	381.5
929.585	386.5
929.818	351.5
930.051	403.5
930.284	399.5
930.516	329.5
930.749	349.5
930.982	426.5
931.215	406.5
931.447	344.5
931.68	371.5
931.912	368.5
932.145	357.5
932.377	389.5
932.61	514.5
932.842	324.5
933.074	402.5
933.307	330.5
933.539	429.5
933.771	421.5
934.003	369.5
934.236	445.5
934.468	465.5
934.7	379.5
934.932	425.5
935.164	353.5
935.395	349.5
935.627	378.5
935.859	414.5
936.091	340.5
936.323	401.5
936.554	442.5
936.786	382.5
937.017	350.5
937.249	394.5
937.481	323.5
937.712	412.5
937.943	382.5
938.175	358.5
938.406	371.5
938.637	450.5
938.869	340.5
939.1	404.5
939.331	365.5
939.562	417.5
939.793	411.5
940.024	438.5
940.255	446.5
940.486	400.5
940.717	393.5
940.948	399.5
941.179	356.5
941.409	385.5
941.64	373.5
941.871	387.5
942.102	362.5
942.332	369.5
942.563	423.5
942.793	393.5
943.024	343.5
943.254	394.5
943.484	412.5
943.715	427.5
943.945	406.5
944.175	336.5
944.405	321.5
944.636	352.5
944.866	389.5
945.096	398.5
945.326	337.5
945.556	407.5
945.786	423.5
946.016	375.5
946.245	345.5
946.475	386.5
946.705	384.5
946.935	388.5
947.164	408.5
947.394	374.5
947.624	395.5
947.853	425.5
948.083	415.5
948.312	395.5
948.542	348.5
948.771	335.5
949	353.5
949.23	364.5
949.459	379.5
949.688	451.5
949.917	384.5
950.146	396.5
950.375	458.5
950.604	349.5
950.833	458.5
951.062	448.5
951.291	381.5
951.52	368.5
951.749	408.5
951.978	374.5
952.206	378.5
952.435	372.5
952.664	419.5
952.892	424.5
953.121	417.5
953.349	435.5
953.578	433.5
953.806	404.5
954.035	373.5
954.263	418.5
954.491	364.5
954.719	420.5
954.948	387.5
955.176	383.5
955.404	329.5
955.632	408.5
955.86	423.5
956.088	408.5
956.316	432.5
956.544	462.5
956.772	405.5
956.999	400.5
957.227	494.5
957.455	386.5
957.683	432.5
957.91	399.5
958.138	404.5
958.365	426.5
958.593	416.5
958.82	354.5
959.048	439.5
959.275	418.5
959.502	410.5
959.73	381.5
959.957	415.5
960.184	455.5
960.411	406.5
960.638	460.5
960.865	419.5
961.092	458.5
961.319	349.5
961.546	461.5
961.773	468.5
962	418.5
962.227	469.5
962.454	441.5
962.68	414.5
962.907	446.5
963.134	420.5
963.36	449.5
963.587	473.5
963.813	414.5
964.04	468.5
964.266	416.5
964.493	501.5
964.719	500.5
964.945	506.5
965.171	402.5
965.398	474.5
965.624	501.5
965.85	419.5
966.076	451.5
966.302	481.5
966.528	451.5
966.754	489.5
966.98	481.5
967.206	484.5
967.431	420.5
967.657	501.5
967.883	487.5
968.109	471.5
968.334	429.5
968.56	422.5
968.785	457.5
969.011	409.5
969.236	475.5
969.462	424.5
969.687	448.5
969.912	493.5
970.138	524.5
970.363	446.5
970.588	470.5
970.813	445.5
971.038	438.5
971.263	481.5
971.488	493.5
971.713	512.5
971.938	519.5
972.163	418.5
972.388	457.5
972.613	440.5
972.838	472.5
973.062	460.5
973.287	465.5
973.512	404.5
973.736	453.5
973.961	464.5
974.185	446.5
974.41	473.5
974.634	411.5
974.858	422.5
975.083	481.5
975.307	504.5
975.531	447.5
975.755	388.5
975.98	426.5
976.204	398.5
976.428	399.5
976.652	406.5
976.876	391.5
977.1	435.5
977.324	408.5
977.547	480.5
977.771	466.5
977.995	441.5
978.219	378.5
978.442	508.5
978.666	441.5
978.89	452.5
979.113	454.5
979.337	440.5
979.56	423.5
979.783	503.5
980.007	397.5
980.23	438.5
980.453	432.5
980.677	456.5
980.9	446.5
981.123	378.5
981.346	490.5
981.569	464.5
981.792	498.5
982.015	449.5
982.238	420.5
982.461	458.5
982.684	437.5
982.907	429.5
983.129	425.5
983.352	489.5
983.575	461.5
983.797	476.5
984.02	434.5
984.242	450.5
984.465	457.5
984.687	492.5
984.91	525.5
985.132	503.5
985.354	525.5
985.577	492.5
985.799	500.5
986.021	414.5
986.243	445.5
986.465	472.5
986.687	516.5
986.909	550.5
987.131	497.5
987.353	468.5
987.575	504.5
987.797	460.5
988.019	434.5
988.241	484.5
988.462	437.5
988.684	533.5
988.906	528.5
989.127	571.5
989.349	453.5
989.57	493.5
989.792	529.5
990.013	539.5
990.234	549.5
990.456	580.5
990.677	542.5
990.898	499.5
991.119	513.5
991.341	544.5
991.562	496.5
991.783	530.5
992.004	478.5
992.225	472.5
992.446	530.5
992.667	439.5
992.887	541.5
993.108	438.5
993.329	578.5
993.55	532.5
993.77	471.5
993.991	505.5
994.212	538.5
994.432	526.5
994.653	563.5
994.873	531.5
995.093	432.5
995.314	498.5
995.534	569.5
995.754	575.5
995.975	599.5
996.195	503.5
996.415	559.5
996.635	542.5
996.855	553.5
997.075	536.5
997.295	529.5
997.515	505.5
997.735	552.5
997.955	528.5
998.174	524.5
998.394	512.5
998.614	563.5
998.834	513.5
999.053	584.5
999.273	551.5
999.492	623.5
999.712	572.5
999.931	536.5
1000.151	587.5
1000.37	561.5
1000.589	635.5
1000.809	570.5
1001.028	701.5
1001.247	623.5
1001.466	541.5
1001.685	689.5
1001.904	628.5
1002.123	619.5
1002.342	640.5
1002.561	600.5
1002.78	623.5
1002.999	692.5
1003.218	648.5
1003.436	629.5
1003.655	682.5
1003.874	633.5
1004.092	649.5
1004.311	698.5
1004.53	645.5
1004.748	749.5
1004.966	654.5
1005.185	738.5
1005.403	691.5
1005.622	673.5
1005.84	764.5
1006.058	650.5
1006.276	694.5
1006.494	1168.5
1006.712	667.5
1006.931	745.5
1007.149	635.5
1007.367	660.5
1007.584	684.5
1007.802	726.5
1008.02	644.5
1008.238	750.5
1008.456	712.5
1008.673	577.5
1008.891	660.5
1009.109	636.5
1009.326	648.5
1009.544	726.5
1009.761	599.5
1009.979	661.5
1010.196	627.5
1010.413	662.5
1010.631	653.5
1010.848	662.5
1011.065	673.5
1011.282	609.5
1011.5	560.5
1011.717	680.5
1011.934	631.5
1012.151	659.5
1012.368	644.5
1012.585	609.5
1012.801	638.5
1013.018	610.5
1013.235	581.5
1013.452	592.5
1013.669	589.5
1013.885	584.5
1014.102	605.5
1014.318	551.5
1014.535	532.5
1014.751	581.5
1014.968	563.5
1015.184	622.5
1015.401	533.5
1015.617	571.5
1015.833	524.5
1016.049	542.5
1016.266	537.5
1016.482	550.5
1016.698	488.5
1016.914	565.5
1017.13	495.5
1017.346	505.5
1017.562	587.5
1017.778	520.5
1017.993	512.5
1018.209	571.5
1018.425	522.5
1018.641	482.5
1018.856	463.5
1019.072	489.5
1019.288	552.5
1019.503	523.5
1019.719	419.5
1019.934	461.5
1020.149	559.5
1020.365	490.5
1020.58	467.5
1020.795	532.5
1021.011	494.5
1021.226	500.5
1021.441	540.5
1021.656	493.5
1021.871	449.5
1022.086	474.5
1022.301	450.5
1022.516	476.5
1022.731	541.5
1022.946	472.5
1023.16	461.5
1023.375	453.5
1023.59	452.5
1023.804	435.5
1024.019	544.5
1024.234	421.5
1024.448	489.5
1024.663	412.5
1024.877	445.5
1025.092	470.5
1025.306	490.5
1025.52	403.5
1025.734	502.5
1025.949	434.5
1026.163	429.5
1026.377	388.5
1026.591	451.5
1026.805	381.5
1027.019	384.5
1027.233	358.5
1027.447	320.5
1027.661	426.5
1027.875	371.5
1028.088	394.5
1028.302	331.5
1028.516	338.5
1028.73	373.5
1028.943	362.5
1029.157	325.5
1029.37	284.5
1029.584	-1.5
1029.797	-0.5
1030.011	-2.5
1030.224	1.5
