Data from QEP037381__42__10-19-11-065.txt Node

Date: Fri Apr 21 10:19:11 EDT 2023
User: dcclab
Spectrometer: QEP03738
Trigger mode: 4
Integration Time (sec): 1.000000E1
Scans to average: 1
Electric dark correction enabled: true
Nonlinearity correction enabled: false
Boxcar width: 0
XAxis mode: Wavelengths
Number of Pixels in Spectrum: 1044
>>>>>Begin Spectral Data<<<<<
784.041	11.5
784.3	-0.5
784.558	-0.5
784.817	-6.5
785.075	231.5
785.334	209.5
785.592	203.5
785.851	200.5
786.109	227.5
786.368	242.5
786.626	257.5
786.884	272.5
787.143	259.5
787.401	203.5
787.659	275.5
787.917	245.5
788.175	300.5
788.433	284.5
788.691	265.5
788.949	281.5
789.207	303.5
789.465	247.5
789.723	272.5
789.98	234.5
790.238	316.5
790.496	293.5
790.753	284.5
791.011	362.5
791.268	293.5
791.526	303.5
791.783	336.5
792.041	313.5
792.298	242.5
792.556	333.5
792.813	308.5
793.07	288.5
793.327	286.5
793.584	369.5
793.841	286.5
794.099	321.5
794.356	385.5
794.613	290.5
794.869	323.5
795.126	309.5
795.383	282.5
795.64	311.5
795.897	268.5
796.153	329.5
796.41	291.5
796.667	288.5
796.923	312.5
797.18	289.5
797.436	320.5
797.693	284.5
797.949	324.5
798.206	366.5
798.462	281.5
798.718	328.5
798.974	304.5
799.231	332.5
799.487	319.5
799.743	325.5
799.999	341.5
800.255	322.5
800.511	303.5
800.767	339.5
801.023	312.5
801.279	311.5
801.534	324.5
801.79	340.5
802.046	307.5
802.302	358.5
802.557	323.5
802.813	346.5
803.068	280.5
803.324	334.5
803.579	310.5
803.835	300.5
804.09	349.5
804.345	287.5
804.601	273.5
804.856	307.5
805.111	326.5
805.366	313.5
805.621	317.5
805.876	336.5
806.131	328.5
806.386	308.5
806.641	273.5
806.896	306.5
807.151	374.5
807.406	318.5
807.661	342.5
807.915	306.5
808.17	341.5
808.425	322.5
808.679	278.5
808.934	374.5
809.188	303.5
809.443	340.5
809.697	371.5
809.951	290.5
810.206	303.5
810.46	355.5
810.714	327.5
810.968	365.5
811.223	279.5
811.477	322.5
811.731	339.5
811.985	266.5
812.239	232.5
812.493	281.5
812.747	309.5
813	259.5
813.254	328.5
813.508	327.5
813.762	290.5
814.015	301.5
814.269	322.5
814.522	332.5
814.776	342.5
815.03	336.5
815.283	336.5
815.536	334.5
815.79	335.5
816.043	333.5
816.296	312.5
816.55	304.5
816.803	334.5
817.056	408.5
817.309	334.5
817.562	336.5
817.815	374.5
818.068	283.5
818.321	293.5
818.574	287.5
818.827	357.5
819.079	290.5
819.332	413.5
819.585	340.5
819.838	392.5
820.09	313.5
820.343	368.5
820.595	280.5
820.848	337.5
821.1	349.5
821.353	330.5
821.605	313.5
821.857	381.5
822.11	271.5
822.362	294.5
822.614	284.5
822.866	317.5
823.118	252.5
823.37	369.5
823.622	304.5
823.874	294.5
824.126	341.5
824.378	283.5
824.63	295.5
824.882	328.5
825.134	303.5
825.385	352.5
825.637	326.5
825.888	309.5
826.14	318.5
826.392	293.5
826.643	281.5
826.895	377.5
827.146	297.5
827.397	301.5
827.649	380.5
827.9	303.5
828.151	274.5
828.402	278.5
828.653	323.5
828.905	323.5
829.156	366.5
829.407	304.5
829.658	320.5
829.909	357.5
830.159	333.5
830.41	344.5
830.661	365.5
830.912	324.5
831.162	320.5
831.413	311.5
831.664	347.5
831.914	320.5
832.165	327.5
832.415	351.5
832.666	338.5
832.916	350.5
833.167	303.5
833.417	389.5
833.667	351.5
833.917	328.5
834.168	395.5
834.418	340.5
834.668	327.5
834.918	282.5
835.168	301.5
835.418	270.5
835.668	314.5
835.918	355.5
836.167	349.5
836.417	292.5
836.667	359.5
836.917	385.5
837.166	318.5
837.416	367.5
837.666	364.5
837.915	322.5
838.165	337.5
838.414	301.5
838.663	267.5
838.913	327.5
839.162	289.5
839.411	391.5
839.661	303.5
839.91	318.5
840.159	307.5
840.408	336.5
840.657	324.5
840.906	344.5
841.155	353.5
841.404	327.5
841.653	338.5
841.902	296.5
842.15	342.5
842.399	344.5
842.648	322.5
842.897	352.5
843.145	276.5
843.394	295.5
843.642	312.5
843.891	369.5
844.139	325.5
844.388	292.5
844.636	263.5
844.884	322.5
845.133	292.5
845.381	307.5
845.629	354.5
845.877	309.5
846.125	308.5
846.373	333.5
846.621	292.5
846.869	352.5
847.117	334.5
847.365	314.5
847.613	337.5
847.861	357.5
848.108	379.5
848.356	350.5
848.604	299.5
848.851	335.5
849.099	331.5
849.346	320.5
849.594	347.5
849.841	360.5
850.089	319.5
850.336	294.5
850.583	304.5
850.831	329.5
851.078	338.5
851.325	300.5
851.572	364.5
851.819	355.5
852.066	342.5
852.313	322.5
852.56	284.5
852.807	293.5
853.054	295.5
853.301	312.5
853.548	308.5
853.794	404.5
854.041	343.5
854.288	283.5
854.534	395.5
854.781	315.5
855.028	311.5
855.274	378.5
855.52	323.5
855.767	303.5
856.013	352.5
856.26	626.5
856.506	318.5
856.752	354.5
856.998	328.5
857.244	292.5
857.49	340.5
857.736	352.5
857.982	343.5
858.228	341.5
858.474	286.5
858.72	324.5
858.966	343.5
859.212	350.5
859.458	340.5
859.703	348.5
859.949	321.5
860.195	377.5
860.44	350.5
860.686	303.5
860.931	393.5
861.177	323.5
861.422	380.5
861.667	320.5
861.913	323.5
862.158	325.5
862.403	381.5
862.648	368.5
862.893	384.5
863.138	335.5
863.384	306.5
863.629	380.5
863.873	347.5
864.118	341.5
864.363	273.5
864.608	335.5
864.853	379.5
865.098	324.5
865.342	354.5
865.587	325.5
865.832	377.5
866.076	349.5
866.321	325.5
866.565	321.5
866.81	276.5
867.054	334.5
867.298	357.5
867.543	306.5
867.787	362.5
868.031	341.5
868.275	355.5
868.519	338.5
868.764	342.5
869.008	324.5
869.252	389.5
869.496	338.5
869.739	343.5
869.983	387.5
870.227	382.5
870.471	303.5
870.715	350.5
870.958	345.5
871.202	316.5
871.446	340.5
871.689	322.5
871.933	345.5
872.176	348.5
872.42	312.5
872.663	312.5
872.906	379.5
873.15	328.5
873.393	292.5
873.636	377.5
873.879	367.5
874.122	394.5
874.366	341.5
874.609	366.5
874.852	350.5
875.095	355.5
875.337	315.5
875.58	274.5
875.823	354.5
876.066	369.5
876.309	404.5
876.551	301.5
876.794	295.5
877.037	367.5
877.279	293.5
877.522	314.5
877.764	353.5
878.007	311.5
878.249	344.5
878.491	311.5
878.734	385.5
878.976	355.5
879.218	290.5
879.46	386.5
879.702	373.5
879.945	369.5
880.187	337.5
880.429	368.5
880.671	369.5
880.912	385.5
881.154	366.5
881.396	277.5
881.638	344.5
881.88	348.5
882.121	316.5
882.363	341.5
882.605	395.5
882.846	353.5
883.088	374.5
883.329	335.5
883.571	290.5
883.812	306.5
884.053	326.5
884.295	338.5
884.536	402.5
884.777	328.5
885.018	343.5
885.259	351.5
885.5	290.5
885.742	508.5
885.982	355.5
886.223	312.5
886.464	336.5
886.705	295.5
886.946	350.5
887.187	275.5
887.428	365.5
887.668	334.5
887.909	308.5
888.15	282.5
888.39	354.5
888.631	415.5
888.871	377.5
889.111	367.5
889.352	375.5
889.592	332.5
889.833	347.5
890.073	362.5
890.313	415.5
890.553	306.5
890.793	340.5
891.033	317.5
891.273	340.5
891.513	362.5
891.753	412.5
891.993	351.5
892.233	367.5
892.473	430.5
892.713	363.5
892.952	321.5
893.192	352.5
893.432	325.5
893.671	384.5
893.911	325.5
894.15	362.5
894.39	297.5
894.629	331.5
894.869	375.5
895.108	338.5
895.347	334.5
895.587	369.5
895.826	332.5
896.065	300.5
896.304	365.5
896.543	389.5
896.782	284.5
897.021	361.5
897.26	350.5
897.499	408.5
897.738	403.5
897.977	355.5
898.216	343.5
898.454	343.5
898.693	333.5
898.932	385.5
899.17	355.5
899.409	350.5
899.647	346.5
899.886	327.5
900.124	358.5
900.363	324.5
900.601	353.5
900.839	345.5
901.078	352.5
901.316	334.5
901.554	349.5
901.792	354.5
902.03	306.5
902.268	336.5
902.506	384.5
902.744	337.5
902.982	382.5
903.22	323.5
903.458	336.5
903.695	373.5
903.933	374.5
904.171	330.5
904.409	334.5
904.646	384.5
904.884	354.5
905.121	416.5
905.359	377.5
905.596	391.5
905.833	343.5
906.071	346.5
906.308	387.5
906.545	363.5
906.783	302.5
907.02	353.5
907.257	307.5
907.494	343.5
907.731	356.5
907.968	372.5
908.205	346.5
908.442	324.5
908.679	365.5
908.915	352.5
909.152	370.5
909.389	311.5
909.626	347.5
909.862	329.5
910.099	362.5
910.335	394.5
910.572	302.5
910.808	378.5
911.045	349.5
911.281	334.5
911.518	409.5
911.754	352.5
911.99	356.5
912.226	362.5
912.463	311.5
912.699	348.5
912.935	352.5
913.171	350.5
913.407	336.5
913.643	405.5
913.879	367.5
914.114	369.5
914.35	341.5
914.586	358.5
914.822	322.5
915.057	450.5
915.293	315.5
915.529	330.5
915.764	399.5
916	381.5
916.235	360.5
916.471	400.5
916.706	295.5
916.941	339.5
917.177	355.5
917.412	386.5
917.647	394.5
917.882	326.5
918.117	395.5
918.352	377.5
918.588	417.5
918.823	347.5
919.057	364.5
919.292	286.5
919.527	424.5
919.762	371.5
919.997	434.5
920.232	382.5
920.466	421.5
920.701	322.5
920.935	395.5
921.17	361.5
921.405	323.5
921.639	403.5
921.873	363.5
922.108	383.5
922.342	411.5
922.576	336.5
922.811	348.5
923.045	405.5
923.279	429.5
923.513	316.5
923.747	415.5
923.981	384.5
924.215	353.5
924.449	363.5
924.683	339.5
924.917	359.5
925.151	358.5
925.385	442.5
925.618	385.5
925.852	396.5
926.086	320.5
926.319	386.5
926.553	381.5
926.786	386.5
927.02	374.5
927.253	416.5
927.486	421.5
927.72	333.5
927.953	406.5
928.186	369.5
928.42	407.5
928.653	347.5
928.886	345.5
929.119	391.5
929.352	386.5
929.585	403.5
929.818	347.5
930.051	401.5
930.284	401.5
930.516	338.5
930.749	353.5
930.982	420.5
931.215	399.5
931.447	352.5
931.68	372.5
931.912	349.5
932.145	353.5
932.377	383.5
932.61	513.5
932.842	310.5
933.074	399.5
933.307	342.5
933.539	423.5
933.771	424.5
934.003	382.5
934.236	440.5
934.468	451.5
934.7	365.5
934.932	415.5
935.164	365.5
935.395	361.5
935.627	387.5
935.859	390.5
936.091	332.5
936.323	412.5
936.554	447.5
936.786	390.5
937.017	361.5
937.249	391.5
937.481	323.5
937.712	409.5
937.943	377.5
938.175	364.5
938.406	369.5
938.637	449.5
938.869	353.5
939.1	413.5
939.331	374.5
939.562	410.5
939.793	398.5
940.024	424.5
940.255	432.5
940.486	386.5
940.717	404.5
940.948	389.5
941.179	355.5
941.409	388.5
941.64	366.5
941.871	398.5
942.102	374.5
942.332	376.5
942.563	425.5
942.793	401.5
943.024	333.5
943.254	384.5
943.484	426.5
943.715	426.5
943.945	414.5
944.175	339.5
944.405	322.5
944.636	347.5
944.866	381.5
945.096	400.5
945.326	347.5
945.556	406.5
945.786	444.5
946.016	373.5
946.245	335.5
946.475	366.5
946.705	373.5
946.935	370.5
947.164	416.5
947.394	369.5
947.624	393.5
947.853	431.5
948.083	408.5
948.312	390.5
948.542	340.5
948.771	347.5
949	354.5
949.23	380.5
949.459	387.5
949.688	442.5
949.917	392.5
950.146	406.5
950.375	451.5
950.604	359.5
950.833	447.5
951.062	440.5
951.291	386.5
951.52	368.5
951.749	403.5
951.978	372.5
952.206	360.5
952.435	377.5
952.664	406.5
952.892	426.5
953.121	410.5
953.349	436.5
953.578	442.5
953.806	409.5
954.035	358.5
954.263	413.5
954.491	360.5
954.719	421.5
954.948	382.5
955.176	391.5
955.404	329.5
955.632	405.5
955.86	424.5
956.088	412.5
956.316	442.5
956.544	458.5
956.772	413.5
956.999	402.5
957.227	506.5
957.455	409.5
957.683	427.5
957.91	394.5
958.138	403.5
958.365	396.5
958.593	403.5
958.82	363.5
959.048	449.5
959.275	418.5
959.502	421.5
959.73	376.5
959.957	436.5
960.184	452.5
960.411	391.5
960.638	464.5
960.865	410.5
961.092	459.5
961.319	349.5
961.546	453.5
961.773	455.5
962	409.5
962.227	471.5
962.454	425.5
962.68	423.5
962.907	446.5
963.134	410.5
963.36	446.5
963.587	472.5
963.813	414.5
964.04	478.5
964.266	406.5
964.493	513.5
964.719	468.5
964.945	492.5
965.171	414.5
965.398	459.5
965.624	497.5
965.85	427.5
966.076	430.5
966.302	477.5
966.528	459.5
966.754	487.5
966.98	490.5
967.206	478.5
967.431	415.5
967.657	514.5
967.883	473.5
968.109	469.5
968.334	443.5
968.56	429.5
968.785	463.5
969.011	426.5
969.236	493.5
969.462	424.5
969.687	443.5
969.912	496.5
970.138	512.5
970.363	435.5
970.588	462.5
970.813	451.5
971.038	433.5
971.263	469.5
971.488	488.5
971.713	519.5
971.938	502.5
972.163	424.5
972.388	450.5
972.613	455.5
972.838	458.5
973.062	448.5
973.287	471.5
973.512	407.5
973.736	456.5
973.961	446.5
974.185	428.5
974.41	481.5
974.634	400.5
974.858	436.5
975.083	481.5
975.307	494.5
975.531	440.5
975.755	405.5
975.98	435.5
976.204	378.5
976.428	403.5
976.652	406.5
976.876	404.5
977.1	442.5
977.324	403.5
977.547	475.5
977.771	462.5
977.995	448.5
978.219	374.5
978.442	522.5
978.666	452.5
978.89	443.5
979.113	440.5
979.337	455.5
979.56	413.5
979.783	521.5
980.007	399.5
980.23	446.5
980.453	414.5
980.677	450.5
980.9	459.5
981.123	371.5
981.346	464.5
981.569	476.5
981.792	491.5
982.015	451.5
982.238	410.5
982.461	468.5
982.684	450.5
982.907	422.5
983.129	430.5
983.352	493.5
983.575	475.5
983.797	474.5
984.02	439.5
984.242	438.5
984.465	458.5
984.687	495.5
984.91	503.5
985.132	476.5
985.354	507.5
985.577	481.5
985.799	480.5
986.021	407.5
986.243	441.5
986.465	469.5
986.687	521.5
986.909	565.5
987.131	504.5
987.353	472.5
987.575	506.5
987.797	469.5
988.019	421.5
988.241	481.5
988.462	440.5
988.684	511.5
988.906	542.5
989.127	573.5
989.349	448.5
989.57	480.5
989.792	530.5
990.013	549.5
990.234	548.5
990.456	566.5
990.677	550.5
990.898	513.5
991.119	514.5
991.341	551.5
991.562	465.5
991.783	533.5
992.004	480.5
992.225	442.5
992.446	523.5
992.667	452.5
992.887	529.5
993.108	437.5
993.329	575.5
993.55	531.5
993.77	482.5
993.991	477.5
994.212	542.5
994.432	520.5
994.653	548.5
994.873	559.5
995.093	435.5
995.314	491.5
995.534	562.5
995.754	578.5
995.975	595.5
996.195	503.5
996.415	568.5
996.635	529.5
996.855	543.5
997.075	516.5
997.295	534.5
997.515	509.5
997.735	561.5
997.955	532.5
998.174	524.5
998.394	501.5
998.614	550.5
998.834	509.5
999.053	574.5
999.273	548.5
999.492	634.5
999.712	567.5
999.931	530.5
1000.151	588.5
1000.37	573.5
1000.589	640.5
1000.809	554.5
1001.028	693.5
1001.247	633.5
1001.466	518.5
1001.685	686.5
1001.904	624.5
1002.123	609.5
1002.342	627.5
1002.561	600.5
1002.78	630.5
1002.999	699.5
1003.218	641.5
1003.436	615.5
1003.655	676.5
1003.874	612.5
1004.092	647.5
1004.311	696.5
1004.53	649.5
1004.748	731.5
1004.966	656.5
1005.185	696.5
1005.403	696.5
1005.622	679.5
1005.84	738.5
1006.058	655.5
1006.276	680.5
1006.494	1190.5
1006.712	671.5
1006.931	731.5
1007.149	648.5
1007.367	662.5
1007.584	696.5
1007.802	705.5
1008.02	649.5
1008.238	754.5
1008.456	700.5
1008.673	601.5
1008.891	682.5
1009.109	626.5
1009.326	654.5
1009.544	734.5
1009.761	586.5
1009.979	667.5
1010.196	614.5
1010.413	671.5
1010.631	654.5
1010.848	676.5
1011.065	661.5
1011.282	605.5
1011.5	559.5
1011.717	665.5
1011.934	625.5
1012.151	660.5
1012.368	648.5
1012.585	576.5
1012.801	637.5
1013.018	619.5
1013.235	577.5
1013.452	608.5
1013.669	607.5
1013.885	571.5
1014.102	602.5
1014.318	560.5
1014.535	525.5
1014.751	570.5
1014.968	573.5
1015.184	602.5
1015.401	535.5
1015.617	575.5
1015.833	527.5
1016.049	550.5
1016.266	534.5
1016.482	555.5
1016.698	501.5
1016.914	568.5
1017.13	491.5
1017.346	501.5
1017.562	596.5
1017.778	511.5
1017.993	498.5
1018.209	541.5
1018.425	530.5
1018.641	507.5
1018.856	478.5
1019.072	507.5
1019.288	545.5
1019.503	512.5
1019.719	441.5
1019.934	456.5
1020.149	531.5
1020.365	484.5
1020.58	473.5
1020.795	532.5
1021.011	502.5
1021.226	502.5
1021.441	561.5
1021.656	477.5
1021.871	438.5
1022.086	469.5
1022.301	481.5
1022.516	481.5
1022.731	532.5
1022.946	473.5
1023.16	465.5
1023.375	438.5
1023.59	462.5
1023.804	431.5
1024.019	542.5
1024.234	440.5
1024.448	473.5
1024.663	417.5
1024.877	440.5
1025.092	481.5
1025.306	485.5
1025.52	401.5
1025.734	503.5
1025.949	450.5
1026.163	433.5
1026.377	397.5
1026.591	453.5
1026.805	381.5
1027.019	382.5
1027.233	372.5
1027.447	316.5
1027.661	434.5
1027.875	375.5
1028.088	389.5
1028.302	328.5
1028.516	339.5
1028.73	357.5
1028.943	349.5
1029.157	322.5
1029.37	306.5
1029.584	0.5
1029.797	-3.5
1030.011	-0.5
1030.224	-0.5
