Data from QEP037381__0__10-12-11-054.txt Node

Date: Fri Apr 21 10:12:11 EDT 2023
User: dcclab
Spectrometer: QEP03738
Trigger mode: 4
Integration Time (sec): 1.000000E1
Scans to average: 1
Electric dark correction enabled: true
Nonlinearity correction enabled: false
Boxcar width: 0
XAxis mode: Wavelengths
Number of Pixels in Spectrum: 1044
>>>>>Begin Spectral Data<<<<<
784.041	12.38
784.3	-0.62
784.558	-3.62
784.817	-1.62
785.075	246.38
785.334	218.38
785.592	211.38
785.851	214.38
786.109	229.38
786.368	243.38
786.626	256.38
786.884	278.38
787.143	263.38
787.401	205.38
787.659	285.38
787.917	243.38
788.175	288.38
788.433	273.38
788.691	290.38
788.949	270.38
789.207	316.38
789.465	245.38
789.723	260.38
789.98	240.38
790.238	322.38
790.496	306.38
790.753	288.38
791.011	357.38
791.268	294.38
791.526	302.38
791.783	329.38
792.041	331.38
792.298	254.38
792.556	330.38
792.813	313.38
793.07	293.38
793.327	298.38
793.584	358.38
793.841	301.38
794.099	320.38
794.356	380.38
794.613	288.38
794.869	329.38
795.126	297.38
795.383	293.38
795.64	308.38
795.897	265.38
796.153	319.38
796.41	301.38
796.667	290.38
796.923	307.38
797.18	292.38
797.436	317.38
797.693	279.38
797.949	336.38
798.206	360.38
798.462	280.38
798.718	330.38
798.974	312.38
799.231	337.38
799.487	319.38
799.743	328.38
799.999	346.38
800.255	339.38
800.511	313.38
800.767	338.38
801.023	296.38
801.279	315.38
801.534	330.38
801.79	342.38
802.046	296.38
802.302	354.38
802.557	326.38
802.813	350.38
803.068	290.38
803.324	337.38
803.579	305.38
803.835	310.38
804.09	352.38
804.345	308.38
804.601	283.38
804.856	319.38
805.111	337.38
805.366	320.38
805.621	326.38
805.876	345.38
806.131	320.38
806.386	299.38
806.641	283.38
806.896	307.38
807.151	373.38
807.406	317.38
807.661	349.38
807.915	330.38
808.17	342.38
808.425	334.38
808.679	298.38
808.934	379.38
809.188	321.38
809.443	345.38
809.697	368.38
809.951	306.38
810.206	307.38
810.46	367.38
810.714	348.38
810.968	363.38
811.223	296.38
811.477	337.38
811.731	352.38
811.985	274.38
812.239	251.38
812.493	297.38
812.747	321.38
813	285.38
813.254	327.38
813.508	343.38
813.762	305.38
814.015	305.38
814.269	330.38
814.522	352.38
814.776	348.38
815.03	337.38
815.283	338.38
815.536	339.38
815.79	357.38
816.043	336.38
816.296	340.38
816.55	337.38
816.803	319.38
817.056	403.38
817.309	338.38
817.562	329.38
817.815	390.38
818.068	285.38
818.321	309.38
818.574	292.38
818.827	342.38
819.079	304.38
819.332	414.38
819.585	345.38
819.838	400.38
820.09	322.38
820.343	382.38
820.595	289.38
820.848	347.38
821.1	358.38
821.353	326.38
821.605	308.38
821.857	405.38
822.11	303.38
822.362	307.38
822.614	290.38
822.866	334.38
823.118	274.38
823.37	389.38
823.622	343.38
823.874	327.38
824.126	352.38
824.378	288.38
824.63	325.38
824.882	341.38
825.134	311.38
825.385	361.38
825.637	335.38
825.888	312.38
826.14	338.38
826.392	307.38
826.643	301.38
826.895	388.38
827.146	319.38
827.397	321.38
827.649	395.38
827.9	310.38
828.151	290.38
828.402	302.38
828.653	325.38
828.905	335.38
829.156	379.38
829.407	290.38
829.658	333.38
829.909	366.38
830.159	349.38
830.41	348.38
830.661	361.38
830.912	336.38
831.162	315.38
831.413	310.38
831.664	349.38
831.914	331.38
832.165	345.38
832.415	340.38
832.666	340.38
832.916	347.38
833.167	312.38
833.417	405.38
833.667	347.38
833.917	350.38
834.168	411.38
834.418	357.38
834.668	335.38
834.918	282.38
835.168	323.38
835.418	276.38
835.668	336.38
835.918	373.38
836.167	355.38
836.417	296.38
836.667	360.38
836.917	380.38
837.166	322.38
837.416	361.38
837.666	369.38
837.915	319.38
838.165	346.38
838.414	324.38
838.663	276.38
838.913	346.38
839.162	295.38
839.411	388.38
839.661	306.38
839.91	326.38
840.159	318.38
840.408	329.38
840.657	323.38
840.906	338.38
841.155	363.38
841.404	333.38
841.653	343.38
841.902	302.38
842.15	338.38
842.399	350.38
842.648	322.38
842.897	362.38
843.145	278.38
843.394	314.38
843.642	317.38
843.891	365.38
844.139	330.38
844.388	300.38
844.636	273.38
844.884	336.38
845.133	300.38
845.381	328.38
845.629	359.38
845.877	302.38
846.125	312.38
846.373	339.38
846.621	302.38
846.869	347.38
847.117	331.38
847.365	321.38
847.613	348.38
847.861	347.38
848.108	396.38
848.356	354.38
848.604	305.38
848.851	345.38
849.099	330.38
849.346	330.38
849.594	349.38
849.841	358.38
850.089	333.38
850.336	294.38
850.583	316.38
850.831	326.38
851.078	335.38
851.325	317.38
851.572	368.38
851.819	360.38
852.066	339.38
852.313	326.38
852.56	291.38
852.807	288.38
853.054	294.38
853.301	315.38
853.548	324.38
853.794	393.38
854.041	329.38
854.288	296.38
854.534	399.38
854.781	327.38
855.028	306.38
855.274	376.38
855.52	344.38
855.767	309.38
856.013	374.38
856.26	621.38
856.506	325.38
856.752	365.38
856.998	341.38
857.244	314.38
857.49	346.38
857.736	352.38
857.982	351.38
858.228	356.38
858.474	310.38
858.72	334.38
858.966	353.38
859.212	346.38
859.458	343.38
859.703	338.38
859.949	329.38
860.195	371.38
860.44	360.38
860.686	320.38
860.931	392.38
861.177	319.38
861.422	390.38
861.667	337.38
861.913	329.38
862.158	337.38
862.403	392.38
862.648	368.38
862.893	405.38
863.138	351.38
863.384	317.38
863.629	377.38
863.873	341.38
864.118	345.38
864.363	283.38
864.608	356.38
864.853	366.38
865.098	359.38
865.342	372.38
865.587	326.38
865.832	373.38
866.076	352.38
866.321	328.38
866.565	339.38
866.81	276.38
867.054	336.38
867.298	348.38
867.543	319.38
867.787	370.38
868.031	349.38
868.275	351.38
868.519	330.38
868.764	340.38
869.008	335.38
869.252	382.38
869.496	331.38
869.739	341.38
869.983	386.38
870.227	366.38
870.471	320.38
870.715	355.38
870.958	363.38
871.202	318.38
871.446	316.38
871.689	315.38
871.933	341.38
872.176	342.38
872.42	335.38
872.663	332.38
872.906	385.38
873.15	340.38
873.393	287.38
873.636	381.38
873.879	377.38
874.122	403.38
874.366	331.38
874.609	381.38
874.852	349.38
875.095	356.38
875.337	329.38
875.58	293.38
875.823	348.38
876.066	379.38
876.309	410.38
876.551	312.38
876.794	296.38
877.037	378.38
877.279	307.38
877.522	321.38
877.764	363.38
878.007	319.38
878.249	344.38
878.491	317.38
878.734	376.38
878.976	365.38
879.218	308.38
879.46	392.38
879.702	397.38
879.945	368.38
880.187	330.38
880.429	384.38
880.671	382.38
880.912	383.38
881.154	379.38
881.396	290.38
881.638	354.38
881.88	356.38
882.121	320.38
882.363	335.38
882.605	401.38
882.846	360.38
883.088	366.38
883.329	321.38
883.571	305.38
883.812	325.38
884.053	317.38
884.295	336.38
884.536	413.38
884.777	337.38
885.018	361.38
885.259	366.38
885.5	310.38
885.742	513.38
885.982	377.38
886.223	315.38
886.464	339.38
886.705	313.38
886.946	356.38
887.187	293.38
887.428	377.38
887.668	311.38
887.909	307.38
888.15	301.38
888.39	377.38
888.631	424.38
888.871	386.38
889.111	380.38
889.352	368.38
889.592	348.38
889.833	350.38
890.073	367.38
890.313	420.38
890.553	320.38
890.793	352.38
891.033	330.38
891.273	338.38
891.513	366.38
891.753	423.38
891.993	358.38
892.233	379.38
892.473	434.38
892.713	364.38
892.952	316.38
893.192	372.38
893.432	337.38
893.671	380.38
893.911	351.38
894.15	353.38
894.39	293.38
894.629	332.38
894.869	366.38
895.108	355.38
895.347	316.38
895.587	369.38
895.826	328.38
896.065	310.38
896.304	369.38
896.543	393.38
896.782	289.38
897.021	349.38
897.26	349.38
897.499	392.38
897.738	413.38
897.977	351.38
898.216	358.38
898.454	362.38
898.693	338.38
898.932	385.38
899.17	360.38
899.409	359.38
899.647	340.38
899.886	338.38
900.124	370.38
900.363	329.38
900.601	350.38
900.839	368.38
901.078	364.38
901.316	355.38
901.554	353.38
901.792	363.38
902.03	317.38
902.268	341.38
902.506	394.38
902.744	340.38
902.982	384.38
903.22	318.38
903.458	340.38
903.695	375.38
903.933	382.38
904.171	332.38
904.409	342.38
904.646	384.38
904.884	348.38
905.121	412.38
905.359	389.38
905.596	383.38
905.833	331.38
906.071	345.38
906.308	404.38
906.545	375.38
906.783	316.38
907.02	364.38
907.257	311.38
907.494	339.38
907.731	375.38
907.968	375.38
908.205	326.38
908.442	341.38
908.679	368.38
908.915	364.38
909.152	376.38
909.389	310.38
909.626	352.38
909.862	322.38
910.099	363.38
910.335	413.38
910.572	315.38
910.808	371.38
911.045	354.38
911.281	331.38
911.518	418.38
911.754	356.38
911.99	374.38
912.226	352.38
912.463	329.38
912.699	345.38
912.935	348.38
913.171	348.38
913.407	338.38
913.643	390.38
913.879	365.38
914.114	361.38
914.35	343.38
914.586	357.38
914.822	338.38
915.057	432.38
915.293	316.38
915.529	333.38
915.764	402.38
916	391.38
916.235	381.38
916.471	407.38
916.706	301.38
916.941	348.38
917.177	349.38
917.412	385.38
917.647	394.38
917.882	335.38
918.117	400.38
918.352	382.38
918.588	439.38
918.823	349.38
919.057	364.38
919.292	300.38
919.527	412.38
919.762	368.38
919.997	434.38
920.232	377.38
920.466	427.38
920.701	313.38
920.935	390.38
921.17	369.38
921.405	331.38
921.639	412.38
921.873	377.38
922.108	391.38
922.342	404.38
922.576	354.38
922.811	353.38
923.045	406.38
923.279	419.38
923.513	311.38
923.747	394.38
923.981	382.38
924.215	347.38
924.449	369.38
924.683	341.38
924.917	357.38
925.151	363.38
925.385	434.38
925.618	386.38
925.852	394.38
926.086	325.38
926.319	397.38
926.553	372.38
926.786	390.38
927.02	360.38
927.253	416.38
927.486	413.38
927.72	349.38
927.953	408.38
928.186	368.38
928.42	402.38
928.653	358.38
928.886	346.38
929.119	390.38
929.352	383.38
929.585	392.38
929.818	360.38
930.051	406.38
930.284	420.38
930.516	329.38
930.749	351.38
930.982	408.38
931.215	413.38
931.447	349.38
931.68	378.38
931.912	369.38
932.145	376.38
932.377	381.38
932.61	513.38
932.842	310.38
933.074	388.38
933.307	335.38
933.539	443.38
933.771	429.38
934.003	368.38
934.236	446.38
934.468	450.38
934.7	376.38
934.932	414.38
935.164	354.38
935.395	354.38
935.627	399.38
935.859	394.38
936.091	345.38
936.323	401.38
936.554	448.38
936.786	395.38
937.017	351.38
937.249	407.38
937.481	325.38
937.712	413.38
937.943	379.38
938.175	365.38
938.406	369.38
938.637	450.38
938.869	352.38
939.1	401.38
939.331	368.38
939.562	402.38
939.793	416.38
940.024	429.38
940.255	445.38
940.486	402.38
940.717	391.38
940.948	401.38
941.179	361.38
941.409	400.38
941.64	379.38
941.871	391.38
942.102	362.38
942.332	389.38
942.563	414.38
942.793	399.38
943.024	340.38
943.254	384.38
943.484	417.38
943.715	437.38
943.945	412.38
944.175	350.38
944.405	327.38
944.636	345.38
944.866	406.38
945.096	397.38
945.326	331.38
945.556	400.38
945.786	425.38
946.016	377.38
946.245	350.38
946.475	376.38
946.705	378.38
946.935	384.38
947.164	408.38
947.394	369.38
947.624	384.38
947.853	437.38
948.083	418.38
948.312	384.38
948.542	342.38
948.771	335.38
949	365.38
949.23	376.38
949.459	383.38
949.688	430.38
949.917	385.38
950.146	409.38
950.375	459.38
950.604	357.38
950.833	471.38
951.062	448.38
951.291	393.38
951.52	382.38
951.749	391.38
951.978	361.38
952.206	372.38
952.435	378.38
952.664	419.38
952.892	425.38
953.121	400.38
953.349	440.38
953.578	436.38
953.806	417.38
954.035	372.38
954.263	422.38
954.491	374.38
954.719	425.38
954.948	388.38
955.176	394.38
955.404	336.38
955.632	414.38
955.86	428.38
956.088	419.38
956.316	446.38
956.544	472.38
956.772	427.38
956.999	398.38
957.227	485.38
957.455	404.38
957.683	424.38
957.91	412.38
958.138	400.38
958.365	397.38
958.593	400.38
958.82	360.38
959.048	429.38
959.275	404.38
959.502	409.38
959.73	388.38
959.957	425.38
960.184	455.38
960.411	391.38
960.638	458.38
960.865	418.38
961.092	460.38
961.319	361.38
961.546	448.38
961.773	462.38
962	417.38
962.227	485.38
962.454	432.38
962.68	432.38
962.907	458.38
963.134	414.38
963.36	436.38
963.587	481.38
963.813	411.38
964.04	470.38
964.266	415.38
964.493	492.38
964.719	484.38
964.945	502.38
965.171	397.38
965.398	460.38
965.624	494.38
965.85	436.38
966.076	437.38
966.302	497.38
966.528	435.38
966.754	478.38
966.98	490.38
967.206	488.38
967.431	430.38
967.657	511.38
967.883	492.38
968.109	476.38
968.334	437.38
968.56	429.38
968.785	459.38
969.011	414.38
969.236	485.38
969.462	424.38
969.687	453.38
969.912	493.38
970.138	513.38
970.363	452.38
970.588	486.38
970.813	455.38
971.038	438.38
971.263	481.38
971.488	489.38
971.713	520.38
971.938	488.38
972.163	399.38
972.388	460.38
972.613	441.38
972.838	465.38
973.062	441.38
973.287	455.38
973.512	408.38
973.736	460.38
973.961	448.38
974.185	448.38
974.41	486.38
974.634	411.38
974.858	422.38
975.083	465.38
975.307	513.38
975.531	435.38
975.755	398.38
975.98	428.38
976.204	383.38
976.428	401.38
976.652	398.38
976.876	399.38
977.1	439.38
977.324	405.38
977.547	472.38
977.771	466.38
977.995	451.38
978.219	379.38
978.442	512.38
978.666	446.38
978.89	447.38
979.113	461.38
979.337	438.38
979.56	422.38
979.783	502.38
980.007	402.38
980.23	458.38
980.453	428.38
980.677	456.38
980.9	450.38
981.123	376.38
981.346	464.38
981.569	469.38
981.792	490.38
982.015	455.38
982.238	437.38
982.461	459.38
982.684	437.38
982.907	431.38
983.129	439.38
983.352	461.38
983.575	461.38
983.797	479.38
984.02	440.38
984.242	442.38
984.465	451.38
984.687	479.38
984.91	528.38
985.132	488.38
985.354	514.38
985.577	496.38
985.799	483.38
986.021	418.38
986.243	451.38
986.465	476.38
986.687	521.38
986.909	557.38
987.131	498.38
987.353	465.38
987.575	512.38
987.797	474.38
988.019	422.38
988.241	490.38
988.462	445.38
988.684	512.38
988.906	526.38
989.127	559.38
989.349	448.38
989.57	483.38
989.792	541.38
990.013	526.38
990.234	539.38
990.456	573.38
990.677	556.38
990.898	499.38
991.119	495.38
991.341	540.38
991.562	491.38
991.783	540.38
992.004	481.38
992.225	472.38
992.446	546.38
992.667	455.38
992.887	531.38
993.108	438.38
993.329	583.38
993.55	528.38
993.77	500.38
993.991	480.38
994.212	516.38
994.432	516.38
994.653	550.38
994.873	526.38
995.093	432.38
995.314	484.38
995.534	575.38
995.754	575.38
995.975	607.38
996.195	501.38
996.415	564.38
996.635	531.38
996.855	540.38
997.075	518.38
997.295	531.38
997.515	497.38
997.735	568.38
997.955	550.38
998.174	525.38
998.394	517.38
998.614	556.38
998.834	515.38
999.053	605.38
999.273	552.38
999.492	618.38
999.712	568.38
999.931	538.38
1000.151	596.38
1000.37	593.38
1000.589	636.38
1000.809	578.38
1001.028	684.38
1001.247	632.38
1001.466	531.38
1001.685	678.38
1001.904	620.38
1002.123	623.38
1002.342	634.38
1002.561	588.38
1002.78	627.38
1002.999	693.38
1003.218	630.38
1003.436	625.38
1003.655	673.38
1003.874	625.38
1004.092	642.38
1004.311	693.38
1004.53	640.38
1004.748	747.38
1004.966	653.38
1005.185	711.38
1005.403	673.38
1005.622	685.38
1005.84	742.38
1006.058	644.38
1006.276	666.38
1006.494	1170.38
1006.712	683.38
1006.931	722.38
1007.149	651.38
1007.367	650.38
1007.584	692.38
1007.802	692.38
1008.02	668.38
1008.238	732.38
1008.456	718.38
1008.673	578.38
1008.891	681.38
1009.109	627.38
1009.326	658.38
1009.544	719.38
1009.761	598.38
1009.979	641.38
1010.196	630.38
1010.413	678.38
1010.631	672.38
1010.848	662.38
1011.065	676.38
1011.282	624.38
1011.5	573.38
1011.717	696.38
1011.934	622.38
1012.151	661.38
1012.368	649.38
1012.585	594.38
1012.801	655.38
1013.018	613.38
1013.235	567.38
1013.452	592.38
1013.669	600.38
1013.885	565.38
1014.102	592.38
1014.318	563.38
1014.535	541.38
1014.751	568.38
1014.968	559.38
1015.184	615.38
1015.401	526.38
1015.617	577.38
1015.833	525.38
1016.049	553.38
1016.266	528.38
1016.482	567.38
1016.698	506.38
1016.914	560.38
1017.13	524.38
1017.346	522.38
1017.562	593.38
1017.778	498.38
1017.993	497.38
1018.209	536.38
1018.425	538.38
1018.641	492.38
1018.856	475.38
1019.072	503.38
1019.288	561.38
1019.503	502.38
1019.719	432.38
1019.934	451.38
1020.149	544.38
1020.365	492.38
1020.58	459.38
1020.795	548.38
1021.011	492.38
1021.226	487.38
1021.441	543.38
1021.656	492.38
1021.871	457.38
1022.086	467.38
1022.301	462.38
1022.516	490.38
1022.731	533.38
1022.946	461.38
1023.16	472.38
1023.375	446.38
1023.59	442.38
1023.804	424.38
1024.019	534.38
1024.234	431.38
1024.448	488.38
1024.663	411.38
1024.877	443.38
1025.092	480.38
1025.306	483.38
1025.52	394.38
1025.734	513.38
1025.949	440.38
1026.163	443.38
1026.377	374.38
1026.591	449.38
1026.805	388.38
1027.019	395.38
1027.233	352.38
1027.447	312.38
1027.661	422.38
1027.875	379.38
1028.088	413.38
1028.302	336.38
1028.516	347.38
1028.73	353.38
1028.943	360.38
1029.157	322.38
1029.37	320.38
1029.584	-2.62
1029.797	-0.62
1030.011	0.38
1030.224	-3.62
