Data from QEP037381__68__10-23-31-071.txt Node

Date: Fri Apr 21 10:23:31 EDT 2023
User: dcclab
Spectrometer: QEP03738
Trigger mode: 4
Integration Time (sec): 1.000000E1
Scans to average: 1
Electric dark correction enabled: true
Nonlinearity correction enabled: false
Boxcar width: 0
XAxis mode: Wavelengths
Number of Pixels in Spectrum: 1044
>>>>>Begin Spectral Data<<<<<
784.041	13.25
784.3	0.25
784.558	-4.75
784.817	-5.75
785.075	226.25
785.334	213.25
785.592	202.25
785.851	193.25
786.109	232.25
786.368	238.25
786.626	256.25
786.884	274.25
787.143	257.25
787.401	206.25
787.659	278.25
787.917	249.25
788.175	291.25
788.433	273.25
788.691	271.25
788.949	282.25
789.207	294.25
789.465	247.25
789.723	280.25
789.98	259.25
790.238	309.25
790.496	306.25
790.753	282.25
791.011	356.25
791.268	316.25
791.526	306.25
791.783	336.25
792.041	324.25
792.298	256.25
792.556	328.25
792.813	313.25
793.07	293.25
793.327	303.25
793.584	374.25
793.841	298.25
794.099	318.25
794.356	379.25
794.613	286.25
794.869	332.25
795.126	295.25
795.383	285.25
795.64	320.25
795.897	265.25
796.153	327.25
796.41	300.25
796.667	291.25
796.923	303.25
797.18	296.25
797.436	322.25
797.693	286.25
797.949	328.25
798.206	364.25
798.462	270.25
798.718	332.25
798.974	301.25
799.231	336.25
799.487	322.25
799.743	317.25
799.999	340.25
800.255	336.25
800.511	307.25
800.767	327.25
801.023	314.25
801.279	310.25
801.534	321.25
801.79	336.25
802.046	309.25
802.302	350.25
802.557	322.25
802.813	351.25
803.068	287.25
803.324	333.25
803.579	301.25
803.835	298.25
804.09	347.25
804.345	278.25
804.601	277.25
804.856	302.25
805.111	326.25
805.366	308.25
805.621	312.25
805.876	336.25
806.131	324.25
806.386	299.25
806.641	278.25
806.896	309.25
807.151	369.25
807.406	307.25
807.661	337.25
807.915	328.25
808.17	336.25
808.425	328.25
808.679	287.25
808.934	371.25
809.188	308.25
809.443	331.25
809.697	357.25
809.951	301.25
810.206	294.25
810.46	354.25
810.714	343.25
810.968	345.25
811.223	283.25
811.477	318.25
811.731	342.25
811.985	264.25
812.239	240.25
812.493	287.25
812.747	313.25
813	265.25
813.254	321.25
813.508	338.25
813.762	302.25
814.015	288.25
814.269	312.25
814.522	337.25
814.776	342.25
815.03	336.25
815.283	331.25
815.536	336.25
815.79	340.25
816.043	321.25
816.296	317.25
816.55	320.25
816.803	307.25
817.056	395.25
817.309	343.25
817.562	331.25
817.815	374.25
818.068	273.25
818.321	288.25
818.574	273.25
818.827	343.25
819.079	299.25
819.332	403.25
819.585	346.25
819.838	390.25
820.09	296.25
820.343	360.25
820.595	299.25
820.848	347.25
821.1	350.25
821.353	320.25
821.605	317.25
821.857	384.25
822.11	278.25
822.362	304.25
822.614	277.25
822.866	317.25
823.118	260.25
823.37	374.25
823.622	322.25
823.874	316.25
824.126	347.25
824.378	280.25
824.63	302.25
824.882	320.25
825.134	313.25
825.385	342.25
825.637	332.25
825.888	304.25
826.14	319.25
826.392	295.25
826.643	296.25
826.895	386.25
827.146	314.25
827.397	293.25
827.649	377.25
827.9	298.25
828.151	291.25
828.402	279.25
828.653	320.25
828.905	317.25
829.156	369.25
829.407	294.25
829.658	326.25
829.909	354.25
830.159	335.25
830.41	339.25
830.661	359.25
830.912	336.25
831.162	306.25
831.413	314.25
831.664	342.25
831.914	333.25
832.165	324.25
832.415	324.25
832.666	342.25
832.916	351.25
833.167	302.25
833.417	371.25
833.667	346.25
833.917	336.25
834.168	395.25
834.418	356.25
834.668	321.25
834.918	288.25
835.168	313.25
835.418	262.25
835.668	306.25
835.918	349.25
836.167	348.25
836.417	299.25
836.667	358.25
836.917	366.25
837.166	321.25
837.416	350.25
837.666	361.25
837.915	328.25
838.165	343.25
838.414	297.25
838.663	270.25
838.913	340.25
839.162	289.25
839.411	386.25
839.661	324.25
839.91	330.25
840.159	311.25
840.408	337.25
840.657	311.25
840.906	344.25
841.155	374.25
841.404	321.25
841.653	353.25
841.902	298.25
842.15	341.25
842.399	340.25
842.648	331.25
842.897	337.25
843.145	274.25
843.394	309.25
843.642	316.25
843.891	364.25
844.139	338.25
844.388	288.25
844.636	277.25
844.884	316.25
845.133	302.25
845.381	317.25
845.629	357.25
845.877	297.25
846.125	302.25
846.373	338.25
846.621	302.25
846.869	346.25
847.117	329.25
847.365	321.25
847.613	344.25
847.861	352.25
848.108	380.25
848.356	343.25
848.604	315.25
848.851	343.25
849.099	332.25
849.346	323.25
849.594	343.25
849.841	360.25
850.089	310.25
850.336	297.25
850.583	312.25
850.831	324.25
851.078	329.25
851.325	305.25
851.572	370.25
851.819	365.25
852.066	327.25
852.313	317.25
852.56	297.25
852.807	292.25
853.054	288.25
853.301	314.25
853.548	309.25
853.794	394.25
854.041	325.25
854.288	283.25
854.534	393.25
854.781	318.25
855.028	311.25
855.274	387.25
855.52	327.25
855.767	299.25
856.013	359.25
856.26	628.25
856.506	313.25
856.752	365.25
856.998	321.25
857.244	308.25
857.49	356.25
857.736	351.25
857.982	339.25
858.228	354.25
858.474	285.25
858.72	331.25
858.966	349.25
859.212	342.25
859.458	347.25
859.703	337.25
859.949	300.25
860.195	363.25
860.44	365.25
860.686	315.25
860.931	376.25
861.177	299.25
861.422	375.25
861.667	329.25
861.913	331.25
862.158	347.25
862.403	372.25
862.648	358.25
862.893	380.25
863.138	334.25
863.384	312.25
863.629	362.25
863.873	356.25
864.118	336.25
864.363	269.25
864.608	346.25
864.853	363.25
865.098	332.25
865.342	351.25
865.587	335.25
865.832	370.25
866.076	363.25
866.321	327.25
866.565	334.25
866.81	265.25
867.054	322.25
867.298	345.25
867.543	314.25
867.787	365.25
868.031	344.25
868.275	355.25
868.519	330.25
868.764	337.25
869.008	318.25
869.252	376.25
869.496	343.25
869.739	338.25
869.983	385.25
870.227	372.25
870.471	321.25
870.715	352.25
870.958	356.25
871.202	315.25
871.446	336.25
871.689	306.25
871.933	330.25
872.176	344.25
872.42	321.25
872.663	325.25
872.906	379.25
873.15	332.25
873.393	278.25
873.636	370.25
873.879	360.25
874.122	402.25
874.366	340.25
874.609	363.25
874.852	325.25
875.095	356.25
875.337	323.25
875.58	268.25
875.823	341.25
876.066	383.25
876.309	401.25
876.551	309.25
876.794	290.25
877.037	365.25
877.279	298.25
877.522	324.25
877.764	359.25
878.007	322.25
878.249	345.25
878.491	305.25
878.734	371.25
878.976	345.25
879.218	313.25
879.46	379.25
879.702	386.25
879.945	360.25
880.187	357.25
880.429	365.25
880.671	367.25
880.912	382.25
881.154	356.25
881.396	286.25
881.638	359.25
881.88	338.25
882.121	320.25
882.363	330.25
882.605	392.25
882.846	358.25
883.088	366.25
883.329	328.25
883.571	304.25
883.812	319.25
884.053	323.25
884.295	325.25
884.536	402.25
884.777	322.25
885.018	333.25
885.259	368.25
885.5	303.25
885.742	501.25
885.982	351.25
886.223	319.25
886.464	326.25
886.705	301.25
886.946	353.25
887.187	283.25
887.428	383.25
887.668	314.25
887.909	307.25
888.15	297.25
888.39	363.25
888.631	411.25
888.871	381.25
889.111	351.25
889.352	369.25
889.592	332.25
889.833	352.25
890.073	340.25
890.313	417.25
890.553	304.25
890.793	351.25
891.033	323.25
891.273	327.25
891.513	355.25
891.753	406.25
891.993	348.25
892.233	369.25
892.473	431.25
892.713	369.25
892.952	327.25
893.192	361.25
893.432	334.25
893.671	382.25
893.911	350.25
894.15	359.25
894.39	300.25
894.629	326.25
894.869	379.25
895.108	354.25
895.347	327.25
895.587	362.25
895.826	319.25
896.065	309.25
896.304	362.25
896.543	380.25
896.782	301.25
897.021	348.25
897.26	335.25
897.499	407.25
897.738	409.25
897.977	361.25
898.216	347.25
898.454	348.25
898.693	328.25
898.932	380.25
899.17	354.25
899.409	361.25
899.647	347.25
899.886	327.25
900.124	370.25
900.363	317.25
900.601	362.25
900.839	367.25
901.078	359.25
901.316	365.25
901.554	343.25
901.792	360.25
902.03	308.25
902.268	330.25
902.506	383.25
902.744	340.25
902.982	375.25
903.22	320.25
903.458	336.25
903.695	374.25
903.933	381.25
904.171	319.25
904.409	339.25
904.646	390.25
904.884	352.25
905.121	413.25
905.359	372.25
905.596	377.25
905.833	336.25
906.071	336.25
906.308	404.25
906.545	367.25
906.783	320.25
907.02	352.25
907.257	309.25
907.494	333.25
907.731	371.25
907.968	383.25
908.205	335.25
908.442	334.25
908.679	359.25
908.915	344.25
909.152	365.25
909.389	298.25
909.626	337.25
909.862	331.25
910.099	367.25
910.335	401.25
910.572	295.25
910.808	360.25
911.045	341.25
911.281	324.25
911.518	414.25
911.754	348.25
911.99	363.25
912.226	345.25
912.463	327.25
912.699	354.25
912.935	359.25
913.171	348.25
913.407	331.25
913.643	393.25
913.879	369.25
914.114	352.25
914.35	353.25
914.586	359.25
914.822	341.25
915.057	434.25
915.293	317.25
915.529	320.25
915.764	401.25
916	402.25
916.235	356.25
916.471	393.25
916.706	308.25
916.941	349.25
917.177	345.25
917.412	384.25
917.647	377.25
917.882	329.25
918.117	397.25
918.352	380.25
918.588	428.25
918.823	352.25
919.057	373.25
919.292	283.25
919.527	428.25
919.762	357.25
919.997	427.25
920.232	366.25
920.466	416.25
920.701	312.25
920.935	373.25
921.17	357.25
921.405	337.25
921.639	410.25
921.873	372.25
922.108	398.25
922.342	401.25
922.576	335.25
922.811	350.25
923.045	403.25
923.279	423.25
923.513	316.25
923.747	409.25
923.981	395.25
924.215	360.25
924.449	388.25
924.683	332.25
924.917	351.25
925.151	361.25
925.385	426.25
925.618	383.25
925.852	388.25
926.086	322.25
926.319	394.25
926.553	380.25
926.786	391.25
927.02	377.25
927.253	427.25
927.486	421.25
927.72	335.25
927.953	393.25
928.186	364.25
928.42	412.25
928.653	361.25
928.886	360.25
929.119	401.25
929.352	375.25
929.585	385.25
929.818	346.25
930.051	401.25
930.284	407.25
930.516	333.25
930.749	363.25
930.982	414.25
931.215	416.25
931.447	351.25
931.68	377.25
931.912	364.25
932.145	364.25
932.377	380.25
932.61	498.25
932.842	329.25
933.074	395.25
933.307	355.25
933.539	441.25
933.771	416.25
934.003	374.25
934.236	451.25
934.468	471.25
934.7	365.25
934.932	418.25
935.164	356.25
935.395	354.25
935.627	382.25
935.859	388.25
936.091	350.25
936.323	389.25
936.554	438.25
936.786	387.25
937.017	338.25
937.249	401.25
937.481	333.25
937.712	416.25
937.943	391.25
938.175	376.25
938.406	370.25
938.637	443.25
938.869	348.25
939.1	412.25
939.331	380.25
939.562	415.25
939.793	397.25
940.024	432.25
940.255	434.25
940.486	393.25
940.717	405.25
940.948	396.25
941.179	340.25
941.409	383.25
941.64	388.25
941.871	390.25
942.102	357.25
942.332	374.25
942.563	429.25
942.793	398.25
943.024	334.25
943.254	384.25
943.484	422.25
943.715	431.25
943.945	392.25
944.175	326.25
944.405	310.25
944.636	348.25
944.866	384.25
945.096	398.25
945.326	347.25
945.556	401.25
945.786	437.25
946.016	391.25
946.245	348.25
946.475	382.25
946.705	388.25
946.935	387.25
947.164	398.25
947.394	369.25
947.624	404.25
947.853	440.25
948.083	404.25
948.312	388.25
948.542	348.25
948.771	345.25
949	365.25
949.23	368.25
949.459	389.25
949.688	457.25
949.917	398.25
950.146	404.25
950.375	466.25
950.604	350.25
950.833	453.25
951.062	446.25
951.291	398.25
951.52	379.25
951.749	391.25
951.978	357.25
952.206	384.25
952.435	371.25
952.664	427.25
952.892	426.25
953.121	413.25
953.349	446.25
953.578	441.25
953.806	399.25
954.035	368.25
954.263	420.25
954.491	360.25
954.719	414.25
954.948	382.25
955.176	371.25
955.404	336.25
955.632	413.25
955.86	426.25
956.088	401.25
956.316	434.25
956.544	465.25
956.772	418.25
956.999	391.25
957.227	493.25
957.455	395.25
957.683	424.25
957.91	395.25
958.138	394.25
958.365	411.25
958.593	421.25
958.82	360.25
959.048	436.25
959.275	421.25
959.502	409.25
959.73	379.25
959.957	429.25
960.184	449.25
960.411	381.25
960.638	487.25
960.865	415.25
961.092	452.25
961.319	362.25
961.546	456.25
961.773	457.25
962	406.25
962.227	477.25
962.454	431.25
962.68	419.25
962.907	443.25
963.134	401.25
963.36	447.25
963.587	477.25
963.813	423.25
964.04	479.25
964.266	427.25
964.493	512.25
964.719	471.25
964.945	493.25
965.171	409.25
965.398	472.25
965.624	481.25
965.85	424.25
966.076	439.25
966.302	485.25
966.528	450.25
966.754	481.25
966.98	482.25
967.206	471.25
967.431	414.25
967.657	520.25
967.883	500.25
968.109	473.25
968.334	432.25
968.56	418.25
968.785	453.25
969.011	414.25
969.236	484.25
969.462	431.25
969.687	444.25
969.912	495.25
970.138	518.25
970.363	435.25
970.588	475.25
970.813	448.25
971.038	428.25
971.263	482.25
971.488	473.25
971.713	517.25
971.938	510.25
972.163	416.25
972.388	461.25
972.613	438.25
972.838	457.25
973.062	455.25
973.287	450.25
973.512	398.25
973.736	466.25
973.961	456.25
974.185	445.25
974.41	481.25
974.634	401.25
974.858	415.25
975.083	467.25
975.307	497.25
975.531	426.25
975.755	404.25
975.98	432.25
976.204	380.25
976.428	389.25
976.652	406.25
976.876	392.25
977.1	434.25
977.324	407.25
977.547	456.25
977.771	471.25
977.995	445.25
978.219	392.25
978.442	502.25
978.666	447.25
978.89	444.25
979.113	450.25
979.337	442.25
979.56	416.25
979.783	498.25
980.007	401.25
980.23	440.25
980.453	430.25
980.677	454.25
980.9	452.25
981.123	388.25
981.346	475.25
981.569	447.25
981.792	489.25
982.015	465.25
982.238	428.25
982.461	459.25
982.684	439.25
982.907	434.25
983.129	412.25
983.352	487.25
983.575	461.25
983.797	480.25
984.02	435.25
984.242	444.25
984.465	454.25
984.687	492.25
984.91	504.25
985.132	478.25
985.354	521.25
985.577	478.25
985.799	482.25
986.021	419.25
986.243	447.25
986.465	471.25
986.687	514.25
986.909	557.25
987.131	496.25
987.353	468.25
987.575	509.25
987.797	464.25
988.019	420.25
988.241	476.25
988.462	441.25
988.684	503.25
988.906	528.25
989.127	560.25
989.349	450.25
989.57	484.25
989.792	532.25
990.013	537.25
990.234	549.25
990.456	584.25
990.677	561.25
990.898	505.25
991.119	496.25
991.341	545.25
991.562	500.25
991.783	539.25
992.004	474.25
992.225	463.25
992.446	530.25
992.667	448.25
992.887	541.25
993.108	444.25
993.329	574.25
993.55	540.25
993.77	482.25
993.991	502.25
994.212	532.25
994.432	516.25
994.653	550.25
994.873	551.25
995.093	441.25
995.314	484.25
995.534	577.25
995.754	562.25
995.975	620.25
996.195	507.25
996.415	563.25
996.635	538.25
996.855	547.25
997.075	513.25
997.295	520.25
997.515	509.25
997.735	573.25
997.955	537.25
998.174	529.25
998.394	508.25
998.614	562.25
998.834	517.25
999.053	590.25
999.273	561.25
999.492	622.25
999.712	565.25
999.931	539.25
1000.151	592.25
1000.37	574.25
1000.589	632.25
1000.809	586.25
1001.028	695.25
1001.247	640.25
1001.466	530.25
1001.685	678.25
1001.904	632.25
1002.123	610.25
1002.342	641.25
1002.561	598.25
1002.78	626.25
1002.999	681.25
1003.218	639.25
1003.436	620.25
1003.655	696.25
1003.874	616.25
1004.092	665.25
1004.311	691.25
1004.53	650.25
1004.748	738.25
1004.966	642.25
1005.185	720.25
1005.403	702.25
1005.622	667.25
1005.84	766.25
1006.058	657.25
1006.276	695.25
1006.494	1178.25
1006.712	676.25
1006.931	737.25
1007.149	637.25
1007.367	651.25
1007.584	660.25
1007.802	720.25
1008.02	649.25
1008.238	734.25
1008.456	712.25
1008.673	587.25
1008.891	681.25
1009.109	624.25
1009.326	649.25
1009.544	723.25
1009.761	599.25
1009.979	647.25
1010.196	625.25
1010.413	669.25
1010.631	681.25
1010.848	691.25
1011.065	654.25
1011.282	603.25
1011.5	548.25
1011.717	666.25
1011.934	631.25
1012.151	651.25
1012.368	657.25
1012.585	599.25
1012.801	645.25
1013.018	604.25
1013.235	575.25
1013.452	595.25
1013.669	594.25
1013.885	565.25
1014.102	596.25
1014.318	558.25
1014.535	528.25
1014.751	573.25
1014.968	566.25
1015.184	618.25
1015.401	533.25
1015.617	591.25
1015.833	527.25
1016.049	559.25
1016.266	541.25
1016.482	562.25
1016.698	481.25
1016.914	568.25
1017.13	511.25
1017.346	507.25
1017.562	585.25
1017.778	534.25
1017.993	495.25
1018.209	549.25
1018.425	537.25
1018.641	491.25
1018.856	483.25
1019.072	499.25
1019.288	563.25
1019.503	514.25
1019.719	435.25
1019.934	459.25
1020.149	545.25
1020.365	492.25
1020.58	464.25
1020.795	539.25
1021.011	492.25
1021.226	503.25
1021.441	563.25
1021.656	498.25
1021.871	443.25
1022.086	465.25
1022.301	468.25
1022.516	477.25
1022.731	529.25
1022.946	477.25
1023.16	471.25
1023.375	450.25
1023.59	448.25
1023.804	417.25
1024.019	550.25
1024.234	425.25
1024.448	472.25
1024.663	409.25
1024.877	460.25
1025.092	468.25
1025.306	494.25
1025.52	412.25
1025.734	507.25
1025.949	433.25
1026.163	439.25
1026.377	393.25
1026.591	451.25
1026.805	391.25
1027.019	383.25
1027.233	362.25
1027.447	324.25
1027.661	422.25
1027.875	387.25
1028.088	401.25
1028.302	327.25
1028.516	330.25
1028.73	351.25
1028.943	368.25
1029.157	331.25
1029.37	305.25
1029.584	1.25
1029.797	-0.75
1030.011	0.25
1030.224	-3.75
