Data from QEP037381__25__10-16-21-060.txt Node

Date: Fri Apr 21 10:16:21 EDT 2023
User: dcclab
Spectrometer: QEP03738
Trigger mode: 4
Integration Time (sec): 1.000000E1
Scans to average: 1
Electric dark correction enabled: true
Nonlinearity correction enabled: false
Boxcar width: 0
XAxis mode: Wavelengths
Number of Pixels in Spectrum: 1044
>>>>>Begin Spectral Data<<<<<
784.041	12.75
784.3	0.75
784.558	0.75
784.817	-5.25
785.075	242.75
785.334	214.75
785.592	208.75
785.851	210.75
786.109	232.75
786.368	243.75
786.626	256.75
786.884	272.75
787.143	263.75
787.401	206.75
787.659	285.75
787.917	254.75
788.175	292.75
788.433	270.75
788.691	273.75
788.949	280.75
789.207	300.75
789.465	245.75
789.723	267.75
789.98	261.75
790.238	307.75
790.496	298.75
790.753	285.75
791.011	345.75
791.268	309.75
791.526	319.75
791.783	328.75
792.041	328.75
792.298	249.75
792.556	333.75
792.813	302.75
793.07	293.75
793.327	298.75
793.584	380.75
793.841	289.75
794.099	321.75
794.356	385.75
794.613	288.75
794.869	326.75
795.126	295.75
795.383	288.75
795.64	304.75
795.897	267.75
796.153	329.75
796.41	301.75
796.667	292.75
796.923	298.75
797.18	291.75
797.436	327.75
797.693	271.75
797.949	337.75
798.206	360.75
798.462	260.75
798.718	335.75
798.974	305.75
799.231	338.75
799.487	320.75
799.743	326.75
799.999	338.75
800.255	326.75
800.511	297.75
800.767	341.75
801.023	318.75
801.279	317.75
801.534	318.75
801.79	333.75
802.046	310.75
802.302	356.75
802.557	328.75
802.813	350.75
803.068	291.75
803.324	343.75
803.579	310.75
803.835	295.75
804.09	351.75
804.345	297.75
804.601	280.75
804.856	303.75
805.111	325.75
805.366	320.75
805.621	312.75
805.876	343.75
806.131	332.75
806.386	312.75
806.641	274.75
806.896	308.75
807.151	369.75
807.406	323.75
807.661	328.75
807.915	325.75
808.17	339.75
808.425	337.75
808.679	283.75
808.934	382.75
809.188	304.75
809.443	343.75
809.697	366.75
809.951	308.75
810.206	296.75
810.46	363.75
810.714	334.75
810.968	359.75
811.223	270.75
811.477	312.75
811.731	340.75
811.985	271.75
812.239	243.75
812.493	288.75
812.747	310.75
813	271.75
813.254	325.75
813.508	337.75
813.762	295.75
814.015	303.75
814.269	317.75
814.522	339.75
814.776	350.75
815.03	332.75
815.283	332.75
815.536	347.75
815.79	339.75
816.043	328.75
816.296	320.75
816.55	319.75
816.803	318.75
817.056	403.75
817.309	334.75
817.562	326.75
817.815	378.75
818.068	285.75
818.321	302.75
818.574	295.75
818.827	346.75
819.079	296.75
819.332	414.75
819.585	346.75
819.838	395.75
820.09	302.75
820.343	368.75
820.595	301.75
820.848	335.75
821.1	353.75
821.353	326.75
821.605	311.75
821.857	381.75
822.11	291.75
822.362	303.75
822.614	298.75
822.866	316.75
823.118	262.75
823.37	384.75
823.622	313.75
823.874	303.75
824.126	353.75
824.378	287.75
824.63	317.75
824.882	333.75
825.134	308.75
825.385	356.75
825.637	338.75
825.888	307.75
826.14	320.75
826.392	294.75
826.643	286.75
826.895	382.75
827.146	310.75
827.397	308.75
827.649	391.75
827.9	305.75
828.151	291.75
828.402	284.75
828.653	327.75
828.905	320.75
829.156	366.75
829.407	290.75
829.658	318.75
829.909	369.75
830.159	346.75
830.41	337.75
830.661	363.75
830.912	329.75
831.162	305.75
831.413	303.75
831.664	347.75
831.914	318.75
832.165	321.75
832.415	330.75
832.666	337.75
832.916	343.75
833.167	310.75
833.417	388.75
833.667	352.75
833.917	332.75
834.168	387.75
834.418	353.75
834.668	324.75
834.918	283.75
835.168	314.75
835.418	265.75
835.668	333.75
835.918	350.75
836.167	348.75
836.417	286.75
836.667	366.75
836.917	389.75
837.166	336.75
837.416	360.75
837.666	358.75
837.915	326.75
838.165	346.75
838.414	294.75
838.663	262.75
838.913	334.75
839.162	294.75
839.411	387.75
839.661	327.75
839.91	320.75
840.159	300.75
840.408	348.75
840.657	322.75
840.906	324.75
841.155	368.75
841.404	323.75
841.653	344.75
841.902	299.75
842.15	334.75
842.399	348.75
842.648	317.75
842.897	341.75
843.145	289.75
843.394	287.75
843.642	303.75
843.891	364.75
844.139	347.75
844.388	297.75
844.636	266.75
844.884	319.75
845.133	302.75
845.381	314.75
845.629	360.75
845.877	287.75
846.125	310.75
846.373	328.75
846.621	308.75
846.869	347.75
847.117	336.75
847.365	313.75
847.613	343.75
847.861	367.75
848.108	382.75
848.356	340.75
848.604	307.75
848.851	341.75
849.099	339.75
849.346	315.75
849.594	346.75
849.841	355.75
850.089	315.75
850.336	298.75
850.583	317.75
850.831	337.75
851.078	346.75
851.325	299.75
851.572	365.75
851.819	352.75
852.066	320.75
852.313	323.75
852.56	286.75
852.807	288.75
853.054	294.75
853.301	325.75
853.548	311.75
853.794	400.75
854.041	330.75
854.288	276.75
854.534	395.75
854.781	326.75
855.028	318.75
855.274	397.75
855.52	333.75
855.767	303.75
856.013	360.75
856.26	639.75
856.506	314.75
856.752	371.75
856.998	334.75
857.244	313.75
857.49	349.75
857.736	347.75
857.982	338.75
858.228	351.75
858.474	285.75
858.72	346.75
858.966	346.75
859.212	341.75
859.458	336.75
859.703	339.75
859.949	308.75
860.195	359.75
860.44	360.75
860.686	317.75
860.931	389.75
861.177	320.75
861.422	383.75
861.667	331.75
861.913	331.75
862.158	327.75
862.403	373.75
862.648	370.75
862.893	398.75
863.138	336.75
863.384	306.75
863.629	371.75
863.873	362.75
864.118	340.75
864.363	276.75
864.608	354.75
864.853	369.75
865.098	337.75
865.342	351.75
865.587	336.75
865.832	385.75
866.076	355.75
866.321	326.75
866.565	329.75
866.81	276.75
867.054	334.75
867.298	357.75
867.543	315.75
867.787	357.75
868.031	328.75
868.275	343.75
868.519	328.75
868.764	335.75
869.008	316.75
869.252	377.75
869.496	328.75
869.739	347.75
869.983	376.75
870.227	370.75
870.471	305.75
870.715	348.75
870.958	333.75
871.202	316.75
871.446	315.75
871.689	307.75
871.933	333.75
872.176	331.75
872.42	336.75
872.663	325.75
872.906	383.75
873.15	312.75
873.393	288.75
873.636	375.75
873.879	372.75
874.122	408.75
874.366	339.75
874.609	369.75
874.852	328.75
875.095	362.75
875.337	334.75
875.58	266.75
875.823	340.75
876.066	376.75
876.309	402.75
876.551	311.75
876.794	286.75
877.037	365.75
877.279	300.75
877.522	316.75
877.764	364.75
878.007	322.75
878.249	340.75
878.491	311.75
878.734	359.75
878.976	346.75
879.218	302.75
879.46	386.75
879.702	374.75
879.945	368.75
880.187	329.75
880.429	371.75
880.671	378.75
880.912	389.75
881.154	368.75
881.396	273.75
881.638	354.75
881.88	349.75
882.121	318.75
882.363	329.75
882.605	383.75
882.846	365.75
883.088	373.75
883.329	310.75
883.571	297.75
883.812	321.75
884.053	324.75
884.295	333.75
884.536	419.75
884.777	322.75
885.018	345.75
885.259	365.75
885.5	302.75
885.742	515.75
885.982	367.75
886.223	314.75
886.464	343.75
886.705	297.75
886.946	354.75
887.187	289.75
887.428	387.75
887.668	314.75
887.909	304.75
888.15	302.75
888.39	364.75
888.631	416.75
888.871	373.75
889.111	359.75
889.352	357.75
889.592	330.75
889.833	345.75
890.073	356.75
890.313	419.75
890.553	307.75
890.793	347.75
891.033	317.75
891.273	313.75
891.513	342.75
891.753	412.75
891.993	362.75
892.233	368.75
892.473	420.75
892.713	359.75
892.952	314.75
893.192	348.75
893.432	321.75
893.671	379.75
893.911	340.75
894.15	350.75
894.39	298.75
894.629	343.75
894.869	361.75
895.108	350.75
895.347	318.75
895.587	368.75
895.826	330.75
896.065	315.75
896.304	360.75
896.543	380.75
896.782	293.75
897.021	350.75
897.26	348.75
897.499	406.75
897.738	403.75
897.977	356.75
898.216	357.75
898.454	344.75
898.693	333.75
898.932	372.75
899.17	353.75
899.409	360.75
899.647	346.75
899.886	345.75
900.124	372.75
900.363	313.75
900.601	368.75
900.839	355.75
901.078	358.75
901.316	351.75
901.554	345.75
901.792	353.75
902.03	317.75
902.268	341.75
902.506	379.75
902.744	346.75
902.982	390.75
903.22	326.75
903.458	334.75
903.695	366.75
903.933	383.75
904.171	337.75
904.409	332.75
904.646	390.75
904.884	345.75
905.121	410.75
905.359	395.75
905.596	386.75
905.833	334.75
906.071	345.75
906.308	399.75
906.545	376.75
906.783	311.75
907.02	359.75
907.257	311.75
907.494	341.75
907.731	368.75
907.968	381.75
908.205	328.75
908.442	333.75
908.679	359.75
908.915	357.75
909.152	365.75
909.389	314.75
909.626	364.75
909.862	317.75
910.099	355.75
910.335	406.75
910.572	303.75
910.808	373.75
911.045	347.75
911.281	329.75
911.518	414.75
911.754	352.75
911.99	370.75
912.226	342.75
912.463	324.75
912.699	343.75
912.935	342.75
913.171	346.75
913.407	321.75
913.643	392.75
913.879	357.75
914.114	367.75
914.35	354.75
914.586	359.75
914.822	327.75
915.057	431.75
915.293	294.75
915.529	322.75
915.764	395.75
916	384.75
916.235	385.75
916.471	405.75
916.706	296.75
916.941	351.75
917.177	354.75
917.412	371.75
917.647	389.75
917.882	335.75
918.117	401.75
918.352	373.75
918.588	423.75
918.823	351.75
919.057	371.75
919.292	297.75
919.527	412.75
919.762	353.75
919.997	439.75
920.232	367.75
920.466	417.75
920.701	319.75
920.935	385.75
921.17	359.75
921.405	330.75
921.639	400.75
921.873	369.75
922.108	399.75
922.342	394.75
922.576	338.75
922.811	358.75
923.045	395.75
923.279	432.75
923.513	313.75
923.747	403.75
923.981	394.75
924.215	353.75
924.449	369.75
924.683	331.75
924.917	364.75
925.151	369.75
925.385	439.75
925.618	401.75
925.852	402.75
926.086	327.75
926.319	374.75
926.553	361.75
926.786	386.75
927.02	383.75
927.253	410.75
927.486	411.75
927.72	339.75
927.953	404.75
928.186	361.75
928.42	410.75
928.653	354.75
928.886	342.75
929.119	395.75
929.352	384.75
929.585	402.75
929.818	360.75
930.051	405.75
930.284	410.75
930.516	338.75
930.749	373.75
930.982	427.75
931.215	417.75
931.447	344.75
931.68	376.75
931.912	360.75
932.145	370.75
932.377	378.75
932.61	509.75
932.842	301.75
933.074	391.75
933.307	339.75
933.539	435.75
933.771	428.75
934.003	363.75
934.236	441.75
934.468	450.75
934.7	373.75
934.932	426.75
935.164	364.75
935.395	351.75
935.627	395.75
935.859	399.75
936.091	340.75
936.323	408.75
936.554	447.75
936.786	387.75
937.017	362.75
937.249	398.75
937.481	338.75
937.712	407.75
937.943	390.75
938.175	359.75
938.406	366.75
938.637	444.75
938.869	355.75
939.1	401.75
939.331	370.75
939.562	400.75
939.793	395.75
940.024	435.75
940.255	436.75
940.486	388.75
940.717	392.75
940.948	404.75
941.179	352.75
941.409	394.75
941.64	363.75
941.871	395.75
942.102	368.75
942.332	380.75
942.563	429.75
942.793	416.75
943.024	338.75
943.254	383.75
943.484	426.75
943.715	432.75
943.945	404.75
944.175	336.75
944.405	323.75
944.636	339.75
944.866	385.75
945.096	395.75
945.326	337.75
945.556	397.75
945.786	413.75
946.016	367.75
946.245	354.75
946.475	366.75
946.705	376.75
946.935	387.75
947.164	408.75
947.394	374.75
947.624	403.75
947.853	443.75
948.083	412.75
948.312	382.75
948.542	349.75
948.771	323.75
949	349.75
949.23	368.75
949.459	384.75
949.688	443.75
949.917	384.75
950.146	398.75
950.375	451.75
950.604	350.75
950.833	444.75
951.062	441.75
951.291	402.75
951.52	364.75
951.749	390.75
951.978	363.75
952.206	362.75
952.435	366.75
952.664	432.75
952.892	429.75
953.121	398.75
953.349	451.75
953.578	442.75
953.806	422.75
954.035	372.75
954.263	421.75
954.491	372.75
954.719	425.75
954.948	388.75
955.176	376.75
955.404	324.75
955.632	397.75
955.86	438.75
956.088	416.75
956.316	449.75
956.544	459.75
956.772	404.75
956.999	396.75
957.227	490.75
957.455	395.75
957.683	422.75
957.91	389.75
958.138	390.75
958.365	398.75
958.593	404.75
958.82	349.75
959.048	459.75
959.275	424.75
959.502	412.75
959.73	382.75
959.957	426.75
960.184	453.75
960.411	397.75
960.638	484.75
960.865	435.75
961.092	450.75
961.319	354.75
961.546	468.75
961.773	475.75
962	425.75
962.227	474.75
962.454	424.75
962.68	421.75
962.907	442.75
963.134	405.75
963.36	439.75
963.587	467.75
963.813	411.75
964.04	483.75
964.266	408.75
964.493	512.75
964.719	473.75
964.945	491.75
965.171	404.75
965.398	463.75
965.624	489.75
965.85	426.75
966.076	429.75
966.302	480.75
966.528	462.75
966.754	479.75
966.98	480.75
967.206	479.75
967.431	411.75
967.657	523.75
967.883	481.75
968.109	473.75
968.334	438.75
968.56	435.75
968.785	458.75
969.011	424.75
969.236	489.75
969.462	436.75
969.687	457.75
969.912	489.75
970.138	511.75
970.363	433.75
970.588	470.75
970.813	467.75
971.038	439.75
971.263	479.75
971.488	486.75
971.713	519.75
971.938	502.75
972.163	419.75
972.388	445.75
972.613	450.75
972.838	453.75
973.062	447.75
973.287	441.75
973.512	413.75
973.736	455.75
973.961	460.75
974.185	424.75
974.41	478.75
974.634	396.75
974.858	433.75
975.083	480.75
975.307	490.75
975.531	443.75
975.755	396.75
975.98	424.75
976.204	390.75
976.428	391.75
976.652	418.75
976.876	396.75
977.1	439.75
977.324	411.75
977.547	465.75
977.771	459.75
977.995	435.75
978.219	394.75
978.442	507.75
978.666	444.75
978.89	435.75
979.113	456.75
979.337	434.75
979.56	421.75
979.783	514.75
980.007	400.75
980.23	453.75
980.453	413.75
980.677	449.75
980.9	459.75
981.123	371.75
981.346	475.75
981.569	471.75
981.792	495.75
982.015	455.75
982.238	435.75
982.461	460.75
982.684	446.75
982.907	426.75
983.129	417.75
983.352	473.75
983.575	460.75
983.797	474.75
984.02	435.75
984.242	440.75
984.465	462.75
984.687	478.75
984.91	512.75
985.132	502.75
985.354	503.75
985.577	487.75
985.799	473.75
986.021	417.75
986.243	456.75
986.465	471.75
986.687	523.75
986.909	559.75
987.131	513.75
987.353	466.75
987.575	510.75
987.797	470.75
988.019	416.75
988.241	483.75
988.462	444.75
988.684	515.75
988.906	550.75
989.127	557.75
989.349	434.75
989.57	498.75
989.792	530.75
990.013	537.75
990.234	560.75
990.456	587.75
990.677	566.75
990.898	502.75
991.119	510.75
991.341	560.75
991.562	485.75
991.783	527.75
992.004	477.75
992.225	459.75
992.446	521.75
992.667	435.75
992.887	550.75
993.108	432.75
993.329	584.75
993.55	520.75
993.77	467.75
993.991	486.75
994.212	529.75
994.432	533.75
994.653	543.75
994.873	533.75
995.093	425.75
995.314	476.75
995.534	545.75
995.754	575.75
995.975	599.75
996.195	503.75
996.415	556.75
996.635	534.75
996.855	558.75
997.075	523.75
997.295	524.75
997.515	497.75
997.735	554.75
997.955	526.75
998.174	531.75
998.394	505.75
998.614	548.75
998.834	496.75
999.053	599.75
999.273	557.75
999.492	628.75
999.712	547.75
999.931	547.75
1000.151	582.75
1000.37	570.75
1000.589	618.75
1000.809	565.75
1001.028	666.75
1001.247	629.75
1001.466	543.75
1001.685	673.75
1001.904	630.75
1002.123	614.75
1002.342	640.75
1002.561	594.75
1002.78	629.75
1002.999	686.75
1003.218	634.75
1003.436	608.75
1003.655	682.75
1003.874	615.75
1004.092	649.75
1004.311	692.75
1004.53	660.75
1004.748	731.75
1004.966	664.75
1005.185	702.75
1005.403	699.75
1005.622	696.75
1005.84	750.75
1006.058	659.75
1006.276	686.75
1006.494	1172.75
1006.712	681.75
1006.931	743.75
1007.149	633.75
1007.367	657.75
1007.584	684.75
1007.802	718.75
1008.02	639.75
1008.238	747.75
1008.456	713.75
1008.673	575.75
1008.891	696.75
1009.109	626.75
1009.326	648.75
1009.544	730.75
1009.761	591.75
1009.979	664.75
1010.196	636.75
1010.413	662.75
1010.631	672.75
1010.848	670.75
1011.065	664.75
1011.282	614.75
1011.5	556.75
1011.717	694.75
1011.934	617.75
1012.151	665.75
1012.368	641.75
1012.585	580.75
1012.801	639.75
1013.018	632.75
1013.235	585.75
1013.452	598.75
1013.669	598.75
1013.885	587.75
1014.102	597.75
1014.318	569.75
1014.535	529.75
1014.751	560.75
1014.968	568.75
1015.184	603.75
1015.401	523.75
1015.617	578.75
1015.833	537.75
1016.049	547.75
1016.266	527.75
1016.482	577.75
1016.698	494.75
1016.914	559.75
1017.13	500.75
1017.346	514.75
1017.562	582.75
1017.778	512.75
1017.993	502.75
1018.209	557.75
1018.425	533.75
1018.641	504.75
1018.856	470.75
1019.072	506.75
1019.288	550.75
1019.503	504.75
1019.719	424.75
1019.934	459.75
1020.149	535.75
1020.365	498.75
1020.58	469.75
1020.795	528.75
1021.011	484.75
1021.226	500.75
1021.441	547.75
1021.656	487.75
1021.871	454.75
1022.086	476.75
1022.301	464.75
1022.516	458.75
1022.731	527.75
1022.946	470.75
1023.16	463.75
1023.375	458.75
1023.59	445.75
1023.804	439.75
1024.019	530.75
1024.234	426.75
1024.448	474.75
1024.663	401.75
1024.877	437.75
1025.092	486.75
1025.306	502.75
1025.52	397.75
1025.734	517.75
1025.949	436.75
1026.163	431.75
1026.377	381.75
1026.591	441.75
1026.805	395.75
1027.019	397.75
1027.233	354.75
1027.447	329.75
1027.661	438.75
1027.875	382.75
1028.088	388.75
1028.302	329.75
1028.516	335.75
1028.73	352.75
1028.943	359.75
1029.157	321.75
1029.37	309.75
1029.584	-2.25
1029.797	-0.25
1030.011	-5.25
1030.224	-1.25
