Data from QEP037381__6__10-13-11-055.txt Node

Date: Fri Apr 21 10:13:11 EDT 2023
User: dcclab
Spectrometer: QEP03738
Trigger mode: 4
Integration Time (sec): 1.000000E1
Scans to average: 1
Electric dark correction enabled: true
Nonlinearity correction enabled: false
Boxcar width: 0
XAxis mode: Wavelengths
Number of Pixels in Spectrum: 1044
>>>>>Begin Spectral Data<<<<<
784.041	10.62
784.3	1.62
784.558	-2.38
784.817	-1.38
785.075	240.62
785.334	230.62
785.592	209.62
785.851	207.62
786.109	234.62
786.368	245.62
786.626	264.62
786.884	272.62
787.143	267.62
787.401	204.62
787.659	279.62
787.917	255.62
788.175	302.62
788.433	263.62
788.691	281.62
788.949	281.62
789.207	301.62
789.465	244.62
789.723	264.62
789.98	253.62
790.238	326.62
790.496	283.62
790.753	286.62
791.011	352.62
791.268	301.62
791.526	306.62
791.783	334.62
792.041	325.62
792.298	252.62
792.556	321.62
792.813	318.62
793.07	295.62
793.327	298.62
793.584	375.62
793.841	309.62
794.099	320.62
794.356	375.62
794.613	288.62
794.869	339.62
795.126	296.62
795.383	288.62
795.64	303.62
795.897	264.62
796.153	316.62
796.41	310.62
796.667	285.62
796.923	297.62
797.18	303.62
797.436	327.62
797.693	288.62
797.949	350.62
798.206	359.62
798.462	269.62
798.718	326.62
798.974	307.62
799.231	343.62
799.487	329.62
799.743	320.62
799.999	346.62
800.255	332.62
800.511	301.62
800.767	335.62
801.023	306.62
801.279	321.62
801.534	340.62
801.79	337.62
802.046	297.62
802.302	354.62
802.557	337.62
802.813	343.62
803.068	291.62
803.324	336.62
803.579	306.62
803.835	302.62
804.09	352.62
804.345	289.62
804.601	269.62
804.856	309.62
805.111	334.62
805.366	313.62
805.621	320.62
805.876	333.62
806.131	332.62
806.386	308.62
806.641	288.62
806.896	314.62
807.151	385.62
807.406	320.62
807.661	335.62
807.915	333.62
808.17	354.62
808.425	340.62
808.679	288.62
808.934	380.62
809.188	317.62
809.443	343.62
809.697	371.62
809.951	307.62
810.206	308.62
810.46	358.62
810.714	344.62
810.968	368.62
811.223	287.62
811.477	333.62
811.731	349.62
811.985	281.62
812.239	261.62
812.493	294.62
812.747	316.62
813	277.62
813.254	334.62
813.508	350.62
813.762	309.62
814.015	310.62
814.269	317.62
814.522	351.62
814.776	355.62
815.03	327.62
815.283	340.62
815.536	349.62
815.79	350.62
816.043	347.62
816.296	332.62
816.55	325.62
816.803	324.62
817.056	409.62
817.309	336.62
817.562	349.62
817.815	372.62
818.068	305.62
818.321	305.62
818.574	287.62
818.827	341.62
819.079	299.62
819.332	426.62
819.585	347.62
819.838	400.62
820.09	312.62
820.343	369.62
820.595	289.62
820.848	355.62
821.1	353.62
821.353	339.62
821.605	328.62
821.857	396.62
822.11	286.62
822.362	305.62
822.614	289.62
822.866	319.62
823.118	269.62
823.37	381.62
823.622	313.62
823.874	314.62
824.126	371.62
824.378	296.62
824.63	310.62
824.882	336.62
825.134	311.62
825.385	372.62
825.637	334.62
825.888	313.62
826.14	330.62
826.392	301.62
826.643	288.62
826.895	377.62
827.146	311.62
827.397	324.62
827.649	386.62
827.9	299.62
828.151	280.62
828.402	287.62
828.653	328.62
828.905	334.62
829.156	391.62
829.407	280.62
829.658	331.62
829.909	370.62
830.159	350.62
830.41	348.62
830.661	358.62
830.912	344.62
831.162	323.62
831.413	317.62
831.664	348.62
831.914	331.62
832.165	326.62
832.415	327.62
832.666	339.62
832.916	357.62
833.167	295.62
833.417	388.62
833.667	354.62
833.917	341.62
834.168	382.62
834.418	362.62
834.668	318.62
834.918	288.62
835.168	316.62
835.418	265.62
835.668	331.62
835.918	363.62
836.167	355.62
836.417	302.62
836.667	368.62
836.917	366.62
837.166	335.62
837.416	364.62
837.666	374.62
837.915	336.62
838.165	346.62
838.414	305.62
838.663	279.62
838.913	341.62
839.162	301.62
839.411	392.62
839.661	315.62
839.91	337.62
840.159	316.62
840.408	349.62
840.657	330.62
840.906	336.62
841.155	368.62
841.404	326.62
841.653	357.62
841.902	309.62
842.15	342.62
842.399	350.62
842.648	323.62
842.897	351.62
843.145	288.62
843.394	299.62
843.642	323.62
843.891	367.62
844.139	343.62
844.388	296.62
844.636	269.62
844.884	323.62
845.133	309.62
845.381	312.62
845.629	356.62
845.877	291.62
846.125	313.62
846.373	343.62
846.621	303.62
846.869	362.62
847.117	342.62
847.365	333.62
847.613	349.62
847.861	338.62
848.108	388.62
848.356	356.62
848.604	302.62
848.851	341.62
849.099	340.62
849.346	323.62
849.594	348.62
849.841	358.62
850.089	314.62
850.336	296.62
850.583	313.62
850.831	335.62
851.078	343.62
851.325	310.62
851.572	362.62
851.819	361.62
852.066	330.62
852.313	333.62
852.56	297.62
852.807	292.62
853.054	306.62
853.301	325.62
853.548	324.62
853.794	406.62
854.041	337.62
854.288	291.62
854.534	387.62
854.781	313.62
855.028	314.62
855.274	388.62
855.52	331.62
855.767	306.62
856.013	358.62
856.26	637.62
856.506	316.62
856.752	361.62
856.998	331.62
857.244	320.62
857.49	338.62
857.736	352.62
857.982	353.62
858.228	365.62
858.474	291.62
858.72	327.62
858.966	355.62
859.212	342.62
859.458	334.62
859.703	350.62
859.949	319.62
860.195	366.62
860.44	362.62
860.686	320.62
860.931	397.62
861.177	324.62
861.422	386.62
861.667	334.62
861.913	334.62
862.158	341.62
862.403	374.62
862.648	353.62
862.893	396.62
863.138	347.62
863.384	323.62
863.629	375.62
863.873	346.62
864.118	334.62
864.363	274.62
864.608	348.62
864.853	377.62
865.098	331.62
865.342	363.62
865.587	325.62
865.832	380.62
866.076	375.62
866.321	345.62
866.565	338.62
866.81	274.62
867.054	333.62
867.298	351.62
867.543	303.62
867.787	356.62
868.031	347.62
868.275	351.62
868.519	333.62
868.764	348.62
869.008	332.62
869.252	366.62
869.496	344.62
869.739	355.62
869.983	386.62
870.227	365.62
870.471	325.62
870.715	361.62
870.958	362.62
871.202	323.62
871.446	333.62
871.689	309.62
871.933	333.62
872.176	357.62
872.42	333.62
872.663	330.62
872.906	388.62
873.15	340.62
873.393	296.62
873.636	381.62
873.879	381.62
874.122	400.62
874.366	338.62
874.609	381.62
874.852	346.62
875.095	353.62
875.337	322.62
875.58	281.62
875.823	352.62
876.066	375.62
876.309	411.62
876.551	322.62
876.794	301.62
877.037	375.62
877.279	305.62
877.522	317.62
877.764	361.62
878.007	312.62
878.249	353.62
878.491	315.62
878.734	377.62
878.976	349.62
879.218	310.62
879.46	403.62
879.702	385.62
879.945	375.62
880.187	341.62
880.429	370.62
880.671	383.62
880.912	401.62
881.154	374.62
881.396	282.62
881.638	368.62
881.88	355.62
882.121	321.62
882.363	343.62
882.605	402.62
882.846	359.62
883.088	380.62
883.329	339.62
883.571	307.62
883.812	327.62
884.053	316.62
884.295	344.62
884.536	410.62
884.777	338.62
885.018	353.62
885.259	361.62
885.5	312.62
885.742	516.62
885.982	362.62
886.223	317.62
886.464	327.62
886.705	299.62
886.946	344.62
887.187	286.62
887.428	386.62
887.668	326.62
887.909	303.62
888.15	305.62
888.39	360.62
888.631	415.62
888.871	386.62
889.111	372.62
889.352	371.62
889.592	342.62
889.833	352.62
890.073	366.62
890.313	426.62
890.553	319.62
890.793	347.62
891.033	329.62
891.273	323.62
891.513	360.62
891.753	420.62
891.993	351.62
892.233	376.62
892.473	432.62
892.713	359.62
892.952	334.62
893.192	356.62
893.432	339.62
893.671	381.62
893.911	352.62
894.15	344.62
894.39	298.62
894.629	331.62
894.869	365.62
895.108	351.62
895.347	322.62
895.587	364.62
895.826	347.62
896.065	318.62
896.304	375.62
896.543	391.62
896.782	292.62
897.021	361.62
897.26	349.62
897.499	404.62
897.738	428.62
897.977	356.62
898.216	353.62
898.454	347.62
898.693	337.62
898.932	375.62
899.17	355.62
899.409	354.62
899.647	353.62
899.886	334.62
900.124	376.62
900.363	320.62
900.601	371.62
900.839	369.62
901.078	364.62
901.316	357.62
901.554	356.62
901.792	371.62
902.03	313.62
902.268	351.62
902.506	384.62
902.744	344.62
902.982	400.62
903.22	314.62
903.458	335.62
903.695	377.62
903.933	393.62
904.171	325.62
904.409	348.62
904.646	391.62
904.884	356.62
905.121	419.62
905.359	387.62
905.596	391.62
905.833	346.62
906.071	336.62
906.308	395.62
906.545	374.62
906.783	322.62
907.02	355.62
907.257	311.62
907.494	354.62
907.731	354.62
907.968	385.62
908.205	344.62
908.442	336.62
908.679	366.62
908.915	362.62
909.152	368.62
909.389	305.62
909.626	350.62
909.862	335.62
910.099	366.62
910.335	405.62
910.572	323.62
910.808	367.62
911.045	356.62
911.281	335.62
911.518	415.62
911.754	340.62
911.99	378.62
912.226	348.62
912.463	337.62
912.699	347.62
912.935	340.62
913.171	358.62
913.407	332.62
913.643	392.62
913.879	375.62
914.114	359.62
914.35	347.62
914.586	358.62
914.822	340.62
915.057	430.62
915.293	317.62
915.529	335.62
915.764	409.62
916	391.62
916.235	377.62
916.471	390.62
916.706	313.62
916.941	343.62
917.177	346.62
917.412	388.62
917.647	391.62
917.882	334.62
918.117	405.62
918.352	394.62
918.588	428.62
918.823	353.62
919.057	368.62
919.292	304.62
919.527	412.62
919.762	362.62
919.997	439.62
920.232	381.62
920.466	423.62
920.701	319.62
920.935	389.62
921.17	379.62
921.405	329.62
921.639	398.62
921.873	371.62
922.108	389.62
922.342	410.62
922.576	338.62
922.811	361.62
923.045	395.62
923.279	433.62
923.513	313.62
923.747	409.62
923.981	390.62
924.215	374.62
924.449	371.62
924.683	339.62
924.917	374.62
925.151	371.62
925.385	433.62
925.618	392.62
925.852	419.62
926.086	319.62
926.319	378.62
926.553	378.62
926.786	417.62
927.02	362.62
927.253	419.62
927.486	410.62
927.72	338.62
927.953	412.62
928.186	366.62
928.42	403.62
928.653	355.62
928.886	351.62
929.119	405.62
929.352	383.62
929.585	401.62
929.818	361.62
930.051	396.62
930.284	393.62
930.516	334.62
930.749	350.62
930.982	412.62
931.215	401.62
931.447	337.62
931.68	381.62
931.912	366.62
932.145	362.62
932.377	383.62
932.61	502.62
932.842	317.62
933.074	402.62
933.307	343.62
933.539	457.62
933.771	420.62
934.003	364.62
934.236	449.62
934.468	458.62
934.7	360.62
934.932	418.62
935.164	373.62
935.395	347.62
935.627	380.62
935.859	407.62
936.091	351.62
936.323	409.62
936.554	452.62
936.786	387.62
937.017	343.62
937.249	401.62
937.481	331.62
937.712	406.62
937.943	385.62
938.175	375.62
938.406	371.62
938.637	451.62
938.869	350.62
939.1	414.62
939.331	376.62
939.562	411.62
939.793	415.62
940.024	443.62
940.255	441.62
940.486	396.62
940.717	390.62
940.948	379.62
941.179	346.62
941.409	376.62
941.64	369.62
941.871	390.62
942.102	372.62
942.332	386.62
942.563	420.62
942.793	405.62
943.024	330.62
943.254	377.62
943.484	426.62
943.715	426.62
943.945	405.62
944.175	337.62
944.405	322.62
944.636	355.62
944.866	385.62
945.096	407.62
945.326	342.62
945.556	407.62
945.786	436.62
946.016	375.62
946.245	350.62
946.475	375.62
946.705	378.62
946.935	383.62
947.164	402.62
947.394	361.62
947.624	392.62
947.853	431.62
948.083	403.62
948.312	383.62
948.542	340.62
948.771	323.62
949	368.62
949.23	358.62
949.459	383.62
949.688	450.62
949.917	402.62
950.146	409.62
950.375	462.62
950.604	363.62
950.833	449.62
951.062	437.62
951.291	402.62
951.52	378.62
951.749	399.62
951.978	358.62
952.206	389.62
952.435	395.62
952.664	411.62
952.892	421.62
953.121	410.62
953.349	448.62
953.578	450.62
953.806	400.62
954.035	378.62
954.263	418.62
954.491	358.62
954.719	423.62
954.948	395.62
955.176	381.62
955.404	330.62
955.632	423.62
955.86	436.62
956.088	407.62
956.316	451.62
956.544	476.62
956.772	408.62
956.999	396.62
957.227	497.62
957.455	412.62
957.683	432.62
957.91	387.62
958.138	397.62
958.365	419.62
958.593	420.62
958.82	365.62
959.048	451.62
959.275	424.62
959.502	407.62
959.73	399.62
959.957	433.62
960.184	447.62
960.411	392.62
960.638	477.62
960.865	423.62
961.092	441.62
961.319	363.62
961.546	461.62
961.773	453.62
962	417.62
962.227	471.62
962.454	447.62
962.68	422.62
962.907	468.62
963.134	418.62
963.36	442.62
963.587	479.62
963.813	405.62
964.04	474.62
964.266	410.62
964.493	512.62
964.719	498.62
964.945	509.62
965.171	393.62
965.398	466.62
965.624	495.62
965.85	422.62
966.076	437.62
966.302	477.62
966.528	438.62
966.754	479.62
966.98	487.62
967.206	465.62
967.431	410.62
967.657	514.62
967.883	499.62
968.109	472.62
968.334	431.62
968.56	434.62
968.785	443.62
969.011	423.62
969.236	478.62
969.462	408.62
969.687	461.62
969.912	499.62
970.138	505.62
970.363	434.62
970.588	478.62
970.813	478.62
971.038	433.62
971.263	477.62
971.488	491.62
971.713	527.62
971.938	495.62
972.163	417.62
972.388	467.62
972.613	435.62
972.838	480.62
973.062	461.62
973.287	465.62
973.512	399.62
973.736	465.62
973.961	455.62
974.185	447.62
974.41	486.62
974.634	399.62
974.858	415.62
975.083	471.62
975.307	496.62
975.531	435.62
975.755	398.62
975.98	445.62
976.204	379.62
976.428	396.62
976.652	404.62
976.876	405.62
977.1	428.62
977.324	404.62
977.547	454.62
977.771	471.62
977.995	445.62
978.219	394.62
978.442	514.62
978.666	454.62
978.89	445.62
979.113	452.62
979.337	447.62
979.56	423.62
979.783	504.62
980.007	403.62
980.23	446.62
980.453	423.62
980.677	476.62
980.9	458.62
981.123	370.62
981.346	489.62
981.569	467.62
981.792	500.62
982.015	455.62
982.238	438.62
982.461	477.62
982.684	433.62
982.907	429.62
983.129	416.62
983.352	485.62
983.575	448.62
983.797	474.62
984.02	428.62
984.242	454.62
984.465	456.62
984.687	480.62
984.91	508.62
985.132	477.62
985.354	505.62
985.577	494.62
985.799	491.62
986.021	425.62
986.243	455.62
986.465	456.62
986.687	523.62
986.909	547.62
987.131	488.62
987.353	479.62
987.575	512.62
987.797	475.62
988.019	426.62
988.241	482.62
988.462	443.62
988.684	522.62
988.906	525.62
989.127	560.62
989.349	451.62
989.57	500.62
989.792	517.62
990.013	541.62
990.234	539.62
990.456	577.62
990.677	564.62
990.898	502.62
991.119	505.62
991.341	564.62
991.562	476.62
991.783	521.62
992.004	484.62
992.225	467.62
992.446	540.62
992.667	443.62
992.887	533.62
993.108	443.62
993.329	584.62
993.55	519.62
993.77	490.62
993.991	493.62
994.212	538.62
994.432	518.62
994.653	541.62
994.873	545.62
995.093	443.62
995.314	487.62
995.534	560.62
995.754	579.62
995.975	610.62
996.195	508.62
996.415	570.62
996.635	539.62
996.855	544.62
997.075	533.62
997.295	534.62
997.515	497.62
997.735	559.62
997.955	550.62
998.174	542.62
998.394	521.62
998.614	576.62
998.834	525.62
999.053	576.62
999.273	562.62
999.492	622.62
999.712	563.62
999.931	527.62
1000.151	585.62
1000.37	574.62
1000.589	638.62
1000.809	569.62
1001.028	684.62
1001.247	636.62
1001.466	542.62
1001.685	681.62
1001.904	624.62
1002.123	630.62
1002.342	640.62
1002.561	595.62
1002.78	624.62
1002.999	704.62
1003.218	642.62
1003.436	623.62
1003.655	680.62
1003.874	631.62
1004.092	642.62
1004.311	689.62
1004.53	652.62
1004.748	730.62
1004.966	654.62
1005.185	712.62
1005.403	690.62
1005.622	668.62
1005.84	740.62
1006.058	647.62
1006.276	681.62
1006.494	1197.62
1006.712	664.62
1006.931	734.62
1007.149	657.62
1007.367	646.62
1007.584	686.62
1007.802	724.62
1008.02	644.62
1008.238	751.62
1008.456	734.62
1008.673	590.62
1008.891	676.62
1009.109	628.62
1009.326	656.62
1009.544	721.62
1009.761	610.62
1009.979	656.62
1010.196	606.62
1010.413	671.62
1010.631	691.62
1010.848	678.62
1011.065	673.62
1011.282	614.62
1011.5	568.62
1011.717	686.62
1011.934	645.62
1012.151	669.62
1012.368	649.62
1012.585	601.62
1012.801	663.62
1013.018	622.62
1013.235	582.62
1013.452	596.62
1013.669	604.62
1013.885	586.62
1014.102	600.62
1014.318	570.62
1014.535	517.62
1014.751	584.62
1014.968	572.62
1015.184	598.62
1015.401	536.62
1015.617	569.62
1015.833	518.62
1016.049	548.62
1016.266	534.62
1016.482	558.62
1016.698	496.62
1016.914	555.62
1017.13	517.62
1017.346	533.62
1017.562	579.62
1017.778	519.62
1017.993	489.62
1018.209	581.62
1018.425	530.62
1018.641	494.62
1018.856	468.62
1019.072	522.62
1019.288	559.62
1019.503	502.62
1019.719	441.62
1019.934	444.62
1020.149	555.62
1020.365	492.62
1020.58	451.62
1020.795	542.62
1021.011	507.62
1021.226	495.62
1021.441	559.62
1021.656	503.62
1021.871	442.62
1022.086	483.62
1022.301	474.62
1022.516	464.62
1022.731	536.62
1022.946	472.62
1023.16	472.62
1023.375	450.62
1023.59	450.62
1023.804	428.62
1024.019	533.62
1024.234	421.62
1024.448	467.62
1024.663	419.62
1024.877	445.62
1025.092	472.62
1025.306	489.62
1025.52	407.62
1025.734	507.62
1025.949	442.62
1026.163	425.62
1026.377	389.62
1026.591	445.62
1026.805	378.62
1027.019	394.62
1027.233	364.62
1027.447	306.62
1027.661	422.62
1027.875	380.62
1028.088	392.62
1028.302	335.62
1028.516	338.62
1028.73	357.62
1028.943	360.62
1029.157	333.62
1029.37	316.62
1029.584	-2.38
1029.797	-0.38
1030.011	-5.38
1030.224	-0.38
