Data from QEP037381__57__10-21-41-068.txt Node

Date: Fri Apr 21 10:21:41 EDT 2023
User: dcclab
Spectrometer: QEP03738
Trigger mode: 4
Integration Time (sec): 1.000000E1
Scans to average: 1
Electric dark correction enabled: true
Nonlinearity correction enabled: false
Boxcar width: 0
XAxis mode: Wavelengths
Number of Pixels in Spectrum: 1044
>>>>>Begin Spectral Data<<<<<
784.041	11.75
784.3	4.75
784.558	-1.25
784.817	-6.25
785.075	211.75
785.334	211.75
785.592	209.75
785.851	189.75
786.109	229.75
786.368	244.75
786.626	258.75
786.884	277.75
787.143	258.75
787.401	210.75
787.659	271.75
787.917	254.75
788.175	308.75
788.433	265.75
788.691	266.75
788.949	289.75
789.207	301.75
789.465	256.75
789.723	274.75
789.98	248.75
790.238	308.75
790.496	297.75
790.753	296.75
791.011	365.75
791.268	304.75
791.526	308.75
791.783	331.75
792.041	319.75
792.298	242.75
792.556	329.75
792.813	301.75
793.07	288.75
793.327	285.75
793.584	388.75
793.841	302.75
794.099	314.75
794.356	369.75
794.613	285.75
794.869	330.75
795.126	286.75
795.383	296.75
795.64	318.75
795.897	272.75
796.153	319.75
796.41	311.75
796.667	285.75
796.923	302.75
797.18	305.75
797.436	319.75
797.693	288.75
797.949	342.75
798.206	366.75
798.462	273.75
798.718	329.75
798.974	305.75
799.231	333.75
799.487	319.75
799.743	320.75
799.999	344.75
800.255	327.75
800.511	313.75
800.767	330.75
801.023	318.75
801.279	322.75
801.534	336.75
801.79	341.75
802.046	312.75
802.302	362.75
802.557	327.75
802.813	350.75
803.068	286.75
803.324	342.75
803.579	306.75
803.835	293.75
804.09	369.75
804.345	284.75
804.601	264.75
804.856	296.75
805.111	322.75
805.366	314.75
805.621	319.75
805.876	328.75
806.131	327.75
806.386	311.75
806.641	272.75
806.896	298.75
807.151	374.75
807.406	319.75
807.661	335.75
807.915	310.75
808.17	350.75
808.425	336.75
808.679	279.75
808.934	370.75
809.188	307.75
809.443	345.75
809.697	366.75
809.951	306.75
810.206	295.75
810.46	339.75
810.714	332.75
810.968	353.75
811.223	281.75
811.477	318.75
811.731	328.75
811.985	266.75
812.239	238.75
812.493	289.75
812.747	309.75
813	251.75
813.254	317.75
813.508	338.75
813.762	317.75
814.015	292.75
814.269	314.75
814.522	333.75
814.776	341.75
815.03	333.75
815.283	342.75
815.536	345.75
815.79	333.75
816.043	323.75
816.296	329.75
816.55	330.75
816.803	319.75
817.056	405.75
817.309	329.75
817.562	335.75
817.815	364.75
818.068	287.75
818.321	297.75
818.574	283.75
818.827	335.75
819.079	299.75
819.332	412.75
819.585	331.75
819.838	396.75
820.09	302.75
820.343	363.75
820.595	282.75
820.848	334.75
821.1	349.75
821.353	320.75
821.605	316.75
821.857	378.75
822.11	285.75
822.362	290.75
822.614	289.75
822.866	326.75
823.118	260.75
823.37	368.75
823.622	308.75
823.874	305.75
824.126	355.75
824.378	291.75
824.63	308.75
824.882	325.75
825.134	310.75
825.385	354.75
825.637	319.75
825.888	309.75
826.14	316.75
826.392	299.75
826.643	286.75
826.895	379.75
827.146	307.75
827.397	306.75
827.649	383.75
827.9	294.75
828.151	274.75
828.402	281.75
828.653	319.75
828.905	314.75
829.156	371.75
829.407	290.75
829.658	329.75
829.909	360.75
830.159	345.75
830.41	353.75
830.661	357.75
830.912	337.75
831.162	312.75
831.413	299.75
831.664	350.75
831.914	322.75
832.165	332.75
832.415	330.75
832.666	340.75
832.916	345.75
833.167	311.75
833.417	386.75
833.667	355.75
833.917	340.75
834.168	397.75
834.418	350.75
834.668	342.75
834.918	282.75
835.168	314.75
835.418	268.75
835.668	326.75
835.918	362.75
836.167	359.75
836.417	289.75
836.667	372.75
836.917	376.75
837.166	325.75
837.416	353.75
837.666	352.75
837.915	331.75
838.165	343.75
838.414	292.75
838.663	270.75
838.913	329.75
839.162	292.75
839.411	391.75
839.661	317.75
839.91	332.75
840.159	312.75
840.408	347.75
840.657	310.75
840.906	334.75
841.155	356.75
841.404	321.75
841.653	335.75
841.902	303.75
842.15	347.75
842.399	343.75
842.648	309.75
842.897	345.75
843.145	281.75
843.394	304.75
843.642	309.75
843.891	364.75
844.139	333.75
844.388	286.75
844.636	265.75
844.884	324.75
845.133	299.75
845.381	322.75
845.629	355.75
845.877	290.75
846.125	308.75
846.373	321.75
846.621	296.75
846.869	353.75
847.117	329.75
847.365	320.75
847.613	347.75
847.861	358.75
848.108	377.75
848.356	349.75
848.604	297.75
848.851	334.75
849.099	341.75
849.346	314.75
849.594	331.75
849.841	347.75
850.089	316.75
850.336	298.75
850.583	300.75
850.831	320.75
851.078	336.75
851.325	309.75
851.572	368.75
851.819	367.75
852.066	318.75
852.313	336.75
852.56	309.75
852.807	278.75
853.054	287.75
853.301	322.75
853.548	324.75
853.794	406.75
854.041	329.75
854.288	279.75
854.534	388.75
854.781	327.75
855.028	309.75
855.274	407.75
855.52	336.75
855.767	305.75
856.013	348.75
856.26	627.75
856.506	301.75
856.752	359.75
856.998	338.75
857.244	305.75
857.49	346.75
857.736	349.75
857.982	353.75
858.228	350.75
858.474	308.75
858.72	341.75
858.966	348.75
859.212	329.75
859.458	346.75
859.703	341.75
859.949	316.75
860.195	371.75
860.44	355.75
860.686	322.75
860.931	386.75
861.177	317.75
861.422	374.75
861.667	325.75
861.913	322.75
862.158	330.75
862.403	378.75
862.648	355.75
862.893	383.75
863.138	343.75
863.384	321.75
863.629	364.75
863.873	346.75
864.118	333.75
864.363	270.75
864.608	348.75
864.853	377.75
865.098	334.75
865.342	363.75
865.587	330.75
865.832	372.75
866.076	347.75
866.321	321.75
866.565	329.75
866.81	272.75
867.054	338.75
867.298	350.75
867.543	317.75
867.787	360.75
868.031	333.75
868.275	343.75
868.519	329.75
868.764	341.75
869.008	338.75
869.252	375.75
869.496	338.75
869.739	347.75
869.983	386.75
870.227	359.75
870.471	309.75
870.715	357.75
870.958	360.75
871.202	311.75
871.446	331.75
871.689	307.75
871.933	339.75
872.176	343.75
872.42	333.75
872.663	320.75
872.906	373.75
873.15	334.75
873.393	282.75
873.636	396.75
873.879	352.75
874.122	397.75
874.366	328.75
874.609	383.75
874.852	339.75
875.095	349.75
875.337	319.75
875.58	278.75
875.823	335.75
876.066	377.75
876.309	411.75
876.551	297.75
876.794	302.75
877.037	379.75
877.279	303.75
877.522	322.75
877.764	348.75
878.007	321.75
878.249	342.75
878.491	303.75
878.734	370.75
878.976	355.75
879.218	302.75
879.46	381.75
879.702	378.75
879.945	363.75
880.187	339.75
880.429	362.75
880.671	388.75
880.912	392.75
881.154	373.75
881.396	287.75
881.638	352.75
881.88	345.75
882.121	318.75
882.363	338.75
882.605	397.75
882.846	367.75
883.088	371.75
883.329	334.75
883.571	299.75
883.812	317.75
884.053	319.75
884.295	321.75
884.536	405.75
884.777	331.75
885.018	342.75
885.259	371.75
885.5	293.75
885.742	511.75
885.982	359.75
886.223	313.75
886.464	322.75
886.705	286.75
886.946	347.75
887.187	276.75
887.428	381.75
887.668	324.75
887.909	310.75
888.15	304.75
888.39	365.75
888.631	402.75
888.871	373.75
889.111	364.75
889.352	349.75
889.592	326.75
889.833	353.75
890.073	361.75
890.313	407.75
890.553	308.75
890.793	342.75
891.033	324.75
891.273	329.75
891.513	351.75
891.753	411.75
891.993	338.75
892.233	362.75
892.473	435.75
892.713	370.75
892.952	315.75
893.192	362.75
893.432	322.75
893.671	367.75
893.911	336.75
894.15	358.75
894.39	296.75
894.629	342.75
894.869	362.75
895.108	348.75
895.347	319.75
895.587	375.75
895.826	329.75
896.065	315.75
896.304	367.75
896.543	396.75
896.782	297.75
897.021	341.75
897.26	355.75
897.499	393.75
897.738	407.75
897.977	364.75
898.216	348.75
898.454	348.75
898.693	322.75
898.932	381.75
899.17	349.75
899.409	360.75
899.647	348.75
899.886	334.75
900.124	365.75
900.363	319.75
900.601	347.75
900.839	344.75
901.078	367.75
901.316	353.75
901.554	343.75
901.792	364.75
902.03	315.75
902.268	340.75
902.506	385.75
902.744	345.75
902.982	380.75
903.22	322.75
903.458	331.75
903.695	384.75
903.933	386.75
904.171	326.75
904.409	339.75
904.646	388.75
904.884	335.75
905.121	420.75
905.359	375.75
905.596	376.75
905.833	340.75
906.071	343.75
906.308	402.75
906.545	387.75
906.783	313.75
907.02	363.75
907.257	313.75
907.494	347.75
907.731	356.75
907.968	379.75
908.205	334.75
908.442	338.75
908.679	367.75
908.915	360.75
909.152	374.75
909.389	302.75
909.626	350.75
909.862	335.75
910.099	368.75
910.335	395.75
910.572	313.75
910.808	370.75
911.045	340.75
911.281	326.75
911.518	420.75
911.754	355.75
911.99	352.75
912.226	368.75
912.463	324.75
912.699	350.75
912.935	344.75
913.171	350.75
913.407	319.75
913.643	392.75
913.879	373.75
914.114	360.75
914.35	346.75
914.586	350.75
914.822	330.75
915.057	425.75
915.293	311.75
915.529	337.75
915.764	410.75
916	388.75
916.235	367.75
916.471	393.75
916.706	298.75
916.941	347.75
917.177	332.75
917.412	390.75
917.647	383.75
917.882	324.75
918.117	405.75
918.352	375.75
918.588	423.75
918.823	367.75
919.057	372.75
919.292	298.75
919.527	420.75
919.762	359.75
919.997	415.75
920.232	370.75
920.466	429.75
920.701	322.75
920.935	372.75
921.17	355.75
921.405	336.75
921.639	401.75
921.873	386.75
922.108	391.75
922.342	402.75
922.576	345.75
922.811	353.75
923.045	397.75
923.279	419.75
923.513	317.75
923.747	396.75
923.981	396.75
924.215	360.75
924.449	372.75
924.683	338.75
924.917	358.75
925.151	367.75
925.385	436.75
925.618	381.75
925.852	399.75
926.086	315.75
926.319	382.75
926.553	371.75
926.786	406.75
927.02	364.75
927.253	426.75
927.486	429.75
927.72	330.75
927.953	409.75
928.186	379.75
928.42	415.75
928.653	352.75
928.886	349.75
929.119	406.75
929.352	380.75
929.585	390.75
929.818	360.75
930.051	405.75
930.284	416.75
930.516	333.75
930.749	354.75
930.982	425.75
931.215	397.75
931.447	356.75
931.68	370.75
931.912	361.75
932.145	355.75
932.377	388.75
932.61	514.75
932.842	315.75
933.074	400.75
933.307	344.75
933.539	437.75
933.771	418.75
934.003	366.75
934.236	435.75
934.468	443.75
934.7	377.75
934.932	421.75
935.164	366.75
935.395	351.75
935.627	378.75
935.859	394.75
936.091	336.75
936.323	409.75
936.554	443.75
936.786	379.75
937.017	345.75
937.249	412.75
937.481	328.75
937.712	397.75
937.943	391.75
938.175	377.75
938.406	374.75
938.637	439.75
938.869	345.75
939.1	410.75
939.331	367.75
939.562	412.75
939.793	404.75
940.024	427.75
940.255	439.75
940.486	397.75
940.717	397.75
940.948	402.75
941.179	351.75
941.409	391.75
941.64	373.75
941.871	406.75
942.102	366.75
942.332	375.75
942.563	434.75
942.793	397.75
943.024	351.75
943.254	376.75
943.484	429.75
943.715	434.75
943.945	407.75
944.175	342.75
944.405	335.75
944.636	335.75
944.866	394.75
945.096	406.75
945.326	328.75
945.556	397.75
945.786	430.75
946.016	386.75
946.245	337.75
946.475	377.75
946.705	387.75
946.935	396.75
947.164	408.75
947.394	369.75
947.624	401.75
947.853	425.75
948.083	410.75
948.312	393.75
948.542	335.75
948.771	329.75
949	357.75
949.23	367.75
949.459	384.75
949.688	447.75
949.917	397.75
950.146	404.75
950.375	444.75
950.604	343.75
950.833	453.75
951.062	438.75
951.291	391.75
951.52	373.75
951.749	397.75
951.978	365.75
952.206	373.75
952.435	366.75
952.664	410.75
952.892	432.75
953.121	415.75
953.349	441.75
953.578	433.75
953.806	406.75
954.035	364.75
954.263	421.75
954.491	373.75
954.719	439.75
954.948	388.75
955.176	385.75
955.404	333.75
955.632	402.75
955.86	424.75
956.088	402.75
956.316	448.75
956.544	456.75
956.772	409.75
956.999	390.75
957.227	494.75
957.455	389.75
957.683	425.75
957.91	397.75
958.138	391.75
958.365	414.75
958.593	406.75
958.82	362.75
959.048	438.75
959.275	417.75
959.502	419.75
959.73	376.75
959.957	431.75
960.184	458.75
960.411	392.75
960.638	471.75
960.865	410.75
961.092	462.75
961.319	354.75
961.546	463.75
961.773	467.75
962	420.75
962.227	467.75
962.454	434.75
962.68	410.75
962.907	444.75
963.134	401.75
963.36	446.75
963.587	458.75
963.813	430.75
964.04	474.75
964.266	414.75
964.493	502.75
964.719	488.75
964.945	491.75
965.171	396.75
965.398	474.75
965.624	486.75
965.85	428.75
966.076	456.75
966.302	476.75
966.528	452.75
966.754	477.75
966.98	475.75
967.206	501.75
967.431	423.75
967.657	522.75
967.883	493.75
968.109	489.75
968.334	429.75
968.56	429.75
968.785	463.75
969.011	421.75
969.236	472.75
969.462	423.75
969.687	446.75
969.912	505.75
970.138	501.75
970.363	442.75
970.588	464.75
970.813	449.75
971.038	440.75
971.263	481.75
971.488	470.75
971.713	508.75
971.938	492.75
972.163	414.75
972.388	454.75
972.613	443.75
972.838	472.75
973.062	453.75
973.287	465.75
973.512	394.75
973.736	452.75
973.961	454.75
974.185	445.75
974.41	489.75
974.634	408.75
974.858	415.75
975.083	474.75
975.307	504.75
975.531	449.75
975.755	400.75
975.98	434.75
976.204	388.75
976.428	393.75
976.652	406.75
976.876	395.75
977.1	451.75
977.324	399.75
977.547	466.75
977.771	470.75
977.995	436.75
978.219	387.75
978.442	515.75
978.666	444.75
978.89	444.75
979.113	445.75
979.337	445.75
979.56	411.75
979.783	529.75
980.007	406.75
980.23	461.75
980.453	410.75
980.677	473.75
980.9	456.75
981.123	378.75
981.346	479.75
981.569	463.75
981.792	498.75
982.015	445.75
982.238	423.75
982.461	447.75
982.684	424.75
982.907	418.75
983.129	427.75
983.352	498.75
983.575	466.75
983.797	488.75
984.02	438.75
984.242	441.75
984.465	461.75
984.687	492.75
984.91	502.75
985.132	496.75
985.354	514.75
985.577	500.75
985.799	479.75
986.021	429.75
986.243	447.75
986.465	468.75
986.687	518.75
986.909	550.75
987.131	485.75
987.353	491.75
987.575	499.75
987.797	460.75
988.019	414.75
988.241	485.75
988.462	455.75
988.684	511.75
988.906	543.75
989.127	563.75
989.349	451.75
989.57	486.75
989.792	528.75
990.013	537.75
990.234	537.75
990.456	576.75
990.677	546.75
990.898	501.75
991.119	517.75
991.341	557.75
991.562	482.75
991.783	519.75
992.004	479.75
992.225	462.75
992.446	519.75
992.667	465.75
992.887	544.75
993.108	437.75
993.329	595.75
993.55	525.75
993.77	480.75
993.991	495.75
994.212	537.75
994.432	529.75
994.653	536.75
994.873	547.75
995.093	441.75
995.314	498.75
995.534	567.75
995.754	565.75
995.975	602.75
996.195	489.75
996.415	559.75
996.635	531.75
996.855	564.75
997.075	531.75
997.295	539.75
997.515	517.75
997.735	573.75
997.955	538.75
998.174	525.75
998.394	503.75
998.614	562.75
998.834	519.75
999.053	585.75
999.273	572.75
999.492	602.75
999.712	581.75
999.931	548.75
1000.151	603.75
1000.37	558.75
1000.589	644.75
1000.809	564.75
1001.028	683.75
1001.247	624.75
1001.466	534.75
1001.685	677.75
1001.904	616.75
1002.123	608.75
1002.342	620.75
1002.561	606.75
1002.78	624.75
1002.999	682.75
1003.218	634.75
1003.436	610.75
1003.655	674.75
1003.874	618.75
1004.092	651.75
1004.311	692.75
1004.53	659.75
1004.748	749.75
1004.966	653.75
1005.185	712.75
1005.403	711.75
1005.622	687.75
1005.84	768.75
1006.058	639.75
1006.276	695.75
1006.494	1162.75
1006.712	686.75
1006.931	735.75
1007.149	651.75
1007.367	648.75
1007.584	679.75
1007.802	712.75
1008.02	661.75
1008.238	727.75
1008.456	717.75
1008.673	580.75
1008.891	681.75
1009.109	635.75
1009.326	672.75
1009.544	723.75
1009.761	582.75
1009.979	649.75
1010.196	606.75
1010.413	665.75
1010.631	675.75
1010.848	688.75
1011.065	656.75
1011.282	618.75
1011.5	566.75
1011.717	670.75
1011.934	633.75
1012.151	679.75
1012.368	626.75
1012.585	591.75
1012.801	661.75
1013.018	609.75
1013.235	593.75
1013.452	596.75
1013.669	608.75
1013.885	564.75
1014.102	614.75
1014.318	546.75
1014.535	529.75
1014.751	567.75
1014.968	571.75
1015.184	608.75
1015.401	524.75
1015.617	580.75
1015.833	525.75
1016.049	548.75
1016.266	536.75
1016.482	565.75
1016.698	505.75
1016.914	541.75
1017.13	519.75
1017.346	517.75
1017.562	569.75
1017.778	519.75
1017.993	492.75
1018.209	551.75
1018.425	527.75
1018.641	500.75
1018.856	474.75
1019.072	515.75
1019.288	548.75
1019.503	504.75
1019.719	435.75
1019.934	448.75
1020.149	543.75
1020.365	493.75
1020.58	464.75
1020.795	539.75
1021.011	498.75
1021.226	508.75
1021.441	528.75
1021.656	481.75
1021.871	447.75
1022.086	471.75
1022.301	477.75
1022.516	470.75
1022.731	528.75
1022.946	462.75
1023.16	478.75
1023.375	445.75
1023.59	447.75
1023.804	413.75
1024.019	532.75
1024.234	437.75
1024.448	471.75
1024.663	408.75
1024.877	440.75
1025.092	485.75
1025.306	481.75
1025.52	397.75
1025.734	525.75
1025.949	447.75
1026.163	436.75
1026.377	378.75
1026.591	459.75
1026.805	382.75
1027.019	392.75
1027.233	358.75
1027.447	318.75
1027.661	421.75
1027.875	388.75
1028.088	398.75
1028.302	328.75
1028.516	337.75
1028.73	349.75
1028.943	353.75
1029.157	325.75
1029.37	303.75
1029.584	-3.25
1029.797	0.75
1030.011	-1.25
1030.224	-5.25
