Data from QEP037381__33__10-17-41-064.txt Node

Date: Fri Apr 21 10:17:41 EDT 2023
User: dcclab
Spectrometer: QEP03738
Trigger mode: 4
Integration Time (sec): 1.000000E1
Scans to average: 1
Electric dark correction enabled: true
Nonlinearity correction enabled: false
Boxcar width: 0
XAxis mode: Wavelengths
Number of Pixels in Spectrum: 1044
>>>>>Begin Spectral Data<<<<<
784.041	10.12
784.3	1.12
784.558	-2.88
784.817	-0.88
785.075	241.12
785.334	218.12
785.592	209.12
785.851	194.12
786.109	245.12
786.368	238.12
786.626	258.12
786.884	280.12
787.143	259.12
787.401	211.12
787.659	270.12
787.917	257.12
788.175	295.12
788.433	272.12
788.691	280.12
788.949	278.12
789.207	308.12
789.465	252.12
789.723	277.12
789.98	245.12
790.238	322.12
790.496	292.12
790.753	296.12
791.011	358.12
791.268	305.12
791.526	306.12
791.783	327.12
792.041	314.12
792.298	249.12
792.556	328.12
792.813	320.12
793.07	310.12
793.327	287.12
793.584	382.12
793.841	298.12
794.099	318.12
794.356	374.12
794.613	298.12
794.869	336.12
795.126	296.12
795.383	275.12
795.64	310.12
795.897	267.12
796.153	335.12
796.41	312.12
796.667	298.12
796.923	310.12
797.18	299.12
797.436	326.12
797.693	297.12
797.949	342.12
798.206	374.12
798.462	274.12
798.718	328.12
798.974	300.12
799.231	339.12
799.487	323.12
799.743	328.12
799.999	357.12
800.255	344.12
800.511	310.12
800.767	330.12
801.023	307.12
801.279	315.12
801.534	331.12
801.79	340.12
802.046	305.12
802.302	367.12
802.557	339.12
802.813	349.12
803.068	289.12
803.324	337.12
803.579	305.12
803.835	294.12
804.09	350.12
804.345	295.12
804.601	259.12
804.856	307.12
805.111	334.12
805.366	304.12
805.621	315.12
805.876	337.12
806.131	322.12
806.386	307.12
806.641	284.12
806.896	305.12
807.151	378.12
807.406	319.12
807.661	333.12
807.915	315.12
808.17	348.12
808.425	332.12
808.679	287.12
808.934	375.12
809.188	313.12
809.443	340.12
809.697	374.12
809.951	304.12
810.206	293.12
810.46	345.12
810.714	336.12
810.968	345.12
811.223	279.12
811.477	332.12
811.731	357.12
811.985	269.12
812.239	242.12
812.493	287.12
812.747	313.12
813	270.12
813.254	333.12
813.508	348.12
813.762	303.12
814.015	299.12
814.269	322.12
814.522	343.12
814.776	344.12
815.03	332.12
815.283	328.12
815.536	339.12
815.79	337.12
816.043	338.12
816.296	324.12
816.55	318.12
816.803	316.12
817.056	399.12
817.309	336.12
817.562	336.12
817.815	385.12
818.068	286.12
818.321	299.12
818.574	284.12
818.827	352.12
819.079	293.12
819.332	420.12
819.585	340.12
819.838	381.12
820.09	303.12
820.343	368.12
820.595	291.12
820.848	343.12
821.1	356.12
821.353	334.12
821.605	321.12
821.857	369.12
822.11	281.12
822.362	298.12
822.614	279.12
822.866	319.12
823.118	271.12
823.37	375.12
823.622	319.12
823.874	307.12
824.126	352.12
824.378	272.12
824.63	335.12
824.882	339.12
825.134	311.12
825.385	350.12
825.637	324.12
825.888	317.12
826.14	325.12
826.392	302.12
826.643	299.12
826.895	378.12
827.146	317.12
827.397	310.12
827.649	382.12
827.9	300.12
828.151	281.12
828.402	302.12
828.653	329.12
828.905	328.12
829.156	364.12
829.407	291.12
829.658	318.12
829.909	367.12
830.159	339.12
830.41	347.12
830.661	359.12
830.912	324.12
831.162	327.12
831.413	306.12
831.664	352.12
831.914	319.12
832.165	334.12
832.415	334.12
832.666	340.12
832.916	372.12
833.167	302.12
833.417	390.12
833.667	348.12
833.917	333.12
834.168	397.12
834.418	357.12
834.668	316.12
834.918	288.12
835.168	311.12
835.418	262.12
835.668	322.12
835.918	344.12
836.167	352.12
836.417	297.12
836.667	351.12
836.917	376.12
837.166	328.12
837.416	363.12
837.666	368.12
837.915	331.12
838.165	356.12
838.414	294.12
838.663	272.12
838.913	339.12
839.162	298.12
839.411	403.12
839.661	298.12
839.91	336.12
840.159	312.12
840.408	330.12
840.657	332.12
840.906	336.12
841.155	365.12
841.404	317.12
841.653	326.12
841.902	311.12
842.15	350.12
842.399	358.12
842.648	325.12
842.897	361.12
843.145	286.12
843.394	303.12
843.642	307.12
843.891	369.12
844.139	330.12
844.388	296.12
844.636	266.12
844.884	317.12
845.133	300.12
845.381	324.12
845.629	353.12
845.877	291.12
846.125	320.12
846.373	338.12
846.621	305.12
846.869	359.12
847.117	329.12
847.365	327.12
847.613	339.12
847.861	360.12
848.108	389.12
848.356	343.12
848.604	307.12
848.851	350.12
849.099	332.12
849.346	334.12
849.594	344.12
849.841	356.12
850.089	317.12
850.336	313.12
850.583	307.12
850.831	338.12
851.078	332.12
851.325	290.12
851.572	363.12
851.819	352.12
852.066	321.12
852.313	318.12
852.56	297.12
852.807	282.12
853.054	291.12
853.301	320.12
853.548	315.12
853.794	407.12
854.041	340.12
854.288	280.12
854.534	404.12
854.781	319.12
855.028	302.12
855.274	387.12
855.52	337.12
855.767	297.12
856.013	367.12
856.26	642.12
856.506	314.12
856.752	362.12
856.998	334.12
857.244	307.12
857.49	331.12
857.736	346.12
857.982	354.12
858.228	363.12
858.474	292.12
858.72	335.12
858.966	355.12
859.212	337.12
859.458	338.12
859.703	347.12
859.949	319.12
860.195	370.12
860.44	352.12
860.686	323.12
860.931	388.12
861.177	316.12
861.422	382.12
861.667	324.12
861.913	338.12
862.158	340.12
862.403	377.12
862.648	364.12
862.893	399.12
863.138	341.12
863.384	302.12
863.629	372.12
863.873	358.12
864.118	328.12
864.363	288.12
864.608	354.12
864.853	371.12
865.098	329.12
865.342	357.12
865.587	340.12
865.832	379.12
866.076	360.12
866.321	324.12
866.565	336.12
866.81	276.12
867.054	336.12
867.298	349.12
867.543	315.12
867.787	359.12
868.031	324.12
868.275	342.12
868.519	337.12
868.764	359.12
869.008	331.12
869.252	364.12
869.496	338.12
869.739	343.12
869.983	390.12
870.227	372.12
870.471	316.12
870.715	352.12
870.958	355.12
871.202	317.12
871.446	320.12
871.689	311.12
871.933	334.12
872.176	341.12
872.42	325.12
872.663	327.12
872.906	382.12
873.15	338.12
873.393	292.12
873.636	370.12
873.879	369.12
874.122	400.12
874.366	347.12
874.609	372.12
874.852	329.12
875.095	364.12
875.337	325.12
875.58	284.12
875.823	350.12
876.066	379.12
876.309	404.12
876.551	310.12
876.794	287.12
877.037	365.12
877.279	296.12
877.522	315.12
877.764	355.12
878.007	313.12
878.249	340.12
878.491	307.12
878.734	365.12
878.976	366.12
879.218	306.12
879.46	395.12
879.702	383.12
879.945	370.12
880.187	343.12
880.429	379.12
880.671	373.12
880.912	377.12
881.154	375.12
881.396	281.12
881.638	359.12
881.88	357.12
882.121	318.12
882.363	351.12
882.605	397.12
882.846	366.12
883.088	384.12
883.329	327.12
883.571	303.12
883.812	330.12
884.053	320.12
884.295	329.12
884.536	403.12
884.777	320.12
885.018	346.12
885.259	366.12
885.5	295.12
885.742	516.12
885.982	375.12
886.223	312.12
886.464	324.12
886.705	304.12
886.946	359.12
887.187	280.12
887.428	380.12
887.668	324.12
887.909	310.12
888.15	299.12
888.39	372.12
888.631	408.12
888.871	393.12
889.111	358.12
889.352	359.12
889.592	340.12
889.833	344.12
890.073	343.12
890.313	414.12
890.553	320.12
890.793	353.12
891.033	326.12
891.273	326.12
891.513	356.12
891.753	412.12
891.993	353.12
892.233	379.12
892.473	425.12
892.713	376.12
892.952	324.12
893.192	358.12
893.432	337.12
893.671	373.12
893.911	347.12
894.15	357.12
894.39	295.12
894.629	339.12
894.869	363.12
895.108	348.12
895.347	328.12
895.587	383.12
895.826	333.12
896.065	316.12
896.304	371.12
896.543	402.12
896.782	293.12
897.021	349.12
897.26	350.12
897.499	413.12
897.738	398.12
897.977	364.12
898.216	349.12
898.454	346.12
898.693	335.12
898.932	377.12
899.17	354.12
899.409	359.12
899.647	353.12
899.886	332.12
900.124	370.12
900.363	326.12
900.601	362.12
900.839	355.12
901.078	354.12
901.316	363.12
901.554	349.12
901.792	367.12
902.03	307.12
902.268	345.12
902.506	391.12
902.744	344.12
902.982	382.12
903.22	319.12
903.458	350.12
903.695	378.12
903.933	382.12
904.171	328.12
904.409	336.12
904.646	387.12
904.884	341.12
905.121	420.12
905.359	377.12
905.596	390.12
905.833	332.12
906.071	355.12
906.308	399.12
906.545	375.12
906.783	317.12
907.02	348.12
907.257	310.12
907.494	331.12
907.731	373.12
907.968	379.12
908.205	340.12
908.442	335.12
908.679	362.12
908.915	358.12
909.152	376.12
909.389	304.12
909.626	338.12
909.862	332.12
910.099	366.12
910.335	408.12
910.572	308.12
910.808	365.12
911.045	358.12
911.281	323.12
911.518	412.12
911.754	348.12
911.99	369.12
912.226	350.12
912.463	325.12
912.699	333.12
912.935	347.12
913.171	346.12
913.407	332.12
913.643	395.12
913.879	376.12
914.114	377.12
914.35	339.12
914.586	354.12
914.822	335.12
915.057	447.12
915.293	315.12
915.529	326.12
915.764	405.12
916	383.12
916.235	366.12
916.471	394.12
916.706	304.12
916.941	361.12
917.177	357.12
917.412	388.12
917.647	393.12
917.882	334.12
918.117	406.12
918.352	377.12
918.588	434.12
918.823	357.12
919.057	370.12
919.292	294.12
919.527	422.12
919.762	373.12
919.997	427.12
920.232	380.12
920.466	424.12
920.701	320.12
920.935	397.12
921.17	366.12
921.405	341.12
921.639	407.12
921.873	369.12
922.108	395.12
922.342	405.12
922.576	334.12
922.811	345.12
923.045	405.12
923.279	424.12
923.513	314.12
923.747	408.12
923.981	394.12
924.215	356.12
924.449	368.12
924.683	343.12
924.917	359.12
925.151	362.12
925.385	425.12
925.618	383.12
925.852	412.12
926.086	334.12
926.319	393.12
926.553	374.12
926.786	408.12
927.02	369.12
927.253	415.12
927.486	420.12
927.72	339.12
927.953	412.12
928.186	359.12
928.42	406.12
928.653	349.12
928.886	350.12
929.119	405.12
929.352	387.12
929.585	393.12
929.818	351.12
930.051	398.12
930.284	414.12
930.516	328.12
930.749	359.12
930.982	417.12
931.215	411.12
931.447	348.12
931.68	374.12
931.912	372.12
932.145	369.12
932.377	390.12
932.61	508.12
932.842	322.12
933.074	386.12
933.307	343.12
933.539	434.12
933.771	417.12
934.003	371.12
934.236	448.12
934.468	467.12
934.7	385.12
934.932	411.12
935.164	381.12
935.395	359.12
935.627	394.12
935.859	413.12
936.091	344.12
936.323	407.12
936.554	450.12
936.786	381.12
937.017	354.12
937.249	399.12
937.481	343.12
937.712	417.12
937.943	388.12
938.175	383.12
938.406	371.12
938.637	447.12
938.869	350.12
939.1	407.12
939.331	366.12
939.562	408.12
939.793	401.12
940.024	440.12
940.255	449.12
940.486	399.12
940.717	402.12
940.948	390.12
941.179	348.12
941.409	391.12
941.64	373.12
941.871	392.12
942.102	368.12
942.332	374.12
942.563	410.12
942.793	388.12
943.024	345.12
943.254	382.12
943.484	427.12
943.715	443.12
943.945	419.12
944.175	344.12
944.405	327.12
944.636	340.12
944.866	384.12
945.096	408.12
945.326	326.12
945.556	427.12
945.786	427.12
946.016	385.12
946.245	335.12
946.475	376.12
946.705	381.12
946.935	404.12
947.164	403.12
947.394	375.12
947.624	391.12
947.853	430.12
948.083	403.12
948.312	392.12
948.542	344.12
948.771	316.12
949	359.12
949.23	369.12
949.459	380.12
949.688	447.12
949.917	384.12
950.146	408.12
950.375	450.12
950.604	345.12
950.833	452.12
951.062	431.12
951.291	392.12
951.52	383.12
951.749	396.12
951.978	370.12
952.206	380.12
952.435	380.12
952.664	436.12
952.892	435.12
953.121	416.12
953.349	446.12
953.578	411.12
953.806	414.12
954.035	373.12
954.263	429.12
954.491	377.12
954.719	436.12
954.948	397.12
955.176	380.12
955.404	333.12
955.632	400.12
955.86	431.12
956.088	410.12
956.316	433.12
956.544	463.12
956.772	419.12
956.999	399.12
957.227	507.12
957.455	403.12
957.683	429.12
957.91	394.12
958.138	387.12
958.365	403.12
958.593	406.12
958.82	362.12
959.048	451.12
959.275	419.12
959.502	409.12
959.73	384.12
959.957	421.12
960.184	460.12
960.411	409.12
960.638	467.12
960.865	422.12
961.092	458.12
961.319	365.12
961.546	472.12
961.773	466.12
962	425.12
962.227	483.12
962.454	436.12
962.68	423.12
962.907	447.12
963.134	407.12
963.36	444.12
963.587	475.12
963.813	417.12
964.04	477.12
964.266	419.12
964.493	506.12
964.719	496.12
964.945	483.12
965.171	398.12
965.398	480.12
965.624	491.12
965.85	437.12
966.076	434.12
966.302	486.12
966.528	447.12
966.754	481.12
966.98	486.12
967.206	467.12
967.431	409.12
967.657	513.12
967.883	495.12
968.109	481.12
968.334	437.12
968.56	420.12
968.785	455.12
969.011	410.12
969.236	476.12
969.462	423.12
969.687	446.12
969.912	488.12
970.138	528.12
970.363	435.12
970.588	483.12
970.813	462.12
971.038	427.12
971.263	469.12
971.488	483.12
971.713	531.12
971.938	503.12
972.163	414.12
972.388	468.12
972.613	438.12
972.838	463.12
973.062	471.12
973.287	474.12
973.512	414.12
973.736	469.12
973.961	458.12
974.185	433.12
974.41	482.12
974.634	405.12
974.858	411.12
975.083	457.12
975.307	498.12
975.531	444.12
975.755	396.12
975.98	433.12
976.204	383.12
976.428	393.12
976.652	408.12
976.876	395.12
977.1	441.12
977.324	393.12
977.547	455.12
977.771	475.12
977.995	441.12
978.219	379.12
978.442	514.12
978.666	440.12
978.89	444.12
979.113	450.12
979.337	440.12
979.56	420.12
979.783	519.12
980.007	403.12
980.23	442.12
980.453	426.12
980.677	472.12
980.9	464.12
981.123	378.12
981.346	479.12
981.569	456.12
981.792	486.12
982.015	458.12
982.238	424.12
982.461	457.12
982.684	426.12
982.907	424.12
983.129	433.12
983.352	488.12
983.575	450.12
983.797	469.12
984.02	439.12
984.242	454.12
984.465	475.12
984.687	488.12
984.91	521.12
985.132	487.12
985.354	516.12
985.577	484.12
985.799	497.12
986.021	414.12
986.243	452.12
986.465	466.12
986.687	519.12
986.909	553.12
987.131	500.12
987.353	476.12
987.575	503.12
987.797	467.12
988.019	419.12
988.241	485.12
988.462	446.12
988.684	500.12
988.906	541.12
989.127	564.12
989.349	452.12
989.57	495.12
989.792	526.12
990.013	539.12
990.234	540.12
990.456	573.12
990.677	558.12
990.898	505.12
991.119	499.12
991.341	542.12
991.562	471.12
991.783	524.12
992.004	490.12
992.225	466.12
992.446	547.12
992.667	446.12
992.887	546.12
993.108	440.12
993.329	591.12
993.55	534.12
993.77	478.12
993.991	503.12
994.212	537.12
994.432	528.12
994.653	565.12
994.873	562.12
995.093	428.12
995.314	482.12
995.534	558.12
995.754	582.12
995.975	604.12
996.195	483.12
996.415	561.12
996.635	533.12
996.855	553.12
997.075	526.12
997.295	522.12
997.515	513.12
997.735	573.12
997.955	528.12
998.174	528.12
998.394	501.12
998.614	567.12
998.834	519.12
999.053	574.12
999.273	563.12
999.492	621.12
999.712	568.12
999.931	543.12
1000.151	595.12
1000.37	577.12
1000.589	643.12
1000.809	579.12
1001.028	677.12
1001.247	634.12
1001.466	536.12
1001.685	704.12
1001.904	626.12
1002.123	612.12
1002.342	621.12
1002.561	605.12
1002.78	632.12
1002.999	699.12
1003.218	648.12
1003.436	620.12
1003.655	683.12
1003.874	631.12
1004.092	668.12
1004.311	691.12
1004.53	653.12
1004.748	720.12
1004.966	650.12
1005.185	702.12
1005.403	723.12
1005.622	683.12
1005.84	749.12
1006.058	658.12
1006.276	683.12
1006.494	1170.12
1006.712	680.12
1006.931	731.12
1007.149	657.12
1007.367	658.12
1007.584	679.12
1007.802	700.12
1008.02	645.12
1008.238	742.12
1008.456	718.12
1008.673	574.12
1008.891	690.12
1009.109	642.12
1009.326	643.12
1009.544	741.12
1009.761	595.12
1009.979	655.12
1010.196	631.12
1010.413	664.12
1010.631	677.12
1010.848	675.12
1011.065	682.12
1011.282	606.12
1011.5	568.12
1011.717	684.12
1011.934	633.12
1012.151	668.12
1012.368	662.12
1012.585	600.12
1012.801	661.12
1013.018	624.12
1013.235	592.12
1013.452	594.12
1013.669	595.12
1013.885	567.12
1014.102	611.12
1014.318	567.12
1014.535	523.12
1014.751	560.12
1014.968	558.12
1015.184	617.12
1015.401	527.12
1015.617	581.12
1015.833	544.12
1016.049	539.12
1016.266	528.12
1016.482	556.12
1016.698	499.12
1016.914	563.12
1017.13	512.12
1017.346	520.12
1017.562	580.12
1017.778	515.12
1017.993	495.12
1018.209	561.12
1018.425	522.12
1018.641	488.12
1018.856	476.12
1019.072	517.12
1019.288	550.12
1019.503	511.12
1019.719	432.12
1019.934	450.12
1020.149	558.12
1020.365	487.12
1020.58	460.12
1020.795	536.12
1021.011	490.12
1021.226	505.12
1021.441	540.12
1021.656	505.12
1021.871	440.12
1022.086	459.12
1022.301	475.12
1022.516	485.12
1022.731	545.12
1022.946	472.12
1023.16	457.12
1023.375	454.12
1023.59	444.12
1023.804	417.12
1024.019	555.12
1024.234	419.12
1024.448	470.12
1024.663	413.12
1024.877	458.12
1025.092	477.12
1025.306	491.12
1025.52	404.12
1025.734	506.12
1025.949	451.12
1026.163	427.12
1026.377	386.12
1026.591	454.12
1026.805	378.12
1027.019	400.12
1027.233	363.12
1027.447	324.12
1027.661	423.12
1027.875	376.12
1028.088	392.12
1028.302	322.12
1028.516	349.12
1028.73	349.12
1028.943	359.12
1029.157	334.12
1029.37	317.12
1029.584	-3.88
1029.797	0.12
1030.011	-0.88
1030.224	-2.88
