Data from QEP037381__65__10-23-01-071.txt Node

Date: Fri Apr 21 10:23:01 EDT 2023
User: dcclab
Spectrometer: QEP03738
Trigger mode: 4
Integration Time (sec): 1.000000E1
Scans to average: 1
Electric dark correction enabled: true
Nonlinearity correction enabled: false
Boxcar width: 0
XAxis mode: Wavelengths
Number of Pixels in Spectrum: 1044
>>>>>Begin Spectral Data<<<<<
784.041	12.25
784.3	-0.75
784.558	-3.75
784.817	-3.75
785.075	236.25
785.334	200.25
785.592	219.25
785.851	189.25
786.109	229.25
786.368	234.25
786.626	255.25
786.884	283.25
787.143	274.25
787.401	209.25
787.659	267.25
787.917	263.25
788.175	304.25
788.433	281.25
788.691	282.25
788.949	283.25
789.207	299.25
789.465	257.25
789.723	274.25
789.98	249.25
790.238	313.25
790.496	298.25
790.753	294.25
791.011	363.25
791.268	315.25
791.526	300.25
791.783	340.25
792.041	323.25
792.298	255.25
792.556	322.25
792.813	302.25
793.07	296.25
793.327	297.25
793.584	374.25
793.841	300.25
794.099	329.25
794.356	380.25
794.613	292.25
794.869	321.25
795.126	299.25
795.383	287.25
795.64	306.25
795.897	273.25
796.153	329.25
796.41	300.25
796.667	287.25
796.923	302.25
797.18	297.25
797.436	322.25
797.693	289.25
797.949	340.25
798.206	360.25
798.462	268.25
798.718	323.25
798.974	313.25
799.231	347.25
799.487	322.25
799.743	331.25
799.999	340.25
800.255	332.25
800.511	300.25
800.767	332.25
801.023	303.25
801.279	318.25
801.534	335.25
801.79	331.25
802.046	307.25
802.302	352.25
802.557	330.25
802.813	352.25
803.068	285.25
803.324	332.25
803.579	308.25
803.835	280.25
804.09	341.25
804.345	295.25
804.601	265.25
804.856	298.25
805.111	330.25
805.366	310.25
805.621	322.25
805.876	342.25
806.131	325.25
806.386	301.25
806.641	264.25
806.896	303.25
807.151	381.25
807.406	308.25
807.661	331.25
807.915	323.25
808.17	341.25
808.425	343.25
808.679	276.25
808.934	373.25
809.188	294.25
809.443	343.25
809.697	355.25
809.951	299.25
810.206	299.25
810.46	347.25
810.714	338.25
810.968	363.25
811.223	274.25
811.477	310.25
811.731	347.25
811.985	272.25
812.239	235.25
812.493	281.25
812.747	308.25
813	270.25
813.254	325.25
813.508	340.25
813.762	290.25
814.015	301.25
814.269	322.25
814.522	333.25
814.776	333.25
815.03	333.25
815.283	330.25
815.536	342.25
815.79	335.25
816.043	346.25
816.296	321.25
816.55	309.25
816.803	317.25
817.056	396.25
817.309	330.25
817.562	329.25
817.815	380.25
818.068	279.25
818.321	296.25
818.574	290.25
818.827	335.25
819.079	295.25
819.332	411.25
819.585	335.25
819.838	404.25
820.09	295.25
820.343	366.25
820.595	299.25
820.848	335.25
821.1	357.25
821.353	319.25
821.605	308.25
821.857	371.25
822.11	282.25
822.362	306.25
822.614	281.25
822.866	315.25
823.118	261.25
823.37	378.25
823.622	308.25
823.874	308.25
824.126	360.25
824.378	283.25
824.63	313.25
824.882	330.25
825.134	300.25
825.385	355.25
825.637	317.25
825.888	303.25
826.14	324.25
826.392	296.25
826.643	284.25
826.895	370.25
827.146	319.25
827.397	305.25
827.649	385.25
827.9	291.25
828.151	282.25
828.402	301.25
828.653	329.25
828.905	321.25
829.156	378.25
829.407	289.25
829.658	331.25
829.909	363.25
830.159	335.25
830.41	360.25
830.661	372.25
830.912	332.25
831.162	304.25
831.413	305.25
831.664	346.25
831.914	323.25
832.165	338.25
832.415	337.25
832.666	343.25
832.916	350.25
833.167	299.25
833.417	377.25
833.667	345.25
833.917	331.25
834.168	391.25
834.418	351.25
834.668	316.25
834.918	279.25
835.168	305.25
835.418	253.25
835.668	324.25
835.918	352.25
836.167	337.25
836.417	293.25
836.667	358.25
836.917	372.25
837.166	319.25
837.416	363.25
837.666	371.25
837.915	325.25
838.165	325.25
838.414	317.25
838.663	275.25
838.913	336.25
839.162	299.25
839.411	372.25
839.661	304.25
839.91	326.25
840.159	316.25
840.408	332.25
840.657	320.25
840.906	332.25
841.155	365.25
841.404	315.25
841.653	336.25
841.902	309.25
842.15	348.25
842.399	353.25
842.648	320.25
842.897	347.25
843.145	285.25
843.394	300.25
843.642	311.25
843.891	356.25
844.139	345.25
844.388	284.25
844.636	259.25
844.884	317.25
845.133	292.25
845.381	325.25
845.629	360.25
845.877	283.25
846.125	320.25
846.373	328.25
846.621	299.25
846.869	351.25
847.117	321.25
847.365	323.25
847.613	340.25
847.861	340.25
848.108	376.25
848.356	358.25
848.604	309.25
848.851	338.25
849.099	327.25
849.346	323.25
849.594	339.25
849.841	345.25
850.089	303.25
850.336	293.25
850.583	304.25
850.831	324.25
851.078	341.25
851.325	298.25
851.572	354.25
851.819	366.25
852.066	328.25
852.313	311.25
852.56	292.25
852.807	287.25
853.054	293.25
853.301	306.25
853.548	309.25
853.794	404.25
854.041	333.25
854.288	287.25
854.534	408.25
854.781	312.25
855.028	308.25
855.274	392.25
855.52	320.25
855.767	299.25
856.013	349.25
856.26	625.25
856.506	319.25
856.752	366.25
856.998	330.25
857.244	299.25
857.49	337.25
857.736	344.25
857.982	348.25
858.228	365.25
858.474	290.25
858.72	340.25
858.966	345.25
859.212	333.25
859.458	342.25
859.703	336.25
859.949	313.25
860.195	374.25
860.44	347.25
860.686	314.25
860.931	375.25
861.177	314.25
861.422	372.25
861.667	329.25
861.913	331.25
862.158	327.25
862.403	373.25
862.648	362.25
862.893	372.25
863.138	335.25
863.384	318.25
863.629	367.25
863.873	357.25
864.118	333.25
864.363	268.25
864.608	345.25
864.853	366.25
865.098	326.25
865.342	344.25
865.587	338.25
865.832	373.25
866.076	347.25
866.321	319.25
866.565	328.25
866.81	270.25
867.054	328.25
867.298	355.25
867.543	314.25
867.787	370.25
868.031	338.25
868.275	345.25
868.519	326.25
868.764	340.25
869.008	333.25
869.252	376.25
869.496	332.25
869.739	349.25
869.983	382.25
870.227	374.25
870.471	320.25
870.715	350.25
870.958	341.25
871.202	316.25
871.446	338.25
871.689	303.25
871.933	326.25
872.176	343.25
872.42	325.25
872.663	316.25
872.906	375.25
873.15	338.25
873.393	289.25
873.636	382.25
873.879	367.25
874.122	389.25
874.366	342.25
874.609	369.25
874.852	340.25
875.095	342.25
875.337	329.25
875.58	273.25
875.823	339.25
876.066	374.25
876.309	408.25
876.551	310.25
876.794	298.25
877.037	379.25
877.279	308.25
877.522	314.25
877.764	366.25
878.007	308.25
878.249	348.25
878.491	308.25
878.734	372.25
878.976	360.25
879.218	302.25
879.46	388.25
879.702	371.25
879.945	363.25
880.187	334.25
880.429	377.25
880.671	364.25
880.912	383.25
881.154	363.25
881.396	293.25
881.638	355.25
881.88	356.25
882.121	306.25
882.363	337.25
882.605	393.25
882.846	346.25
883.088	376.25
883.329	325.25
883.571	292.25
883.812	309.25
884.053	319.25
884.295	333.25
884.536	399.25
884.777	323.25
885.018	358.25
885.259	353.25
885.5	300.25
885.742	511.25
885.982	359.25
886.223	310.25
886.464	333.25
886.705	301.25
886.946	338.25
887.187	279.25
887.428	367.25
887.668	331.25
887.909	318.25
888.15	295.25
888.39	369.25
888.631	405.25
888.871	382.25
889.111	360.25
889.352	357.25
889.592	328.25
889.833	343.25
890.073	337.25
890.313	401.25
890.553	312.25
890.793	340.25
891.033	329.25
891.273	330.25
891.513	350.25
891.753	405.25
891.993	339.25
892.233	373.25
892.473	423.25
892.713	353.25
892.952	320.25
893.192	368.25
893.432	321.25
893.671	370.25
893.911	338.25
894.15	338.25
894.39	281.25
894.629	326.25
894.869	373.25
895.108	353.25
895.347	325.25
895.587	374.25
895.826	323.25
896.065	296.25
896.304	371.25
896.543	388.25
896.782	285.25
897.021	363.25
897.26	340.25
897.499	394.25
897.738	407.25
897.977	365.25
898.216	346.25
898.454	339.25
898.693	331.25
898.932	386.25
899.17	374.25
899.409	354.25
899.647	348.25
899.886	329.25
900.124	369.25
900.363	324.25
900.601	355.25
900.839	352.25
901.078	351.25
901.316	347.25
901.554	349.25
901.792	364.25
902.03	312.25
902.268	336.25
902.506	382.25
902.744	347.25
902.982	378.25
903.22	318.25
903.458	349.25
903.695	386.25
903.933	379.25
904.171	327.25
904.409	342.25
904.646	396.25
904.884	345.25
905.121	414.25
905.359	387.25
905.596	381.25
905.833	344.25
906.071	334.25
906.308	408.25
906.545	359.25
906.783	312.25
907.02	341.25
907.257	310.25
907.494	341.25
907.731	358.25
907.968	386.25
908.205	334.25
908.442	338.25
908.679	364.25
908.915	349.25
909.152	355.25
909.389	308.25
909.626	339.25
909.862	326.25
910.099	371.25
910.335	398.25
910.572	306.25
910.808	360.25
911.045	351.25
911.281	327.25
911.518	412.25
911.754	351.25
911.99	365.25
912.226	351.25
912.463	328.25
912.699	342.25
912.935	353.25
913.171	356.25
913.407	336.25
913.643	377.25
913.879	375.25
914.114	364.25
914.35	330.25
914.586	360.25
914.822	331.25
915.057	443.25
915.293	314.25
915.529	319.25
915.764	407.25
916	384.25
916.235	382.25
916.471	399.25
916.706	325.25
916.941	351.25
917.177	335.25
917.412	384.25
917.647	399.25
917.882	334.25
918.117	386.25
918.352	396.25
918.588	418.25
918.823	364.25
919.057	373.25
919.292	296.25
919.527	436.25
919.762	357.25
919.997	429.25
920.232	373.25
920.466	425.25
920.701	331.25
920.935	376.25
921.17	369.25
921.405	338.25
921.639	403.25
921.873	381.25
922.108	399.25
922.342	404.25
922.576	346.25
922.811	345.25
923.045	391.25
923.279	432.25
923.513	296.25
923.747	404.25
923.981	394.25
924.215	373.25
924.449	383.25
924.683	326.25
924.917	364.25
925.151	350.25
925.385	434.25
925.618	374.25
925.852	394.25
926.086	317.25
926.319	388.25
926.553	374.25
926.786	378.25
927.02	380.25
927.253	419.25
927.486	409.25
927.72	351.25
927.953	409.25
928.186	365.25
928.42	418.25
928.653	347.25
928.886	346.25
929.119	397.25
929.352	385.25
929.585	393.25
929.818	365.25
930.051	396.25
930.284	417.25
930.516	337.25
930.749	358.25
930.982	411.25
931.215	408.25
931.447	335.25
931.68	369.25
931.912	356.25
932.145	370.25
932.377	382.25
932.61	499.25
932.842	320.25
933.074	400.25
933.307	341.25
933.539	429.25
933.771	416.25
934.003	369.25
934.236	437.25
934.468	454.25
934.7	373.25
934.932	423.25
935.164	358.25
935.395	353.25
935.627	405.25
935.859	395.25
936.091	350.25
936.323	400.25
936.554	453.25
936.786	380.25
937.017	353.25
937.249	396.25
937.481	324.25
937.712	412.25
937.943	387.25
938.175	370.25
938.406	373.25
938.637	436.25
938.869	335.25
939.1	417.25
939.331	373.25
939.562	407.25
939.793	391.25
940.024	424.25
940.255	456.25
940.486	403.25
940.717	404.25
940.948	395.25
941.179	370.25
941.409	390.25
941.64	372.25
941.871	411.25
942.102	366.25
942.332	367.25
942.563	417.25
942.793	393.25
943.024	337.25
943.254	376.25
943.484	421.25
943.715	432.25
943.945	407.25
944.175	345.25
944.405	321.25
944.636	346.25
944.866	385.25
945.096	409.25
945.326	329.25
945.556	397.25
945.786	415.25
946.016	387.25
946.245	362.25
946.475	370.25
946.705	375.25
946.935	401.25
947.164	395.25
947.394	374.25
947.624	387.25
947.853	445.25
948.083	408.25
948.312	375.25
948.542	346.25
948.771	341.25
949	361.25
949.23	366.25
949.459	376.25
949.688	435.25
949.917	392.25
950.146	416.25
950.375	454.25
950.604	356.25
950.833	449.25
951.062	465.25
951.291	389.25
951.52	371.25
951.749	394.25
951.978	364.25
952.206	382.25
952.435	383.25
952.664	422.25
952.892	439.25
953.121	424.25
953.349	440.25
953.578	445.25
953.806	403.25
954.035	369.25
954.263	413.25
954.491	366.25
954.719	432.25
954.948	385.25
955.176	376.25
955.404	333.25
955.632	403.25
955.86	417.25
956.088	413.25
956.316	422.25
956.544	467.25
956.772	408.25
956.999	406.25
957.227	491.25
957.455	396.25
957.683	434.25
957.91	389.25
958.138	392.25
958.365	415.25
958.593	407.25
958.82	359.25
959.048	446.25
959.275	422.25
959.502	420.25
959.73	383.25
959.957	443.25
960.184	445.25
960.411	388.25
960.638	480.25
960.865	430.25
961.092	461.25
961.319	364.25
961.546	450.25
961.773	450.25
962	415.25
962.227	470.25
962.454	423.25
962.68	421.25
962.907	436.25
963.134	406.25
963.36	458.25
963.587	494.25
963.813	421.25
964.04	480.25
964.266	411.25
964.493	497.25
964.719	489.25
964.945	501.25
965.171	402.25
965.398	467.25
965.624	507.25
965.85	414.25
966.076	427.25
966.302	492.25
966.528	448.25
966.754	472.25
966.98	483.25
967.206	485.25
967.431	415.25
967.657	507.25
967.883	484.25
968.109	485.25
968.334	439.25
968.56	421.25
968.785	449.25
969.011	414.25
969.236	473.25
969.462	416.25
969.687	446.25
969.912	491.25
970.138	498.25
970.363	439.25
970.588	473.25
970.813	451.25
971.038	435.25
971.263	473.25
971.488	480.25
971.713	513.25
971.938	496.25
972.163	420.25
972.388	457.25
972.613	449.25
972.838	468.25
973.062	455.25
973.287	459.25
973.512	410.25
973.736	469.25
973.961	445.25
974.185	443.25
974.41	474.25
974.634	400.25
974.858	426.25
975.083	483.25
975.307	491.25
975.531	449.25
975.755	412.25
975.98	437.25
976.204	385.25
976.428	381.25
976.652	392.25
976.876	403.25
977.1	436.25
977.324	405.25
977.547	446.25
977.771	465.25
977.995	429.25
978.219	385.25
978.442	519.25
978.666	444.25
978.89	461.25
979.113	450.25
979.337	453.25
979.56	423.25
979.783	506.25
980.007	401.25
980.23	447.25
980.453	422.25
980.677	472.25
980.9	454.25
981.123	373.25
981.346	458.25
981.569	476.25
981.792	494.25
982.015	453.25
982.238	433.25
982.461	462.25
982.684	439.25
982.907	418.25
983.129	425.25
983.352	489.25
983.575	463.25
983.797	481.25
984.02	431.25
984.242	442.25
984.465	469.25
984.687	497.25
984.91	523.25
985.132	488.25
985.354	509.25
985.577	490.25
985.799	481.25
986.021	423.25
986.243	455.25
986.465	474.25
986.687	534.25
986.909	558.25
987.131	507.25
987.353	464.25
987.575	500.25
987.797	472.25
988.019	429.25
988.241	485.25
988.462	443.25
988.684	529.25
988.906	530.25
989.127	556.25
989.349	458.25
989.57	491.25
989.792	531.25
990.013	552.25
990.234	554.25
990.456	582.25
990.677	557.25
990.898	517.25
991.119	512.25
991.341	544.25
991.562	492.25
991.783	547.25
992.004	476.25
992.225	462.25
992.446	532.25
992.667	452.25
992.887	544.25
993.108	432.25
993.329	584.25
993.55	531.25
993.77	495.25
993.991	492.25
994.212	545.25
994.432	514.25
994.653	549.25
994.873	542.25
995.093	427.25
995.314	488.25
995.534	559.25
995.754	583.25
995.975	592.25
996.195	504.25
996.415	550.25
996.635	524.25
996.855	551.25
997.075	520.25
997.295	518.25
997.515	503.25
997.735	560.25
997.955	537.25
998.174	532.25
998.394	503.25
998.614	545.25
998.834	510.25
999.053	593.25
999.273	576.25
999.492	620.25
999.712	566.25
999.931	525.25
1000.151	568.25
1000.37	567.25
1000.589	638.25
1000.809	563.25
1001.028	678.25
1001.247	626.25
1001.466	538.25
1001.685	678.25
1001.904	630.25
1002.123	622.25
1002.342	635.25
1002.561	593.25
1002.78	632.25
1002.999	711.25
1003.218	648.25
1003.436	622.25
1003.655	676.25
1003.874	603.25
1004.092	658.25
1004.311	693.25
1004.53	650.25
1004.748	745.25
1004.966	657.25
1005.185	710.25
1005.403	700.25
1005.622	674.25
1005.84	748.25
1006.058	654.25
1006.276	698.25
1006.494	1172.25
1006.712	694.25
1006.931	746.25
1007.149	644.25
1007.367	657.25
1007.584	674.25
1007.802	728.25
1008.02	656.25
1008.238	759.25
1008.456	741.25
1008.673	569.25
1008.891	677.25
1009.109	641.25
1009.326	654.25
1009.544	736.25
1009.761	599.25
1009.979	669.25
1010.196	620.25
1010.413	653.25
1010.631	661.25
1010.848	657.25
1011.065	665.25
1011.282	615.25
1011.5	560.25
1011.717	671.25
1011.934	632.25
1012.151	651.25
1012.368	633.25
1012.585	590.25
1012.801	652.25
1013.018	615.25
1013.235	592.25
1013.452	596.25
1013.669	606.25
1013.885	574.25
1014.102	604.25
1014.318	577.25
1014.535	523.25
1014.751	555.25
1014.968	564.25
1015.184	609.25
1015.401	529.25
1015.617	583.25
1015.833	522.25
1016.049	554.25
1016.266	536.25
1016.482	552.25
1016.698	490.25
1016.914	558.25
1017.13	511.25
1017.346	508.25
1017.562	582.25
1017.778	501.25
1017.993	485.25
1018.209	551.25
1018.425	537.25
1018.641	497.25
1018.856	468.25
1019.072	502.25
1019.288	552.25
1019.503	501.25
1019.719	428.25
1019.934	451.25
1020.149	551.25
1020.365	492.25
1020.58	471.25
1020.795	530.25
1021.011	487.25
1021.226	490.25
1021.441	547.25
1021.656	486.25
1021.871	446.25
1022.086	468.25
1022.301	482.25
1022.516	479.25
1022.731	531.25
1022.946	467.25
1023.16	463.25
1023.375	442.25
1023.59	449.25
1023.804	428.25
1024.019	528.25
1024.234	438.25
1024.448	485.25
1024.663	412.25
1024.877	436.25
1025.092	467.25
1025.306	489.25
1025.52	420.25
1025.734	495.25
1025.949	454.25
1026.163	424.25
1026.377	395.25
1026.591	458.25
1026.805	386.25
1027.019	403.25
1027.233	371.25
1027.447	308.25
1027.661	420.25
1027.875	390.25
1028.088	394.25
1028.302	336.25
1028.516	341.25
1028.73	353.25
1028.943	354.25
1029.157	336.25
1029.37	305.25
1029.584	3.25
1029.797	-2.75
1030.011	-1.75
1030.224	-2.75
