Data from QEP037381__2__10-12-31-053.txt Node

Date: Fri Apr 21 10:12:31 EDT 2023
User: dcclab
Spectrometer: QEP03738
Trigger mode: 4
Integration Time (sec): 1.000000E1
Scans to average: 1
Electric dark correction enabled: true
Nonlinearity correction enabled: false
Boxcar width: 0
XAxis mode: Wavelengths
Number of Pixels in Spectrum: 1044
>>>>>Begin Spectral Data<<<<<
784.041	11.62
784.3	-1.38
784.558	-2.38
784.817	-3.38
785.075	249.62
785.334	219.62
785.592	220.62
785.851	205.62
786.109	230.62
786.368	240.62
786.626	263.62
786.884	282.62
787.143	271.62
787.401	215.62
787.659	281.62
787.917	260.62
788.175	305.62
788.433	278.62
788.691	272.62
788.949	282.62
789.207	303.62
789.465	249.62
789.723	271.62
789.98	256.62
790.238	327.62
790.496	300.62
790.753	296.62
791.011	365.62
791.268	305.62
791.526	310.62
791.783	319.62
792.041	335.62
792.298	254.62
792.556	325.62
792.813	319.62
793.07	303.62
793.327	292.62
793.584	376.62
793.841	302.62
794.099	322.62
794.356	378.62
794.613	301.62
794.869	331.62
795.126	297.62
795.383	287.62
795.64	309.62
795.897	254.62
796.153	329.62
796.41	314.62
796.667	294.62
796.923	296.62
797.18	298.62
797.436	326.62
797.693	290.62
797.949	341.62
798.206	361.62
798.462	276.62
798.718	324.62
798.974	297.62
799.231	339.62
799.487	325.62
799.743	325.62
799.999	345.62
800.255	333.62
800.511	301.62
800.767	331.62
801.023	313.62
801.279	313.62
801.534	332.62
801.79	352.62
802.046	304.62
802.302	349.62
802.557	330.62
802.813	340.62
803.068	284.62
803.324	348.62
803.579	308.62
803.835	286.62
804.09	351.62
804.345	297.62
804.601	270.62
804.856	301.62
805.111	335.62
805.366	300.62
805.621	326.62
805.876	343.62
806.131	333.62
806.386	312.62
806.641	279.62
806.896	314.62
807.151	381.62
807.406	325.62
807.661	342.62
807.915	324.62
808.17	357.62
808.425	337.62
808.679	290.62
808.934	382.62
809.188	305.62
809.443	337.62
809.697	377.62
809.951	304.62
810.206	316.62
810.46	360.62
810.714	334.62
810.968	362.62
811.223	295.62
811.477	327.62
811.731	353.62
811.985	280.62
812.239	254.62
812.493	294.62
812.747	323.62
813	279.62
813.254	338.62
813.508	355.62
813.762	307.62
814.015	315.62
814.269	329.62
814.522	350.62
814.776	348.62
815.03	356.62
815.283	333.62
815.536	340.62
815.79	343.62
816.043	342.62
816.296	342.62
816.55	332.62
816.803	321.62
817.056	406.62
817.309	339.62
817.562	324.62
817.815	385.62
818.068	284.62
818.321	297.62
818.574	304.62
818.827	348.62
819.079	299.62
819.332	412.62
819.585	345.62
819.838	400.62
820.09	304.62
820.343	367.62
820.595	297.62
820.848	345.62
821.1	360.62
821.353	325.62
821.605	332.62
821.857	390.62
822.11	283.62
822.362	308.62
822.614	284.62
822.866	327.62
823.118	270.62
823.37	379.62
823.622	334.62
823.874	322.62
824.126	357.62
824.378	298.62
824.63	324.62
824.882	339.62
825.134	318.62
825.385	344.62
825.637	338.62
825.888	324.62
826.14	347.62
826.392	296.62
826.643	299.62
826.895	382.62
827.146	318.62
827.397	310.62
827.649	387.62
827.9	315.62
828.151	291.62
828.402	285.62
828.653	338.62
828.905	336.62
829.156	371.62
829.407	289.62
829.658	325.62
829.909	362.62
830.159	347.62
830.41	365.62
830.661	368.62
830.912	343.62
831.162	329.62
831.413	321.62
831.664	358.62
831.914	328.62
832.165	333.62
832.415	341.62
832.666	353.62
832.916	356.62
833.167	309.62
833.417	383.62
833.667	354.62
833.917	344.62
834.168	390.62
834.418	347.62
834.668	328.62
834.918	290.62
835.168	308.62
835.418	258.62
835.668	324.62
835.918	370.62
836.167	350.62
836.417	310.62
836.667	370.62
836.917	388.62
837.166	327.62
837.416	373.62
837.666	364.62
837.915	340.62
838.165	349.62
838.414	303.62
838.663	276.62
838.913	342.62
839.162	302.62
839.411	383.62
839.661	335.62
839.91	329.62
840.159	331.62
840.408	344.62
840.657	322.62
840.906	327.62
841.155	371.62
841.404	319.62
841.653	343.62
841.902	310.62
842.15	343.62
842.399	355.62
842.648	313.62
842.897	359.62
843.145	283.62
843.394	313.62
843.642	315.62
843.891	370.62
844.139	342.62
844.388	298.62
844.636	280.62
844.884	318.62
845.133	296.62
845.381	323.62
845.629	361.62
845.877	294.62
846.125	310.62
846.373	339.62
846.621	301.62
846.869	357.62
847.117	345.62
847.365	319.62
847.613	359.62
847.861	357.62
848.108	380.62
848.356	353.62
848.604	314.62
848.851	335.62
849.099	350.62
849.346	322.62
849.594	346.62
849.841	363.62
850.089	308.62
850.336	288.62
850.583	315.62
850.831	344.62
851.078	342.62
851.325	311.62
851.572	378.62
851.819	357.62
852.066	333.62
852.313	337.62
852.56	300.62
852.807	295.62
853.054	291.62
853.301	326.62
853.548	325.62
853.794	400.62
854.041	336.62
854.288	278.62
854.534	398.62
854.781	327.62
855.028	302.62
855.274	396.62
855.52	340.62
855.767	313.62
856.013	347.62
856.26	644.62
856.506	312.62
856.752	367.62
856.998	346.62
857.244	312.62
857.49	352.62
857.736	348.62
857.982	364.62
858.228	357.62
858.474	288.62
858.72	334.62
858.966	353.62
859.212	335.62
859.458	343.62
859.703	355.62
859.949	323.62
860.195	373.62
860.44	369.62
860.686	325.62
860.931	397.62
861.177	312.62
861.422	384.62
861.667	321.62
861.913	334.62
862.158	338.62
862.403	371.62
862.648	366.62
862.893	389.62
863.138	350.62
863.384	312.62
863.629	374.62
863.873	352.62
864.118	337.62
864.363	283.62
864.608	351.62
864.853	373.62
865.098	345.62
865.342	363.62
865.587	345.62
865.832	376.62
866.076	354.62
866.321	333.62
866.565	335.62
866.81	289.62
867.054	335.62
867.298	345.62
867.543	299.62
867.787	364.62
868.031	356.62
868.275	347.62
868.519	325.62
868.764	351.62
869.008	338.62
869.252	383.62
869.496	337.62
869.739	351.62
869.983	383.62
870.227	371.62
870.471	316.62
870.715	359.62
870.958	360.62
871.202	319.62
871.446	337.62
871.689	315.62
871.933	350.62
872.176	351.62
872.42	329.62
872.663	332.62
872.906	387.62
873.15	341.62
873.393	291.62
873.636	372.62
873.879	368.62
874.122	411.62
874.366	335.62
874.609	376.62
874.852	342.62
875.095	355.62
875.337	336.62
875.58	272.62
875.823	347.62
876.066	383.62
876.309	404.62
876.551	319.62
876.794	301.62
877.037	371.62
877.279	305.62
877.522	320.62
877.764	358.62
878.007	314.62
878.249	345.62
878.491	313.62
878.734	374.62
878.976	351.62
879.218	318.62
879.46	403.62
879.702	370.62
879.945	364.62
880.187	340.62
880.429	370.62
880.671	369.62
880.912	388.62
881.154	374.62
881.396	283.62
881.638	361.62
881.88	361.62
882.121	332.62
882.363	323.62
882.605	395.62
882.846	357.62
883.088	380.62
883.329	333.62
883.571	305.62
883.812	316.62
884.053	345.62
884.295	336.62
884.536	412.62
884.777	337.62
885.018	352.62
885.259	362.62
885.5	297.62
885.742	524.62
885.982	354.62
886.223	322.62
886.464	342.62
886.705	306.62
886.946	357.62
887.187	293.62
887.428	393.62
887.668	320.62
887.909	315.62
888.15	312.62
888.39	381.62
888.631	420.62
888.871	372.62
889.111	368.62
889.352	370.62
889.592	346.62
889.833	344.62
890.073	364.62
890.313	426.62
890.553	312.62
890.793	363.62
891.033	321.62
891.273	328.62
891.513	368.62
891.753	412.62
891.993	349.62
892.233	367.62
892.473	439.62
892.713	363.62
892.952	337.62
893.192	349.62
893.432	328.62
893.671	374.62
893.911	351.62
894.15	348.62
894.39	291.62
894.629	343.62
894.869	374.62
895.108	365.62
895.347	328.62
895.587	372.62
895.826	327.62
896.065	322.62
896.304	371.62
896.543	390.62
896.782	293.62
897.021	362.62
897.26	344.62
897.499	402.62
897.738	413.62
897.977	353.62
898.216	348.62
898.454	344.62
898.693	325.62
898.932	384.62
899.17	350.62
899.409	357.62
899.647	365.62
899.886	338.62
900.124	358.62
900.363	319.62
900.601	367.62
900.839	361.62
901.078	352.62
901.316	353.62
901.554	338.62
901.792	377.62
902.03	317.62
902.268	352.62
902.506	388.62
902.744	336.62
902.982	385.62
903.22	329.62
903.458	344.62
903.695	381.62
903.933	377.62
904.171	330.62
904.409	344.62
904.646	384.62
904.884	348.62
905.121	419.62
905.359	383.62
905.596	386.62
905.833	336.62
906.071	349.62
906.308	411.62
906.545	375.62
906.783	319.62
907.02	349.62
907.257	317.62
907.494	339.62
907.731	369.62
907.968	397.62
908.205	350.62
908.442	347.62
908.679	375.62
908.915	365.62
909.152	370.62
909.389	301.62
909.626	346.62
909.862	332.62
910.099	356.62
910.335	410.62
910.572	307.62
910.808	373.62
911.045	335.62
911.281	327.62
911.518	420.62
911.754	357.62
911.99	371.62
912.226	354.62
912.463	320.62
912.699	352.62
912.935	356.62
913.171	340.62
913.407	335.62
913.643	400.62
913.879	373.62
914.114	373.62
914.35	348.62
914.586	375.62
914.822	338.62
915.057	441.62
915.293	316.62
915.529	327.62
915.764	407.62
916	384.62
916.235	392.62
916.471	406.62
916.706	317.62
916.941	357.62
917.177	348.62
917.412	390.62
917.647	393.62
917.882	334.62
918.117	422.62
918.352	376.62
918.588	426.62
918.823	356.62
919.057	373.62
919.292	291.62
919.527	421.62
919.762	358.62
919.997	435.62
920.232	381.62
920.466	428.62
920.701	319.62
920.935	387.62
921.17	364.62
921.405	341.62
921.639	399.62
921.873	382.62
922.108	395.62
922.342	397.62
922.576	346.62
922.811	345.62
923.045	408.62
923.279	429.62
923.513	311.62
923.747	407.62
923.981	388.62
924.215	358.62
924.449	374.62
924.683	340.62
924.917	361.62
925.151	350.62
925.385	442.62
925.618	397.62
925.852	404.62
926.086	335.62
926.319	395.62
926.553	376.62
926.786	397.62
927.02	381.62
927.253	419.62
927.486	413.62
927.72	344.62
927.953	437.62
928.186	369.62
928.42	411.62
928.653	355.62
928.886	342.62
929.119	392.62
929.352	382.62
929.585	388.62
929.818	354.62
930.051	401.62
930.284	417.62
930.516	327.62
930.749	375.62
930.982	403.62
931.215	412.62
931.447	350.62
931.68	381.62
931.912	360.62
932.145	370.62
932.377	388.62
932.61	499.62
932.842	325.62
933.074	380.62
933.307	348.62
933.539	432.62
933.771	425.62
934.003	371.62
934.236	443.62
934.468	456.62
934.7	385.62
934.932	431.62
935.164	372.62
935.395	359.62
935.627	378.62
935.859	404.62
936.091	352.62
936.323	413.62
936.554	435.62
936.786	393.62
937.017	346.62
937.249	394.62
937.481	318.62
937.712	404.62
937.943	376.62
938.175	386.62
938.406	371.62
938.637	441.62
938.869	352.62
939.1	413.62
939.331	366.62
939.562	404.62
939.793	397.62
940.024	466.62
940.255	434.62
940.486	402.62
940.717	390.62
940.948	387.62
941.179	361.62
941.409	394.62
941.64	370.62
941.871	402.62
942.102	371.62
942.332	370.62
942.563	416.62
942.793	385.62
943.024	342.62
943.254	376.62
943.484	421.62
943.715	451.62
943.945	411.62
944.175	339.62
944.405	331.62
944.636	348.62
944.866	388.62
945.096	411.62
945.326	337.62
945.556	397.62
945.786	421.62
946.016	384.62
946.245	353.62
946.475	370.62
946.705	375.62
946.935	398.62
947.164	409.62
947.394	375.62
947.624	394.62
947.853	435.62
948.083	410.62
948.312	385.62
948.542	338.62
948.771	340.62
949	350.62
949.23	356.62
949.459	395.62
949.688	433.62
949.917	392.62
950.146	404.62
950.375	460.62
950.604	349.62
950.833	449.62
951.062	451.62
951.291	401.62
951.52	373.62
951.749	406.62
951.978	356.62
952.206	373.62
952.435	382.62
952.664	422.62
952.892	436.62
953.121	413.62
953.349	449.62
953.578	433.62
953.806	426.62
954.035	379.62
954.263	427.62
954.491	353.62
954.719	432.62
954.948	382.62
955.176	399.62
955.404	331.62
955.632	411.62
955.86	414.62
956.088	415.62
956.316	429.62
956.544	471.62
956.772	402.62
956.999	403.62
957.227	485.62
957.455	406.62
957.683	432.62
957.91	382.62
958.138	390.62
958.365	415.62
958.593	405.62
958.82	364.62
959.048	442.62
959.275	419.62
959.502	417.62
959.73	393.62
959.957	423.62
960.184	452.62
960.411	392.62
960.638	480.62
960.865	420.62
961.092	459.62
961.319	369.62
961.546	453.62
961.773	467.62
962	421.62
962.227	465.62
962.454	440.62
962.68	423.62
962.907	452.62
963.134	422.62
963.36	447.62
963.587	486.62
963.813	414.62
964.04	455.62
964.266	419.62
964.493	503.62
964.719	483.62
964.945	491.62
965.171	406.62
965.398	470.62
965.624	487.62
965.85	429.62
966.076	419.62
966.302	483.62
966.528	453.62
966.754	484.62
966.98	488.62
967.206	489.62
967.431	400.62
967.657	512.62
967.883	483.62
968.109	479.62
968.334	433.62
968.56	430.62
968.785	456.62
969.011	426.62
969.236	476.62
969.462	416.62
969.687	465.62
969.912	487.62
970.138	516.62
970.363	434.62
970.588	480.62
970.813	445.62
971.038	440.62
971.263	481.62
971.488	483.62
971.713	530.62
971.938	512.62
972.163	422.62
972.388	456.62
972.613	431.62
972.838	472.62
973.062	456.62
973.287	444.62
973.512	401.62
973.736	467.62
973.961	454.62
974.185	434.62
974.41	476.62
974.634	398.62
974.858	420.62
975.083	478.62
975.307	504.62
975.531	432.62
975.755	397.62
975.98	435.62
976.204	396.62
976.428	405.62
976.652	411.62
976.876	395.62
977.1	439.62
977.324	389.62
977.547	459.62
977.771	474.62
977.995	436.62
978.219	385.62
978.442	516.62
978.666	441.62
978.89	453.62
979.113	445.62
979.337	440.62
979.56	411.62
979.783	499.62
980.007	406.62
980.23	441.62
980.453	418.62
980.677	453.62
980.9	458.62
981.123	378.62
981.346	475.62
981.569	472.62
981.792	484.62
982.015	451.62
982.238	438.62
982.461	463.62
982.684	442.62
982.907	425.62
983.129	406.62
983.352	482.62
983.575	469.62
983.797	473.62
984.02	448.62
984.242	450.62
984.465	470.62
984.687	491.62
984.91	519.62
985.132	496.62
985.354	519.62
985.577	509.62
985.799	491.62
986.021	418.62
986.243	438.62
986.465	461.62
986.687	506.62
986.909	566.62
987.131	495.62
987.353	471.62
987.575	502.62
987.797	473.62
988.019	417.62
988.241	482.62
988.462	443.62
988.684	515.62
988.906	548.62
989.127	568.62
989.349	451.62
989.57	499.62
989.792	542.62
990.013	543.62
990.234	554.62
990.456	576.62
990.677	568.62
990.898	497.62
991.119	516.62
991.341	546.62
991.562	487.62
991.783	541.62
992.004	488.62
992.225	466.62
992.446	530.62
992.667	457.62
992.887	543.62
993.108	434.62
993.329	590.62
993.55	524.62
993.77	481.62
993.991	499.62
994.212	541.62
994.432	528.62
994.653	547.62
994.873	528.62
995.093	446.62
995.314	495.62
995.534	564.62
995.754	576.62
995.975	599.62
996.195	500.62
996.415	561.62
996.635	539.62
996.855	563.62
997.075	530.62
997.295	519.62
997.515	516.62
997.735	567.62
997.955	529.62
998.174	540.62
998.394	495.62
998.614	556.62
998.834	523.62
999.053	587.62
999.273	566.62
999.492	608.62
999.712	564.62
999.931	537.62
1000.151	591.62
1000.37	580.62
1000.589	629.62
1000.809	576.62
1001.028	689.62
1001.247	639.62
1001.466	538.62
1001.685	676.62
1001.904	637.62
1002.123	613.62
1002.342	636.62
1002.561	596.62
1002.78	644.62
1002.999	698.62
1003.218	646.62
1003.436	628.62
1003.655	664.62
1003.874	620.62
1004.092	642.62
1004.311	686.62
1004.53	666.62
1004.748	731.62
1004.966	666.62
1005.185	731.62
1005.403	708.62
1005.622	680.62
1005.84	740.62
1006.058	652.62
1006.276	683.62
1006.494	1164.62
1006.712	676.62
1006.931	734.62
1007.149	640.62
1007.367	651.62
1007.584	676.62
1007.802	709.62
1008.02	653.62
1008.238	737.62
1008.456	736.62
1008.673	595.62
1008.891	690.62
1009.109	640.62
1009.326	655.62
1009.544	729.62
1009.761	599.62
1009.979	658.62
1010.196	628.62
1010.413	678.62
1010.631	671.62
1010.848	679.62
1011.065	665.62
1011.282	611.62
1011.5	556.62
1011.717	676.62
1011.934	621.62
1012.151	682.62
1012.368	642.62
1012.585	591.62
1012.801	655.62
1013.018	622.62
1013.235	585.62
1013.452	597.62
1013.669	606.62
1013.885	577.62
1014.102	610.62
1014.318	573.62
1014.535	531.62
1014.751	583.62
1014.968	573.62
1015.184	612.62
1015.401	527.62
1015.617	593.62
1015.833	526.62
1016.049	577.62
1016.266	548.62
1016.482	545.62
1016.698	489.62
1016.914	542.62
1017.13	518.62
1017.346	525.62
1017.562	583.62
1017.778	516.62
1017.993	503.62
1018.209	551.62
1018.425	533.62
1018.641	505.62
1018.856	459.62
1019.072	512.62
1019.288	556.62
1019.503	505.62
1019.719	432.62
1019.934	456.62
1020.149	543.62
1020.365	483.62
1020.58	464.62
1020.795	531.62
1021.011	493.62
1021.226	508.62
1021.441	552.62
1021.656	495.62
1021.871	436.62
1022.086	474.62
1022.301	479.62
1022.516	489.62
1022.731	550.62
1022.946	458.62
1023.16	475.62
1023.375	455.62
1023.59	452.62
1023.804	430.62
1024.019	529.62
1024.234	424.62
1024.448	477.62
1024.663	414.62
1024.877	449.62
1025.092	484.62
1025.306	493.62
1025.52	417.62
1025.734	519.62
1025.949	440.62
1026.163	443.62
1026.377	389.62
1026.591	441.62
1026.805	376.62
1027.019	376.62
1027.233	364.62
1027.447	317.62
1027.661	425.62
1027.875	387.62
1028.088	392.62
1028.302	332.62
1028.516	340.62
1028.73	361.62
1028.943	357.62
1029.157	330.62
1029.37	307.62
1029.584	-0.38
1029.797	-1.38
1030.011	-1.38
1030.224	-1.38
