Data from QEP037381__16__10-14-51-058.txt Node

Date: Fri Apr 21 10:14:51 EDT 2023
User: dcclab
Spectrometer: QEP03738
Trigger mode: 4
Integration Time (sec): 1.000000E1
Scans to average: 1
Electric dark correction enabled: true
Nonlinearity correction enabled: false
Boxcar width: 0
XAxis mode: Wavelengths
Number of Pixels in Spectrum: 1044
>>>>>Begin Spectral Data<<<<<
784.041	9.62
784.3	0.62
784.558	1.62
784.817	-3.38
785.075	247.62
785.334	214.62
785.592	213.62
785.851	209.62
786.109	236.62
786.368	242.62
786.626	261.62
786.884	269.62
787.143	266.62
787.401	213.62
787.659	278.62
787.917	259.62
788.175	299.62
788.433	277.62
788.691	263.62
788.949	274.62
789.207	300.62
789.465	265.62
789.723	266.62
789.98	263.62
790.238	321.62
790.496	294.62
790.753	287.62
791.011	363.62
791.268	301.62
791.526	306.62
791.783	329.62
792.041	336.62
792.298	227.62
792.556	327.62
792.813	322.62
793.07	300.62
793.327	292.62
793.584	371.62
793.841	291.62
794.099	322.62
794.356	380.62
794.613	289.62
794.869	322.62
795.126	299.62
795.383	291.62
795.64	314.62
795.897	270.62
796.153	317.62
796.41	307.62
796.667	280.62
796.923	302.62
797.18	303.62
797.436	320.62
797.693	300.62
797.949	325.62
798.206	369.62
798.462	274.62
798.718	315.62
798.974	313.62
799.231	334.62
799.487	320.62
799.743	321.62
799.999	353.62
800.255	333.62
800.511	301.62
800.767	354.62
801.023	301.62
801.279	315.62
801.534	318.62
801.79	337.62
802.046	305.62
802.302	362.62
802.557	327.62
802.813	335.62
803.068	296.62
803.324	335.62
803.579	315.62
803.835	301.62
804.09	353.62
804.345	294.62
804.601	268.62
804.856	311.62
805.111	321.62
805.366	311.62
805.621	316.62
805.876	335.62
806.131	328.62
806.386	302.62
806.641	286.62
806.896	310.62
807.151	385.62
807.406	321.62
807.661	338.62
807.915	324.62
808.17	341.62
808.425	325.62
808.679	286.62
808.934	387.62
809.188	311.62
809.443	329.62
809.697	358.62
809.951	304.62
810.206	307.62
810.46	349.62
810.714	346.62
810.968	366.62
811.223	284.62
811.477	319.62
811.731	344.62
811.985	274.62
812.239	249.62
812.493	290.62
812.747	314.62
813	271.62
813.254	336.62
813.508	341.62
813.762	309.62
814.015	296.62
814.269	306.62
814.522	345.62
814.776	344.62
815.03	343.62
815.283	334.62
815.536	349.62
815.79	324.62
816.043	323.62
816.296	331.62
816.55	321.62
816.803	322.62
817.056	398.62
817.309	331.62
817.562	340.62
817.815	377.62
818.068	281.62
818.321	287.62
818.574	289.62
818.827	341.62
819.079	297.62
819.332	422.62
819.585	334.62
819.838	395.62
820.09	319.62
820.343	367.62
820.595	293.62
820.848	334.62
821.1	342.62
821.353	317.62
821.605	319.62
821.857	383.62
822.11	286.62
822.362	289.62
822.614	279.62
822.866	323.62
823.118	270.62
823.37	373.62
823.622	326.62
823.874	305.62
824.126	355.62
824.378	288.62
824.63	318.62
824.882	332.62
825.134	316.62
825.385	352.62
825.637	335.62
825.888	308.62
826.14	335.62
826.392	295.62
826.643	295.62
826.895	378.62
827.146	312.62
827.397	297.62
827.649	385.62
827.9	302.62
828.151	276.62
828.402	290.62
828.653	338.62
828.905	325.62
829.156	370.62
829.407	290.62
829.658	318.62
829.909	356.62
830.159	341.62
830.41	341.62
830.661	357.62
830.912	332.62
831.162	318.62
831.413	317.62
831.664	354.62
831.914	326.62
832.165	350.62
832.415	341.62
832.666	333.62
832.916	349.62
833.167	308.62
833.417	384.62
833.667	357.62
833.917	339.62
834.168	400.62
834.418	358.62
834.668	328.62
834.918	290.62
835.168	314.62
835.418	266.62
835.668	336.62
835.918	358.62
836.167	338.62
836.417	310.62
836.667	372.62
836.917	364.62
837.166	331.62
837.416	366.62
837.666	356.62
837.915	317.62
838.165	329.62
838.414	301.62
838.663	275.62
838.913	331.62
839.162	318.62
839.411	379.62
839.661	306.62
839.91	330.62
840.159	315.62
840.408	335.62
840.657	331.62
840.906	340.62
841.155	359.62
841.404	326.62
841.653	349.62
841.902	304.62
842.15	324.62
842.399	352.62
842.648	326.62
842.897	357.62
843.145	274.62
843.394	307.62
843.642	312.62
843.891	374.62
844.139	340.62
844.388	301.62
844.636	269.62
844.884	323.62
845.133	304.62
845.381	319.62
845.629	342.62
845.877	307.62
846.125	312.62
846.373	329.62
846.621	311.62
846.869	355.62
847.117	336.62
847.365	333.62
847.613	351.62
847.861	343.62
848.108	377.62
848.356	348.62
848.604	307.62
848.851	346.62
849.099	334.62
849.346	325.62
849.594	337.62
849.841	362.62
850.089	319.62
850.336	297.62
850.583	312.62
850.831	323.62
851.078	330.62
851.325	305.62
851.572	367.62
851.819	358.62
852.066	331.62
852.313	331.62
852.56	307.62
852.807	288.62
853.054	288.62
853.301	313.62
853.548	310.62
853.794	403.62
854.041	341.62
854.288	276.62
854.534	393.62
854.781	321.62
855.028	312.62
855.274	399.62
855.52	326.62
855.767	287.62
856.013	352.62
856.26	630.62
856.506	328.62
856.752	361.62
856.998	330.62
857.244	314.62
857.49	340.62
857.736	337.62
857.982	333.62
858.228	353.62
858.474	295.62
858.72	326.62
858.966	351.62
859.212	352.62
859.458	336.62
859.703	347.62
859.949	316.62
860.195	360.62
860.44	356.62
860.686	308.62
860.931	398.62
861.177	328.62
861.422	378.62
861.667	323.62
861.913	330.62
862.158	347.62
862.403	366.62
862.648	359.62
862.893	393.62
863.138	336.62
863.384	315.62
863.629	353.62
863.873	354.62
864.118	318.62
864.363	286.62
864.608	347.62
864.853	374.62
865.098	332.62
865.342	347.62
865.587	339.62
865.832	382.62
866.076	361.62
866.321	325.62
866.565	333.62
866.81	280.62
867.054	335.62
867.298	348.62
867.543	312.62
867.787	370.62
868.031	342.62
868.275	344.62
868.519	337.62
868.764	357.62
869.008	337.62
869.252	372.62
869.496	338.62
869.739	346.62
869.983	380.62
870.227	354.62
870.471	314.62
870.715	349.62
870.958	347.62
871.202	306.62
871.446	345.62
871.689	313.62
871.933	340.62
872.176	326.62
872.42	327.62
872.663	326.62
872.906	377.62
873.15	331.62
873.393	288.62
873.636	379.62
873.879	370.62
874.122	395.62
874.366	338.62
874.609	373.62
874.852	343.62
875.095	351.62
875.337	331.62
875.58	278.62
875.823	347.62
876.066	374.62
876.309	402.62
876.551	303.62
876.794	289.62
877.037	370.62
877.279	296.62
877.522	320.62
877.764	354.62
878.007	308.62
878.249	352.62
878.491	306.62
878.734	374.62
878.976	356.62
879.218	292.62
879.46	385.62
879.702	379.62
879.945	381.62
880.187	327.62
880.429	369.62
880.671	377.62
880.912	381.62
881.154	370.62
881.396	289.62
881.638	346.62
881.88	332.62
882.121	318.62
882.363	339.62
882.605	404.62
882.846	370.62
883.088	382.62
883.329	320.62
883.571	293.62
883.812	317.62
884.053	324.62
884.295	332.62
884.536	396.62
884.777	324.62
885.018	358.62
885.259	357.62
885.5	298.62
885.742	512.62
885.982	369.62
886.223	315.62
886.464	332.62
886.705	293.62
886.946	354.62
887.187	291.62
887.428	389.62
887.668	340.62
887.909	316.62
888.15	299.62
888.39	364.62
888.631	400.62
888.871	379.62
889.111	351.62
889.352	359.62
889.592	332.62
889.833	359.62
890.073	351.62
890.313	411.62
890.553	302.62
890.793	344.62
891.033	309.62
891.273	330.62
891.513	358.62
891.753	406.62
891.993	354.62
892.233	379.62
892.473	425.62
892.713	369.62
892.952	324.62
893.192	356.62
893.432	331.62
893.671	372.62
893.911	340.62
894.15	350.62
894.39	290.62
894.629	340.62
894.869	386.62
895.108	354.62
895.347	314.62
895.587	365.62
895.826	326.62
896.065	309.62
896.304	352.62
896.543	383.62
896.782	293.62
897.021	351.62
897.26	348.62
897.499	395.62
897.738	401.62
897.977	355.62
898.216	353.62
898.454	352.62
898.693	338.62
898.932	387.62
899.17	360.62
899.409	353.62
899.647	351.62
899.886	336.62
900.124	361.62
900.363	319.62
900.601	359.62
900.839	351.62
901.078	351.62
901.316	351.62
901.554	341.62
901.792	352.62
902.03	312.62
902.268	331.62
902.506	390.62
902.744	334.62
902.982	382.62
903.22	314.62
903.458	330.62
903.695	387.62
903.933	394.62
904.171	323.62
904.409	340.62
904.646	391.62
904.884	352.62
905.121	409.62
905.359	387.62
905.596	379.62
905.833	335.62
906.071	349.62
906.308	401.62
906.545	378.62
906.783	303.62
907.02	355.62
907.257	317.62
907.494	346.62
907.731	361.62
907.968	382.62
908.205	337.62
908.442	331.62
908.679	373.62
908.915	351.62
909.152	364.62
909.389	297.62
909.626	352.62
909.862	328.62
910.099	368.62
910.335	393.62
910.572	316.62
910.808	354.62
911.045	349.62
911.281	333.62
911.518	405.62
911.754	342.62
911.99	360.62
912.226	344.62
912.463	325.62
912.699	354.62
912.935	359.62
913.171	344.62
913.407	342.62
913.643	398.62
913.879	368.62
914.114	371.62
914.35	336.62
914.586	365.62
914.822	329.62
915.057	448.62
915.293	311.62
915.529	335.62
915.764	402.62
916	399.62
916.235	378.62
916.471	400.62
916.706	304.62
916.941	362.62
917.177	350.62
917.412	390.62
917.647	387.62
917.882	334.62
918.117	395.62
918.352	372.62
918.588	428.62
918.823	362.62
919.057	358.62
919.292	296.62
919.527	417.62
919.762	354.62
919.997	429.62
920.232	373.62
920.466	432.62
920.701	321.62
920.935	384.62
921.17	366.62
921.405	331.62
921.639	404.62
921.873	379.62
922.108	399.62
922.342	398.62
922.576	335.62
922.811	354.62
923.045	413.62
923.279	445.62
923.513	319.62
923.747	399.62
923.981	401.62
924.215	353.62
924.449	372.62
924.683	324.62
924.917	345.62
925.151	360.62
925.385	440.62
925.618	382.62
925.852	396.62
926.086	332.62
926.319	387.62
926.553	361.62
926.786	395.62
927.02	379.62
927.253	405.62
927.486	425.62
927.72	342.62
927.953	414.62
928.186	359.62
928.42	401.62
928.653	349.62
928.886	356.62
929.119	403.62
929.352	385.62
929.585	388.62
929.818	352.62
930.051	411.62
930.284	407.62
930.516	334.62
930.749	359.62
930.982	424.62
931.215	412.62
931.447	338.62
931.68	377.62
931.912	356.62
932.145	366.62
932.377	396.62
932.61	496.62
932.842	316.62
933.074	388.62
933.307	347.62
933.539	447.62
933.771	422.62
934.003	370.62
934.236	438.62
934.468	467.62
934.7	366.62
934.932	409.62
935.164	364.62
935.395	360.62
935.627	385.62
935.859	397.62
936.091	352.62
936.323	406.62
936.554	442.62
936.786	382.62
937.017	349.62
937.249	394.62
937.481	318.62
937.712	407.62
937.943	379.62
938.175	357.62
938.406	362.62
938.637	447.62
938.869	344.62
939.1	410.62
939.331	364.62
939.562	403.62
939.793	399.62
940.024	443.62
940.255	437.62
940.486	379.62
940.717	394.62
940.948	386.62
941.179	367.62
941.409	381.62
941.64	372.62
941.871	396.62
942.102	368.62
942.332	361.62
942.563	416.62
942.793	396.62
943.024	341.62
943.254	374.62
943.484	430.62
943.715	441.62
943.945	404.62
944.175	344.62
944.405	324.62
944.636	333.62
944.866	398.62
945.096	400.62
945.326	327.62
945.556	393.62
945.786	431.62
946.016	376.62
946.245	345.62
946.475	368.62
946.705	369.62
946.935	405.62
947.164	391.62
947.394	352.62
947.624	399.62
947.853	431.62
948.083	402.62
948.312	372.62
948.542	347.62
948.771	329.62
949	345.62
949.23	375.62
949.459	367.62
949.688	433.62
949.917	389.62
950.146	397.62
950.375	452.62
950.604	359.62
950.833	462.62
951.062	454.62
951.291	398.62
951.52	381.62
951.749	403.62
951.978	364.62
952.206	387.62
952.435	376.62
952.664	425.62
952.892	428.62
953.121	398.62
953.349	440.62
953.578	429.62
953.806	417.62
954.035	377.62
954.263	412.62
954.491	362.62
954.719	419.62
954.948	380.62
955.176	394.62
955.404	333.62
955.632	397.62
955.86	421.62
956.088	418.62
956.316	440.62
956.544	449.62
956.772	422.62
956.999	392.62
957.227	498.62
957.455	397.62
957.683	434.62
957.91	397.62
958.138	403.62
958.365	401.62
958.593	419.62
958.82	363.62
959.048	438.62
959.275	413.62
959.502	415.62
959.73	371.62
959.957	431.62
960.184	446.62
960.411	394.62
960.638	477.62
960.865	415.62
961.092	454.62
961.319	363.62
961.546	463.62
961.773	464.62
962	412.62
962.227	472.62
962.454	427.62
962.68	422.62
962.907	451.62
963.134	417.62
963.36	445.62
963.587	464.62
963.813	420.62
964.04	482.62
964.266	410.62
964.493	518.62
964.719	487.62
964.945	495.62
965.171	397.62
965.398	468.62
965.624	486.62
965.85	429.62
966.076	454.62
966.302	485.62
966.528	439.62
966.754	482.62
966.98	474.62
967.206	475.62
967.431	406.62
967.657	506.62
967.883	491.62
968.109	472.62
968.334	431.62
968.56	436.62
968.785	451.62
969.011	420.62
969.236	476.62
969.462	413.62
969.687	445.62
969.912	495.62
970.138	503.62
970.363	445.62
970.588	463.62
970.813	460.62
971.038	446.62
971.263	472.62
971.488	467.62
971.713	517.62
971.938	495.62
972.163	422.62
972.388	441.62
972.613	442.62
972.838	459.62
973.062	460.62
973.287	472.62
973.512	399.62
973.736	465.62
973.961	447.62
974.185	440.62
974.41	478.62
974.634	400.62
974.858	433.62
975.083	464.62
975.307	491.62
975.531	437.62
975.755	394.62
975.98	440.62
976.204	388.62
976.428	406.62
976.652	409.62
976.876	387.62
977.1	444.62
977.324	393.62
977.547	481.62
977.771	470.62
977.995	431.62
978.219	392.62
978.442	507.62
978.666	452.62
978.89	440.62
979.113	448.62
979.337	442.62
979.56	408.62
979.783	511.62
980.007	400.62
980.23	450.62
980.453	404.62
980.677	451.62
980.9	455.62
981.123	366.62
981.346	487.62
981.569	459.62
981.792	487.62
982.015	453.62
982.238	428.62
982.461	463.62
982.684	432.62
982.907	423.62
983.129	415.62
983.352	483.62
983.575	468.62
983.797	467.62
984.02	438.62
984.242	438.62
984.465	468.62
984.687	491.62
984.91	514.62
985.132	492.62
985.354	505.62
985.577	492.62
985.799	486.62
986.021	405.62
986.243	451.62
986.465	467.62
986.687	521.62
986.909	557.62
987.131	505.62
987.353	476.62
987.575	511.62
987.797	471.62
988.019	414.62
988.241	478.62
988.462	447.62
988.684	499.62
988.906	536.62
989.127	551.62
989.349	450.62
989.57	479.62
989.792	533.62
990.013	528.62
990.234	549.62
990.456	576.62
990.677	547.62
990.898	508.62
991.119	521.62
991.341	529.62
991.562	483.62
991.783	533.62
992.004	484.62
992.225	474.62
992.446	540.62
992.667	448.62
992.887	526.62
993.108	433.62
993.329	565.62
993.55	531.62
993.77	483.62
993.991	498.62
994.212	531.62
994.432	525.62
994.653	545.62
994.873	538.62
995.093	443.62
995.314	503.62
995.534	556.62
995.754	573.62
995.975	606.62
996.195	490.62
996.415	550.62
996.635	533.62
996.855	542.62
997.075	513.62
997.295	529.62
997.515	512.62
997.735	558.62
997.955	526.62
998.174	525.62
998.394	521.62
998.614	560.62
998.834	534.62
999.053	600.62
999.273	575.62
999.492	623.62
999.712	566.62
999.931	523.62
1000.151	587.62
1000.37	567.62
1000.589	640.62
1000.809	574.62
1001.028	694.62
1001.247	628.62
1001.466	528.62
1001.685	681.62
1001.904	623.62
1002.123	619.62
1002.342	630.62
1002.561	603.62
1002.78	636.62
1002.999	704.62
1003.218	633.62
1003.436	612.62
1003.655	677.62
1003.874	606.62
1004.092	650.62
1004.311	709.62
1004.53	654.62
1004.748	731.62
1004.966	661.62
1005.185	713.62
1005.403	702.62
1005.622	673.62
1005.84	759.62
1006.058	660.62
1006.276	684.62
1006.494	1160.62
1006.712	682.62
1006.931	750.62
1007.149	644.62
1007.367	644.62
1007.584	658.62
1007.802	716.62
1008.02	636.62
1008.238	737.62
1008.456	717.62
1008.673	594.62
1008.891	674.62
1009.109	615.62
1009.326	648.62
1009.544	733.62
1009.761	608.62
1009.979	654.62
1010.196	613.62
1010.413	662.62
1010.631	673.62
1010.848	673.62
1011.065	657.62
1011.282	617.62
1011.5	554.62
1011.717	683.62
1011.934	627.62
1012.151	662.62
1012.368	647.62
1012.585	591.62
1012.801	659.62
1013.018	619.62
1013.235	568.62
1013.452	590.62
1013.669	614.62
1013.885	563.62
1014.102	613.62
1014.318	565.62
1014.535	525.62
1014.751	579.62
1014.968	555.62
1015.184	617.62
1015.401	529.62
1015.617	580.62
1015.833	533.62
1016.049	537.62
1016.266	542.62
1016.482	557.62
1016.698	507.62
1016.914	561.62
1017.13	523.62
1017.346	509.62
1017.562	582.62
1017.778	515.62
1017.993	505.62
1018.209	559.62
1018.425	512.62
1018.641	506.62
1018.856	484.62
1019.072	505.62
1019.288	556.62
1019.503	514.62
1019.719	437.62
1019.934	457.62
1020.149	540.62
1020.365	502.62
1020.58	459.62
1020.795	521.62
1021.011	481.62
1021.226	520.62
1021.441	551.62
1021.656	485.62
1021.871	442.62
1022.086	471.62
1022.301	476.62
1022.516	468.62
1022.731	531.62
1022.946	464.62
1023.16	465.62
1023.375	457.62
1023.59	450.62
1023.804	420.62
1024.019	528.62
1024.234	419.62
1024.448	476.62
1024.663	418.62
1024.877	458.62
1025.092	464.62
1025.306	499.62
1025.52	394.62
1025.734	521.62
1025.949	447.62
1026.163	428.62
1026.377	390.62
1026.591	439.62
1026.805	382.62
1027.019	407.62
1027.233	366.62
1027.447	330.62
1027.661	419.62
1027.875	381.62
1028.088	402.62
1028.302	334.62
1028.516	350.62
1028.73	350.62
1028.943	360.62
1029.157	326.62
1029.37	308.62
1029.584	-1.38
1029.797	-0.38
1030.011	-3.38
1030.224	-3.38
