Data from QEP037381__18__10-15-11-058.txt Node

Date: Fri Apr 21 10:15:11 EDT 2023
User: dcclab
Spectrometer: QEP03738
Trigger mode: 4
Integration Time (sec): 1.000000E1
Scans to average: 1
Electric dark correction enabled: true
Nonlinearity correction enabled: false
Boxcar width: 0
XAxis mode: Wavelengths
Number of Pixels in Spectrum: 1044
>>>>>Begin Spectral Data<<<<<
784.041	11.12
784.3	2.12
784.558	-1.88
784.817	-2.88
785.075	232.12
785.334	217.12
785.592	201.12
785.851	204.12
786.109	237.12
786.368	238.12
786.626	258.12
786.884	271.12
787.143	262.12
787.401	208.12
787.659	278.12
787.917	268.12
788.175	297.12
788.433	274.12
788.691	267.12
788.949	282.12
789.207	303.12
789.465	251.12
789.723	266.12
789.98	252.12
790.238	326.12
790.496	299.12
790.753	282.12
791.011	363.12
791.268	312.12
791.526	306.12
791.783	332.12
792.041	319.12
792.298	253.12
792.556	332.12
792.813	311.12
793.07	303.12
793.327	282.12
793.584	376.12
793.841	292.12
794.099	322.12
794.356	362.12
794.613	296.12
794.869	327.12
795.126	298.12
795.383	286.12
795.64	316.12
795.897	265.12
796.153	322.12
796.41	311.12
796.667	290.12
796.923	306.12
797.18	300.12
797.436	320.12
797.693	277.12
797.949	334.12
798.206	369.12
798.462	275.12
798.718	330.12
798.974	300.12
799.231	338.12
799.487	330.12
799.743	323.12
799.999	351.12
800.255	338.12
800.511	319.12
800.767	343.12
801.023	299.12
801.279	316.12
801.534	321.12
801.79	340.12
802.046	301.12
802.302	354.12
802.557	338.12
802.813	349.12
803.068	302.12
803.324	345.12
803.579	303.12
803.835	299.12
804.09	350.12
804.345	290.12
804.601	278.12
804.856	311.12
805.111	332.12
805.366	319.12
805.621	320.12
805.876	334.12
806.131	337.12
806.386	309.12
806.641	284.12
806.896	303.12
807.151	375.12
807.406	317.12
807.661	327.12
807.915	312.12
808.17	325.12
808.425	330.12
808.679	278.12
808.934	374.12
809.188	309.12
809.443	334.12
809.697	375.12
809.951	309.12
810.206	293.12
810.46	351.12
810.714	338.12
810.968	359.12
811.223	275.12
811.477	330.12
811.731	359.12
811.985	273.12
812.239	252.12
812.493	302.12
812.747	319.12
813	266.12
813.254	330.12
813.508	339.12
813.762	310.12
814.015	282.12
814.269	324.12
814.522	334.12
814.776	341.12
815.03	339.12
815.283	336.12
815.536	346.12
815.79	350.12
816.043	337.12
816.296	333.12
816.55	321.12
816.803	322.12
817.056	397.12
817.309	344.12
817.562	332.12
817.815	377.12
818.068	295.12
818.321	296.12
818.574	288.12
818.827	341.12
819.079	310.12
819.332	415.12
819.585	332.12
819.838	385.12
820.09	313.12
820.343	366.12
820.595	299.12
820.848	343.12
821.1	356.12
821.353	334.12
821.605	314.12
821.857	387.12
822.11	287.12
822.362	306.12
822.614	283.12
822.866	309.12
823.118	263.12
823.37	384.12
823.622	325.12
823.874	304.12
824.126	345.12
824.378	286.12
824.63	314.12
824.882	331.12
825.134	313.12
825.385	347.12
825.637	333.12
825.888	301.12
826.14	330.12
826.392	307.12
826.643	286.12
826.895	379.12
827.146	318.12
827.397	311.12
827.649	391.12
827.9	298.12
828.151	280.12
828.402	289.12
828.653	337.12
828.905	327.12
829.156	379.12
829.407	294.12
829.658	330.12
829.909	364.12
830.159	340.12
830.41	352.12
830.661	362.12
830.912	334.12
831.162	306.12
831.413	318.12
831.664	349.12
831.914	338.12
832.165	338.12
832.415	339.12
832.666	345.12
832.916	360.12
833.167	325.12
833.417	380.12
833.667	349.12
833.917	338.12
834.168	385.12
834.418	359.12
834.668	322.12
834.918	280.12
835.168	306.12
835.418	270.12
835.668	330.12
835.918	353.12
836.167	354.12
836.417	300.12
836.667	366.12
836.917	370.12
837.166	338.12
837.416	351.12
837.666	371.12
837.915	335.12
838.165	340.12
838.414	301.12
838.663	278.12
838.913	341.12
839.162	301.12
839.411	404.12
839.661	308.12
839.91	335.12
840.159	317.12
840.408	339.12
840.657	324.12
840.906	337.12
841.155	364.12
841.404	326.12
841.653	336.12
841.902	301.12
842.15	339.12
842.399	339.12
842.648	325.12
842.897	344.12
843.145	282.12
843.394	310.12
843.642	318.12
843.891	370.12
844.139	328.12
844.388	293.12
844.636	261.12
844.884	309.12
845.133	296.12
845.381	316.12
845.629	358.12
845.877	289.12
846.125	307.12
846.373	328.12
846.621	294.12
846.869	360.12
847.117	333.12
847.365	321.12
847.613	336.12
847.861	354.12
848.108	383.12
848.356	355.12
848.604	312.12
848.851	338.12
849.099	346.12
849.346	326.12
849.594	346.12
849.841	362.12
850.089	317.12
850.336	295.12
850.583	306.12
850.831	327.12
851.078	343.12
851.325	302.12
851.572	374.12
851.819	351.12
852.066	321.12
852.313	322.12
852.56	293.12
852.807	292.12
853.054	300.12
853.301	316.12
853.548	319.12
853.794	401.12
854.041	327.12
854.288	284.12
854.534	405.12
854.781	321.12
855.028	309.12
855.274	396.12
855.52	330.12
855.767	309.12
856.013	356.12
856.26	652.12
856.506	317.12
856.752	366.12
856.998	328.12
857.244	309.12
857.49	339.12
857.736	343.12
857.982	352.12
858.228	354.12
858.474	296.12
858.72	332.12
858.966	349.12
859.212	342.12
859.458	346.12
859.703	357.12
859.949	310.12
860.195	363.12
860.44	362.12
860.686	319.12
860.931	397.12
861.177	317.12
861.422	366.12
861.667	335.12
861.913	345.12
862.158	329.12
862.403	382.12
862.648	352.12
862.893	393.12
863.138	332.12
863.384	298.12
863.629	365.12
863.873	351.12
864.118	319.12
864.363	269.12
864.608	351.12
864.853	376.12
865.098	334.12
865.342	360.12
865.587	342.12
865.832	384.12
866.076	364.12
866.321	321.12
866.565	332.12
866.81	274.12
867.054	333.12
867.298	356.12
867.543	303.12
867.787	368.12
868.031	336.12
868.275	347.12
868.519	335.12
868.764	335.12
869.008	328.12
869.252	378.12
869.496	342.12
869.739	346.12
869.983	385.12
870.227	371.12
870.471	302.12
870.715	361.12
870.958	352.12
871.202	317.12
871.446	328.12
871.689	309.12
871.933	334.12
872.176	335.12
872.42	319.12
872.663	333.12
872.906	401.12
873.15	341.12
873.393	293.12
873.636	392.12
873.879	365.12
874.122	409.12
874.366	346.12
874.609	383.12
874.852	330.12
875.095	341.12
875.337	323.12
875.58	269.12
875.823	353.12
876.066	377.12
876.309	393.12
876.551	323.12
876.794	289.12
877.037	379.12
877.279	306.12
877.522	314.12
877.764	363.12
878.007	317.12
878.249	349.12
878.491	309.12
878.734	375.12
878.976	345.12
879.218	307.12
879.46	395.12
879.702	389.12
879.945	366.12
880.187	341.12
880.429	379.12
880.671	378.12
880.912	381.12
881.154	361.12
881.396	284.12
881.638	355.12
881.88	347.12
882.121	328.12
882.363	338.12
882.605	381.12
882.846	360.12
883.088	389.12
883.329	320.12
883.571	311.12
883.812	321.12
884.053	313.12
884.295	327.12
884.536	403.12
884.777	331.12
885.018	354.12
885.259	347.12
885.5	305.12
885.742	526.12
885.982	376.12
886.223	322.12
886.464	337.12
886.705	299.12
886.946	343.12
887.187	285.12
887.428	388.12
887.668	328.12
887.909	306.12
888.15	315.12
888.39	378.12
888.631	416.12
888.871	384.12
889.111	360.12
889.352	381.12
889.592	331.12
889.833	350.12
890.073	350.12
890.313	415.12
890.553	304.12
890.793	357.12
891.033	319.12
891.273	329.12
891.513	363.12
891.753	417.12
891.993	340.12
892.233	377.12
892.473	437.12
892.713	381.12
892.952	315.12
893.192	358.12
893.432	340.12
893.671	370.12
893.911	341.12
894.15	347.12
894.39	292.12
894.629	343.12
894.869	370.12
895.108	348.12
895.347	334.12
895.587	369.12
895.826	336.12
896.065	310.12
896.304	363.12
896.543	384.12
896.782	295.12
897.021	363.12
897.26	348.12
897.499	405.12
897.738	399.12
897.977	363.12
898.216	355.12
898.454	350.12
898.693	330.12
898.932	378.12
899.17	340.12
899.409	366.12
899.647	359.12
899.886	342.12
900.124	377.12
900.363	328.12
900.601	369.12
900.839	352.12
901.078	352.12
901.316	352.12
901.554	333.12
901.792	355.12
902.03	308.12
902.268	328.12
902.506	384.12
902.744	349.12
902.982	374.12
903.22	315.12
903.458	348.12
903.695	378.12
903.933	379.12
904.171	329.12
904.409	343.12
904.646	391.12
904.884	345.12
905.121	425.12
905.359	389.12
905.596	383.12
905.833	333.12
906.071	340.12
906.308	394.12
906.545	374.12
906.783	318.12
907.02	343.12
907.257	314.12
907.494	347.12
907.731	376.12
907.968	384.12
908.205	336.12
908.442	346.12
908.679	367.12
908.915	358.12
909.152	378.12
909.389	307.12
909.626	338.12
909.862	323.12
910.099	359.12
910.335	406.12
910.572	310.12
910.808	363.12
911.045	348.12
911.281	332.12
911.518	411.12
911.754	351.12
911.99	366.12
912.226	348.12
912.463	325.12
912.699	346.12
912.935	359.12
913.171	346.12
913.407	326.12
913.643	392.12
913.879	362.12
914.114	363.12
914.35	349.12
914.586	360.12
914.822	339.12
915.057	441.12
915.293	306.12
915.529	321.12
915.764	406.12
916	388.12
916.235	371.12
916.471	409.12
916.706	313.12
916.941	346.12
917.177	344.12
917.412	387.12
917.647	380.12
917.882	336.12
918.117	398.12
918.352	369.12
918.588	418.12
918.823	375.12
919.057	362.12
919.292	300.12
919.527	424.12
919.762	362.12
919.997	423.12
920.232	369.12
920.466	411.12
920.701	321.12
920.935	381.12
921.17	359.12
921.405	339.12
921.639	399.12
921.873	377.12
922.108	391.12
922.342	407.12
922.576	336.12
922.811	362.12
923.045	404.12
923.279	422.12
923.513	308.12
923.747	402.12
923.981	392.12
924.215	355.12
924.449	373.12
924.683	321.12
924.917	363.12
925.151	354.12
925.385	444.12
925.618	395.12
925.852	398.12
926.086	344.12
926.319	395.12
926.553	378.12
926.786	406.12
927.02	359.12
927.253	418.12
927.486	409.12
927.72	352.12
927.953	405.12
928.186	375.12
928.42	396.12
928.653	350.12
928.886	351.12
929.119	392.12
929.352	395.12
929.585	394.12
929.818	346.12
930.051	405.12
930.284	425.12
930.516	346.12
930.749	358.12
930.982	420.12
931.215	415.12
931.447	352.12
931.68	372.12
931.912	363.12
932.145	369.12
932.377	382.12
932.61	503.12
932.842	321.12
933.074	404.12
933.307	334.12
933.539	436.12
933.771	415.12
934.003	367.12
934.236	444.12
934.468	452.12
934.7	365.12
934.932	418.12
935.164	359.12
935.395	356.12
935.627	389.12
935.859	394.12
936.091	346.12
936.323	429.12
936.554	447.12
936.786	382.12
937.017	348.12
937.249	406.12
937.481	338.12
937.712	409.12
937.943	366.12
938.175	386.12
938.406	380.12
938.637	452.12
938.869	346.12
939.1	414.12
939.331	374.12
939.562	408.12
939.793	407.12
940.024	426.12
940.255	449.12
940.486	391.12
940.717	399.12
940.948	390.12
941.179	351.12
941.409	384.12
941.64	376.12
941.871	405.12
942.102	368.12
942.332	370.12
942.563	421.12
942.793	398.12
943.024	335.12
943.254	378.12
943.484	427.12
943.715	442.12
943.945	413.12
944.175	339.12
944.405	323.12
944.636	329.12
944.866	397.12
945.096	399.12
945.326	336.12
945.556	403.12
945.786	415.12
946.016	382.12
946.245	357.12
946.475	362.12
946.705	384.12
946.935	384.12
947.164	397.12
947.394	376.12
947.624	383.12
947.853	435.12
948.083	402.12
948.312	383.12
948.542	341.12
948.771	342.12
949	368.12
949.23	371.12
949.459	382.12
949.688	445.12
949.917	383.12
950.146	394.12
950.375	457.12
950.604	350.12
950.833	446.12
951.062	438.12
951.291	394.12
951.52	374.12
951.749	396.12
951.978	354.12
952.206	374.12
952.435	386.12
952.664	426.12
952.892	416.12
953.121	401.12
953.349	458.12
953.578	440.12
953.806	400.12
954.035	369.12
954.263	403.12
954.491	365.12
954.719	427.12
954.948	386.12
955.176	400.12
955.404	327.12
955.632	405.12
955.86	421.12
956.088	403.12
956.316	436.12
956.544	461.12
956.772	407.12
956.999	385.12
957.227	496.12
957.455	410.12
957.683	428.12
957.91	389.12
958.138	407.12
958.365	405.12
958.593	405.12
958.82	356.12
959.048	443.12
959.275	417.12
959.502	410.12
959.73	377.12
959.957	431.12
960.184	445.12
960.411	394.12
960.638	478.12
960.865	428.12
961.092	442.12
961.319	361.12
961.546	447.12
961.773	461.12
962	414.12
962.227	472.12
962.454	437.12
962.68	434.12
962.907	466.12
963.134	405.12
963.36	445.12
963.587	476.12
963.813	402.12
964.04	464.12
964.266	407.12
964.493	502.12
964.719	486.12
964.945	515.12
965.171	400.12
965.398	469.12
965.624	493.12
965.85	423.12
966.076	444.12
966.302	479.12
966.528	459.12
966.754	485.12
966.98	481.12
967.206	462.12
967.431	421.12
967.657	506.12
967.883	481.12
968.109	489.12
968.334	423.12
968.56	442.12
968.785	443.12
969.011	418.12
969.236	491.12
969.462	428.12
969.687	456.12
969.912	492.12
970.138	515.12
970.363	437.12
970.588	468.12
970.813	453.12
971.038	427.12
971.263	466.12
971.488	490.12
971.713	522.12
971.938	506.12
972.163	409.12
972.388	451.12
972.613	441.12
972.838	458.12
973.062	462.12
973.287	466.12
973.512	401.12
973.736	458.12
973.961	448.12
974.185	431.12
974.41	469.12
974.634	406.12
974.858	412.12
975.083	465.12
975.307	500.12
975.531	446.12
975.755	406.12
975.98	449.12
976.204	390.12
976.428	390.12
976.652	398.12
976.876	392.12
977.1	442.12
977.324	400.12
977.547	470.12
977.771	468.12
977.995	446.12
978.219	383.12
978.442	520.12
978.666	462.12
978.89	445.12
979.113	448.12
979.337	453.12
979.56	417.12
979.783	501.12
980.007	410.12
980.23	438.12
980.453	419.12
980.677	468.12
980.9	449.12
981.123	364.12
981.346	459.12
981.569	466.12
981.792	489.12
982.015	444.12
982.238	432.12
982.461	469.12
982.684	423.12
982.907	412.12
983.129	420.12
983.352	485.12
983.575	461.12
983.797	467.12
984.02	438.12
984.242	456.12
984.465	463.12
984.687	495.12
984.91	519.12
985.132	504.12
985.354	499.12
985.577	485.12
985.799	487.12
986.021	414.12
986.243	444.12
986.465	468.12
986.687	527.12
986.909	558.12
987.131	498.12
987.353	483.12
987.575	513.12
987.797	481.12
988.019	415.12
988.241	487.12
988.462	452.12
988.684	522.12
988.906	533.12
989.127	568.12
989.349	454.12
989.57	486.12
989.792	534.12
990.013	539.12
990.234	556.12
990.456	582.12
990.677	575.12
990.898	495.12
991.119	520.12
991.341	544.12
991.562	485.12
991.783	534.12
992.004	477.12
992.225	455.12
992.446	525.12
992.667	440.12
992.887	540.12
993.108	428.12
993.329	591.12
993.55	533.12
993.77	474.12
993.991	484.12
994.212	546.12
994.432	527.12
994.653	546.12
994.873	533.12
995.093	425.12
995.314	488.12
995.534	551.12
995.754	593.12
995.975	609.12
996.195	512.12
996.415	555.12
996.635	535.12
996.855	551.12
997.075	528.12
997.295	532.12
997.515	514.12
997.735	555.12
997.955	542.12
998.174	524.12
998.394	497.12
998.614	554.12
998.834	523.12
999.053	596.12
999.273	561.12
999.492	619.12
999.712	565.12
999.931	534.12
1000.151	591.12
1000.37	588.12
1000.589	644.12
1000.809	583.12
1001.028	666.12
1001.247	624.12
1001.466	541.12
1001.685	690.12
1001.904	642.12
1002.123	623.12
1002.342	634.12
1002.561	597.12
1002.78	631.12
1002.999	705.12
1003.218	629.12
1003.436	621.12
1003.655	677.12
1003.874	623.12
1004.092	652.12
1004.311	698.12
1004.53	659.12
1004.748	736.12
1004.966	648.12
1005.185	720.12
1005.403	678.12
1005.622	670.12
1005.84	769.12
1006.058	658.12
1006.276	676.12
1006.494	1160.12
1006.712	665.12
1006.931	730.12
1007.149	628.12
1007.367	641.12
1007.584	690.12
1007.802	725.12
1008.02	652.12
1008.238	739.12
1008.456	700.12
1008.673	576.12
1008.891	703.12
1009.109	633.12
1009.326	661.12
1009.544	720.12
1009.761	595.12
1009.979	647.12
1010.196	624.12
1010.413	672.12
1010.631	681.12
1010.848	669.12
1011.065	663.12
1011.282	630.12
1011.5	564.12
1011.717	679.12
1011.934	622.12
1012.151	663.12
1012.368	658.12
1012.585	599.12
1012.801	661.12
1013.018	615.12
1013.235	576.12
1013.452	598.12
1013.669	606.12
1013.885	550.12
1014.102	600.12
1014.318	548.12
1014.535	542.12
1014.751	566.12
1014.968	580.12
1015.184	616.12
1015.401	505.12
1015.617	577.12
1015.833	545.12
1016.049	550.12
1016.266	538.12
1016.482	568.12
1016.698	507.12
1016.914	561.12
1017.13	506.12
1017.346	508.12
1017.562	585.12
1017.778	528.12
1017.993	488.12
1018.209	545.12
1018.425	542.12
1018.641	511.12
1018.856	472.12
1019.072	506.12
1019.288	566.12
1019.503	504.12
1019.719	430.12
1019.934	456.12
1020.149	558.12
1020.365	504.12
1020.58	471.12
1020.795	548.12
1021.011	496.12
1021.226	487.12
1021.441	554.12
1021.656	484.12
1021.871	451.12
1022.086	463.12
1022.301	489.12
1022.516	472.12
1022.731	540.12
1022.946	478.12
1023.16	466.12
1023.375	461.12
1023.59	455.12
1023.804	434.12
1024.019	539.12
1024.234	430.12
1024.448	487.12
1024.663	413.12
1024.877	452.12
1025.092	471.12
1025.306	484.12
1025.52	408.12
1025.734	508.12
1025.949	449.12
1026.163	430.12
1026.377	381.12
1026.591	449.12
1026.805	388.12
1027.019	392.12
1027.233	365.12
1027.447	301.12
1027.661	419.12
1027.875	385.12
1028.088	396.12
1028.302	336.12
1028.516	338.12
1028.73	350.12
1028.943	358.12
1029.157	331.12
1029.37	302.12
1029.584	-3.88
1029.797	-1.88
1030.011	-3.88
1030.224	1.12
