Data from QEP037381__86__10-26-31-074.txt Node

Date: Fri Apr 21 10:26:31 EDT 2023
User: dcclab
Spectrometer: QEP03738
Trigger mode: 4
Integration Time (sec): 1.000000E1
Scans to average: 1
Electric dark correction enabled: true
Nonlinearity correction enabled: false
Boxcar width: 0
XAxis mode: Wavelengths
Number of Pixels in Spectrum: 1044
>>>>>Begin Spectral Data<<<<<
784.041	12.62
784.3	-3.38
784.558	-1.38
784.817	-0.38
785.075	227.62
785.334	204.62
785.592	203.62
785.851	212.62
786.109	232.62
786.368	243.62
786.626	259.62
786.884	271.62
787.143	265.62
787.401	212.62
787.659	283.62
787.917	256.62
788.175	287.62
788.433	275.62
788.691	283.62
788.949	277.62
789.207	301.62
789.465	245.62
789.723	260.62
789.98	251.62
790.238	314.62
790.496	303.62
790.753	296.62
791.011	366.62
791.268	301.62
791.526	298.62
791.783	333.62
792.041	329.62
792.298	259.62
792.556	328.62
792.813	311.62
793.07	294.62
793.327	292.62
793.584	382.62
793.841	290.62
794.099	325.62
794.356	372.62
794.613	297.62
794.869	317.62
795.126	292.62
795.383	281.62
795.64	312.62
795.897	270.62
796.153	313.62
796.41	300.62
796.667	295.62
796.923	296.62
797.18	300.62
797.436	311.62
797.693	295.62
797.949	318.62
798.206	358.62
798.462	279.62
798.718	340.62
798.974	312.62
799.231	344.62
799.487	326.62
799.743	317.62
799.999	333.62
800.255	324.62
800.511	307.62
800.767	346.62
801.023	307.62
801.279	323.62
801.534	322.62
801.79	331.62
802.046	299.62
802.302	363.62
802.557	336.62
802.813	351.62
803.068	293.62
803.324	337.62
803.579	305.62
803.835	298.62
804.09	351.62
804.345	299.62
804.601	264.62
804.856	306.62
805.111	322.62
805.366	316.62
805.621	310.62
805.876	328.62
806.131	330.62
806.386	309.62
806.641	273.62
806.896	301.62
807.151	361.62
807.406	297.62
807.661	324.62
807.915	315.62
808.17	336.62
808.425	339.62
808.679	291.62
808.934	373.62
809.188	301.62
809.443	340.62
809.697	365.62
809.951	310.62
810.206	301.62
810.46	352.62
810.714	320.62
810.968	354.62
811.223	273.62
811.477	310.62
811.731	355.62
811.985	270.62
812.239	234.62
812.493	281.62
812.747	314.62
813	263.62
813.254	321.62
813.508	338.62
813.762	294.62
814.015	293.62
814.269	313.62
814.522	331.62
814.776	342.62
815.03	320.62
815.283	323.62
815.536	331.62
815.79	342.62
816.043	338.62
816.296	326.62
816.55	316.62
816.803	325.62
817.056	394.62
817.309	336.62
817.562	342.62
817.815	375.62
818.068	284.62
818.321	294.62
818.574	287.62
818.827	333.62
819.079	298.62
819.332	412.62
819.585	340.62
819.838	401.62
820.09	304.62
820.343	360.62
820.595	291.62
820.848	335.62
821.1	336.62
821.353	322.62
821.605	298.62
821.857	367.62
822.11	281.62
822.362	300.62
822.614	284.62
822.866	299.62
823.118	261.62
823.37	382.62
823.622	315.62
823.874	307.62
824.126	347.62
824.378	289.62
824.63	303.62
824.882	330.62
825.134	300.62
825.385	355.62
825.637	327.62
825.888	307.62
826.14	331.62
826.392	297.62
826.643	281.62
826.895	368.62
827.146	310.62
827.397	299.62
827.649	383.62
827.9	309.62
828.151	286.62
828.402	277.62
828.653	317.62
828.905	331.62
829.156	371.62
829.407	287.62
829.658	324.62
829.909	366.62
830.159	335.62
830.41	335.62
830.661	353.62
830.912	331.62
831.162	313.62
831.413	309.62
831.664	342.62
831.914	317.62
832.165	330.62
832.415	341.62
832.666	328.62
832.916	355.62
833.167	303.62
833.417	391.62
833.667	346.62
833.917	330.62
834.168	385.62
834.418	357.62
834.668	325.62
834.918	285.62
835.168	306.62
835.418	256.62
835.668	343.62
835.918	347.62
836.167	336.62
836.417	300.62
836.667	358.62
836.917	375.62
837.166	321.62
837.416	367.62
837.666	363.62
837.915	318.62
838.165	347.62
838.414	300.62
838.663	275.62
838.913	343.62
839.162	297.62
839.411	403.62
839.661	310.62
839.91	325.62
840.159	313.62
840.408	331.62
840.657	327.62
840.906	333.62
841.155	364.62
841.404	319.62
841.653	340.62
841.902	296.62
842.15	347.62
842.399	342.62
842.648	323.62
842.897	341.62
843.145	284.62
843.394	295.62
843.642	315.62
843.891	363.62
844.139	314.62
844.388	291.62
844.636	263.62
844.884	306.62
845.133	278.62
845.381	324.62
845.629	357.62
845.877	288.62
846.125	308.62
846.373	321.62
846.621	297.62
846.869	355.62
847.117	325.62
847.365	309.62
847.613	342.62
847.861	353.62
848.108	357.62
848.356	346.62
848.604	312.62
848.851	342.62
849.099	335.62
849.346	318.62
849.594	348.62
849.841	360.62
850.089	320.62
850.336	305.62
850.583	306.62
850.831	308.62
851.078	333.62
851.325	297.62
851.572	358.62
851.819	368.62
852.066	326.62
852.313	330.62
852.56	306.62
852.807	291.62
853.054	292.62
853.301	305.62
853.548	300.62
853.794	408.62
854.041	329.62
854.288	281.62
854.534	396.62
854.781	326.62
855.028	308.62
855.274	380.62
855.52	330.62
855.767	299.62
856.013	353.62
856.26	641.62
856.506	311.62
856.752	362.62
856.998	334.62
857.244	295.62
857.49	342.62
857.736	340.62
857.982	348.62
858.228	354.62
858.474	302.62
858.72	334.62
858.966	355.62
859.212	342.62
859.458	333.62
859.703	345.62
859.949	323.62
860.195	383.62
860.44	358.62
860.686	314.62
860.931	388.62
861.177	319.62
861.422	384.62
861.667	318.62
861.913	338.62
862.158	329.62
862.403	368.62
862.648	369.62
862.893	401.62
863.138	352.62
863.384	306.62
863.629	354.62
863.873	350.62
864.118	333.62
864.363	277.62
864.608	346.62
864.853	377.62
865.098	326.62
865.342	361.62
865.587	338.62
865.832	377.62
866.076	365.62
866.321	323.62
866.565	337.62
866.81	274.62
867.054	329.62
867.298	349.62
867.543	313.62
867.787	366.62
868.031	332.62
868.275	344.62
868.519	333.62
868.764	344.62
869.008	321.62
869.252	389.62
869.496	343.62
869.739	332.62
869.983	392.62
870.227	366.62
870.471	308.62
870.715	360.62
870.958	354.62
871.202	307.62
871.446	334.62
871.689	313.62
871.933	337.62
872.176	338.62
872.42	332.62
872.663	334.62
872.906	378.62
873.15	336.62
873.393	290.62
873.636	373.62
873.879	358.62
874.122	404.62
874.366	338.62
874.609	368.62
874.852	333.62
875.095	363.62
875.337	333.62
875.58	266.62
875.823	345.62
876.066	374.62
876.309	399.62
876.551	305.62
876.794	303.62
877.037	374.62
877.279	303.62
877.522	319.62
877.764	369.62
878.007	317.62
878.249	349.62
878.491	318.62
878.734	379.62
878.976	357.62
879.218	304.62
879.46	388.62
879.702	373.62
879.945	365.62
880.187	330.62
880.429	374.62
880.671	377.62
880.912	399.62
881.154	355.62
881.396	287.62
881.638	368.62
881.88	356.62
882.121	307.62
882.363	346.62
882.605	398.62
882.846	368.62
883.088	363.62
883.329	331.62
883.571	294.62
883.812	313.62
884.053	318.62
884.295	325.62
884.536	400.62
884.777	317.62
885.018	346.62
885.259	367.62
885.5	302.62
885.742	514.62
885.982	370.62
886.223	304.62
886.464	334.62
886.705	299.62
886.946	347.62
887.187	286.62
887.428	389.62
887.668	325.62
887.909	300.62
888.15	300.62
888.39	361.62
888.631	411.62
888.871	376.62
889.111	364.62
889.352	363.62
889.592	332.62
889.833	343.62
890.073	355.62
890.313	416.62
890.553	308.62
890.793	337.62
891.033	324.62
891.273	327.62
891.513	359.62
891.753	411.62
891.993	358.62
892.233	358.62
892.473	416.62
892.713	360.62
892.952	319.62
893.192	356.62
893.432	324.62
893.671	377.62
893.911	341.62
894.15	355.62
894.39	296.62
894.629	343.62
894.869	369.62
895.108	355.62
895.347	316.62
895.587	374.62
895.826	325.62
896.065	311.62
896.304	378.62
896.543	386.62
896.782	292.62
897.021	364.62
897.26	343.62
897.499	403.62
897.738	411.62
897.977	356.62
898.216	345.62
898.454	354.62
898.693	324.62
898.932	384.62
899.17	360.62
899.409	361.62
899.647	358.62
899.886	323.62
900.124	362.62
900.363	312.62
900.601	369.62
900.839	351.62
901.078	344.62
901.316	352.62
901.554	353.62
901.792	361.62
902.03	302.62
902.268	333.62
902.506	371.62
902.744	344.62
902.982	385.62
903.22	324.62
903.458	339.62
903.695	365.62
903.933	379.62
904.171	325.62
904.409	330.62
904.646	380.62
904.884	342.62
905.121	414.62
905.359	394.62
905.596	383.62
905.833	346.62
906.071	340.62
906.308	405.62
906.545	359.62
906.783	312.62
907.02	360.62
907.257	310.62
907.494	345.62
907.731	365.62
907.968	382.62
908.205	342.62
908.442	332.62
908.679	372.62
908.915	363.62
909.152	364.62
909.389	302.62
909.626	352.62
909.862	340.62
910.099	358.62
910.335	390.62
910.572	311.62
910.808	370.62
911.045	348.62
911.281	321.62
911.518	415.62
911.754	352.62
911.99	367.62
912.226	357.62
912.463	326.62
912.699	342.62
912.935	351.62
913.171	346.62
913.407	321.62
913.643	395.62
913.879	364.62
914.114	369.62
914.35	349.62
914.586	357.62
914.822	341.62
915.057	446.62
915.293	320.62
915.529	324.62
915.764	412.62
916	395.62
916.235	378.62
916.471	388.62
916.706	306.62
916.941	345.62
917.177	351.62
917.412	387.62
917.647	391.62
917.882	340.62
918.117	398.62
918.352	367.62
918.588	423.62
918.823	361.62
919.057	372.62
919.292	283.62
919.527	411.62
919.762	358.62
919.997	422.62
920.232	370.62
920.466	423.62
920.701	328.62
920.935	385.62
921.17	360.62
921.405	335.62
921.639	398.62
921.873	360.62
922.108	398.62
922.342	398.62
922.576	340.62
922.811	347.62
923.045	403.62
923.279	426.62
923.513	313.62
923.747	411.62
923.981	390.62
924.215	366.62
924.449	369.62
924.683	331.62
924.917	352.62
925.151	362.62
925.385	428.62
925.618	389.62
925.852	393.62
926.086	329.62
926.319	389.62
926.553	378.62
926.786	396.62
927.02	375.62
927.253	405.62
927.486	412.62
927.72	348.62
927.953	416.62
928.186	359.62
928.42	414.62
928.653	342.62
928.886	354.62
929.119	391.62
929.352	375.62
929.585	397.62
929.818	365.62
930.051	387.62
930.284	395.62
930.516	334.62
930.749	361.62
930.982	408.62
931.215	406.62
931.447	347.62
931.68	374.62
931.912	359.62
932.145	373.62
932.377	390.62
932.61	502.62
932.842	323.62
933.074	394.62
933.307	338.62
933.539	428.62
933.771	430.62
934.003	374.62
934.236	444.62
934.468	449.62
934.7	385.62
934.932	444.62
935.164	368.62
935.395	360.62
935.627	394.62
935.859	390.62
936.091	350.62
936.323	411.62
936.554	441.62
936.786	383.62
937.017	341.62
937.249	400.62
937.481	318.62
937.712	422.62
937.943	394.62
938.175	365.62
938.406	364.62
938.637	452.62
938.869	350.62
939.1	406.62
939.331	356.62
939.562	412.62
939.793	399.62
940.024	426.62
940.255	446.62
940.486	393.62
940.717	399.62
940.948	381.62
941.179	353.62
941.409	377.62
941.64	380.62
941.871	402.62
942.102	378.62
942.332	370.62
942.563	421.62
942.793	388.62
943.024	343.62
943.254	399.62
943.484	429.62
943.715	423.62
943.945	403.62
944.175	340.62
944.405	330.62
944.636	339.62
944.866	389.62
945.096	412.62
945.326	324.62
945.556	403.62
945.786	430.62
946.016	399.62
946.245	338.62
946.475	361.62
946.705	370.62
946.935	394.62
947.164	404.62
947.394	368.62
947.624	398.62
947.853	429.62
948.083	409.62
948.312	376.62
948.542	347.62
948.771	326.62
949	359.62
949.23	379.62
949.459	379.62
949.688	438.62
949.917	391.62
950.146	404.62
950.375	457.62
950.604	344.62
950.833	455.62
951.062	447.62
951.291	396.62
951.52	369.62
951.749	400.62
951.978	372.62
952.206	372.62
952.435	374.62
952.664	411.62
952.892	422.62
953.121	406.62
953.349	445.62
953.578	436.62
953.806	396.62
954.035	372.62
954.263	416.62
954.491	378.62
954.719	424.62
954.948	377.62
955.176	390.62
955.404	332.62
955.632	402.62
955.86	418.62
956.088	411.62
956.316	427.62
956.544	459.62
956.772	412.62
956.999	395.62
957.227	486.62
957.455	387.62
957.683	428.62
957.91	408.62
958.138	411.62
958.365	401.62
958.593	413.62
958.82	360.62
959.048	437.62
959.275	430.62
959.502	407.62
959.73	380.62
959.957	433.62
960.184	428.62
960.411	401.62
960.638	474.62
960.865	413.62
961.092	449.62
961.319	366.62
961.546	458.62
961.773	455.62
962	415.62
962.227	464.62
962.454	447.62
962.68	416.62
962.907	442.62
963.134	406.62
963.36	444.62
963.587	480.62
963.813	419.62
964.04	475.62
964.266	414.62
964.493	495.62
964.719	489.62
964.945	493.62
965.171	398.62
965.398	460.62
965.624	495.62
965.85	442.62
966.076	435.62
966.302	476.62
966.528	454.62
966.754	479.62
966.98	485.62
967.206	493.62
967.431	404.62
967.657	503.62
967.883	491.62
968.109	474.62
968.334	434.62
968.56	417.62
968.785	454.62
969.011	402.62
969.236	475.62
969.462	438.62
969.687	457.62
969.912	489.62
970.138	517.62
970.363	428.62
970.588	479.62
970.813	449.62
971.038	449.62
971.263	480.62
971.488	485.62
971.713	523.62
971.938	504.62
972.163	425.62
972.388	460.62
972.613	452.62
972.838	462.62
973.062	463.62
973.287	450.62
973.512	407.62
973.736	459.62
973.961	446.62
974.185	429.62
974.41	490.62
974.634	403.62
974.858	424.62
975.083	471.62
975.307	489.62
975.531	435.62
975.755	405.62
975.98	443.62
976.204	383.62
976.428	387.62
976.652	401.62
976.876	397.62
977.1	442.62
977.324	405.62
977.547	450.62
977.771	472.62
977.995	434.62
978.219	395.62
978.442	504.62
978.666	454.62
978.89	446.62
979.113	453.62
979.337	436.62
979.56	423.62
979.783	517.62
980.007	409.62
980.23	439.62
980.453	431.62
980.677	469.62
980.9	461.62
981.123	376.62
981.346	484.62
981.569	468.62
981.792	484.62
982.015	444.62
982.238	415.62
982.461	463.62
982.684	434.62
982.907	427.62
983.129	425.62
983.352	493.62
983.575	459.62
983.797	479.62
984.02	439.62
984.242	434.62
984.465	450.62
984.687	490.62
984.91	513.62
985.132	484.62
985.354	523.62
985.577	483.62
985.799	496.62
986.021	414.62
986.243	452.62
986.465	476.62
986.687	526.62
986.909	557.62
987.131	500.62
987.353	468.62
987.575	508.62
987.797	482.62
988.019	425.62
988.241	483.62
988.462	438.62
988.684	519.62
988.906	542.62
989.127	563.62
989.349	452.62
989.57	488.62
989.792	517.62
990.013	527.62
990.234	552.62
990.456	584.62
990.677	541.62
990.898	485.62
991.119	508.62
991.341	550.62
991.562	486.62
991.783	526.62
992.004	477.62
992.225	457.62
992.446	525.62
992.667	456.62
992.887	531.62
993.108	452.62
993.329	585.62
993.55	540.62
993.77	487.62
993.991	487.62
994.212	522.62
994.432	532.62
994.653	534.62
994.873	550.62
995.093	429.62
995.314	495.62
995.534	563.62
995.754	578.62
995.975	599.62
996.195	498.62
996.415	546.62
996.635	528.62
996.855	554.62
997.075	521.62
997.295	516.62
997.515	514.62
997.735	576.62
997.955	536.62
998.174	527.62
998.394	502.62
998.614	550.62
998.834	515.62
999.053	604.62
999.273	550.62
999.492	631.62
999.712	573.62
999.931	537.62
1000.151	596.62
1000.37	575.62
1000.589	645.62
1000.809	558.62
1001.028	680.62
1001.247	636.62
1001.466	526.62
1001.685	682.62
1001.904	634.62
1002.123	627.62
1002.342	636.62
1002.561	610.62
1002.78	634.62
1002.999	709.62
1003.218	645.62
1003.436	624.62
1003.655	680.62
1003.874	623.62
1004.092	627.62
1004.311	696.62
1004.53	653.62
1004.748	726.62
1004.966	649.62
1005.185	699.62
1005.403	697.62
1005.622	685.62
1005.84	753.62
1006.058	667.62
1006.276	677.62
1006.494	1165.62
1006.712	680.62
1006.931	722.62
1007.149	623.62
1007.367	650.62
1007.584	688.62
1007.802	713.62
1008.02	648.62
1008.238	745.62
1008.456	716.62
1008.673	599.62
1008.891	675.62
1009.109	617.62
1009.326	659.62
1009.544	732.62
1009.761	604.62
1009.979	658.62
1010.196	606.62
1010.413	669.62
1010.631	681.62
1010.848	678.62
1011.065	665.62
1011.282	610.62
1011.5	558.62
1011.717	685.62
1011.934	627.62
1012.151	662.62
1012.368	643.62
1012.585	590.62
1012.801	655.62
1013.018	605.62
1013.235	571.62
1013.452	592.62
1013.669	599.62
1013.885	575.62
1014.102	608.62
1014.318	555.62
1014.535	516.62
1014.751	574.62
1014.968	572.62
1015.184	620.62
1015.401	522.62
1015.617	575.62
1015.833	515.62
1016.049	537.62
1016.266	536.62
1016.482	555.62
1016.698	509.62
1016.914	563.62
1017.13	515.62
1017.346	527.62
1017.562	581.62
1017.778	510.62
1017.993	496.62
1018.209	549.62
1018.425	527.62
1018.641	490.62
1018.856	464.62
1019.072	509.62
1019.288	558.62
1019.503	511.62
1019.719	444.62
1019.934	445.62
1020.149	543.62
1020.365	490.62
1020.58	468.62
1020.795	531.62
1021.011	498.62
1021.226	508.62
1021.441	539.62
1021.656	485.62
1021.871	443.62
1022.086	459.62
1022.301	472.62
1022.516	483.62
1022.731	521.62
1022.946	469.62
1023.16	468.62
1023.375	435.62
1023.59	458.62
1023.804	426.62
1024.019	531.62
1024.234	422.62
1024.448	480.62
1024.663	412.62
1024.877	437.62
1025.092	483.62
1025.306	489.62
1025.52	410.62
1025.734	513.62
1025.949	460.62
1026.163	435.62
1026.377	391.62
1026.591	456.62
1026.805	384.62
1027.019	404.62
1027.233	353.62
1027.447	316.62
1027.661	434.62
1027.875	371.62
1028.088	384.62
1028.302	334.62
1028.516	336.62
1028.73	357.62
1028.943	356.62
1029.157	333.62
1029.37	316.62
1029.584	-3.38
1029.797	-1.38
1030.011	-0.38
1030.224	-2.38
