Data from QEP037381__87__10-26-41-074.txt Node

Date: Fri Apr 21 10:26:41 EDT 2023
User: dcclab
Spectrometer: QEP03738
Trigger mode: 4
Integration Time (sec): 1.000000E1
Scans to average: 1
Electric dark correction enabled: true
Nonlinearity correction enabled: false
Boxcar width: 0
XAxis mode: Wavelengths
Number of Pixels in Spectrum: 1044
>>>>>Begin Spectral Data<<<<<
784.041	12.62
784.3	0.62
784.558	-5.38
784.817	-3.38
785.075	223.62
785.334	205.62
785.592	201.62
785.851	191.62
786.109	221.62
786.368	238.62
786.626	254.62
786.884	272.62
787.143	266.62
787.401	211.62
787.659	277.62
787.917	256.62
788.175	304.62
788.433	278.62
788.691	271.62
788.949	284.62
789.207	300.62
789.465	247.62
789.723	276.62
789.98	260.62
790.238	304.62
790.496	302.62
790.753	294.62
791.011	354.62
791.268	299.62
791.526	310.62
791.783	331.62
792.041	317.62
792.298	247.62
792.556	322.62
792.813	304.62
793.07	292.62
793.327	284.62
793.584	378.62
793.841	305.62
794.099	325.62
794.356	380.62
794.613	292.62
794.869	325.62
795.126	300.62
795.383	280.62
795.64	305.62
795.897	265.62
796.153	324.62
796.41	308.62
796.667	293.62
796.923	309.62
797.18	303.62
797.436	328.62
797.693	295.62
797.949	338.62
798.206	363.62
798.462	275.62
798.718	314.62
798.974	316.62
799.231	334.62
799.487	322.62
799.743	320.62
799.999	346.62
800.255	334.62
800.511	313.62
800.767	334.62
801.023	306.62
801.279	320.62
801.534	333.62
801.79	330.62
802.046	311.62
802.302	353.62
802.557	334.62
802.813	348.62
803.068	288.62
803.324	330.62
803.579	312.62
803.835	298.62
804.09	341.62
804.345	291.62
804.601	262.62
804.856	304.62
805.111	317.62
805.366	294.62
805.621	322.62
805.876	322.62
806.131	334.62
806.386	297.62
806.641	284.62
806.896	318.62
807.151	368.62
807.406	322.62
807.661	343.62
807.915	315.62
808.17	338.62
808.425	322.62
808.679	277.62
808.934	370.62
809.188	308.62
809.443	339.62
809.697	362.62
809.951	304.62
810.206	295.62
810.46	348.62
810.714	330.62
810.968	364.62
811.223	275.62
811.477	321.62
811.731	342.62
811.985	268.62
812.239	248.62
812.493	276.62
812.747	310.62
813	256.62
813.254	318.62
813.508	327.62
813.762	308.62
814.015	301.62
814.269	323.62
814.522	324.62
814.776	335.62
815.03	344.62
815.283	325.62
815.536	327.62
815.79	345.62
816.043	336.62
816.296	326.62
816.55	309.62
816.803	312.62
817.056	386.62
817.309	330.62
817.562	331.62
817.815	378.62
818.068	288.62
818.321	285.62
818.574	283.62
818.827	345.62
819.079	291.62
819.332	403.62
819.585	335.62
819.838	399.62
820.09	313.62
820.343	354.62
820.595	279.62
820.848	339.62
821.1	337.62
821.353	317.62
821.605	321.62
821.857	381.62
822.11	268.62
822.362	291.62
822.614	270.62
822.866	326.62
823.118	266.62
823.37	365.62
823.622	315.62
823.874	313.62
824.126	349.62
824.378	279.62
824.63	306.62
824.882	321.62
825.134	302.62
825.385	350.62
825.637	323.62
825.888	305.62
826.14	317.62
826.392	289.62
826.643	290.62
826.895	371.62
827.146	306.62
827.397	302.62
827.649	386.62
827.9	304.62
828.151	282.62
828.402	276.62
828.653	333.62
828.905	327.62
829.156	381.62
829.407	284.62
829.658	318.62
829.909	360.62
830.159	342.62
830.41	340.62
830.661	361.62
830.912	343.62
831.162	320.62
831.413	311.62
831.664	351.62
831.914	318.62
832.165	338.62
832.415	328.62
832.666	337.62
832.916	352.62
833.167	307.62
833.417	374.62
833.667	342.62
833.917	328.62
834.168	383.62
834.418	358.62
834.668	317.62
834.918	299.62
835.168	311.62
835.418	262.62
835.668	330.62
835.918	360.62
836.167	355.62
836.417	289.62
836.667	356.62
836.917	380.62
837.166	311.62
837.416	352.62
837.666	355.62
837.915	310.62
838.165	347.62
838.414	304.62
838.663	272.62
838.913	337.62
839.162	301.62
839.411	379.62
839.661	308.62
839.91	311.62
840.159	320.62
840.408	334.62
840.657	311.62
840.906	339.62
841.155	364.62
841.404	329.62
841.653	337.62
841.902	304.62
842.15	338.62
842.399	349.62
842.648	315.62
842.897	349.62
843.145	291.62
843.394	292.62
843.642	309.62
843.891	363.62
844.139	329.62
844.388	293.62
844.636	256.62
844.884	320.62
845.133	307.62
845.381	316.62
845.629	363.62
845.877	293.62
846.125	310.62
846.373	336.62
846.621	296.62
846.869	351.62
847.117	325.62
847.365	331.62
847.613	329.62
847.861	345.62
848.108	382.62
848.356	350.62
848.604	302.62
848.851	339.62
849.099	339.62
849.346	320.62
849.594	340.62
849.841	357.62
850.089	320.62
850.336	293.62
850.583	306.62
850.831	320.62
851.078	317.62
851.325	301.62
851.572	362.62
851.819	372.62
852.066	342.62
852.313	321.62
852.56	296.62
852.807	276.62
853.054	290.62
853.301	324.62
853.548	309.62
853.794	403.62
854.041	340.62
854.288	280.62
854.534	397.62
854.781	315.62
855.028	302.62
855.274	384.62
855.52	340.62
855.767	298.62
856.013	351.62
856.26	640.62
856.506	308.62
856.752	352.62
856.998	324.62
857.244	319.62
857.49	339.62
857.736	347.62
857.982	345.62
858.228	357.62
858.474	296.62
858.72	341.62
858.966	341.62
859.212	350.62
859.458	328.62
859.703	347.62
859.949	326.62
860.195	365.62
860.44	362.62
860.686	313.62
860.931	382.62
861.177	318.62
861.422	369.62
861.667	319.62
861.913	312.62
862.158	327.62
862.403	376.62
862.648	365.62
862.893	382.62
863.138	344.62
863.384	310.62
863.629	367.62
863.873	344.62
864.118	330.62
864.363	272.62
864.608	346.62
864.853	372.62
865.098	329.62
865.342	346.62
865.587	329.62
865.832	376.62
866.076	358.62
866.321	324.62
866.565	338.62
866.81	279.62
867.054	335.62
867.298	343.62
867.543	306.62
867.787	372.62
868.031	333.62
868.275	348.62
868.519	344.62
868.764	341.62
869.008	320.62
869.252	376.62
869.496	346.62
869.739	338.62
869.983	380.62
870.227	363.62
870.471	319.62
870.715	353.62
870.958	355.62
871.202	308.62
871.446	330.62
871.689	310.62
871.933	340.62
872.176	351.62
872.42	332.62
872.663	303.62
872.906	373.62
873.15	332.62
873.393	291.62
873.636	362.62
873.879	350.62
874.122	390.62
874.366	340.62
874.609	367.62
874.852	333.62
875.095	346.62
875.337	317.62
875.58	271.62
875.823	330.62
876.066	378.62
876.309	411.62
876.551	301.62
876.794	295.62
877.037	361.62
877.279	293.62
877.522	307.62
877.764	365.62
878.007	312.62
878.249	345.62
878.491	307.62
878.734	370.62
878.976	359.62
879.218	303.62
879.46	386.62
879.702	393.62
879.945	368.62
880.187	338.62
880.429	381.62
880.671	356.62
880.912	374.62
881.154	374.62
881.396	280.62
881.638	350.62
881.88	359.62
882.121	313.62
882.363	335.62
882.605	393.62
882.846	362.62
883.088	367.62
883.329	317.62
883.571	291.62
883.812	315.62
884.053	325.62
884.295	324.62
884.536	400.62
884.777	321.62
885.018	334.62
885.259	364.62
885.5	303.62
885.742	508.62
885.982	371.62
886.223	312.62
886.464	329.62
886.705	286.62
886.946	351.62
887.187	276.62
887.428	381.62
887.668	329.62
887.909	300.62
888.15	301.62
888.39	347.62
888.631	419.62
888.871	379.62
889.111	362.62
889.352	357.62
889.592	326.62
889.833	349.62
890.073	340.62
890.313	410.62
890.553	309.62
890.793	357.62
891.033	317.62
891.273	332.62
891.513	349.62
891.753	410.62
891.993	358.62
892.233	365.62
892.473	424.62
892.713	365.62
892.952	311.62
893.192	363.62
893.432	328.62
893.671	385.62
893.911	342.62
894.15	348.62
894.39	289.62
894.629	337.62
894.869	379.62
895.108	357.62
895.347	325.62
895.587	365.62
895.826	324.62
896.065	324.62
896.304	366.62
896.543	391.62
896.782	282.62
897.021	352.62
897.26	355.62
897.499	401.62
897.738	403.62
897.977	361.62
898.216	339.62
898.454	351.62
898.693	331.62
898.932	375.62
899.17	364.62
899.409	361.62
899.647	351.62
899.886	336.62
900.124	379.62
900.363	321.62
900.601	359.62
900.839	362.62
901.078	353.62
901.316	344.62
901.554	344.62
901.792	361.62
902.03	305.62
902.268	333.62
902.506	381.62
902.744	331.62
902.982	384.62
903.22	310.62
903.458	341.62
903.695	366.62
903.933	369.62
904.171	325.62
904.409	336.62
904.646	388.62
904.884	341.62
905.121	412.62
905.359	379.62
905.596	384.62
905.833	344.62
906.071	343.62
906.308	395.62
906.545	374.62
906.783	326.62
907.02	356.62
907.257	312.62
907.494	339.62
907.731	361.62
907.968	382.62
908.205	328.62
908.442	343.62
908.679	355.62
908.915	358.62
909.152	378.62
909.389	301.62
909.626	341.62
909.862	326.62
910.099	365.62
910.335	412.62
910.572	298.62
910.808	359.62
911.045	338.62
911.281	323.62
911.518	415.62
911.754	340.62
911.99	371.62
912.226	351.62
912.463	324.62
912.699	334.62
912.935	361.62
913.171	355.62
913.407	343.62
913.643	389.62
913.879	373.62
914.114	360.62
914.35	348.62
914.586	350.62
914.822	338.62
915.057	437.62
915.293	315.62
915.529	315.62
915.764	391.62
916	380.62
916.235	371.62
916.471	404.62
916.706	307.62
916.941	352.62
917.177	341.62
917.412	390.62
917.647	389.62
917.882	342.62
918.117	397.62
918.352	380.62
918.588	432.62
918.823	358.62
919.057	372.62
919.292	297.62
919.527	402.62
919.762	358.62
919.997	420.62
920.232	362.62
920.466	411.62
920.701	321.62
920.935	393.62
921.17	357.62
921.405	334.62
921.639	405.62
921.873	377.62
922.108	395.62
922.342	401.62
922.576	333.62
922.811	348.62
923.045	402.62
923.279	422.62
923.513	304.62
923.747	416.62
923.981	396.62
924.215	353.62
924.449	368.62
924.683	335.62
924.917	356.62
925.151	359.62
925.385	439.62
925.618	387.62
925.852	390.62
926.086	327.62
926.319	366.62
926.553	376.62
926.786	387.62
927.02	371.62
927.253	412.62
927.486	411.62
927.72	337.62
927.953	396.62
928.186	363.62
928.42	405.62
928.653	352.62
928.886	348.62
929.119	399.62
929.352	371.62
929.585	400.62
929.818	360.62
930.051	405.62
930.284	415.62
930.516	347.62
930.749	355.62
930.982	428.62
931.215	399.62
931.447	351.62
931.68	373.62
931.912	358.62
932.145	368.62
932.377	383.62
932.61	499.62
932.842	321.62
933.074	401.62
933.307	344.62
933.539	444.62
933.771	415.62
934.003	381.62
934.236	433.62
934.468	463.62
934.7	358.62
934.932	417.62
935.164	362.62
935.395	349.62
935.627	387.62
935.859	397.62
936.091	333.62
936.323	399.62
936.554	446.62
936.786	385.62
937.017	346.62
937.249	406.62
937.481	327.62
937.712	405.62
937.943	386.62
938.175	376.62
938.406	358.62
938.637	438.62
938.869	334.62
939.1	400.62
939.331	374.62
939.562	410.62
939.793	394.62
940.024	427.62
940.255	442.62
940.486	394.62
940.717	392.62
940.948	398.62
941.179	360.62
941.409	385.62
941.64	384.62
941.871	404.62
942.102	370.62
942.332	382.62
942.563	410.62
942.793	407.62
943.024	338.62
943.254	387.62
943.484	422.62
943.715	412.62
943.945	402.62
944.175	340.62
944.405	319.62
944.636	333.62
944.866	398.62
945.096	412.62
945.326	333.62
945.556	402.62
945.786	432.62
946.016	383.62
946.245	342.62
946.475	379.62
946.705	367.62
946.935	384.62
947.164	405.62
947.394	378.62
947.624	413.62
947.853	426.62
948.083	398.62
948.312	383.62
948.542	340.62
948.771	330.62
949	364.62
949.23	374.62
949.459	382.62
949.688	436.62
949.917	394.62
950.146	404.62
950.375	458.62
950.604	352.62
950.833	450.62
951.062	438.62
951.291	402.62
951.52	378.62
951.749	397.62
951.978	365.62
952.206	377.62
952.435	366.62
952.664	411.62
952.892	443.62
953.121	417.62
953.349	439.62
953.578	436.62
953.806	416.62
954.035	365.62
954.263	417.62
954.491	361.62
954.719	432.62
954.948	391.62
955.176	396.62
955.404	338.62
955.632	413.62
955.86	422.62
956.088	415.62
956.316	449.62
956.544	471.62
956.772	411.62
956.999	397.62
957.227	488.62
957.455	398.62
957.683	431.62
957.91	392.62
958.138	400.62
958.365	393.62
958.593	413.62
958.82	366.62
959.048	438.62
959.275	400.62
959.502	413.62
959.73	391.62
959.957	417.62
960.184	460.62
960.411	401.62
960.638	471.62
960.865	434.62
961.092	460.62
961.319	366.62
961.546	466.62
961.773	465.62
962	418.62
962.227	472.62
962.454	428.62
962.68	421.62
962.907	457.62
963.134	406.62
963.36	456.62
963.587	490.62
963.813	421.62
964.04	487.62
964.266	415.62
964.493	505.62
964.719	483.62
964.945	476.62
965.171	400.62
965.398	470.62
965.624	490.62
965.85	417.62
966.076	429.62
966.302	480.62
966.528	444.62
966.754	471.62
966.98	477.62
967.206	471.62
967.431	416.62
967.657	496.62
967.883	488.62
968.109	485.62
968.334	423.62
968.56	411.62
968.785	450.62
969.011	420.62
969.236	474.62
969.462	423.62
969.687	457.62
969.912	504.62
970.138	516.62
970.363	440.62
970.588	478.62
970.813	459.62
971.038	433.62
971.263	477.62
971.488	487.62
971.713	513.62
971.938	518.62
972.163	431.62
972.388	462.62
972.613	447.62
972.838	453.62
973.062	461.62
973.287	484.62
973.512	414.62
973.736	457.62
973.961	446.62
974.185	430.62
974.41	471.62
974.634	396.62
974.858	423.62
975.083	468.62
975.307	492.62
975.531	447.62
975.755	385.62
975.98	433.62
976.204	398.62
976.428	396.62
976.652	407.62
976.876	398.62
977.1	437.62
977.324	410.62
977.547	467.62
977.771	458.62
977.995	447.62
978.219	374.62
978.442	517.62
978.666	426.62
978.89	442.62
979.113	454.62
979.337	444.62
979.56	399.62
979.783	507.62
980.007	411.62
980.23	442.62
980.453	414.62
980.677	451.62
980.9	459.62
981.123	370.62
981.346	486.62
981.569	452.62
981.792	480.62
982.015	450.62
982.238	451.62
982.461	458.62
982.684	440.62
982.907	441.62
983.129	432.62
983.352	491.62
983.575	467.62
983.797	479.62
984.02	424.62
984.242	440.62
984.465	471.62
984.687	483.62
984.91	508.62
985.132	479.62
985.354	503.62
985.577	483.62
985.799	474.62
986.021	430.62
986.243	457.62
986.465	466.62
986.687	519.62
986.909	557.62
987.131	504.62
987.353	461.62
987.575	502.62
987.797	475.62
988.019	424.62
988.241	493.62
988.462	440.62
988.684	513.62
988.906	534.62
989.127	572.62
989.349	447.62
989.57	481.62
989.792	519.62
990.013	545.62
990.234	542.62
990.456	574.62
990.677	568.62
990.898	496.62
991.119	517.62
991.341	549.62
991.562	489.62
991.783	527.62
992.004	474.62
992.225	464.62
992.446	509.62
992.667	444.62
992.887	543.62
993.108	443.62
993.329	596.62
993.55	534.62
993.77	481.62
993.991	496.62
994.212	531.62
994.432	521.62
994.653	546.62
994.873	536.62
995.093	430.62
995.314	491.62
995.534	573.62
995.754	580.62
995.975	602.62
996.195	501.62
996.415	562.62
996.635	537.62
996.855	531.62
997.075	527.62
997.295	521.62
997.515	500.62
997.735	572.62
997.955	526.62
998.174	514.62
998.394	507.62
998.614	566.62
998.834	512.62
999.053	609.62
999.273	557.62
999.492	643.62
999.712	563.62
999.931	537.62
1000.151	584.62
1000.37	573.62
1000.589	633.62
1000.809	564.62
1001.028	691.62
1001.247	616.62
1001.466	530.62
1001.685	673.62
1001.904	633.62
1002.123	632.62
1002.342	641.62
1002.561	612.62
1002.78	603.62
1002.999	695.62
1003.218	633.62
1003.436	610.62
1003.655	675.62
1003.874	614.62
1004.092	668.62
1004.311	687.62
1004.53	645.62
1004.748	735.62
1004.966	653.62
1005.185	717.62
1005.403	694.62
1005.622	690.62
1005.84	769.62
1006.058	657.62
1006.276	698.62
1006.494	1157.62
1006.712	688.62
1006.931	742.62
1007.149	648.62
1007.367	668.62
1007.584	678.62
1007.802	723.62
1008.02	647.62
1008.238	735.62
1008.456	718.62
1008.673	589.62
1008.891	665.62
1009.109	645.62
1009.326	658.62
1009.544	719.62
1009.761	609.62
1009.979	659.62
1010.196	624.62
1010.413	666.62
1010.631	662.62
1010.848	669.62
1011.065	654.62
1011.282	605.62
1011.5	567.62
1011.717	664.62
1011.934	620.62
1012.151	666.62
1012.368	656.62
1012.585	582.62
1012.801	649.62
1013.018	633.62
1013.235	572.62
1013.452	603.62
1013.669	586.62
1013.885	569.62
1014.102	579.62
1014.318	575.62
1014.535	551.62
1014.751	559.62
1014.968	571.62
1015.184	613.62
1015.401	523.62
1015.617	578.62
1015.833	534.62
1016.049	547.62
1016.266	539.62
1016.482	543.62
1016.698	493.62
1016.914	567.62
1017.13	511.62
1017.346	514.62
1017.562	572.62
1017.778	535.62
1017.993	487.62
1018.209	551.62
1018.425	534.62
1018.641	490.62
1018.856	472.62
1019.072	501.62
1019.288	566.62
1019.503	499.62
1019.719	441.62
1019.934	456.62
1020.149	532.62
1020.365	499.62
1020.58	448.62
1020.795	546.62
1021.011	501.62
1021.226	494.62
1021.441	560.62
1021.656	493.62
1021.871	444.62
1022.086	463.62
1022.301	479.62
1022.516	477.62
1022.731	542.62
1022.946	471.62
1023.16	457.62
1023.375	457.62
1023.59	449.62
1023.804	417.62
1024.019	537.62
1024.234	426.62
1024.448	470.62
1024.663	413.62
1024.877	453.62
1025.092	461.62
1025.306	504.62
1025.52	405.62
1025.734	508.62
1025.949	436.62
1026.163	428.62
1026.377	393.62
1026.591	447.62
1026.805	382.62
1027.019	387.62
1027.233	351.62
1027.447	321.62
1027.661	425.62
1027.875	377.62
1028.088	405.62
1028.302	339.62
1028.516	339.62
1028.73	346.62
1028.943	356.62
1029.157	327.62
1029.37	308.62
1029.584	-0.38
1029.797	-1.38
1030.011	-1.38
1030.224	-1.38
