Data from QEP037381__22__10-15-51-059.txt Node

Date: Fri Apr 21 10:15:51 EDT 2023
User: dcclab
Spectrometer: QEP03738
Trigger mode: 4
Integration Time (sec): 1.000000E1
Scans to average: 1
Electric dark correction enabled: true
Nonlinearity correction enabled: false
Boxcar width: 0
XAxis mode: Wavelengths
Number of Pixels in Spectrum: 1044
>>>>>Begin Spectral Data<<<<<
784.041	12.88
784.3	-3.12
784.558	-1.12
784.817	-3.12
785.075	238.88
785.334	211.88
785.592	207.88
785.851	197.88
786.109	225.88
786.368	245.88
786.626	253.88
786.884	264.88
787.143	259.88
787.401	199.88
787.659	281.88
787.917	261.88
788.175	291.88
788.433	273.88
788.691	281.88
788.949	276.88
789.207	306.88
789.465	247.88
789.723	274.88
789.98	249.88
790.238	314.88
790.496	297.88
790.753	289.88
791.011	348.88
791.268	305.88
791.526	292.88
791.783	333.88
792.041	327.88
792.298	248.88
792.556	329.88
792.813	319.88
793.07	291.88
793.327	299.88
793.584	368.88
793.841	300.88
794.099	326.88
794.356	385.88
794.613	282.88
794.869	320.88
795.126	305.88
795.383	284.88
795.64	311.88
795.897	257.88
796.153	330.88
796.41	308.88
796.667	293.88
796.923	295.88
797.18	299.88
797.436	318.88
797.693	288.88
797.949	351.88
798.206	364.88
798.462	264.88
798.718	328.88
798.974	309.88
799.231	344.88
799.487	339.88
799.743	328.88
799.999	339.88
800.255	313.88
800.511	298.88
800.767	330.88
801.023	311.88
801.279	321.88
801.534	339.88
801.79	332.88
802.046	317.88
802.302	356.88
802.557	344.88
802.813	345.88
803.068	295.88
803.324	331.88
803.579	310.88
803.835	298.88
804.09	345.88
804.345	284.88
804.601	266.88
804.856	306.88
805.111	325.88
805.366	309.88
805.621	318.88
805.876	344.88
806.131	321.88
806.386	322.88
806.641	285.88
806.896	302.88
807.151	371.88
807.406	313.88
807.661	329.88
807.915	317.88
808.17	330.88
808.425	321.88
808.679	291.88
808.934	384.88
809.188	306.88
809.443	340.88
809.697	371.88
809.951	304.88
810.206	301.88
810.46	353.88
810.714	338.88
810.968	355.88
811.223	279.88
811.477	328.88
811.731	350.88
811.985	280.88
812.239	237.88
812.493	283.88
812.747	310.88
813	273.88
813.254	328.88
813.508	337.88
813.762	296.88
814.015	307.88
814.269	324.88
814.522	347.88
814.776	351.88
815.03	323.88
815.283	323.88
815.536	329.88
815.79	337.88
816.043	342.88
816.296	335.88
816.55	322.88
816.803	311.88
817.056	406.88
817.309	334.88
817.562	330.88
817.815	373.88
818.068	297.88
818.321	288.88
818.574	289.88
818.827	349.88
819.079	298.88
819.332	422.88
819.585	344.88
819.838	386.88
820.09	307.88
820.343	371.88
820.595	278.88
820.848	339.88
821.1	358.88
821.353	326.88
821.605	321.88
821.857	395.88
822.11	282.88
822.362	309.88
822.614	277.88
822.866	336.88
823.118	270.88
823.37	373.88
823.622	326.88
823.874	312.88
824.126	356.88
824.378	291.88
824.63	307.88
824.882	334.88
825.134	323.88
825.385	353.88
825.637	329.88
825.888	303.88
826.14	328.88
826.392	305.88
826.643	275.88
826.895	378.88
827.146	322.88
827.397	299.88
827.649	383.88
827.9	307.88
828.151	286.88
828.402	288.88
828.653	324.88
828.905	332.88
829.156	373.88
829.407	292.88
829.658	318.88
829.909	358.88
830.159	340.88
830.41	336.88
830.661	364.88
830.912	330.88
831.162	314.88
831.413	322.88
831.664	348.88
831.914	318.88
832.165	336.88
832.415	327.88
832.666	345.88
832.916	345.88
833.167	295.88
833.417	377.88
833.667	348.88
833.917	331.88
834.168	392.88
834.418	355.88
834.668	334.88
834.918	286.88
835.168	304.88
835.418	271.88
835.668	328.88
835.918	353.88
836.167	340.88
836.417	291.88
836.667	363.88
836.917	361.88
837.166	324.88
837.416	365.88
837.666	356.88
837.915	331.88
838.165	343.88
838.414	313.88
838.663	275.88
838.913	345.88
839.162	293.88
839.411	388.88
839.661	298.88
839.91	326.88
840.159	316.88
840.408	330.88
840.657	329.88
840.906	336.88
841.155	363.88
841.404	337.88
841.653	333.88
841.902	301.88
842.15	340.88
842.399	333.88
842.648	324.88
842.897	347.88
843.145	282.88
843.394	309.88
843.642	325.88
843.891	359.88
844.139	329.88
844.388	294.88
844.636	270.88
844.884	321.88
845.133	296.88
845.381	317.88
845.629	367.88
845.877	296.88
846.125	305.88
846.373	320.88
846.621	301.88
846.869	345.88
847.117	331.88
847.365	328.88
847.613	342.88
847.861	345.88
848.108	375.88
848.356	355.88
848.604	309.88
848.851	334.88
849.099	330.88
849.346	325.88
849.594	337.88
849.841	362.88
850.089	309.88
850.336	305.88
850.583	311.88
850.831	325.88
851.078	332.88
851.325	299.88
851.572	369.88
851.819	359.88
852.066	320.88
852.313	307.88
852.56	304.88
852.807	289.88
853.054	292.88
853.301	318.88
853.548	309.88
853.794	410.88
854.041	332.88
854.288	279.88
854.534	392.88
854.781	309.88
855.028	303.88
855.274	395.88
855.52	336.88
855.767	298.88
856.013	342.88
856.26	624.88
856.506	305.88
856.752	369.88
856.998	323.88
857.244	302.88
857.49	351.88
857.736	349.88
857.982	349.88
858.228	356.88
858.474	296.88
858.72	332.88
858.966	342.88
859.212	340.88
859.458	325.88
859.703	351.88
859.949	314.88
860.195	375.88
860.44	353.88
860.686	318.88
860.931	393.88
861.177	329.88
861.422	371.88
861.667	318.88
861.913	331.88
862.158	339.88
862.403	386.88
862.648	360.88
862.893	387.88
863.138	339.88
863.384	313.88
863.629	366.88
863.873	352.88
864.118	324.88
864.363	275.88
864.608	344.88
864.853	383.88
865.098	340.88
865.342	356.88
865.587	328.88
865.832	381.88
866.076	349.88
866.321	326.88
866.565	329.88
866.81	279.88
867.054	337.88
867.298	338.88
867.543	304.88
867.787	363.88
868.031	338.88
868.275	344.88
868.519	345.88
868.764	346.88
869.008	339.88
869.252	379.88
869.496	335.88
869.739	337.88
869.983	384.88
870.227	360.88
870.471	317.88
870.715	361.88
870.958	352.88
871.202	312.88
871.446	345.88
871.689	307.88
871.933	344.88
872.176	342.88
872.42	322.88
872.663	327.88
872.906	381.88
873.15	320.88
873.393	290.88
873.636	377.88
873.879	361.88
874.122	400.88
874.366	343.88
874.609	366.88
874.852	354.88
875.095	341.88
875.337	314.88
875.58	278.88
875.823	334.88
876.066	371.88
876.309	398.88
876.551	306.88
876.794	288.88
877.037	366.88
877.279	305.88
877.522	311.88
877.764	368.88
878.007	313.88
878.249	345.88
878.491	303.88
878.734	363.88
878.976	349.88
879.218	306.88
879.46	383.88
879.702	378.88
879.945	357.88
880.187	330.88
880.429	372.88
880.671	365.88
880.912	393.88
881.154	376.88
881.396	272.88
881.638	363.88
881.88	360.88
882.121	314.88
882.363	327.88
882.605	393.88
882.846	370.88
883.088	367.88
883.329	322.88
883.571	300.88
883.812	319.88
884.053	323.88
884.295	331.88
884.536	403.88
884.777	330.88
885.018	335.88
885.259	361.88
885.5	304.88
885.742	521.88
885.982	362.88
886.223	318.88
886.464	323.88
886.705	293.88
886.946	349.88
887.187	288.88
887.428	380.88
887.668	324.88
887.909	310.88
888.15	296.88
888.39	358.88
888.631	401.88
888.871	385.88
889.111	363.88
889.352	365.88
889.592	333.88
889.833	352.88
890.073	345.88
890.313	419.88
890.553	312.88
890.793	343.88
891.033	328.88
891.273	327.88
891.513	345.88
891.753	423.88
891.993	353.88
892.233	365.88
892.473	421.88
892.713	368.88
892.952	316.88
893.192	350.88
893.432	329.88
893.671	386.88
893.911	345.88
894.15	346.88
894.39	293.88
894.629	345.88
894.869	368.88
895.108	350.88
895.347	329.88
895.587	366.88
895.826	319.88
896.065	314.88
896.304	358.88
896.543	388.88
896.782	307.88
897.021	358.88
897.26	344.88
897.499	397.88
897.738	401.88
897.977	370.88
898.216	362.88
898.454	341.88
898.693	330.88
898.932	377.88
899.17	351.88
899.409	364.88
899.647	352.88
899.886	331.88
900.124	355.88
900.363	307.88
900.601	361.88
900.839	357.88
901.078	377.88
901.316	368.88
901.554	339.88
901.792	360.88
902.03	310.88
902.268	338.88
902.506	392.88
902.744	325.88
902.982	380.88
903.22	313.88
903.458	338.88
903.695	377.88
903.933	389.88
904.171	319.88
904.409	351.88
904.646	402.88
904.884	353.88
905.121	419.88
905.359	376.88
905.596	381.88
905.833	331.88
906.071	356.88
906.308	401.88
906.545	377.88
906.783	317.88
907.02	348.88
907.257	306.88
907.494	346.88
907.731	353.88
907.968	384.88
908.205	330.88
908.442	342.88
908.679	365.88
908.915	349.88
909.152	378.88
909.389	300.88
909.626	346.88
909.862	323.88
910.099	353.88
910.335	406.88
910.572	301.88
910.808	370.88
911.045	345.88
911.281	320.88
911.518	417.88
911.754	344.88
911.99	363.88
912.226	359.88
912.463	330.88
912.699	329.88
912.935	358.88
913.171	333.88
913.407	336.88
913.643	403.88
913.879	374.88
914.114	360.88
914.35	332.88
914.586	354.88
914.822	331.88
915.057	434.88
915.293	320.88
915.529	334.88
915.764	404.88
916	384.88
916.235	376.88
916.471	390.88
916.706	326.88
916.941	346.88
917.177	349.88
917.412	396.88
917.647	386.88
917.882	347.88
918.117	405.88
918.352	384.88
918.588	424.88
918.823	362.88
919.057	362.88
919.292	286.88
919.527	423.88
919.762	349.88
919.997	433.88
920.232	385.88
920.466	441.88
920.701	318.88
920.935	396.88
921.17	356.88
921.405	334.88
921.639	406.88
921.873	374.88
922.108	403.88
922.342	401.88
922.576	350.88
922.811	345.88
923.045	403.88
923.279	417.88
923.513	299.88
923.747	413.88
923.981	385.88
924.215	344.88
924.449	378.88
924.683	348.88
924.917	356.88
925.151	366.88
925.385	432.88
925.618	390.88
925.852	394.88
926.086	329.88
926.319	391.88
926.553	384.88
926.786	391.88
927.02	361.88
927.253	423.88
927.486	420.88
927.72	343.88
927.953	403.88
928.186	366.88
928.42	395.88
928.653	358.88
928.886	342.88
929.119	400.88
929.352	374.88
929.585	383.88
929.818	358.88
930.051	392.88
930.284	409.88
930.516	329.88
930.749	349.88
930.982	412.88
931.215	407.88
931.447	355.88
931.68	374.88
931.912	361.88
932.145	377.88
932.377	389.88
932.61	494.88
932.842	319.88
933.074	404.88
933.307	345.88
933.539	433.88
933.771	417.88
934.003	374.88
934.236	441.88
934.468	471.88
934.7	365.88
934.932	407.88
935.164	349.88
935.395	341.88
935.627	387.88
935.859	398.88
936.091	335.88
936.323	408.88
936.554	436.88
936.786	378.88
937.017	351.88
937.249	392.88
937.481	335.88
937.712	417.88
937.943	376.88
938.175	374.88
938.406	379.88
938.637	438.88
938.869	348.88
939.1	412.88
939.331	368.88
939.562	418.88
939.793	396.88
940.024	429.88
940.255	446.88
940.486	386.88
940.717	380.88
940.948	381.88
941.179	365.88
941.409	387.88
941.64	366.88
941.871	405.88
942.102	366.88
942.332	376.88
942.563	426.88
942.793	381.88
943.024	338.88
943.254	370.88
943.484	422.88
943.715	432.88
943.945	387.88
944.175	322.88
944.405	323.88
944.636	355.88
944.866	384.88
945.096	407.88
945.326	329.88
945.556	402.88
945.786	426.88
946.016	390.88
946.245	357.88
946.475	371.88
946.705	364.88
946.935	395.88
947.164	402.88
947.394	354.88
947.624	390.88
947.853	435.88
948.083	406.88
948.312	385.88
948.542	353.88
948.771	330.88
949	366.88
949.23	367.88
949.459	383.88
949.688	445.88
949.917	395.88
950.146	408.88
950.375	461.88
950.604	358.88
950.833	450.88
951.062	436.88
951.291	390.88
951.52	365.88
951.749	398.88
951.978	355.88
952.206	376.88
952.435	374.88
952.664	405.88
952.892	440.88
953.121	407.88
953.349	453.88
953.578	440.88
953.806	408.88
954.035	365.88
954.263	425.88
954.491	376.88
954.719	421.88
954.948	394.88
955.176	392.88
955.404	325.88
955.632	396.88
955.86	413.88
956.088	413.88
956.316	442.88
956.544	462.88
956.772	417.88
956.999	413.88
957.227	483.88
957.455	396.88
957.683	424.88
957.91	397.88
958.138	386.88
958.365	414.88
958.593	396.88
958.82	376.88
959.048	443.88
959.275	432.88
959.502	410.88
959.73	394.88
959.957	426.88
960.184	441.88
960.411	385.88
960.638	480.88
960.865	418.88
961.092	437.88
961.319	350.88
961.546	442.88
961.773	459.88
962	419.88
962.227	468.88
962.454	428.88
962.68	419.88
962.907	449.88
963.134	404.88
963.36	433.88
963.587	475.88
963.813	433.88
964.04	470.88
964.266	422.88
964.493	507.88
964.719	497.88
964.945	501.88
965.171	400.88
965.398	466.88
965.624	480.88
965.85	423.88
966.076	440.88
966.302	479.88
966.528	451.88
966.754	498.88
966.98	475.88
967.206	470.88
967.431	423.88
967.657	496.88
967.883	495.88
968.109	475.88
968.334	432.88
968.56	437.88
968.785	451.88
969.011	410.88
969.236	481.88
969.462	413.88
969.687	448.88
969.912	481.88
970.138	520.88
970.363	427.88
970.588	480.88
970.813	449.88
971.038	441.88
971.263	471.88
971.488	495.88
971.713	510.88
971.938	495.88
972.163	426.88
972.388	455.88
972.613	443.88
972.838	464.88
973.062	460.88
973.287	462.88
973.512	405.88
973.736	456.88
973.961	440.88
974.185	423.88
974.41	473.88
974.634	403.88
974.858	425.88
975.083	490.88
975.307	504.88
975.531	458.88
975.755	407.88
975.98	439.88
976.204	378.88
976.428	397.88
976.652	396.88
976.876	401.88
977.1	447.88
977.324	419.88
977.547	477.88
977.771	469.88
977.995	447.88
978.219	395.88
978.442	524.88
978.666	455.88
978.89	457.88
979.113	441.88
979.337	445.88
979.56	429.88
979.783	516.88
980.007	409.88
980.23	452.88
980.453	422.88
980.677	463.88
980.9	441.88
981.123	366.88
981.346	473.88
981.569	471.88
981.792	489.88
982.015	446.88
982.238	441.88
982.461	461.88
982.684	434.88
982.907	432.88
983.129	425.88
983.352	487.88
983.575	471.88
983.797	476.88
984.02	433.88
984.242	448.88
984.465	458.88
984.687	495.88
984.91	495.88
985.132	505.88
985.354	509.88
985.577	502.88
985.799	486.88
986.021	412.88
986.243	441.88
986.465	463.88
986.687	502.88
986.909	568.88
987.131	499.88
987.353	469.88
987.575	513.88
987.797	466.88
988.019	408.88
988.241	485.88
988.462	462.88
988.684	503.88
988.906	526.88
989.127	562.88
989.349	452.88
989.57	496.88
989.792	522.88
990.013	556.88
990.234	554.88
990.456	574.88
990.677	549.88
990.898	502.88
991.119	506.88
991.341	554.88
991.562	475.88
991.783	529.88
992.004	468.88
992.225	466.88
992.446	538.88
992.667	456.88
992.887	530.88
993.108	440.88
993.329	596.88
993.55	522.88
993.77	473.88
993.991	483.88
994.212	542.88
994.432	529.88
994.653	537.88
994.873	535.88
995.093	440.88
995.314	489.88
995.534	574.88
995.754	591.88
995.975	592.88
996.195	492.88
996.415	550.88
996.635	543.88
996.855	560.88
997.075	526.88
997.295	526.88
997.515	519.88
997.735	558.88
997.955	547.88
998.174	528.88
998.394	497.88
998.614	565.88
998.834	520.88
999.053	589.88
999.273	574.88
999.492	628.88
999.712	571.88
999.931	542.88
1000.151	578.88
1000.37	568.88
1000.589	650.88
1000.809	570.88
1001.028	690.88
1001.247	620.88
1001.466	526.88
1001.685	661.88
1001.904	625.88
1002.123	610.88
1002.342	638.88
1002.561	588.88
1002.78	625.88
1002.999	696.88
1003.218	634.88
1003.436	607.88
1003.655	670.88
1003.874	613.88
1004.092	651.88
1004.311	710.88
1004.53	654.88
1004.748	749.88
1004.966	650.88
1005.185	719.88
1005.403	699.88
1005.622	673.88
1005.84	756.88
1006.058	651.88
1006.276	677.88
1006.494	1162.88
1006.712	697.88
1006.931	731.88
1007.149	648.88
1007.367	652.88
1007.584	678.88
1007.802	708.88
1008.02	629.88
1008.238	737.88
1008.456	726.88
1008.673	578.88
1008.891	685.88
1009.109	635.88
1009.326	650.88
1009.544	722.88
1009.761	592.88
1009.979	641.88
1010.196	612.88
1010.413	669.88
1010.631	695.88
1010.848	676.88
1011.065	660.88
1011.282	603.88
1011.5	568.88
1011.717	674.88
1011.934	624.88
1012.151	669.88
1012.368	648.88
1012.585	588.88
1012.801	633.88
1013.018	612.88
1013.235	583.88
1013.452	583.88
1013.669	599.88
1013.885	583.88
1014.102	606.88
1014.318	567.88
1014.535	515.88
1014.751	569.88
1014.968	573.88
1015.184	612.88
1015.401	540.88
1015.617	583.88
1015.833	539.88
1016.049	548.88
1016.266	538.88
1016.482	554.88
1016.698	497.88
1016.914	557.88
1017.13	500.88
1017.346	517.88
1017.562	591.88
1017.778	510.88
1017.993	501.88
1018.209	550.88
1018.425	550.88
1018.641	476.88
1018.856	467.88
1019.072	505.88
1019.288	570.88
1019.503	519.88
1019.719	417.88
1019.934	454.88
1020.149	548.88
1020.365	489.88
1020.58	465.88
1020.795	536.88
1021.011	488.88
1021.226	502.88
1021.441	553.88
1021.656	492.88
1021.871	440.88
1022.086	457.88
1022.301	467.88
1022.516	480.88
1022.731	516.88
1022.946	479.88
1023.16	475.88
1023.375	456.88
1023.59	446.88
1023.804	416.88
1024.019	543.88
1024.234	427.88
1024.448	482.88
1024.663	420.88
1024.877	452.88
1025.092	482.88
1025.306	496.88
1025.52	406.88
1025.734	522.88
1025.949	435.88
1026.163	430.88
1026.377	391.88
1026.591	451.88
1026.805	379.88
1027.019	392.88
1027.233	362.88
1027.447	312.88
1027.661	422.88
1027.875	367.88
1028.088	392.88
1028.302	339.88
1028.516	338.88
1028.73	344.88
1028.943	358.88
1029.157	328.88
1029.37	320.88
1029.584	-0.12
1029.797	-2.12
1030.011	-3.12
1030.224	-0.12
