Data from QEP037381__13__10-14-21-057.txt Node

Date: Fri Apr 21 10:14:21 EDT 2023
User: dcclab
Spectrometer: QEP03738
Trigger mode: 4
Integration Time (sec): 1.000000E1
Scans to average: 1
Electric dark correction enabled: true
Nonlinearity correction enabled: false
Boxcar width: 0
XAxis mode: Wavelengths
Number of Pixels in Spectrum: 1044
>>>>>Begin Spectral Data<<<<<
784.041	13.12
784.3	0.12
784.558	-2.88
784.817	-4.88
785.075	245.12
785.334	218.12
785.592	201.12
785.851	202.12
786.109	229.12
786.368	250.12
786.626	263.12
786.884	276.12
787.143	265.12
787.401	219.12
787.659	278.12
787.917	255.12
788.175	298.12
788.433	281.12
788.691	270.12
788.949	293.12
789.207	306.12
789.465	246.12
789.723	271.12
789.98	261.12
790.238	319.12
790.496	311.12
790.753	301.12
791.011	364.12
791.268	314.12
791.526	315.12
791.783	321.12
792.041	320.12
792.298	255.12
792.556	321.12
792.813	315.12
793.07	301.12
793.327	294.12
793.584	364.12
793.841	313.12
794.099	329.12
794.356	387.12
794.613	290.12
794.869	332.12
795.126	295.12
795.383	288.12
795.64	314.12
795.897	265.12
796.153	333.12
796.41	310.12
796.667	286.12
796.923	306.12
797.18	298.12
797.436	318.12
797.693	291.12
797.949	334.12
798.206	370.12
798.462	282.12
798.718	328.12
798.974	309.12
799.231	334.12
799.487	330.12
799.743	322.12
799.999	337.12
800.255	333.12
800.511	308.12
800.767	346.12
801.023	314.12
801.279	324.12
801.534	321.12
801.79	322.12
802.046	305.12
802.302	345.12
802.557	328.12
802.813	349.12
803.068	296.12
803.324	336.12
803.579	310.12
803.835	297.12
804.09	351.12
804.345	307.12
804.601	281.12
804.856	303.12
805.111	325.12
805.366	311.12
805.621	315.12
805.876	330.12
806.131	335.12
806.386	311.12
806.641	282.12
806.896	304.12
807.151	383.12
807.406	325.12
807.661	344.12
807.915	326.12
808.17	339.12
808.425	342.12
808.679	291.12
808.934	385.12
809.188	301.12
809.443	335.12
809.697	373.12
809.951	302.12
810.206	316.12
810.46	358.12
810.714	332.12
810.968	370.12
811.223	288.12
811.477	318.12
811.731	338.12
811.985	275.12
812.239	254.12
812.493	293.12
812.747	327.12
813	286.12
813.254	328.12
813.508	354.12
813.762	314.12
814.015	302.12
814.269	323.12
814.522	332.12
814.776	340.12
815.03	336.12
815.283	339.12
815.536	351.12
815.79	352.12
816.043	333.12
816.296	342.12
816.55	325.12
816.803	319.12
817.056	402.12
817.309	339.12
817.562	340.12
817.815	377.12
818.068	298.12
818.321	297.12
818.574	293.12
818.827	340.12
819.079	291.12
819.332	412.12
819.585	347.12
819.838	402.12
820.09	313.12
820.343	360.12
820.595	282.12
820.848	346.12
821.1	352.12
821.353	340.12
821.605	323.12
821.857	377.12
822.11	283.12
822.362	308.12
822.614	285.12
822.866	323.12
823.118	279.12
823.37	396.12
823.622	332.12
823.874	315.12
824.126	349.12
824.378	302.12
824.63	314.12
824.882	337.12
825.134	320.12
825.385	360.12
825.637	328.12
825.888	305.12
826.14	328.12
826.392	307.12
826.643	284.12
826.895	384.12
827.146	328.12
827.397	309.12
827.649	405.12
827.9	306.12
828.151	284.12
828.402	282.12
828.653	327.12
828.905	319.12
829.156	371.12
829.407	291.12
829.658	326.12
829.909	359.12
830.159	348.12
830.41	346.12
830.661	352.12
830.912	336.12
831.162	318.12
831.413	323.12
831.664	346.12
831.914	330.12
832.165	335.12
832.415	345.12
832.666	341.12
832.916	352.12
833.167	319.12
833.417	390.12
833.667	353.12
833.917	341.12
834.168	384.12
834.418	347.12
834.668	334.12
834.918	294.12
835.168	316.12
835.418	271.12
835.668	319.12
835.918	372.12
836.167	354.12
836.417	300.12
836.667	360.12
836.917	376.12
837.166	326.12
837.416	361.12
837.666	360.12
837.915	326.12
838.165	349.12
838.414	306.12
838.663	280.12
838.913	346.12
839.162	288.12
839.411	392.12
839.661	312.12
839.91	340.12
840.159	320.12
840.408	328.12
840.657	328.12
840.906	348.12
841.155	373.12
841.404	332.12
841.653	338.12
841.902	306.12
842.15	347.12
842.399	363.12
842.648	333.12
842.897	354.12
843.145	291.12
843.394	304.12
843.642	306.12
843.891	372.12
844.139	349.12
844.388	303.12
844.636	267.12
844.884	324.12
845.133	305.12
845.381	321.12
845.629	361.12
845.877	294.12
846.125	311.12
846.373	345.12
846.621	300.12
846.869	357.12
847.117	333.12
847.365	321.12
847.613	342.12
847.861	358.12
848.108	382.12
848.356	348.12
848.604	309.12
848.851	337.12
849.099	347.12
849.346	298.12
849.594	351.12
849.841	354.12
850.089	318.12
850.336	296.12
850.583	302.12
850.831	325.12
851.078	332.12
851.325	307.12
851.572	367.12
851.819	357.12
852.066	329.12
852.313	329.12
852.56	298.12
852.807	294.12
853.054	286.12
853.301	315.12
853.548	321.12
853.794	403.12
854.041	347.12
854.288	290.12
854.534	387.12
854.781	315.12
855.028	292.12
855.274	397.12
855.52	340.12
855.767	318.12
856.013	365.12
856.26	623.12
856.506	317.12
856.752	356.12
856.998	334.12
857.244	310.12
857.49	347.12
857.736	349.12
857.982	356.12
858.228	366.12
858.474	296.12
858.72	323.12
858.966	345.12
859.212	349.12
859.458	339.12
859.703	346.12
859.949	315.12
860.195	380.12
860.44	359.12
860.686	316.12
860.931	398.12
861.177	326.12
861.422	378.12
861.667	332.12
861.913	337.12
862.158	337.12
862.403	373.12
862.648	372.12
862.893	391.12
863.138	349.12
863.384	316.12
863.629	367.12
863.873	345.12
864.118	329.12
864.363	281.12
864.608	358.12
864.853	374.12
865.098	336.12
865.342	370.12
865.587	329.12
865.832	385.12
866.076	372.12
866.321	336.12
866.565	343.12
866.81	273.12
867.054	336.12
867.298	350.12
867.543	316.12
867.787	371.12
868.031	346.12
868.275	345.12
868.519	320.12
868.764	345.12
869.008	337.12
869.252	376.12
869.496	336.12
869.739	335.12
869.983	389.12
870.227	373.12
870.471	306.12
870.715	360.12
870.958	348.12
871.202	324.12
871.446	339.12
871.689	307.12
871.933	355.12
872.176	341.12
872.42	335.12
872.663	329.12
872.906	379.12
873.15	344.12
873.393	288.12
873.636	366.12
873.879	379.12
874.122	392.12
874.366	338.12
874.609	375.12
874.852	335.12
875.095	363.12
875.337	327.12
875.58	274.12
875.823	342.12
876.066	382.12
876.309	395.12
876.551	318.12
876.794	288.12
877.037	376.12
877.279	317.12
877.522	330.12
877.764	369.12
878.007	318.12
878.249	353.12
878.491	315.12
878.734	375.12
878.976	353.12
879.218	319.12
879.46	399.12
879.702	371.12
879.945	372.12
880.187	332.12
880.429	374.12
880.671	366.12
880.912	390.12
881.154	366.12
881.396	285.12
881.638	359.12
881.88	350.12
882.121	316.12
882.363	338.12
882.605	390.12
882.846	370.12
883.088	376.12
883.329	318.12
883.571	300.12
883.812	328.12
884.053	320.12
884.295	328.12
884.536	414.12
884.777	340.12
885.018	346.12
885.259	362.12
885.5	300.12
885.742	516.12
885.982	359.12
886.223	324.12
886.464	334.12
886.705	300.12
886.946	360.12
887.187	278.12
887.428	387.12
887.668	327.12
887.909	318.12
888.15	305.12
888.39	371.12
888.631	406.12
888.871	378.12
889.111	360.12
889.352	366.12
889.592	335.12
889.833	356.12
890.073	360.12
890.313	412.12
890.553	316.12
890.793	336.12
891.033	326.12
891.273	328.12
891.513	355.12
891.753	408.12
891.993	348.12
892.233	376.12
892.473	427.12
892.713	379.12
892.952	324.12
893.192	365.12
893.432	323.12
893.671	378.12
893.911	340.12
894.15	364.12
894.39	289.12
894.629	352.12
894.869	364.12
895.108	372.12
895.347	325.12
895.587	368.12
895.826	336.12
896.065	312.12
896.304	373.12
896.543	396.12
896.782	298.12
897.021	343.12
897.26	341.12
897.499	397.12
897.738	405.12
897.977	360.12
898.216	354.12
898.454	341.12
898.693	338.12
898.932	376.12
899.17	350.12
899.409	345.12
899.647	362.12
899.886	337.12
900.124	368.12
900.363	318.12
900.601	367.12
900.839	357.12
901.078	362.12
901.316	363.12
901.554	359.12
901.792	366.12
902.03	318.12
902.268	341.12
902.506	386.12
902.744	346.12
902.982	387.12
903.22	319.12
903.458	343.12
903.695	371.12
903.933	380.12
904.171	341.12
904.409	334.12
904.646	379.12
904.884	339.12
905.121	407.12
905.359	384.12
905.596	385.12
905.833	340.12
906.071	357.12
906.308	410.12
906.545	387.12
906.783	322.12
907.02	351.12
907.257	304.12
907.494	338.12
907.731	374.12
907.968	393.12
908.205	332.12
908.442	335.12
908.679	366.12
908.915	369.12
909.152	376.12
909.389	299.12
909.626	347.12
909.862	330.12
910.099	364.12
910.335	390.12
910.572	316.12
910.808	370.12
911.045	358.12
911.281	329.12
911.518	408.12
911.754	355.12
911.99	368.12
912.226	341.12
912.463	325.12
912.699	347.12
912.935	350.12
913.171	359.12
913.407	326.12
913.643	404.12
913.879	371.12
914.114	362.12
914.35	344.12
914.586	362.12
914.822	334.12
915.057	437.12
915.293	317.12
915.529	347.12
915.764	407.12
916	373.12
916.235	380.12
916.471	398.12
916.706	316.12
916.941	359.12
917.177	351.12
917.412	400.12
917.647	390.12
917.882	341.12
918.117	406.12
918.352	384.12
918.588	430.12
918.823	355.12
919.057	356.12
919.292	291.12
919.527	426.12
919.762	365.12
919.997	426.12
920.232	372.12
920.466	427.12
920.701	316.12
920.935	381.12
921.17	362.12
921.405	338.12
921.639	392.12
921.873	363.12
922.108	387.12
922.342	417.12
922.576	351.12
922.811	349.12
923.045	392.12
923.279	432.12
923.513	321.12
923.747	427.12
923.981	393.12
924.215	369.12
924.449	370.12
924.683	335.12
924.917	366.12
925.151	368.12
925.385	442.12
925.618	407.12
925.852	398.12
926.086	338.12
926.319	382.12
926.553	378.12
926.786	401.12
927.02	368.12
927.253	413.12
927.486	427.12
927.72	352.12
927.953	420.12
928.186	367.12
928.42	410.12
928.653	353.12
928.886	352.12
929.119	393.12
929.352	389.12
929.585	392.12
929.818	358.12
930.051	400.12
930.284	406.12
930.516	343.12
930.749	358.12
930.982	419.12
931.215	406.12
931.447	359.12
931.68	363.12
931.912	354.12
932.145	367.12
932.377	384.12
932.61	527.12
932.842	328.12
933.074	393.12
933.307	333.12
933.539	435.12
933.771	424.12
934.003	365.12
934.236	453.12
934.468	461.12
934.7	364.12
934.932	429.12
935.164	368.12
935.395	359.12
935.627	391.12
935.859	395.12
936.091	346.12
936.323	398.12
936.554	445.12
936.786	383.12
937.017	330.12
937.249	401.12
937.481	339.12
937.712	403.12
937.943	381.12
938.175	367.12
938.406	373.12
938.637	452.12
938.869	351.12
939.1	412.12
939.331	367.12
939.562	416.12
939.793	405.12
940.024	429.12
940.255	442.12
940.486	391.12
940.717	394.12
940.948	395.12
941.179	347.12
941.409	390.12
941.64	372.12
941.871	395.12
942.102	371.12
942.332	387.12
942.563	421.12
942.793	398.12
943.024	327.12
943.254	386.12
943.484	424.12
943.715	437.12
943.945	415.12
944.175	342.12
944.405	324.12
944.636	342.12
944.866	387.12
945.096	403.12
945.326	335.12
945.556	406.12
945.786	432.12
946.016	378.12
946.245	351.12
946.475	366.12
946.705	376.12
946.935	402.12
947.164	401.12
947.394	369.12
947.624	395.12
947.853	440.12
948.083	409.12
948.312	389.12
948.542	353.12
948.771	338.12
949	369.12
949.23	364.12
949.459	386.12
949.688	453.12
949.917	385.12
950.146	406.12
950.375	451.12
950.604	361.12
950.833	444.12
951.062	456.12
951.291	390.12
951.52	383.12
951.749	398.12
951.978	369.12
952.206	375.12
952.435	373.12
952.664	411.12
952.892	435.12
953.121	414.12
953.349	434.12
953.578	432.12
953.806	415.12
954.035	371.12
954.263	407.12
954.491	375.12
954.719	416.12
954.948	376.12
955.176	385.12
955.404	326.12
955.632	416.12
955.86	424.12
956.088	418.12
956.316	450.12
956.544	460.12
956.772	412.12
956.999	396.12
957.227	487.12
957.455	414.12
957.683	426.12
957.91	402.12
958.138	399.12
958.365	396.12
958.593	412.12
958.82	367.12
959.048	457.12
959.275	413.12
959.502	405.12
959.73	384.12
959.957	418.12
960.184	439.12
960.411	404.12
960.638	464.12
960.865	414.12
961.092	447.12
961.319	373.12
961.546	457.12
961.773	459.12
962	408.12
962.227	482.12
962.454	430.12
962.68	414.12
962.907	452.12
963.134	403.12
963.36	457.12
963.587	474.12
963.813	420.12
964.04	472.12
964.266	416.12
964.493	514.12
964.719	506.12
964.945	493.12
965.171	392.12
965.398	468.12
965.624	491.12
965.85	423.12
966.076	430.12
966.302	472.12
966.528	452.12
966.754	488.12
966.98	472.12
967.206	477.12
967.431	427.12
967.657	506.12
967.883	492.12
968.109	476.12
968.334	449.12
968.56	424.12
968.785	460.12
969.011	412.12
969.236	478.12
969.462	433.12
969.687	444.12
969.912	492.12
970.138	517.12
970.363	433.12
970.588	477.12
970.813	446.12
971.038	428.12
971.263	485.12
971.488	473.12
971.713	519.12
971.938	497.12
972.163	414.12
972.388	443.12
972.613	434.12
972.838	462.12
973.062	462.12
973.287	463.12
973.512	400.12
973.736	468.12
973.961	452.12
974.185	443.12
974.41	487.12
974.634	389.12
974.858	414.12
975.083	466.12
975.307	506.12
975.531	430.12
975.755	394.12
975.98	433.12
976.204	384.12
976.428	392.12
976.652	414.12
976.876	404.12
977.1	441.12
977.324	404.12
977.547	478.12
977.771	474.12
977.995	442.12
978.219	390.12
978.442	506.12
978.666	457.12
978.89	448.12
979.113	468.12
979.337	439.12
979.56	425.12
979.783	506.12
980.007	409.12
980.23	440.12
980.453	422.12
980.677	462.12
980.9	460.12
981.123	382.12
981.346	473.12
981.569	459.12
981.792	479.12
982.015	452.12
982.238	422.12
982.461	451.12
982.684	441.12
982.907	427.12
983.129	414.12
983.352	484.12
983.575	476.12
983.797	477.12
984.02	454.12
984.242	445.12
984.465	462.12
984.687	497.12
984.91	523.12
985.132	495.12
985.354	504.12
985.577	494.12
985.799	477.12
986.021	409.12
986.243	449.12
986.465	479.12
986.687	520.12
986.909	548.12
987.131	500.12
987.353	465.12
987.575	508.12
987.797	471.12
988.019	425.12
988.241	482.12
988.462	444.12
988.684	503.12
988.906	537.12
989.127	564.12
989.349	461.12
989.57	505.12
989.792	521.12
990.013	543.12
990.234	549.12
990.456	581.12
990.677	561.12
990.898	503.12
991.119	511.12
991.341	549.12
991.562	500.12
991.783	543.12
992.004	486.12
992.225	474.12
992.446	533.12
992.667	445.12
992.887	542.12
993.108	439.12
993.329	577.12
993.55	530.12
993.77	474.12
993.991	501.12
994.212	540.12
994.432	536.12
994.653	553.12
994.873	539.12
995.093	438.12
995.314	497.12
995.534	574.12
995.754	588.12
995.975	621.12
996.195	495.12
996.415	571.12
996.635	545.12
996.855	560.12
997.075	533.12
997.295	527.12
997.515	500.12
997.735	553.12
997.955	529.12
998.174	522.12
998.394	499.12
998.614	552.12
998.834	515.12
999.053	603.12
999.273	569.12
999.492	625.12
999.712	550.12
999.931	542.12
1000.151	586.12
1000.37	559.12
1000.589	640.12
1000.809	559.12
1001.028	673.12
1001.247	634.12
1001.466	526.12
1001.685	684.12
1001.904	634.12
1002.123	631.12
1002.342	656.12
1002.561	598.12
1002.78	623.12
1002.999	703.12
1003.218	656.12
1003.436	629.12
1003.655	678.12
1003.874	627.12
1004.092	655.12
1004.311	703.12
1004.53	649.12
1004.748	731.12
1004.966	660.12
1005.185	698.12
1005.403	706.12
1005.622	697.12
1005.84	737.12
1006.058	649.12
1006.276	688.12
1006.494	1188.12
1006.712	701.12
1006.931	732.12
1007.149	636.12
1007.367	656.12
1007.584	678.12
1007.802	720.12
1008.02	654.12
1008.238	749.12
1008.456	726.12
1008.673	591.12
1008.891	684.12
1009.109	614.12
1009.326	655.12
1009.544	732.12
1009.761	601.12
1009.979	669.12
1010.196	620.12
1010.413	675.12
1010.631	669.12
1010.848	685.12
1011.065	687.12
1011.282	618.12
1011.5	563.12
1011.717	693.12
1011.934	624.12
1012.151	680.12
1012.368	648.12
1012.585	599.12
1012.801	648.12
1013.018	605.12
1013.235	590.12
1013.452	596.12
1013.669	601.12
1013.885	590.12
1014.102	594.12
1014.318	569.12
1014.535	529.12
1014.751	585.12
1014.968	577.12
1015.184	616.12
1015.401	525.12
1015.617	569.12
1015.833	548.12
1016.049	543.12
1016.266	555.12
1016.482	558.12
1016.698	494.12
1016.914	572.12
1017.13	519.12
1017.346	512.12
1017.562	580.12
1017.778	511.12
1017.993	491.12
1018.209	547.12
1018.425	534.12
1018.641	501.12
1018.856	481.12
1019.072	514.12
1019.288	548.12
1019.503	512.12
1019.719	438.12
1019.934	466.12
1020.149	553.12
1020.365	513.12
1020.58	472.12
1020.795	537.12
1021.011	493.12
1021.226	510.12
1021.441	555.12
1021.656	493.12
1021.871	451.12
1022.086	461.12
1022.301	475.12
1022.516	477.12
1022.731	524.12
1022.946	477.12
1023.16	469.12
1023.375	450.12
1023.59	444.12
1023.804	422.12
1024.019	545.12
1024.234	427.12
1024.448	467.12
1024.663	416.12
1024.877	451.12
1025.092	464.12
1025.306	495.12
1025.52	403.12
1025.734	517.12
1025.949	450.12
1026.163	438.12
1026.377	395.12
1026.591	449.12
1026.805	381.12
1027.019	392.12
1027.233	365.12
1027.447	318.12
1027.661	423.12
1027.875	373.12
1028.088	381.12
1028.302	341.12
1028.516	326.12
1028.73	357.12
1028.943	364.12
1029.157	333.12
1029.37	301.12
1029.584	0.12
1029.797	-3.88
1030.011	-1.88
1030.224	0.12
