Data from QEP037381__93__10-27-41-076.txt Node

Date: Fri Apr 21 10:27:41 EDT 2023
User: dcclab
Spectrometer: QEP03738
Trigger mode: 4
Integration Time (sec): 1.000000E1
Scans to average: 1
Electric dark correction enabled: true
Nonlinearity correction enabled: false
Boxcar width: 0
XAxis mode: Wavelengths
Number of Pixels in Spectrum: 1044
>>>>>Begin Spectral Data<<<<<
784.041	13.88
784.3	4.88
784.558	-3.12
784.817	-3.12
785.075	227.88
785.334	210.88
785.592	207.88
785.851	200.88
786.109	228.88
786.368	238.88
786.626	249.88
786.884	270.88
787.143	259.88
787.401	217.88
787.659	271.88
787.917	264.88
788.175	299.88
788.433	275.88
788.691	283.88
788.949	284.88
789.207	311.88
789.465	248.88
789.723	280.88
789.98	260.88
790.238	312.88
790.496	305.88
790.753	300.88
791.011	354.88
791.268	312.88
791.526	306.88
791.783	330.88
792.041	326.88
792.298	244.88
792.556	320.88
792.813	309.88
793.07	305.88
793.327	292.88
793.584	373.88
793.841	298.88
794.099	332.88
794.356	387.88
794.613	296.88
794.869	330.88
795.126	293.88
795.383	277.88
795.64	310.88
795.897	266.88
796.153	323.88
796.41	308.88
796.667	285.88
796.923	297.88
797.18	303.88
797.436	318.88
797.693	269.88
797.949	332.88
798.206	362.88
798.462	274.88
798.718	341.88
798.974	299.88
799.231	325.88
799.487	320.88
799.743	320.88
799.999	339.88
800.255	327.88
800.511	304.88
800.767	340.88
801.023	308.88
801.279	317.88
801.534	327.88
801.79	324.88
802.046	312.88
802.302	356.88
802.557	334.88
802.813	348.88
803.068	297.88
803.324	341.88
803.579	300.88
803.835	300.88
804.09	354.88
804.345	295.88
804.601	261.88
804.856	308.88
805.111	324.88
805.366	305.88
805.621	319.88
805.876	326.88
806.131	318.88
806.386	301.88
806.641	271.88
806.896	294.88
807.151	361.88
807.406	313.88
807.661	327.88
807.915	318.88
808.17	331.88
808.425	322.88
808.679	286.88
808.934	366.88
809.188	293.88
809.443	332.88
809.697	355.88
809.951	301.88
810.206	311.88
810.46	356.88
810.714	330.88
810.968	361.88
811.223	275.88
811.477	323.88
811.731	348.88
811.985	272.88
812.239	250.88
812.493	276.88
812.747	310.88
813	261.88
813.254	313.88
813.508	349.88
813.762	302.88
814.015	293.88
814.269	325.88
814.522	340.88
814.776	347.88
815.03	341.88
815.283	334.88
815.536	338.88
815.79	338.88
816.043	330.88
816.296	317.88
816.55	311.88
816.803	312.88
817.056	397.88
817.309	333.88
817.562	355.88
817.815	369.88
818.068	286.88
818.321	291.88
818.574	289.88
818.827	335.88
819.079	298.88
819.332	421.88
819.585	346.88
819.838	401.88
820.09	310.88
820.343	373.88
820.595	288.88
820.848	338.88
821.1	351.88
821.353	319.88
821.605	319.88
821.857	379.88
822.11	281.88
822.362	302.88
822.614	274.88
822.866	316.88
823.118	265.88
823.37	364.88
823.622	312.88
823.874	298.88
824.126	347.88
824.378	283.88
824.63	306.88
824.882	327.88
825.134	308.88
825.385	346.88
825.637	337.88
825.888	302.88
826.14	321.88
826.392	289.88
826.643	285.88
826.895	375.88
827.146	309.88
827.397	309.88
827.649	374.88
827.9	299.88
828.151	287.88
828.402	279.88
828.653	321.88
828.905	328.88
829.156	386.88
829.407	297.88
829.658	324.88
829.909	354.88
830.159	340.88
830.41	341.88
830.661	367.88
830.912	333.88
831.162	309.88
831.413	316.88
831.664	339.88
831.914	318.88
832.165	325.88
832.415	336.88
832.666	335.88
832.916	361.88
833.167	309.88
833.417	380.88
833.667	355.88
833.917	339.88
834.168	380.88
834.418	356.88
834.668	324.88
834.918	279.88
835.168	299.88
835.418	260.88
835.668	323.88
835.918	357.88
836.167	340.88
836.417	292.88
836.667	366.88
836.917	377.88
837.166	315.88
837.416	355.88
837.666	352.88
837.915	325.88
838.165	355.88
838.414	295.88
838.663	278.88
838.913	340.88
839.162	286.88
839.411	385.88
839.661	319.88
839.91	326.88
840.159	304.88
840.408	333.88
840.657	335.88
840.906	343.88
841.155	365.88
841.404	321.88
841.653	336.88
841.902	302.88
842.15	333.88
842.399	336.88
842.648	310.88
842.897	342.88
843.145	285.88
843.394	296.88
843.642	305.88
843.891	368.88
844.139	342.88
844.388	286.88
844.636	264.88
844.884	317.88
845.133	288.88
845.381	324.88
845.629	356.88
845.877	294.88
846.125	314.88
846.373	332.88
846.621	309.88
846.869	363.88
847.117	347.88
847.365	320.88
847.613	353.88
847.861	339.88
848.108	386.88
848.356	338.88
848.604	304.88
848.851	335.88
849.099	345.88
849.346	322.88
849.594	343.88
849.841	369.88
850.089	312.88
850.336	291.88
850.583	310.88
850.831	325.88
851.078	333.88
851.325	292.88
851.572	363.88
851.819	350.88
852.066	337.88
852.313	316.88
852.56	295.88
852.807	291.88
853.054	294.88
853.301	306.88
853.548	317.88
853.794	404.88
854.041	330.88
854.288	282.88
854.534	394.88
854.781	320.88
855.028	295.88
855.274	381.88
855.52	326.88
855.767	291.88
856.013	345.88
856.26	636.88
856.506	307.88
856.752	362.88
856.998	331.88
857.244	304.88
857.49	330.88
857.736	331.88
857.982	351.88
858.228	361.88
858.474	287.88
858.72	340.88
858.966	327.88
859.212	343.88
859.458	328.88
859.703	349.88
859.949	294.88
860.195	347.88
860.44	355.88
860.686	309.88
860.931	397.88
861.177	309.88
861.422	368.88
861.667	315.88
861.913	335.88
862.158	339.88
862.403	377.88
862.648	373.88
862.893	388.88
863.138	341.88
863.384	306.88
863.629	353.88
863.873	345.88
864.118	330.88
864.363	267.88
864.608	353.88
864.853	370.88
865.098	332.88
865.342	351.88
865.587	325.88
865.832	382.88
866.076	360.88
866.321	316.88
866.565	326.88
866.81	271.88
867.054	332.88
867.298	348.88
867.543	311.88
867.787	366.88
868.031	334.88
868.275	360.88
868.519	320.88
868.764	343.88
869.008	324.88
869.252	374.88
869.496	335.88
869.739	338.88
869.983	385.88
870.227	355.88
870.471	313.88
870.715	358.88
870.958	348.88
871.202	314.88
871.446	327.88
871.689	307.88
871.933	345.88
872.176	341.88
872.42	329.88
872.663	339.88
872.906	382.88
873.15	340.88
873.393	280.88
873.636	374.88
873.879	364.88
874.122	400.88
874.366	334.88
874.609	363.88
874.852	335.88
875.095	351.88
875.337	323.88
875.58	274.88
875.823	334.88
876.066	376.88
876.309	415.88
876.551	314.88
876.794	299.88
877.037	369.88
877.279	296.88
877.522	330.88
877.764	346.88
878.007	315.88
878.249	347.88
878.491	305.88
878.734	372.88
878.976	342.88
879.218	310.88
879.46	374.88
879.702	382.88
879.945	366.88
880.187	334.88
880.429	363.88
880.671	360.88
880.912	384.88
881.154	369.88
881.396	281.88
881.638	361.88
881.88	348.88
882.121	304.88
882.363	331.88
882.605	385.88
882.846	362.88
883.088	370.88
883.329	328.88
883.571	297.88
883.812	314.88
884.053	317.88
884.295	320.88
884.536	402.88
884.777	327.88
885.018	348.88
885.259	357.88
885.5	307.88
885.742	516.88
885.982	363.88
886.223	308.88
886.464	338.88
886.705	297.88
886.946	345.88
887.187	275.88
887.428	375.88
887.668	324.88
887.909	302.88
888.15	310.88
888.39	359.88
888.631	399.88
888.871	373.88
889.111	364.88
889.352	367.88
889.592	336.88
889.833	348.88
890.073	340.88
890.313	429.88
890.553	314.88
890.793	336.88
891.033	329.88
891.273	332.88
891.513	361.88
891.753	408.88
891.993	350.88
892.233	372.88
892.473	410.88
892.713	358.88
892.952	320.88
893.192	358.88
893.432	317.88
893.671	369.88
893.911	342.88
894.15	347.88
894.39	281.88
894.629	343.88
894.869	376.88
895.108	346.88
895.347	323.88
895.587	361.88
895.826	322.88
896.065	315.88
896.304	380.88
896.543	380.88
896.782	286.88
897.021	355.88
897.26	348.88
897.499	398.88
897.738	408.88
897.977	363.88
898.216	354.88
898.454	343.88
898.693	322.88
898.932	377.88
899.17	347.88
899.409	359.88
899.647	347.88
899.886	333.88
900.124	365.88
900.363	317.88
900.601	354.88
900.839	355.88
901.078	362.88
901.316	352.88
901.554	345.88
901.792	354.88
902.03	316.88
902.268	340.88
902.506	389.88
902.744	329.88
902.982	386.88
903.22	321.88
903.458	334.88
903.695	365.88
903.933	379.88
904.171	331.88
904.409	344.88
904.646	382.88
904.884	343.88
905.121	409.88
905.359	386.88
905.596	385.88
905.833	325.88
906.071	341.88
906.308	412.88
906.545	366.88
906.783	317.88
907.02	342.88
907.257	309.88
907.494	324.88
907.731	371.88
907.968	388.88
908.205	339.88
908.442	347.88
908.679	361.88
908.915	364.88
909.152	373.88
909.389	297.88
909.626	345.88
909.862	337.88
910.099	353.88
910.335	401.88
910.572	315.88
910.808	364.88
911.045	344.88
911.281	327.88
911.518	401.88
911.754	351.88
911.99	367.88
912.226	350.88
912.463	322.88
912.699	345.88
912.935	352.88
913.171	357.88
913.407	323.88
913.643	385.88
913.879	366.88
914.114	357.88
914.35	347.88
914.586	371.88
914.822	331.88
915.057	426.88
915.293	309.88
915.529	327.88
915.764	395.88
916	385.88
916.235	376.88
916.471	404.88
916.706	320.88
916.941	352.88
917.177	344.88
917.412	384.88
917.647	390.88
917.882	341.88
918.117	406.88
918.352	375.88
918.588	425.88
918.823	357.88
919.057	373.88
919.292	296.88
919.527	401.88
919.762	352.88
919.997	418.88
920.232	367.88
920.466	427.88
920.701	321.88
920.935	381.88
921.17	367.88
921.405	336.88
921.639	412.88
921.873	364.88
922.108	389.88
922.342	394.88
922.576	335.88
922.811	349.88
923.045	394.88
923.279	424.88
923.513	313.88
923.747	399.88
923.981	381.88
924.215	362.88
924.449	384.88
924.683	334.88
924.917	353.88
925.151	365.88
925.385	419.88
925.618	388.88
925.852	383.88
926.086	332.88
926.319	393.88
926.553	373.88
926.786	405.88
927.02	382.88
927.253	425.88
927.486	418.88
927.72	333.88
927.953	400.88
928.186	354.88
928.42	414.88
928.653	355.88
928.886	360.88
929.119	392.88
929.352	380.88
929.585	380.88
929.818	354.88
930.051	396.88
930.284	412.88
930.516	326.88
930.749	354.88
930.982	418.88
931.215	408.88
931.447	345.88
931.68	370.88
931.912	350.88
932.145	367.88
932.377	387.88
932.61	524.88
932.842	322.88
933.074	412.88
933.307	343.88
933.539	431.88
933.771	421.88
934.003	376.88
934.236	436.88
934.468	462.88
934.7	371.88
934.932	413.88
935.164	363.88
935.395	349.88
935.627	398.88
935.859	399.88
936.091	338.88
936.323	404.88
936.554	445.88
936.786	374.88
937.017	347.88
937.249	396.88
937.481	332.88
937.712	416.88
937.943	386.88
938.175	374.88
938.406	369.88
938.637	458.88
938.869	352.88
939.1	392.88
939.331	367.88
939.562	406.88
939.793	401.88
940.024	429.88
940.255	439.88
940.486	390.88
940.717	390.88
940.948	396.88
941.179	349.88
941.409	390.88
941.64	383.88
941.871	389.88
942.102	367.88
942.332	382.88
942.563	420.88
942.793	395.88
943.024	352.88
943.254	375.88
943.484	428.88
943.715	435.88
943.945	403.88
944.175	350.88
944.405	327.88
944.636	348.88
944.866	398.88
945.096	400.88
945.326	329.88
945.556	403.88
945.786	405.88
946.016	387.88
946.245	343.88
946.475	371.88
946.705	377.88
946.935	389.88
947.164	399.88
947.394	379.88
947.624	399.88
947.853	429.88
948.083	404.88
948.312	371.88
948.542	352.88
948.771	331.88
949	360.88
949.23	374.88
949.459	370.88
949.688	452.88
949.917	395.88
950.146	403.88
950.375	448.88
950.604	360.88
950.833	438.88
951.062	446.88
951.291	397.88
951.52	376.88
951.749	390.88
951.978	374.88
952.206	373.88
952.435	379.88
952.664	435.88
952.892	430.88
953.121	403.88
953.349	450.88
953.578	430.88
953.806	405.88
954.035	364.88
954.263	419.88
954.491	360.88
954.719	417.88
954.948	378.88
955.176	386.88
955.404	334.88
955.632	398.88
955.86	414.88
956.088	418.88
956.316	431.88
956.544	463.88
956.772	410.88
956.999	405.88
957.227	494.88
957.455	389.88
957.683	423.88
957.91	392.88
958.138	390.88
958.365	408.88
958.593	401.88
958.82	357.88
959.048	450.88
959.275	425.88
959.502	400.88
959.73	393.88
959.957	437.88
960.184	446.88
960.411	382.88
960.638	474.88
960.865	420.88
961.092	448.88
961.319	377.88
961.546	449.88
961.773	461.88
962	430.88
962.227	479.88
962.454	424.88
962.68	426.88
962.907	449.88
963.134	391.88
963.36	447.88
963.587	486.88
963.813	428.88
964.04	481.88
964.266	422.88
964.493	510.88
964.719	480.88
964.945	495.88
965.171	404.88
965.398	464.88
965.624	489.88
965.85	428.88
966.076	431.88
966.302	479.88
966.528	449.88
966.754	488.88
966.98	462.88
967.206	473.88
967.431	400.88
967.657	507.88
967.883	494.88
968.109	478.88
968.334	430.88
968.56	422.88
968.785	432.88
969.011	420.88
969.236	476.88
969.462	423.88
969.687	456.88
969.912	483.88
970.138	507.88
970.363	432.88
970.588	478.88
970.813	458.88
971.038	431.88
971.263	478.88
971.488	484.88
971.713	527.88
971.938	501.88
972.163	432.88
972.388	442.88
972.613	438.88
972.838	468.88
973.062	459.88
973.287	463.88
973.512	410.88
973.736	465.88
973.961	460.88
974.185	434.88
974.41	483.88
974.634	396.88
974.858	443.88
975.083	480.88
975.307	511.88
975.531	452.88
975.755	411.88
975.98	431.88
976.204	393.88
976.428	400.88
976.652	394.88
976.876	393.88
977.1	443.88
977.324	409.88
977.547	461.88
977.771	470.88
977.995	458.88
978.219	388.88
978.442	526.88
978.666	455.88
978.89	447.88
979.113	440.88
979.337	440.88
979.56	425.88
979.783	508.88
980.007	407.88
980.23	466.88
980.453	419.88
980.677	459.88
980.9	456.88
981.123	381.88
981.346	465.88
981.569	458.88
981.792	501.88
982.015	449.88
982.238	426.88
982.461	462.88
982.684	430.88
982.907	427.88
983.129	424.88
983.352	483.88
983.575	464.88
983.797	477.88
984.02	432.88
984.242	438.88
984.465	454.88
984.687	488.88
984.91	518.88
985.132	492.88
985.354	507.88
985.577	507.88
985.799	487.88
986.021	412.88
986.243	452.88
986.465	456.88
986.687	516.88
986.909	565.88
987.131	493.88
987.353	469.88
987.575	521.88
987.797	476.88
988.019	423.88
988.241	470.88
988.462	455.88
988.684	513.88
988.906	525.88
989.127	564.88
989.349	452.88
989.57	507.88
989.792	526.88
990.013	544.88
990.234	541.88
990.456	581.88
990.677	545.88
990.898	494.88
991.119	505.88
991.341	547.88
991.562	490.88
991.783	533.88
992.004	477.88
992.225	453.88
992.446	526.88
992.667	452.88
992.887	553.88
993.108	441.88
993.329	568.88
993.55	538.88
993.77	484.88
993.991	495.88
994.212	538.88
994.432	544.88
994.653	561.88
994.873	534.88
995.093	448.88
995.314	492.88
995.534	556.88
995.754	585.88
995.975	601.88
996.195	498.88
996.415	566.88
996.635	539.88
996.855	569.88
997.075	517.88
997.295	517.88
997.515	502.88
997.735	564.88
997.955	535.88
998.174	525.88
998.394	509.88
998.614	542.88
998.834	517.88
999.053	592.88
999.273	565.88
999.492	613.88
999.712	553.88
999.931	541.88
1000.151	587.88
1000.37	562.88
1000.589	621.88
1000.809	563.88
1001.028	689.88
1001.247	636.88
1001.466	534.88
1001.685	695.88
1001.904	633.88
1002.123	612.88
1002.342	620.88
1002.561	596.88
1002.78	639.88
1002.999	697.88
1003.218	636.88
1003.436	625.88
1003.655	661.88
1003.874	621.88
1004.092	661.88
1004.311	685.88
1004.53	650.88
1004.748	734.88
1004.966	655.88
1005.185	705.88
1005.403	703.88
1005.622	699.88
1005.84	748.88
1006.058	664.88
1006.276	680.88
1006.494	1176.88
1006.712	678.88
1006.931	729.88
1007.149	645.88
1007.367	663.88
1007.584	700.88
1007.802	710.88
1008.02	650.88
1008.238	738.88
1008.456	721.88
1008.673	576.88
1008.891	685.88
1009.109	626.88
1009.326	646.88
1009.544	714.88
1009.761	607.88
1009.979	663.88
1010.196	620.88
1010.413	677.88
1010.631	667.88
1010.848	680.88
1011.065	651.88
1011.282	613.88
1011.5	562.88
1011.717	676.88
1011.934	619.88
1012.151	675.88
1012.368	657.88
1012.585	578.88
1012.801	646.88
1013.018	626.88
1013.235	569.88
1013.452	592.88
1013.669	594.88
1013.885	593.88
1014.102	604.88
1014.318	559.88
1014.535	533.88
1014.751	569.88
1014.968	572.88
1015.184	613.88
1015.401	529.88
1015.617	578.88
1015.833	529.88
1016.049	544.88
1016.266	532.88
1016.482	552.88
1016.698	500.88
1016.914	560.88
1017.13	515.88
1017.346	515.88
1017.562	596.88
1017.778	528.88
1017.993	487.88
1018.209	552.88
1018.425	514.88
1018.641	485.88
1018.856	471.88
1019.072	507.88
1019.288	556.88
1019.503	522.88
1019.719	437.88
1019.934	464.88
1020.149	547.88
1020.365	492.88
1020.58	475.88
1020.795	535.88
1021.011	509.88
1021.226	512.88
1021.441	544.88
1021.656	485.88
1021.871	444.88
1022.086	467.88
1022.301	466.88
1022.516	469.88
1022.731	549.88
1022.946	467.88
1023.16	463.88
1023.375	458.88
1023.59	466.88
1023.804	434.88
1024.019	538.88
1024.234	429.88
1024.448	471.88
1024.663	415.88
1024.877	441.88
1025.092	476.88
1025.306	490.88
1025.52	416.88
1025.734	505.88
1025.949	440.88
1026.163	424.88
1026.377	392.88
1026.591	442.88
1026.805	383.88
1027.019	398.88
1027.233	376.88
1027.447	322.88
1027.661	416.88
1027.875	368.88
1028.088	397.88
1028.302	330.88
1028.516	333.88
1028.73	361.88
1028.943	362.88
1029.157	330.88
1029.37	314.88
1029.584	-3.12
1029.797	-2.12
1030.011	-3.12
1030.224	-4.12
