Data from QEP037381__8__10-13-31-056.txt Node

Date: Fri Apr 21 10:13:31 EDT 2023
User: dcclab
Spectrometer: QEP03738
Trigger mode: 4
Integration Time (sec): 1.000000E1
Scans to average: 1
Electric dark correction enabled: true
Nonlinearity correction enabled: false
Boxcar width: 0
XAxis mode: Wavelengths
Number of Pixels in Spectrum: 1044
>>>>>Begin Spectral Data<<<<<
784.041	12.12
784.3	1.12
784.558	-3.88
784.817	-4.88
785.075	249.12
785.334	219.12
785.592	216.12
785.851	203.12
786.109	235.12
786.368	235.12
786.626	262.12
786.884	272.12
787.143	274.12
787.401	208.12
787.659	268.12
787.917	251.12
788.175	298.12
788.433	273.12
788.691	264.12
788.949	288.12
789.207	304.12
789.465	260.12
789.723	288.12
789.98	259.12
790.238	319.12
790.496	313.12
790.753	297.12
791.011	355.12
791.268	300.12
791.526	301.12
791.783	332.12
792.041	315.12
792.298	249.12
792.556	329.12
792.813	309.12
793.07	299.12
793.327	293.12
793.584	373.12
793.841	309.12
794.099	322.12
794.356	392.12
794.613	282.12
794.869	331.12
795.126	304.12
795.383	291.12
795.64	311.12
795.897	271.12
796.153	328.12
796.41	310.12
796.667	295.12
796.923	296.12
797.18	299.12
797.436	334.12
797.693	297.12
797.949	339.12
798.206	360.12
798.462	277.12
798.718	329.12
798.974	307.12
799.231	330.12
799.487	319.12
799.743	326.12
799.999	345.12
800.255	346.12
800.511	300.12
800.767	335.12
801.023	305.12
801.279	317.12
801.534	331.12
801.79	335.12
802.046	299.12
802.302	356.12
802.557	330.12
802.813	347.12
803.068	281.12
803.324	320.12
803.579	311.12
803.835	312.12
804.09	346.12
804.345	290.12
804.601	271.12
804.856	315.12
805.111	323.12
805.366	308.12
805.621	310.12
805.876	333.12
806.131	336.12
806.386	311.12
806.641	290.12
806.896	310.12
807.151	398.12
807.406	330.12
807.661	333.12
807.915	326.12
808.17	344.12
808.425	328.12
808.679	287.12
808.934	373.12
809.188	302.12
809.443	342.12
809.697	371.12
809.951	303.12
810.206	312.12
810.46	354.12
810.714	333.12
810.968	373.12
811.223	281.12
811.477	341.12
811.731	356.12
811.985	276.12
812.239	247.12
812.493	295.12
812.747	323.12
813	280.12
813.254	335.12
813.508	357.12
813.762	292.12
814.015	305.12
814.269	310.12
814.522	360.12
814.776	345.12
815.03	345.12
815.283	343.12
815.536	355.12
815.79	343.12
816.043	337.12
816.296	334.12
816.55	327.12
816.803	324.12
817.056	406.12
817.309	334.12
817.562	335.12
817.815	372.12
818.068	297.12
818.321	297.12
818.574	301.12
818.827	339.12
819.079	296.12
819.332	415.12
819.585	353.12
819.838	399.12
820.09	316.12
820.343	368.12
820.595	298.12
820.848	339.12
821.1	352.12
821.353	326.12
821.605	322.12
821.857	380.12
822.11	280.12
822.362	306.12
822.614	280.12
822.866	335.12
823.118	272.12
823.37	367.12
823.622	337.12
823.874	311.12
824.126	362.12
824.378	291.12
824.63	323.12
824.882	333.12
825.134	317.12
825.385	359.12
825.637	334.12
825.888	319.12
826.14	320.12
826.392	298.12
826.643	295.12
826.895	381.12
827.146	319.12
827.397	312.12
827.649	392.12
827.9	309.12
828.151	276.12
828.402	295.12
828.653	326.12
828.905	337.12
829.156	381.12
829.407	294.12
829.658	323.12
829.909	372.12
830.159	341.12
830.41	341.12
830.661	365.12
830.912	334.12
831.162	326.12
831.413	321.12
831.664	340.12
831.914	329.12
832.165	334.12
832.415	326.12
832.666	333.12
832.916	359.12
833.167	304.12
833.417	393.12
833.667	355.12
833.917	336.12
834.168	401.12
834.418	345.12
834.668	328.12
834.918	285.12
835.168	316.12
835.418	266.12
835.668	324.12
835.918	348.12
836.167	358.12
836.417	299.12
836.667	363.12
836.917	391.12
837.166	322.12
837.416	365.12
837.666	368.12
837.915	331.12
838.165	347.12
838.414	313.12
838.663	274.12
838.913	351.12
839.162	299.12
839.411	403.12
839.661	325.12
839.91	348.12
840.159	315.12
840.408	337.12
840.657	333.12
840.906	341.12
841.155	364.12
841.404	324.12
841.653	345.12
841.902	308.12
842.15	349.12
842.399	352.12
842.648	321.12
842.897	371.12
843.145	283.12
843.394	303.12
843.642	304.12
843.891	355.12
844.139	336.12
844.388	300.12
844.636	272.12
844.884	322.12
845.133	300.12
845.381	326.12
845.629	362.12
845.877	297.12
846.125	310.12
846.373	333.12
846.621	306.12
846.869	347.12
847.117	329.12
847.365	337.12
847.613	335.12
847.861	354.12
848.108	385.12
848.356	355.12
848.604	318.12
848.851	343.12
849.099	346.12
849.346	340.12
849.594	355.12
849.841	355.12
850.089	323.12
850.336	290.12
850.583	302.12
850.831	334.12
851.078	339.12
851.325	296.12
851.572	364.12
851.819	359.12
852.066	333.12
852.313	332.12
852.56	303.12
852.807	289.12
853.054	299.12
853.301	312.12
853.548	310.12
853.794	408.12
854.041	334.12
854.288	291.12
854.534	395.12
854.781	321.12
855.028	312.12
855.274	381.12
855.52	337.12
855.767	304.12
856.013	355.12
856.26	642.12
856.506	310.12
856.752	357.12
856.998	338.12
857.244	317.12
857.49	344.12
857.736	353.12
857.982	346.12
858.228	360.12
858.474	300.12
858.72	334.12
858.966	351.12
859.212	348.12
859.458	341.12
859.703	346.12
859.949	324.12
860.195	369.12
860.44	370.12
860.686	314.12
860.931	399.12
861.177	316.12
861.422	389.12
861.667	337.12
861.913	334.12
862.158	333.12
862.403	382.12
862.648	363.12
862.893	399.12
863.138	344.12
863.384	311.12
863.629	369.12
863.873	341.12
864.118	329.12
864.363	281.12
864.608	350.12
864.853	373.12
865.098	344.12
865.342	359.12
865.587	331.12
865.832	377.12
866.076	353.12
866.321	338.12
866.565	336.12
866.81	278.12
867.054	330.12
867.298	346.12
867.543	319.12
867.787	374.12
868.031	332.12
868.275	356.12
868.519	330.12
868.764	348.12
869.008	325.12
869.252	390.12
869.496	344.12
869.739	349.12
869.983	374.12
870.227	375.12
870.471	316.12
870.715	371.12
870.958	368.12
871.202	313.12
871.446	327.12
871.689	306.12
871.933	340.12
872.176	351.12
872.42	338.12
872.663	328.12
872.906	397.12
873.15	345.12
873.393	289.12
873.636	369.12
873.879	369.12
874.122	404.12
874.366	344.12
874.609	372.12
874.852	341.12
875.095	359.12
875.337	331.12
875.58	265.12
875.823	353.12
876.066	385.12
876.309	410.12
876.551	302.12
876.794	303.12
877.037	369.12
877.279	300.12
877.522	322.12
877.764	364.12
878.007	320.12
878.249	345.12
878.491	313.12
878.734	378.12
878.976	365.12
879.218	310.12
879.46	387.12
879.702	375.12
879.945	384.12
880.187	353.12
880.429	368.12
880.671	378.12
880.912	381.12
881.154	369.12
881.396	282.12
881.638	352.12
881.88	351.12
882.121	319.12
882.363	335.12
882.605	397.12
882.846	366.12
883.088	382.12
883.329	332.12
883.571	306.12
883.812	333.12
884.053	321.12
884.295	335.12
884.536	411.12
884.777	329.12
885.018	357.12
885.259	366.12
885.5	301.12
885.742	533.12
885.982	370.12
886.223	316.12
886.464	344.12
886.705	298.12
886.946	357.12
887.187	285.12
887.428	384.12
887.668	316.12
887.909	321.12
888.15	294.12
888.39	368.12
888.631	413.12
888.871	371.12
889.111	364.12
889.352	372.12
889.592	349.12
889.833	349.12
890.073	349.12
890.313	415.12
890.553	304.12
890.793	338.12
891.033	322.12
891.273	326.12
891.513	356.12
891.753	416.12
891.993	355.12
892.233	378.12
892.473	427.12
892.713	373.12
892.952	335.12
893.192	343.12
893.432	326.12
893.671	381.12
893.911	334.12
894.15	360.12
894.39	292.12
894.629	333.12
894.869	364.12
895.108	355.12
895.347	318.12
895.587	385.12
895.826	327.12
896.065	323.12
896.304	374.12
896.543	410.12
896.782	302.12
897.021	357.12
897.26	348.12
897.499	397.12
897.738	398.12
897.977	359.12
898.216	361.12
898.454	344.12
898.693	331.12
898.932	391.12
899.17	353.12
899.409	346.12
899.647	342.12
899.886	329.12
900.124	363.12
900.363	323.12
900.601	362.12
900.839	351.12
901.078	353.12
901.316	359.12
901.554	357.12
901.792	350.12
902.03	312.12
902.268	336.12
902.506	397.12
902.744	338.12
902.982	390.12
903.22	326.12
903.458	342.12
903.695	383.12
903.933	384.12
904.171	335.12
904.409	336.12
904.646	393.12
904.884	341.12
905.121	424.12
905.359	393.12
905.596	387.12
905.833	336.12
906.071	327.12
906.308	401.12
906.545	371.12
906.783	317.12
907.02	364.12
907.257	308.12
907.494	348.12
907.731	371.12
907.968	376.12
908.205	338.12
908.442	332.12
908.679	370.12
908.915	360.12
909.152	370.12
909.389	301.12
909.626	346.12
909.862	338.12
910.099	378.12
910.335	392.12
910.572	314.12
910.808	367.12
911.045	349.12
911.281	332.12
911.518	421.12
911.754	358.12
911.99	372.12
912.226	357.12
912.463	337.12
912.699	360.12
912.935	353.12
913.171	351.12
913.407	326.12
913.643	405.12
913.879	367.12
914.114	369.12
914.35	342.12
914.586	366.12
914.822	330.12
915.057	455.12
915.293	326.12
915.529	330.12
915.764	403.12
916	393.12
916.235	381.12
916.471	398.12
916.706	318.12
916.941	353.12
917.177	343.12
917.412	382.12
917.647	384.12
917.882	335.12
918.117	390.12
918.352	392.12
918.588	426.12
918.823	360.12
919.057	368.12
919.292	285.12
919.527	413.12
919.762	354.12
919.997	425.12
920.232	379.12
920.466	424.12
920.701	319.12
920.935	386.12
921.17	357.12
921.405	347.12
921.639	405.12
921.873	369.12
922.108	405.12
922.342	387.12
922.576	344.12
922.811	361.12
923.045	402.12
923.279	439.12
923.513	303.12
923.747	406.12
923.981	395.12
924.215	366.12
924.449	377.12
924.683	330.12
924.917	350.12
925.151	362.12
925.385	443.12
925.618	396.12
925.852	396.12
926.086	327.12
926.319	397.12
926.553	380.12
926.786	398.12
927.02	368.12
927.253	432.12
927.486	422.12
927.72	346.12
927.953	410.12
928.186	359.12
928.42	406.12
928.653	349.12
928.886	338.12
929.119	409.12
929.352	395.12
929.585	402.12
929.818	358.12
930.051	395.12
930.284	408.12
930.516	329.12
930.749	361.12
930.982	411.12
931.215	417.12
931.447	342.12
931.68	386.12
931.912	343.12
932.145	349.12
932.377	391.12
932.61	501.12
932.842	307.12
933.074	392.12
933.307	345.12
933.539	440.12
933.771	415.12
934.003	369.12
934.236	442.12
934.468	452.12
934.7	372.12
934.932	415.12
935.164	359.12
935.395	359.12
935.627	396.12
935.859	405.12
936.091	348.12
936.323	425.12
936.554	431.12
936.786	388.12
937.017	347.12
937.249	399.12
937.481	329.12
937.712	412.12
937.943	374.12
938.175	363.12
938.406	371.12
938.637	454.12
938.869	337.12
939.1	420.12
939.331	383.12
939.562	395.12
939.793	406.12
940.024	432.12
940.255	435.12
940.486	398.12
940.717	383.12
940.948	392.12
941.179	350.12
941.409	386.12
941.64	391.12
941.871	398.12
942.102	377.12
942.332	376.12
942.563	421.12
942.793	399.12
943.024	340.12
943.254	383.12
943.484	429.12
943.715	427.12
943.945	415.12
944.175	342.12
944.405	325.12
944.636	342.12
944.866	387.12
945.096	394.12
945.326	325.12
945.556	413.12
945.786	423.12
946.016	395.12
946.245	347.12
946.475	355.12
946.705	378.12
946.935	391.12
947.164	409.12
947.394	360.12
947.624	397.12
947.853	425.12
948.083	404.12
948.312	397.12
948.542	331.12
948.771	335.12
949	371.12
949.23	374.12
949.459	387.12
949.688	433.12
949.917	393.12
950.146	421.12
950.375	451.12
950.604	348.12
950.833	459.12
951.062	442.12
951.291	394.12
951.52	376.12
951.749	409.12
951.978	359.12
952.206	367.12
952.435	375.12
952.664	410.12
952.892	444.12
953.121	407.12
953.349	426.12
953.578	445.12
953.806	420.12
954.035	362.12
954.263	415.12
954.491	369.12
954.719	411.12
954.948	386.12
955.176	384.12
955.404	335.12
955.632	400.12
955.86	428.12
956.088	419.12
956.316	440.12
956.544	444.12
956.772	412.12
956.999	393.12
957.227	482.12
957.455	403.12
957.683	430.12
957.91	398.12
958.138	398.12
958.365	404.12
958.593	409.12
958.82	362.12
959.048	447.12
959.275	407.12
959.502	402.12
959.73	396.12
959.957	422.12
960.184	447.12
960.411	388.12
960.638	463.12
960.865	423.12
961.092	457.12
961.319	367.12
961.546	458.12
961.773	461.12
962	409.12
962.227	480.12
962.454	446.12
962.68	413.12
962.907	450.12
963.134	406.12
963.36	448.12
963.587	478.12
963.813	423.12
964.04	463.12
964.266	412.12
964.493	501.12
964.719	475.12
964.945	508.12
965.171	415.12
965.398	462.12
965.624	490.12
965.85	421.12
966.076	438.12
966.302	497.12
966.528	446.12
966.754	491.12
966.98	480.12
967.206	472.12
967.431	415.12
967.657	511.12
967.883	493.12
968.109	484.12
968.334	423.12
968.56	432.12
968.785	435.12
969.011	418.12
969.236	483.12
969.462	423.12
969.687	443.12
969.912	490.12
970.138	526.12
970.363	439.12
970.588	462.12
970.813	468.12
971.038	432.12
971.263	482.12
971.488	488.12
971.713	520.12
971.938	515.12
972.163	427.12
972.388	456.12
972.613	446.12
972.838	460.12
973.062	464.12
973.287	469.12
973.512	408.12
973.736	473.12
973.961	453.12
974.185	439.12
974.41	480.12
974.634	410.12
974.858	428.12
975.083	477.12
975.307	501.12
975.531	443.12
975.755	391.12
975.98	441.12
976.204	395.12
976.428	402.12
976.652	415.12
976.876	403.12
977.1	423.12
977.324	407.12
977.547	470.12
977.771	481.12
977.995	452.12
978.219	380.12
978.442	509.12
978.666	459.12
978.89	443.12
979.113	455.12
979.337	449.12
979.56	411.12
979.783	518.12
980.007	406.12
980.23	440.12
980.453	423.12
980.677	458.12
980.9	468.12
981.123	374.12
981.346	453.12
981.569	454.12
981.792	492.12
982.015	453.12
982.238	434.12
982.461	449.12
982.684	424.12
982.907	418.12
983.129	424.12
983.352	485.12
983.575	453.12
983.797	483.12
984.02	436.12
984.242	456.12
984.465	451.12
984.687	496.12
984.91	518.12
985.132	485.12
985.354	506.12
985.577	486.12
985.799	491.12
986.021	422.12
986.243	452.12
986.465	472.12
986.687	533.12
986.909	557.12
987.131	497.12
987.353	465.12
987.575	507.12
987.797	467.12
988.019	412.12
988.241	487.12
988.462	439.12
988.684	513.12
988.906	528.12
989.127	569.12
989.349	441.12
989.57	484.12
989.792	537.12
990.013	541.12
990.234	553.12
990.456	572.12
990.677	548.12
990.898	496.12
991.119	496.12
991.341	545.12
991.562	492.12
991.783	538.12
992.004	475.12
992.225	457.12
992.446	519.12
992.667	445.12
992.887	539.12
993.108	438.12
993.329	574.12
993.55	510.12
993.77	474.12
993.991	509.12
994.212	528.12
994.432	538.12
994.653	543.12
994.873	534.12
995.093	449.12
995.314	497.12
995.534	560.12
995.754	577.12
995.975	612.12
996.195	494.12
996.415	551.12
996.635	524.12
996.855	545.12
997.075	520.12
997.295	530.12
997.515	513.12
997.735	549.12
997.955	532.12
998.174	531.12
998.394	525.12
998.614	564.12
998.834	529.12
999.053	599.12
999.273	567.12
999.492	612.12
999.712	566.12
999.931	545.12
1000.151	586.12
1000.37	567.12
1000.589	648.12
1000.809	563.12
1001.028	680.12
1001.247	640.12
1001.466	554.12
1001.685	690.12
1001.904	615.12
1002.123	614.12
1002.342	635.12
1002.561	582.12
1002.78	635.12
1002.999	704.12
1003.218	657.12
1003.436	616.12
1003.655	685.12
1003.874	626.12
1004.092	653.12
1004.311	694.12
1004.53	650.12
1004.748	729.12
1004.966	649.12
1005.185	729.12
1005.403	701.12
1005.622	693.12
1005.84	755.12
1006.058	653.12
1006.276	666.12
1006.494	1176.12
1006.712	677.12
1006.931	743.12
1007.149	652.12
1007.367	662.12
1007.584	674.12
1007.802	713.12
1008.02	660.12
1008.238	741.12
1008.456	720.12
1008.673	583.12
1008.891	686.12
1009.109	616.12
1009.326	642.12
1009.544	720.12
1009.761	600.12
1009.979	652.12
1010.196	625.12
1010.413	659.12
1010.631	682.12
1010.848	669.12
1011.065	677.12
1011.282	616.12
1011.5	552.12
1011.717	676.12
1011.934	635.12
1012.151	666.12
1012.368	655.12
1012.585	617.12
1012.801	642.12
1013.018	623.12
1013.235	590.12
1013.452	589.12
1013.669	616.12
1013.885	556.12
1014.102	606.12
1014.318	568.12
1014.535	529.12
1014.751	563.12
1014.968	565.12
1015.184	617.12
1015.401	527.12
1015.617	585.12
1015.833	532.12
1016.049	547.12
1016.266	543.12
1016.482	549.12
1016.698	499.12
1016.914	554.12
1017.13	538.12
1017.346	526.12
1017.562	582.12
1017.778	527.12
1017.993	498.12
1018.209	530.12
1018.425	529.12
1018.641	499.12
1018.856	470.12
1019.072	515.12
1019.288	546.12
1019.503	509.12
1019.719	438.12
1019.934	467.12
1020.149	562.12
1020.365	485.12
1020.58	469.12
1020.795	538.12
1021.011	497.12
1021.226	507.12
1021.441	547.12
1021.656	493.12
1021.871	445.12
1022.086	457.12
1022.301	478.12
1022.516	490.12
1022.731	524.12
1022.946	465.12
1023.16	472.12
1023.375	435.12
1023.59	457.12
1023.804	434.12
1024.019	527.12
1024.234	416.12
1024.448	477.12
1024.663	413.12
1024.877	455.12
1025.092	481.12
1025.306	486.12
1025.52	413.12
1025.734	508.12
1025.949	441.12
1026.163	440.12
1026.377	386.12
1026.591	467.12
1026.805	387.12
1027.019	401.12
1027.233	356.12
1027.447	331.12
1027.661	419.12
1027.875	376.12
1028.088	389.12
1028.302	316.12
1028.516	345.12
1028.73	357.12
1028.943	362.12
1029.157	321.12
1029.37	297.12
1029.584	0.12
1029.797	-2.88
1030.011	0.12
1030.224	-1.88
