Data from QEP037381__47__10-20-01-065.txt Node

Date: Fri Apr 21 10:20:01 EDT 2023
User: dcclab
Spectrometer: QEP03738
Trigger mode: 4
Integration Time (sec): 1.000000E1
Scans to average: 1
Electric dark correction enabled: true
Nonlinearity correction enabled: false
Boxcar width: 0
XAxis mode: Wavelengths
Number of Pixels in Spectrum: 1044
>>>>>Begin Spectral Data<<<<<
784.041	12.38
784.3	-0.62
784.558	-1.62
784.817	-4.62
785.075	229.38
785.334	213.38
785.592	213.38
785.851	205.38
786.109	234.38
786.368	251.38
786.626	258.38
786.884	268.38
787.143	264.38
787.401	212.38
787.659	274.38
787.917	259.38
788.175	310.38
788.433	278.38
788.691	270.38
788.949	285.38
789.207	306.38
789.465	267.38
789.723	281.38
789.98	253.38
790.238	319.38
790.496	303.38
790.753	287.38
791.011	354.38
791.268	293.38
791.526	296.38
791.783	345.38
792.041	312.38
792.298	248.38
792.556	322.38
792.813	314.38
793.07	289.38
793.327	294.38
793.584	366.38
793.841	293.38
794.099	324.38
794.356	381.38
794.613	295.38
794.869	340.38
795.126	300.38
795.383	285.38
795.64	303.38
795.897	270.38
796.153	333.38
796.41	300.38
796.667	296.38
796.923	308.38
797.18	294.38
797.436	331.38
797.693	290.38
797.949	333.38
798.206	359.38
798.462	261.38
798.718	330.38
798.974	299.38
799.231	325.38
799.487	315.38
799.743	332.38
799.999	345.38
800.255	341.38
800.511	308.38
800.767	328.38
801.023	294.38
801.279	319.38
801.534	334.38
801.79	340.38
802.046	299.38
802.302	359.38
802.557	328.38
802.813	357.38
803.068	292.38
803.324	345.38
803.579	304.38
803.835	300.38
804.09	362.38
804.345	295.38
804.601	278.38
804.856	301.38
805.111	319.38
805.366	310.38
805.621	310.38
805.876	329.38
806.131	317.38
806.386	306.38
806.641	279.38
806.896	302.38
807.151	377.38
807.406	334.38
807.661	340.38
807.915	331.38
808.17	326.38
808.425	332.38
808.679	284.38
808.934	373.38
809.188	306.38
809.443	332.38
809.697	372.38
809.951	300.38
810.206	305.38
810.46	347.38
810.714	335.38
810.968	365.38
811.223	285.38
811.477	319.38
811.731	350.38
811.985	270.38
812.239	248.38
812.493	296.38
812.747	298.38
813	259.38
813.254	324.38
813.508	346.38
813.762	301.38
814.015	290.38
814.269	310.38
814.522	332.38
814.776	336.38
815.03	326.38
815.283	338.38
815.536	333.38
815.79	342.38
816.043	326.38
816.296	329.38
816.55	322.38
816.803	314.38
817.056	400.38
817.309	339.38
817.562	341.38
817.815	377.38
818.068	296.38
818.321	286.38
818.574	287.38
818.827	345.38
819.079	307.38
819.332	406.38
819.585	315.38
819.838	394.38
820.09	316.38
820.343	356.38
820.595	287.38
820.848	344.38
821.1	346.38
821.353	321.38
821.605	318.38
821.857	381.38
822.11	272.38
822.362	302.38
822.614	278.38
822.866	336.38
823.118	272.38
823.37	370.38
823.622	317.38
823.874	316.38
824.126	349.38
824.378	276.38
824.63	320.38
824.882	331.38
825.134	306.38
825.385	348.38
825.637	332.38
825.888	302.38
826.14	333.38
826.392	294.38
826.643	285.38
826.895	367.38
827.146	320.38
827.397	299.38
827.649	387.38
827.9	299.38
828.151	282.38
828.402	283.38
828.653	326.38
828.905	331.38
829.156	378.38
829.407	299.38
829.658	328.38
829.909	369.38
830.159	339.38
830.41	337.38
830.661	360.38
830.912	333.38
831.162	308.38
831.413	310.38
831.664	357.38
831.914	331.38
832.165	332.38
832.415	337.38
832.666	345.38
832.916	359.38
833.167	307.38
833.417	384.38
833.667	342.38
833.917	334.38
834.168	389.38
834.418	349.38
834.668	333.38
834.918	284.38
835.168	304.38
835.418	262.38
835.668	315.38
835.918	356.38
836.167	351.38
836.417	294.38
836.667	364.38
836.917	370.38
837.166	319.38
837.416	351.38
837.666	380.38
837.915	332.38
838.165	346.38
838.414	291.38
838.663	276.38
838.913	335.38
839.162	295.38
839.411	376.38
839.661	311.38
839.91	335.38
840.159	322.38
840.408	334.38
840.657	324.38
840.906	325.38
841.155	357.38
841.404	321.38
841.653	341.38
841.902	295.38
842.15	334.38
842.399	350.38
842.648	324.38
842.897	345.38
843.145	283.38
843.394	294.38
843.642	304.38
843.891	371.38
844.139	328.38
844.388	294.38
844.636	276.38
844.884	315.38
845.133	314.38
845.381	320.38
845.629	358.38
845.877	294.38
846.125	309.38
846.373	333.38
846.621	304.38
846.869	353.38
847.117	337.38
847.365	325.38
847.613	351.38
847.861	346.38
848.108	393.38
848.356	355.38
848.604	310.38
848.851	346.38
849.099	352.38
849.346	329.38
849.594	347.38
849.841	357.38
850.089	321.38
850.336	301.38
850.583	308.38
850.831	329.38
851.078	330.38
851.325	294.38
851.572	362.38
851.819	359.38
852.066	323.38
852.313	313.38
852.56	288.38
852.807	292.38
853.054	293.38
853.301	312.38
853.548	309.38
853.794	395.38
854.041	337.38
854.288	291.38
854.534	394.38
854.781	323.38
855.028	308.38
855.274	393.38
855.52	343.38
855.767	300.38
856.013	364.38
856.26	627.38
856.506	309.38
856.752	366.38
856.998	328.38
857.244	310.38
857.49	350.38
857.736	351.38
857.982	337.38
858.228	362.38
858.474	286.38
858.72	332.38
858.966	348.38
859.212	342.38
859.458	342.38
859.703	352.38
859.949	304.38
860.195	381.38
860.44	353.38
860.686	324.38
860.931	393.38
861.177	308.38
861.422	383.38
861.667	321.38
861.913	335.38
862.158	337.38
862.403	375.38
862.648	369.38
862.893	392.38
863.138	344.38
863.384	317.38
863.629	365.38
863.873	341.38
864.118	333.38
864.363	276.38
864.608	347.38
864.853	371.38
865.098	336.38
865.342	353.38
865.587	324.38
865.832	372.38
866.076	354.38
866.321	320.38
866.565	332.38
866.81	274.38
867.054	329.38
867.298	353.38
867.543	308.38
867.787	356.38
868.031	339.38
868.275	343.38
868.519	323.38
868.764	340.38
869.008	329.38
869.252	389.38
869.496	340.38
869.739	350.38
869.983	383.38
870.227	367.38
870.471	315.38
870.715	367.38
870.958	347.38
871.202	314.38
871.446	328.38
871.689	301.38
871.933	335.38
872.176	333.38
872.42	328.38
872.663	330.38
872.906	376.38
873.15	326.38
873.393	290.38
873.636	372.38
873.879	368.38
874.122	392.38
874.366	339.38
874.609	369.38
874.852	332.38
875.095	359.38
875.337	323.38
875.58	276.38
875.823	345.38
876.066	380.38
876.309	415.38
876.551	309.38
876.794	291.38
877.037	377.38
877.279	305.38
877.522	316.38
877.764	376.38
878.007	313.38
878.249	348.38
878.491	306.38
878.734	379.38
878.976	349.38
879.218	309.38
879.46	392.38
879.702	379.38
879.945	379.38
880.187	340.38
880.429	379.38
880.671	361.38
880.912	376.38
881.154	362.38
881.396	283.38
881.638	356.38
881.88	360.38
882.121	315.38
882.363	338.38
882.605	410.38
882.846	361.38
883.088	367.38
883.329	334.38
883.571	316.38
883.812	321.38
884.053	326.38
884.295	335.38
884.536	400.38
884.777	330.38
885.018	335.38
885.259	348.38
885.5	292.38
885.742	519.38
885.982	357.38
886.223	313.38
886.464	345.38
886.705	283.38
886.946	346.38
887.187	287.38
887.428	385.38
887.668	327.38
887.909	299.38
888.15	309.38
888.39	381.38
888.631	399.38
888.871	378.38
889.111	360.38
889.352	352.38
889.592	338.38
889.833	348.38
890.073	345.38
890.313	411.38
890.553	306.38
890.793	337.38
891.033	320.38
891.273	324.38
891.513	349.38
891.753	404.38
891.993	358.38
892.233	385.38
892.473	426.38
892.713	369.38
892.952	308.38
893.192	368.38
893.432	333.38
893.671	377.38
893.911	350.38
894.15	352.38
894.39	303.38
894.629	338.38
894.869	362.38
895.108	358.38
895.347	326.38
895.587	364.38
895.826	324.38
896.065	310.38
896.304	364.38
896.543	394.38
896.782	302.38
897.021	361.38
897.26	347.38
897.499	408.38
897.738	412.38
897.977	374.38
898.216	354.38
898.454	349.38
898.693	336.38
898.932	392.38
899.17	351.38
899.409	348.38
899.647	348.38
899.886	332.38
900.124	382.38
900.363	325.38
900.601	366.38
900.839	369.38
901.078	369.38
901.316	350.38
901.554	336.38
901.792	371.38
902.03	308.38
902.268	337.38
902.506	383.38
902.744	346.38
902.982	379.38
903.22	319.38
903.458	336.38
903.695	375.38
903.933	392.38
904.171	327.38
904.409	340.38
904.646	380.38
904.884	345.38
905.121	411.38
905.359	381.38
905.596	380.38
905.833	343.38
906.071	352.38
906.308	404.38
906.545	374.38
906.783	326.38
907.02	340.38
907.257	304.38
907.494	337.38
907.731	351.38
907.968	389.38
908.205	339.38
908.442	343.38
908.679	368.38
908.915	343.38
909.152	385.38
909.389	305.38
909.626	339.38
909.862	331.38
910.099	368.38
910.335	395.38
910.572	324.38
910.808	372.38
911.045	355.38
911.281	346.38
911.518	405.38
911.754	351.38
911.99	358.38
912.226	343.38
912.463	322.38
912.699	341.38
912.935	358.38
913.171	356.38
913.407	342.38
913.643	403.38
913.879	376.38
914.114	361.38
914.35	337.38
914.586	351.38
914.822	346.38
915.057	433.38
915.293	320.38
915.529	331.38
915.764	405.38
916	392.38
916.235	376.38
916.471	400.38
916.706	311.38
916.941	351.38
917.177	350.38
917.412	398.38
917.647	380.38
917.882	333.38
918.117	401.38
918.352	378.38
918.588	428.38
918.823	355.38
919.057	357.38
919.292	287.38
919.527	421.38
919.762	351.38
919.997	437.38
920.232	374.38
920.466	427.38
920.701	327.38
920.935	394.38
921.17	356.38
921.405	341.38
921.639	401.38
921.873	371.38
922.108	389.38
922.342	388.38
922.576	339.38
922.811	352.38
923.045	400.38
923.279	422.38
923.513	312.38
923.747	411.38
923.981	400.38
924.215	356.38
924.449	374.38
924.683	339.38
924.917	346.38
925.151	363.38
925.385	424.38
925.618	389.38
925.852	419.38
926.086	326.38
926.319	378.38
926.553	378.38
926.786	394.38
927.02	366.38
927.253	408.38
927.486	406.38
927.72	347.38
927.953	417.38
928.186	360.38
928.42	421.38
928.653	354.38
928.886	348.38
929.119	393.38
929.352	389.38
929.585	394.38
929.818	355.38
930.051	390.38
930.284	409.38
930.516	333.38
930.749	360.38
930.982	420.38
931.215	407.38
931.447	340.38
931.68	373.38
931.912	356.38
932.145	370.38
932.377	385.38
932.61	515.38
932.842	301.38
933.074	386.38
933.307	346.38
933.539	418.38
933.771	422.38
934.003	375.38
934.236	447.38
934.468	454.38
934.7	370.38
934.932	413.38
935.164	361.38
935.395	357.38
935.627	382.38
935.859	401.38
936.091	350.38
936.323	411.38
936.554	428.38
936.786	392.38
937.017	346.38
937.249	399.38
937.481	342.38
937.712	415.38
937.943	392.38
938.175	378.38
938.406	378.38
938.637	461.38
938.869	342.38
939.1	417.38
939.331	370.38
939.562	408.38
939.793	402.38
940.024	423.38
940.255	438.38
940.486	402.38
940.717	397.38
940.948	397.38
941.179	352.38
941.409	390.38
941.64	382.38
941.871	393.38
942.102	372.38
942.332	373.38
942.563	431.38
942.793	390.38
943.024	342.38
943.254	385.38
943.484	425.38
943.715	435.38
943.945	412.38
944.175	352.38
944.405	323.38
944.636	346.38
944.866	383.38
945.096	403.38
945.326	329.38
945.556	404.38
945.786	416.38
946.016	395.38
946.245	342.38
946.475	380.38
946.705	370.38
946.935	389.38
947.164	391.38
947.394	374.38
947.624	395.38
947.853	438.38
948.083	387.38
948.312	406.38
948.542	327.38
948.771	336.38
949	345.38
949.23	374.38
949.459	378.38
949.688	437.38
949.917	402.38
950.146	403.38
950.375	446.38
950.604	351.38
950.833	451.38
951.062	429.38
951.291	398.38
951.52	385.38
951.749	402.38
951.978	368.38
952.206	372.38
952.435	383.38
952.664	424.38
952.892	424.38
953.121	415.38
953.349	450.38
953.578	435.38
953.806	411.38
954.035	363.38
954.263	421.38
954.491	369.38
954.719	413.38
954.948	386.38
955.176	395.38
955.404	335.38
955.632	409.38
955.86	421.38
956.088	397.38
956.316	441.38
956.544	464.38
956.772	424.38
956.999	392.38
957.227	490.38
957.455	411.38
957.683	432.38
957.91	409.38
958.138	399.38
958.365	411.38
958.593	406.38
958.82	364.38
959.048	443.38
959.275	433.38
959.502	405.38
959.73	382.38
959.957	434.38
960.184	452.38
960.411	390.38
960.638	480.38
960.865	434.38
961.092	469.38
961.319	357.38
961.546	463.38
961.773	467.38
962	420.38
962.227	467.38
962.454	431.38
962.68	431.38
962.907	455.38
963.134	409.38
963.36	444.38
963.587	482.38
963.813	423.38
964.04	473.38
964.266	419.38
964.493	513.38
964.719	484.38
964.945	505.38
965.171	408.38
965.398	469.38
965.624	502.38
965.85	425.38
966.076	438.38
966.302	492.38
966.528	450.38
966.754	479.38
966.98	473.38
967.206	482.38
967.431	413.38
967.657	496.38
967.883	502.38
968.109	486.38
968.334	436.38
968.56	435.38
968.785	455.38
969.011	405.38
969.236	473.38
969.462	416.38
969.687	447.38
969.912	499.38
970.138	520.38
970.363	436.38
970.588	468.38
970.813	458.38
971.038	439.38
971.263	460.38
971.488	495.38
971.713	520.38
971.938	525.38
972.163	411.38
972.388	454.38
972.613	450.38
972.838	474.38
973.062	453.38
973.287	467.38
973.512	402.38
973.736	449.38
973.961	451.38
974.185	448.38
974.41	470.38
974.634	409.38
974.858	429.38
975.083	460.38
975.307	482.38
975.531	446.38
975.755	394.38
975.98	427.38
976.204	392.38
976.428	389.38
976.652	406.38
976.876	399.38
977.1	444.38
977.324	404.38
977.547	466.38
977.771	467.38
977.995	442.38
978.219	391.38
978.442	511.38
978.666	445.38
978.89	445.38
979.113	450.38
979.337	432.38
979.56	418.38
979.783	514.38
980.007	417.38
980.23	448.38
980.453	421.38
980.677	474.38
980.9	446.38
981.123	373.38
981.346	472.38
981.569	470.38
981.792	488.38
982.015	452.38
982.238	422.38
982.461	451.38
982.684	431.38
982.907	417.38
983.129	431.38
983.352	473.38
983.575	483.38
983.797	468.38
984.02	449.38
984.242	433.38
984.465	469.38
984.687	485.38
984.91	508.38
985.132	488.38
985.354	498.38
985.577	494.38
985.799	493.38
986.021	416.38
986.243	442.38
986.465	476.38
986.687	533.38
986.909	554.38
987.131	486.38
987.353	465.38
987.575	501.38
987.797	465.38
988.019	417.38
988.241	483.38
988.462	451.38
988.684	510.38
988.906	537.38
989.127	556.38
989.349	452.38
989.57	498.38
989.792	536.38
990.013	546.38
990.234	545.38
990.456	579.38
990.677	539.38
990.898	495.38
991.119	516.38
991.341	537.38
991.562	477.38
991.783	537.38
992.004	478.38
992.225	455.38
992.446	519.38
992.667	447.38
992.887	552.38
993.108	447.38
993.329	597.38
993.55	530.38
993.77	483.38
993.991	490.38
994.212	540.38
994.432	537.38
994.653	536.38
994.873	551.38
995.093	441.38
995.314	494.38
995.534	573.38
995.754	568.38
995.975	604.38
996.195	496.38
996.415	551.38
996.635	530.38
996.855	540.38
997.075	519.38
997.295	518.38
997.515	504.38
997.735	562.38
997.955	542.38
998.174	531.38
998.394	517.38
998.614	564.38
998.834	518.38
999.053	594.38
999.273	572.38
999.492	619.38
999.712	562.38
999.931	538.38
1000.151	585.38
1000.37	588.38
1000.589	626.38
1000.809	562.38
1001.028	680.38
1001.247	609.38
1001.466	524.38
1001.685	683.38
1001.904	639.38
1002.123	620.38
1002.342	631.38
1002.561	592.38
1002.78	630.38
1002.999	702.38
1003.218	644.38
1003.436	607.38
1003.655	697.38
1003.874	631.38
1004.092	643.38
1004.311	681.38
1004.53	656.38
1004.748	721.38
1004.966	646.38
1005.185	733.38
1005.403	709.38
1005.622	681.38
1005.84	759.38
1006.058	661.38
1006.276	693.38
1006.494	1178.38
1006.712	680.38
1006.931	750.38
1007.149	648.38
1007.367	657.38
1007.584	669.38
1007.802	710.38
1008.02	647.38
1008.238	735.38
1008.456	705.38
1008.673	580.38
1008.891	693.38
1009.109	635.38
1009.326	655.38
1009.544	733.38
1009.761	607.38
1009.979	658.38
1010.196	617.38
1010.413	665.38
1010.631	681.38
1010.848	688.38
1011.065	678.38
1011.282	617.38
1011.5	551.38
1011.717	665.38
1011.934	639.38
1012.151	669.38
1012.368	640.38
1012.585	595.38
1012.801	662.38
1013.018	626.38
1013.235	574.38
1013.452	604.38
1013.669	585.38
1013.885	589.38
1014.102	598.38
1014.318	562.38
1014.535	538.38
1014.751	553.38
1014.968	560.38
1015.184	609.38
1015.401	523.38
1015.617	574.38
1015.833	523.38
1016.049	551.38
1016.266	547.38
1016.482	557.38
1016.698	490.38
1016.914	554.38
1017.13	508.38
1017.346	510.38
1017.562	584.38
1017.778	533.38
1017.993	498.38
1018.209	555.38
1018.425	544.38
1018.641	500.38
1018.856	476.38
1019.072	514.38
1019.288	559.38
1019.503	519.38
1019.719	449.38
1019.934	455.38
1020.149	540.38
1020.365	497.38
1020.58	467.38
1020.795	540.38
1021.011	480.38
1021.226	496.38
1021.441	563.38
1021.656	495.38
1021.871	452.38
1022.086	455.38
1022.301	488.38
1022.516	489.38
1022.731	518.38
1022.946	476.38
1023.16	467.38
1023.375	452.38
1023.59	445.38
1023.804	430.38
1024.019	540.38
1024.234	430.38
1024.448	486.38
1024.663	416.38
1024.877	441.38
1025.092	476.38
1025.306	499.38
1025.52	410.38
1025.734	510.38
1025.949	447.38
1026.163	445.38
1026.377	387.38
1026.591	449.38
1026.805	381.38
1027.019	388.38
1027.233	356.38
1027.447	324.38
1027.661	425.38
1027.875	375.38
1028.088	387.38
1028.302	343.38
1028.516	335.38
1028.73	347.38
1028.943	353.38
1029.157	329.38
1029.37	303.38
1029.584	0.38
1029.797	-1.62
1030.011	-1.62
1030.224	-2.62
