Data from QEP037381__1__10-12-21-054.txt Node

Date: Fri Apr 21 10:12:21 EDT 2023
User: dcclab
Spectrometer: QEP03738
Trigger mode: 4
Integration Time (sec): 1.000000E1
Scans to average: 1
Electric dark correction enabled: true
Nonlinearity correction enabled: false
Boxcar width: 0
XAxis mode: Wavelengths
Number of Pixels in Spectrum: 1044
>>>>>Begin Spectral Data<<<<<
784.041	9.5
784.3	0.5
784.558	-0.5
784.817	-5.5
785.075	247.5
785.334	220.5
785.592	219.5
785.851	199.5
786.109	229.5
786.368	245.5
786.626	257.5
786.884	286.5
787.143	259.5
787.401	220.5
787.659	279.5
787.917	250.5
788.175	291.5
788.433	279.5
788.691	264.5
788.949	281.5
789.207	292.5
789.465	257.5
789.723	270.5
789.98	256.5
790.238	318.5
790.496	296.5
790.753	278.5
791.011	360.5
791.268	312.5
791.526	302.5
791.783	339.5
792.041	341.5
792.298	258.5
792.556	324.5
792.813	307.5
793.07	298.5
793.327	291.5
793.584	370.5
793.841	297.5
794.099	321.5
794.356	381.5
794.613	283.5
794.869	336.5
795.126	297.5
795.383	293.5
795.64	300.5
795.897	269.5
796.153	329.5
796.41	305.5
796.667	304.5
796.923	312.5
797.18	303.5
797.436	329.5
797.693	284.5
797.949	337.5
798.206	362.5
798.462	273.5
798.718	338.5
798.974	321.5
799.231	329.5
799.487	321.5
799.743	328.5
799.999	350.5
800.255	332.5
800.511	301.5
800.767	332.5
801.023	310.5
801.279	317.5
801.534	317.5
801.79	335.5
802.046	304.5
802.302	354.5
802.557	331.5
802.813	356.5
803.068	295.5
803.324	349.5
803.579	314.5
803.835	307.5
804.09	345.5
804.345	292.5
804.601	274.5
804.856	297.5
805.111	326.5
805.366	316.5
805.621	329.5
805.876	347.5
806.131	332.5
806.386	307.5
806.641	291.5
806.896	315.5
807.151	386.5
807.406	327.5
807.661	347.5
807.915	336.5
808.17	346.5
808.425	340.5
808.679	291.5
808.934	390.5
809.188	315.5
809.443	348.5
809.697	377.5
809.951	310.5
810.206	311.5
810.46	368.5
810.714	352.5
810.968	376.5
811.223	281.5
811.477	339.5
811.731	356.5
811.985	281.5
812.239	245.5
812.493	290.5
812.747	314.5
813	281.5
813.254	346.5
813.508	350.5
813.762	301.5
814.015	304.5
814.269	334.5
814.522	343.5
814.776	350.5
815.03	341.5
815.283	339.5
815.536	357.5
815.79	348.5
816.043	338.5
816.296	348.5
816.55	335.5
816.803	325.5
817.056	413.5
817.309	339.5
817.562	345.5
817.815	384.5
818.068	292.5
818.321	305.5
818.574	296.5
818.827	340.5
819.079	301.5
819.332	428.5
819.585	345.5
819.838	414.5
820.09	308.5
820.343	371.5
820.595	283.5
820.848	352.5
821.1	360.5
821.353	331.5
821.605	327.5
821.857	401.5
822.11	296.5
822.362	316.5
822.614	291.5
822.866	332.5
823.118	275.5
823.37	397.5
823.622	310.5
823.874	325.5
824.126	363.5
824.378	302.5
824.63	317.5
824.882	332.5
825.134	312.5
825.385	357.5
825.637	345.5
825.888	305.5
826.14	321.5
826.392	300.5
826.643	300.5
826.895	376.5
827.146	322.5
827.397	326.5
827.649	395.5
827.9	311.5
828.151	290.5
828.402	289.5
828.653	326.5
828.905	325.5
829.156	377.5
829.407	305.5
829.658	322.5
829.909	367.5
830.159	342.5
830.41	360.5
830.661	361.5
830.912	340.5
831.162	319.5
831.413	322.5
831.664	357.5
831.914	333.5
832.165	339.5
832.415	354.5
832.666	346.5
832.916	360.5
833.167	319.5
833.417	391.5
833.667	348.5
833.917	336.5
834.168	399.5
834.418	359.5
834.668	340.5
834.918	295.5
835.168	318.5
835.418	283.5
835.668	342.5
835.918	364.5
836.167	357.5
836.417	302.5
836.667	370.5
836.917	379.5
837.166	323.5
837.416	360.5
837.666	354.5
837.915	338.5
838.165	364.5
838.414	312.5
838.663	283.5
838.913	343.5
839.162	294.5
839.411	390.5
839.661	324.5
839.91	339.5
840.159	313.5
840.408	333.5
840.657	342.5
840.906	343.5
841.155	364.5
841.404	337.5
841.653	343.5
841.902	299.5
842.15	350.5
842.399	340.5
842.648	342.5
842.897	360.5
843.145	290.5
843.394	306.5
843.642	315.5
843.891	379.5
844.139	342.5
844.388	300.5
844.636	267.5
844.884	324.5
845.133	290.5
845.381	319.5
845.629	347.5
845.877	304.5
846.125	309.5
846.373	345.5
846.621	303.5
846.869	355.5
847.117	327.5
847.365	321.5
847.613	355.5
847.861	346.5
848.108	385.5
848.356	350.5
848.604	312.5
848.851	350.5
849.099	332.5
849.346	324.5
849.594	354.5
849.841	359.5
850.089	319.5
850.336	297.5
850.583	313.5
850.831	330.5
851.078	360.5
851.325	311.5
851.572	381.5
851.819	367.5
852.066	333.5
852.313	334.5
852.56	303.5
852.807	296.5
853.054	295.5
853.301	311.5
853.548	319.5
853.794	409.5
854.041	341.5
854.288	282.5
854.534	390.5
854.781	320.5
855.028	308.5
855.274	391.5
855.52	339.5
855.767	302.5
856.013	355.5
856.26	633.5
856.506	325.5
856.752	366.5
856.998	339.5
857.244	314.5
857.49	355.5
857.736	351.5
857.982	349.5
858.228	365.5
858.474	295.5
858.72	339.5
858.966	355.5
859.212	352.5
859.458	345.5
859.703	355.5
859.949	324.5
860.195	368.5
860.44	362.5
860.686	312.5
860.931	387.5
861.177	321.5
861.422	389.5
861.667	340.5
861.913	335.5
862.158	345.5
862.403	393.5
862.648	354.5
862.893	398.5
863.138	342.5
863.384	322.5
863.629	352.5
863.873	358.5
864.118	333.5
864.363	271.5
864.608	344.5
864.853	382.5
865.098	336.5
865.342	368.5
865.587	335.5
865.832	390.5
866.076	360.5
866.321	326.5
866.565	343.5
866.81	284.5
867.054	323.5
867.298	350.5
867.543	314.5
867.787	385.5
868.031	334.5
868.275	336.5
868.519	341.5
868.764	345.5
869.008	348.5
869.252	376.5
869.496	341.5
869.739	342.5
869.983	392.5
870.227	371.5
870.471	318.5
870.715	366.5
870.958	354.5
871.202	314.5
871.446	340.5
871.689	322.5
871.933	347.5
872.176	349.5
872.42	326.5
872.663	326.5
872.906	393.5
873.15	330.5
873.393	302.5
873.636	401.5
873.879	383.5
874.122	409.5
874.366	348.5
874.609	378.5
874.852	350.5
875.095	355.5
875.337	323.5
875.58	277.5
875.823	357.5
876.066	393.5
876.309	411.5
876.551	310.5
876.794	300.5
877.037	378.5
877.279	296.5
877.522	311.5
877.764	363.5
878.007	319.5
878.249	354.5
878.491	310.5
878.734	376.5
878.976	361.5
879.218	297.5
879.46	393.5
879.702	383.5
879.945	382.5
880.187	344.5
880.429	391.5
880.671	375.5
880.912	400.5
881.154	376.5
881.396	286.5
881.638	370.5
881.88	354.5
882.121	322.5
882.363	343.5
882.605	392.5
882.846	365.5
883.088	376.5
883.329	316.5
883.571	304.5
883.812	328.5
884.053	334.5
884.295	335.5
884.536	424.5
884.777	331.5
885.018	351.5
885.259	370.5
885.5	313.5
885.742	510.5
885.982	381.5
886.223	323.5
886.464	338.5
886.705	315.5
886.946	353.5
887.187	282.5
887.428	377.5
887.668	323.5
887.909	322.5
888.15	299.5
888.39	380.5
888.631	413.5
888.871	384.5
889.111	356.5
889.352	361.5
889.592	335.5
889.833	363.5
890.073	355.5
890.313	421.5
890.553	306.5
890.793	353.5
891.033	321.5
891.273	332.5
891.513	362.5
891.753	412.5
891.993	346.5
892.233	372.5
892.473	434.5
892.713	379.5
892.952	324.5
893.192	362.5
893.432	335.5
893.671	382.5
893.911	348.5
894.15	355.5
894.39	300.5
894.629	347.5
894.869	364.5
895.108	340.5
895.347	329.5
895.587	373.5
895.826	340.5
896.065	324.5
896.304	362.5
896.543	392.5
896.782	289.5
897.021	359.5
897.26	366.5
897.499	407.5
897.738	403.5
897.977	365.5
898.216	362.5
898.454	361.5
898.693	336.5
898.932	367.5
899.17	354.5
899.409	369.5
899.647	352.5
899.886	346.5
900.124	374.5
900.363	331.5
900.601	370.5
900.839	359.5
901.078	364.5
901.316	364.5
901.554	348.5
901.792	360.5
902.03	318.5
902.268	346.5
902.506	388.5
902.744	336.5
902.982	395.5
903.22	323.5
903.458	348.5
903.695	394.5
903.933	398.5
904.171	340.5
904.409	355.5
904.646	390.5
904.884	346.5
905.121	414.5
905.359	402.5
905.596	385.5
905.833	348.5
906.071	352.5
906.308	410.5
906.545	383.5
906.783	324.5
907.02	360.5
907.257	304.5
907.494	348.5
907.731	379.5
907.968	389.5
908.205	346.5
908.442	326.5
908.679	367.5
908.915	362.5
909.152	370.5
909.389	299.5
909.626	349.5
909.862	334.5
910.099	362.5
910.335	401.5
910.572	309.5
910.808	383.5
911.045	342.5
911.281	331.5
911.518	418.5
911.754	350.5
911.99	366.5
912.226	358.5
912.463	326.5
912.699	357.5
912.935	363.5
913.171	352.5
913.407	319.5
913.643	397.5
913.879	376.5
914.114	373.5
914.35	351.5
914.586	359.5
914.822	329.5
915.057	450.5
915.293	316.5
915.529	338.5
915.764	402.5
916	387.5
916.235	389.5
916.471	403.5
916.706	311.5
916.941	364.5
917.177	349.5
917.412	385.5
917.647	385.5
917.882	339.5
918.117	403.5
918.352	364.5
918.588	425.5
918.823	383.5
919.057	384.5
919.292	300.5
919.527	423.5
919.762	364.5
919.997	435.5
920.232	383.5
920.466	412.5
920.701	329.5
920.935	389.5
921.17	370.5
921.405	338.5
921.639	396.5
921.873	374.5
922.108	404.5
922.342	402.5
922.576	342.5
922.811	354.5
923.045	414.5
923.279	445.5
923.513	321.5
923.747	406.5
923.981	400.5
924.215	371.5
924.449	359.5
924.683	330.5
924.917	368.5
925.151	367.5
925.385	440.5
925.618	385.5
925.852	379.5
926.086	330.5
926.319	400.5
926.553	382.5
926.786	396.5
927.02	376.5
927.253	433.5
927.486	417.5
927.72	344.5
927.953	408.5
928.186	370.5
928.42	412.5
928.653	352.5
928.886	342.5
929.119	415.5
929.352	387.5
929.585	401.5
929.818	352.5
930.051	396.5
930.284	403.5
930.516	332.5
930.749	364.5
930.982	411.5
931.215	408.5
931.447	357.5
931.68	363.5
931.912	367.5
932.145	371.5
932.377	399.5
932.61	489.5
932.842	328.5
933.074	384.5
933.307	345.5
933.539	442.5
933.771	432.5
934.003	367.5
934.236	445.5
934.468	459.5
934.7	369.5
934.932	425.5
935.164	366.5
935.395	352.5
935.627	395.5
935.859	417.5
936.091	352.5
936.323	408.5
936.554	434.5
936.786	386.5
937.017	338.5
937.249	405.5
937.481	323.5
937.712	413.5
937.943	393.5
938.175	383.5
938.406	376.5
938.637	450.5
938.869	351.5
939.1	405.5
939.331	371.5
939.562	419.5
939.793	391.5
940.024	442.5
940.255	458.5
940.486	397.5
940.717	410.5
940.948	403.5
941.179	345.5
941.409	403.5
941.64	383.5
941.871	395.5
942.102	370.5
942.332	376.5
942.563	427.5
942.793	402.5
943.024	345.5
943.254	373.5
943.484	430.5
943.715	433.5
943.945	411.5
944.175	344.5
944.405	326.5
944.636	342.5
944.866	403.5
945.096	410.5
945.326	335.5
945.556	396.5
945.786	415.5
946.016	385.5
946.245	358.5
946.475	382.5
946.705	378.5
946.935	393.5
947.164	396.5
947.394	369.5
947.624	395.5
947.853	429.5
948.083	405.5
948.312	403.5
948.542	348.5
948.771	342.5
949	363.5
949.23	375.5
949.459	371.5
949.688	436.5
949.917	392.5
950.146	399.5
950.375	441.5
950.604	356.5
950.833	457.5
951.062	447.5
951.291	391.5
951.52	374.5
951.749	405.5
951.978	369.5
952.206	364.5
952.435	365.5
952.664	410.5
952.892	437.5
953.121	411.5
953.349	447.5
953.578	432.5
953.806	421.5
954.035	377.5
954.263	422.5
954.491	376.5
954.719	429.5
954.948	388.5
955.176	405.5
955.404	325.5
955.632	428.5
955.86	409.5
956.088	429.5
956.316	437.5
956.544	458.5
956.772	401.5
956.999	395.5
957.227	495.5
957.455	405.5
957.683	421.5
957.91	395.5
958.138	400.5
958.365	409.5
958.593	413.5
958.82	368.5
959.048	443.5
959.275	418.5
959.502	409.5
959.73	394.5
959.957	427.5
960.184	448.5
960.411	398.5
960.638	469.5
960.865	417.5
961.092	464.5
961.319	367.5
961.546	463.5
961.773	460.5
962	411.5
962.227	476.5
962.454	439.5
962.68	416.5
962.907	443.5
963.134	409.5
963.36	445.5
963.587	474.5
963.813	422.5
964.04	465.5
964.266	415.5
964.493	504.5
964.719	472.5
964.945	497.5
965.171	389.5
965.398	462.5
965.624	499.5
965.85	429.5
966.076	424.5
966.302	472.5
966.528	458.5
966.754	486.5
966.98	481.5
967.206	469.5
967.431	424.5
967.657	515.5
967.883	482.5
968.109	480.5
968.334	427.5
968.56	423.5
968.785	449.5
969.011	422.5
969.236	496.5
969.462	415.5
969.687	445.5
969.912	490.5
970.138	523.5
970.363	442.5
970.588	479.5
970.813	469.5
971.038	430.5
971.263	468.5
971.488	479.5
971.713	522.5
971.938	506.5
972.163	427.5
972.388	445.5
972.613	440.5
972.838	469.5
973.062	458.5
973.287	477.5
973.512	396.5
973.736	454.5
973.961	450.5
974.185	431.5
974.41	477.5
974.634	400.5
974.858	431.5
975.083	479.5
975.307	494.5
975.531	436.5
975.755	398.5
975.98	445.5
976.204	379.5
976.428	394.5
976.652	401.5
976.876	398.5
977.1	438.5
977.324	408.5
977.547	454.5
977.771	485.5
977.995	444.5
978.219	394.5
978.442	513.5
978.666	452.5
978.89	439.5
979.113	445.5
979.337	447.5
979.56	418.5
979.783	506.5
980.007	418.5
980.23	462.5
980.453	417.5
980.677	449.5
980.9	458.5
981.123	372.5
981.346	470.5
981.569	467.5
981.792	488.5
982.015	451.5
982.238	417.5
982.461	482.5
982.684	424.5
982.907	431.5
983.129	426.5
983.352	488.5
983.575	463.5
983.797	466.5
984.02	450.5
984.242	458.5
984.465	464.5
984.687	487.5
984.91	514.5
985.132	488.5
985.354	526.5
985.577	485.5
985.799	486.5
986.021	426.5
986.243	445.5
986.465	470.5
986.687	528.5
986.909	565.5
987.131	505.5
987.353	476.5
987.575	518.5
987.797	468.5
988.019	419.5
988.241	485.5
988.462	451.5
988.684	506.5
988.906	536.5
989.127	562.5
989.349	441.5
989.57	504.5
989.792	530.5
990.013	540.5
990.234	549.5
990.456	578.5
990.677	550.5
990.898	503.5
991.119	514.5
991.341	540.5
991.562	484.5
991.783	547.5
992.004	486.5
992.225	449.5
992.446	532.5
992.667	454.5
992.887	548.5
993.108	449.5
993.329	599.5
993.55	531.5
993.77	488.5
993.991	480.5
994.212	537.5
994.432	519.5
994.653	547.5
994.873	545.5
995.093	438.5
995.314	491.5
995.534	579.5
995.754	594.5
995.975	606.5
996.195	496.5
996.415	560.5
996.635	545.5
996.855	549.5
997.075	514.5
997.295	534.5
997.515	517.5
997.735	571.5
997.955	535.5
998.174	540.5
998.394	505.5
998.614	564.5
998.834	514.5
999.053	598.5
999.273	563.5
999.492	629.5
999.712	574.5
999.931	537.5
1000.151	594.5
1000.37	578.5
1000.589	648.5
1000.809	552.5
1001.028	704.5
1001.247	651.5
1001.466	533.5
1001.685	677.5
1001.904	628.5
1002.123	618.5
1002.342	643.5
1002.561	614.5
1002.78	638.5
1002.999	696.5
1003.218	631.5
1003.436	633.5
1003.655	677.5
1003.874	638.5
1004.092	656.5
1004.311	700.5
1004.53	650.5
1004.748	742.5
1004.966	686.5
1005.185	719.5
1005.403	703.5
1005.622	670.5
1005.84	770.5
1006.058	653.5
1006.276	695.5
1006.494	1168.5
1006.712	682.5
1006.931	741.5
1007.149	664.5
1007.367	664.5
1007.584	674.5
1007.802	720.5
1008.02	648.5
1008.238	740.5
1008.456	723.5
1008.673	593.5
1008.891	690.5
1009.109	621.5
1009.326	662.5
1009.544	735.5
1009.761	585.5
1009.979	664.5
1010.196	635.5
1010.413	687.5
1010.631	680.5
1010.848	684.5
1011.065	664.5
1011.282	611.5
1011.5	562.5
1011.717	680.5
1011.934	636.5
1012.151	672.5
1012.368	648.5
1012.585	592.5
1012.801	662.5
1013.018	620.5
1013.235	588.5
1013.452	604.5
1013.669	622.5
1013.885	573.5
1014.102	619.5
1014.318	571.5
1014.535	534.5
1014.751	568.5
1014.968	573.5
1015.184	614.5
1015.401	525.5
1015.617	591.5
1015.833	541.5
1016.049	559.5
1016.266	543.5
1016.482	559.5
1016.698	496.5
1016.914	576.5
1017.13	509.5
1017.346	527.5
1017.562	583.5
1017.778	514.5
1017.993	508.5
1018.209	563.5
1018.425	544.5
1018.641	497.5
1018.856	487.5
1019.072	511.5
1019.288	560.5
1019.503	508.5
1019.719	428.5
1019.934	466.5
1020.149	557.5
1020.365	495.5
1020.58	454.5
1020.795	544.5
1021.011	493.5
1021.226	495.5
1021.441	532.5
1021.656	494.5
1021.871	453.5
1022.086	462.5
1022.301	460.5
1022.516	468.5
1022.731	521.5
1022.946	474.5
1023.16	464.5
1023.375	450.5
1023.59	434.5
1023.804	440.5
1024.019	547.5
1024.234	429.5
1024.448	485.5
1024.663	418.5
1024.877	446.5
1025.092	462.5
1025.306	496.5
1025.52	415.5
1025.734	512.5
1025.949	447.5
1026.163	431.5
1026.377	393.5
1026.591	459.5
1026.805	371.5
1027.019	384.5
1027.233	359.5
1027.447	317.5
1027.661	428.5
1027.875	377.5
1028.088	401.5
1028.302	321.5
1028.516	351.5
1028.73	352.5
1028.943	355.5
1029.157	328.5
1029.37	306.5
1029.584	-1.5
1029.797	-0.5
1030.011	-0.5
1030.224	-1.5
