Data from QEP037381__10__10-13-51-056.txt Node

Date: Fri Apr 21 10:13:51 EDT 2023
User: dcclab
Spectrometer: QEP03738
Trigger mode: 4
Integration Time (sec): 1.000000E1
Scans to average: 1
Electric dark correction enabled: true
Nonlinearity correction enabled: false
Boxcar width: 0
XAxis mode: Wavelengths
Number of Pixels in Spectrum: 1044
>>>>>Begin Spectral Data<<<<<
784.041	12.5
784.3	-0.5
784.558	-4.5
784.817	-1.5
785.075	252.5
785.334	215.5
785.592	200.5
785.851	196.5
786.109	226.5
786.368	238.5
786.626	253.5
786.884	269.5
787.143	254.5
787.401	208.5
787.659	286.5
787.917	247.5
788.175	296.5
788.433	283.5
788.691	274.5
788.949	280.5
789.207	308.5
789.465	252.5
789.723	278.5
789.98	249.5
790.238	327.5
790.496	308.5
790.753	293.5
791.011	355.5
791.268	297.5
791.526	307.5
791.783	339.5
792.041	335.5
792.298	254.5
792.556	333.5
792.813	305.5
793.07	288.5
793.327	280.5
793.584	373.5
793.841	295.5
794.099	320.5
794.356	374.5
794.613	292.5
794.869	338.5
795.126	298.5
795.383	302.5
795.64	308.5
795.897	267.5
796.153	327.5
796.41	322.5
796.667	292.5
796.923	298.5
797.18	291.5
797.436	329.5
797.693	287.5
797.949	349.5
798.206	358.5
798.462	270.5
798.718	332.5
798.974	309.5
799.231	346.5
799.487	317.5
799.743	325.5
799.999	351.5
800.255	329.5
800.511	288.5
800.767	350.5
801.023	303.5
801.279	317.5
801.534	328.5
801.79	326.5
802.046	298.5
802.302	359.5
802.557	335.5
802.813	347.5
803.068	292.5
803.324	336.5
803.579	319.5
803.835	301.5
804.09	340.5
804.345	299.5
804.601	275.5
804.856	319.5
805.111	329.5
805.366	321.5
805.621	319.5
805.876	350.5
806.131	325.5
806.386	313.5
806.641	275.5
806.896	308.5
807.151	381.5
807.406	311.5
807.661	339.5
807.915	330.5
808.17	337.5
808.425	349.5
808.679	285.5
808.934	385.5
809.188	304.5
809.443	332.5
809.697	383.5
809.951	307.5
810.206	304.5
810.46	358.5
810.714	336.5
810.968	368.5
811.223	281.5
811.477	318.5
811.731	359.5
811.985	274.5
812.239	252.5
812.493	295.5
812.747	308.5
813	268.5
813.254	327.5
813.508	349.5
813.762	301.5
814.015	308.5
814.269	325.5
814.522	339.5
814.776	337.5
815.03	344.5
815.283	337.5
815.536	349.5
815.79	337.5
816.043	336.5
816.296	333.5
816.55	317.5
816.803	325.5
817.056	404.5
817.309	347.5
817.562	333.5
817.815	380.5
818.068	293.5
818.321	293.5
818.574	288.5
818.827	339.5
819.079	300.5
819.332	415.5
819.585	331.5
819.838	401.5
820.09	308.5
820.343	371.5
820.595	292.5
820.848	348.5
821.1	357.5
821.353	320.5
821.605	313.5
821.857	377.5
822.11	292.5
822.362	310.5
822.614	283.5
822.866	328.5
823.118	271.5
823.37	373.5
823.622	318.5
823.874	317.5
824.126	348.5
824.378	295.5
824.63	324.5
824.882	332.5
825.134	318.5
825.385	356.5
825.637	329.5
825.888	317.5
826.14	331.5
826.392	306.5
826.643	293.5
826.895	377.5
827.146	318.5
827.397	306.5
827.649	380.5
827.9	309.5
828.151	285.5
828.402	282.5
828.653	327.5
828.905	329.5
829.156	370.5
829.407	288.5
829.658	325.5
829.909	370.5
830.159	348.5
830.41	351.5
830.661	362.5
830.912	334.5
831.162	321.5
831.413	311.5
831.664	350.5
831.914	347.5
832.165	351.5
832.415	340.5
832.666	353.5
832.916	358.5
833.167	309.5
833.417	377.5
833.667	348.5
833.917	334.5
834.168	384.5
834.418	358.5
834.668	321.5
834.918	290.5
835.168	315.5
835.418	279.5
835.668	336.5
835.918	371.5
836.167	348.5
836.417	308.5
836.667	356.5
836.917	390.5
837.166	330.5
837.416	360.5
837.666	375.5
837.915	330.5
838.165	341.5
838.414	297.5
838.663	276.5
838.913	337.5
839.162	303.5
839.411	398.5
839.661	312.5
839.91	331.5
840.159	318.5
840.408	342.5
840.657	311.5
840.906	331.5
841.155	364.5
841.404	315.5
841.653	347.5
841.902	317.5
842.15	341.5
842.399	347.5
842.648	322.5
842.897	356.5
843.145	285.5
843.394	310.5
843.642	312.5
843.891	383.5
844.139	337.5
844.388	307.5
844.636	276.5
844.884	313.5
845.133	286.5
845.381	331.5
845.629	362.5
845.877	305.5
846.125	313.5
846.373	334.5
846.621	296.5
846.869	363.5
847.117	328.5
847.365	324.5
847.613	349.5
847.861	360.5
848.108	381.5
848.356	354.5
848.604	307.5
848.851	342.5
849.099	338.5
849.346	316.5
849.594	351.5
849.841	360.5
850.089	307.5
850.336	292.5
850.583	321.5
850.831	333.5
851.078	326.5
851.325	299.5
851.572	368.5
851.819	355.5
852.066	334.5
852.313	322.5
852.56	303.5
852.807	297.5
853.054	292.5
853.301	311.5
853.548	303.5
853.794	401.5
854.041	335.5
854.288	285.5
854.534	405.5
854.781	326.5
855.028	310.5
855.274	392.5
855.52	337.5
855.767	312.5
856.013	352.5
856.26	642.5
856.506	311.5
856.752	370.5
856.998	320.5
857.244	318.5
857.49	348.5
857.736	349.5
857.982	346.5
858.228	358.5
858.474	301.5
858.72	341.5
858.966	358.5
859.212	339.5
859.458	343.5
859.703	350.5
859.949	319.5
860.195	366.5
860.44	363.5
860.686	322.5
860.931	393.5
861.177	313.5
861.422	380.5
861.667	339.5
861.913	324.5
862.158	332.5
862.403	383.5
862.648	358.5
862.893	396.5
863.138	345.5
863.384	306.5
863.629	366.5
863.873	348.5
864.118	337.5
864.363	274.5
864.608	351.5
864.853	380.5
865.098	333.5
865.342	361.5
865.587	337.5
865.832	381.5
866.076	359.5
866.321	335.5
866.565	333.5
866.81	277.5
867.054	328.5
867.298	344.5
867.543	308.5
867.787	373.5
868.031	352.5
868.275	356.5
868.519	334.5
868.764	345.5
869.008	342.5
869.252	374.5
869.496	340.5
869.739	360.5
869.983	389.5
870.227	364.5
870.471	324.5
870.715	361.5
870.958	358.5
871.202	325.5
871.446	336.5
871.689	311.5
871.933	336.5
872.176	342.5
872.42	341.5
872.663	315.5
872.906	391.5
873.15	342.5
873.393	294.5
873.636	385.5
873.879	368.5
874.122	401.5
874.366	340.5
874.609	379.5
874.852	336.5
875.095	356.5
875.337	310.5
875.58	281.5
875.823	352.5
876.066	390.5
876.309	405.5
876.551	306.5
876.794	293.5
877.037	378.5
877.279	301.5
877.522	326.5
877.764	375.5
878.007	325.5
878.249	357.5
878.491	302.5
878.734	359.5
878.976	363.5
879.218	312.5
879.46	392.5
879.702	366.5
879.945	364.5
880.187	344.5
880.429	362.5
880.671	371.5
880.912	377.5
881.154	361.5
881.396	289.5
881.638	360.5
881.88	358.5
882.121	328.5
882.363	336.5
882.605	383.5
882.846	369.5
883.088	379.5
883.329	330.5
883.571	312.5
883.812	323.5
884.053	320.5
884.295	339.5
884.536	422.5
884.777	338.5
885.018	370.5
885.259	369.5
885.5	308.5
885.742	506.5
885.982	379.5
886.223	312.5
886.464	330.5
886.705	294.5
886.946	344.5
887.187	288.5
887.428	389.5
887.668	328.5
887.909	318.5
888.15	287.5
888.39	374.5
888.631	427.5
888.871	380.5
889.111	360.5
889.352	352.5
889.592	338.5
889.833	351.5
890.073	357.5
890.313	412.5
890.553	303.5
890.793	341.5
891.033	323.5
891.273	327.5
891.513	346.5
891.753	415.5
891.993	348.5
892.233	377.5
892.473	414.5
892.713	369.5
892.952	326.5
893.192	371.5
893.432	336.5
893.671	373.5
893.911	351.5
894.15	349.5
894.39	293.5
894.629	334.5
894.869	377.5
895.108	353.5
895.347	331.5
895.587	367.5
895.826	335.5
896.065	312.5
896.304	366.5
896.543	405.5
896.782	291.5
897.021	365.5
897.26	356.5
897.499	401.5
897.738	412.5
897.977	362.5
898.216	346.5
898.454	346.5
898.693	339.5
898.932	382.5
899.17	344.5
899.409	345.5
899.647	347.5
899.886	339.5
900.124	372.5
900.363	318.5
900.601	360.5
900.839	348.5
901.078	359.5
901.316	351.5
901.554	349.5
901.792	373.5
902.03	313.5
902.268	345.5
902.506	400.5
902.744	334.5
902.982	386.5
903.22	313.5
903.458	351.5
903.695	385.5
903.933	387.5
904.171	332.5
904.409	351.5
904.646	406.5
904.884	343.5
905.121	412.5
905.359	397.5
905.596	382.5
905.833	342.5
906.071	352.5
906.308	414.5
906.545	384.5
906.783	310.5
907.02	349.5
907.257	312.5
907.494	346.5
907.731	371.5
907.968	376.5
908.205	329.5
908.442	334.5
908.679	370.5
908.915	348.5
909.152	367.5
909.389	314.5
909.626	339.5
909.862	331.5
910.099	366.5
910.335	391.5
910.572	321.5
910.808	374.5
911.045	349.5
911.281	333.5
911.518	407.5
911.754	345.5
911.99	372.5
912.226	352.5
912.463	321.5
912.699	342.5
912.935	355.5
913.171	360.5
913.407	319.5
913.643	398.5
913.879	366.5
914.114	365.5
914.35	348.5
914.586	365.5
914.822	330.5
915.057	431.5
915.293	328.5
915.529	330.5
915.764	405.5
916	382.5
916.235	382.5
916.471	401.5
916.706	299.5
916.941	362.5
917.177	341.5
917.412	383.5
917.647	379.5
917.882	345.5
918.117	400.5
918.352	384.5
918.588	434.5
918.823	365.5
919.057	376.5
919.292	297.5
919.527	424.5
919.762	364.5
919.997	433.5
920.232	366.5
920.466	427.5
920.701	311.5
920.935	385.5
921.17	379.5
921.405	328.5
921.639	404.5
921.873	357.5
922.108	393.5
922.342	392.5
922.576	338.5
922.811	339.5
923.045	406.5
923.279	424.5
923.513	314.5
923.747	404.5
923.981	393.5
924.215	359.5
924.449	373.5
924.683	342.5
924.917	373.5
925.151	364.5
925.385	439.5
925.618	390.5
925.852	392.5
926.086	338.5
926.319	384.5
926.553	371.5
926.786	391.5
927.02	380.5
927.253	412.5
927.486	415.5
927.72	341.5
927.953	422.5
928.186	352.5
928.42	401.5
928.653	347.5
928.886	357.5
929.119	399.5
929.352	396.5
929.585	394.5
929.818	359.5
930.051	400.5
930.284	406.5
930.516	338.5
930.749	363.5
930.982	414.5
931.215	404.5
931.447	342.5
931.68	375.5
931.912	371.5
932.145	360.5
932.377	390.5
932.61	491.5
932.842	316.5
933.074	405.5
933.307	348.5
933.539	437.5
933.771	422.5
934.003	377.5
934.236	439.5
934.468	460.5
934.7	371.5
934.932	421.5
935.164	363.5
935.395	351.5
935.627	386.5
935.859	405.5
936.091	347.5
936.323	400.5
936.554	441.5
936.786	394.5
937.017	338.5
937.249	399.5
937.481	322.5
937.712	414.5
937.943	383.5
938.175	377.5
938.406	378.5
938.637	460.5
938.869	344.5
939.1	415.5
939.331	364.5
939.562	412.5
939.793	398.5
940.024	415.5
940.255	447.5
940.486	395.5
940.717	391.5
940.948	395.5
941.179	357.5
941.409	386.5
941.64	383.5
941.871	396.5
942.102	372.5
942.332	372.5
942.563	422.5
942.793	399.5
943.024	346.5
943.254	381.5
943.484	423.5
943.715	434.5
943.945	406.5
944.175	340.5
944.405	323.5
944.636	347.5
944.866	393.5
945.096	400.5
945.326	327.5
945.556	395.5
945.786	421.5
946.016	391.5
946.245	347.5
946.475	378.5
946.705	383.5
946.935	387.5
947.164	410.5
947.394	357.5
947.624	393.5
947.853	433.5
948.083	418.5
948.312	392.5
948.542	351.5
948.771	339.5
949	361.5
949.23	378.5
949.459	369.5
949.688	460.5
949.917	400.5
950.146	414.5
950.375	450.5
950.604	355.5
950.833	451.5
951.062	456.5
951.291	395.5
951.52	373.5
951.749	393.5
951.978	361.5
952.206	387.5
952.435	375.5
952.664	425.5
952.892	425.5
953.121	402.5
953.349	449.5
953.578	426.5
953.806	416.5
954.035	376.5
954.263	406.5
954.491	359.5
954.719	427.5
954.948	386.5
955.176	391.5
955.404	343.5
955.632	418.5
955.86	416.5
956.088	415.5
956.316	440.5
956.544	467.5
956.772	408.5
956.999	391.5
957.227	488.5
957.455	405.5
957.683	436.5
957.91	401.5
958.138	385.5
958.365	414.5
958.593	412.5
958.82	361.5
959.048	443.5
959.275	425.5
959.502	401.5
959.73	396.5
959.957	434.5
960.184	427.5
960.411	394.5
960.638	469.5
960.865	419.5
961.092	447.5
961.319	362.5
961.546	460.5
961.773	472.5
962	419.5
962.227	475.5
962.454	427.5
962.68	422.5
962.907	459.5
963.134	425.5
963.36	436.5
963.587	475.5
963.813	415.5
964.04	461.5
964.266	421.5
964.493	520.5
964.719	488.5
964.945	467.5
965.171	400.5
965.398	457.5
965.624	487.5
965.85	427.5
966.076	427.5
966.302	466.5
966.528	456.5
966.754	480.5
966.98	471.5
967.206	477.5
967.431	428.5
967.657	515.5
967.883	488.5
968.109	482.5
968.334	441.5
968.56	417.5
968.785	461.5
969.011	416.5
969.236	477.5
969.462	425.5
969.687	450.5
969.912	473.5
970.138	507.5
970.363	431.5
970.588	476.5
970.813	463.5
971.038	424.5
971.263	472.5
971.488	477.5
971.713	532.5
971.938	510.5
972.163	425.5
972.388	458.5
972.613	436.5
972.838	457.5
973.062	454.5
973.287	458.5
973.512	408.5
973.736	456.5
973.961	445.5
974.185	449.5
974.41	491.5
974.634	401.5
974.858	423.5
975.083	475.5
975.307	507.5
975.531	437.5
975.755	397.5
975.98	437.5
976.204	390.5
976.428	395.5
976.652	410.5
976.876	390.5
977.1	435.5
977.324	402.5
977.547	459.5
977.771	468.5
977.995	442.5
978.219	385.5
978.442	504.5
978.666	448.5
978.89	453.5
979.113	455.5
979.337	447.5
979.56	421.5
979.783	513.5
980.007	417.5
980.23	463.5
980.453	410.5
980.677	449.5
980.9	452.5
981.123	378.5
981.346	471.5
981.569	463.5
981.792	494.5
982.015	442.5
982.238	428.5
982.461	463.5
982.684	427.5
982.907	428.5
983.129	421.5
983.352	471.5
983.575	471.5
983.797	484.5
984.02	424.5
984.242	447.5
984.465	466.5
984.687	502.5
984.91	509.5
985.132	497.5
985.354	509.5
985.577	502.5
985.799	489.5
986.021	418.5
986.243	446.5
986.465	471.5
986.687	524.5
986.909	541.5
987.131	496.5
987.353	458.5
987.575	508.5
987.797	472.5
988.019	409.5
988.241	485.5
988.462	449.5
988.684	526.5
988.906	535.5
989.127	565.5
989.349	432.5
989.57	492.5
989.792	541.5
990.013	551.5
990.234	540.5
990.456	581.5
990.677	562.5
990.898	489.5
991.119	519.5
991.341	550.5
991.562	485.5
991.783	517.5
992.004	485.5
992.225	475.5
992.446	533.5
992.667	446.5
992.887	562.5
993.108	437.5
993.329	582.5
993.55	538.5
993.77	493.5
993.991	501.5
994.212	529.5
994.432	519.5
994.653	553.5
994.873	553.5
995.093	452.5
995.314	473.5
995.534	577.5
995.754	580.5
995.975	591.5
996.195	495.5
996.415	563.5
996.635	530.5
996.855	559.5
997.075	529.5
997.295	527.5
997.515	505.5
997.735	555.5
997.955	533.5
998.174	521.5
998.394	490.5
998.614	556.5
998.834	520.5
999.053	600.5
999.273	567.5
999.492	631.5
999.712	576.5
999.931	533.5
1000.151	585.5
1000.37	574.5
1000.589	630.5
1000.809	558.5
1001.028	693.5
1001.247	610.5
1001.466	535.5
1001.685	690.5
1001.904	623.5
1002.123	617.5
1002.342	630.5
1002.561	596.5
1002.78	636.5
1002.999	696.5
1003.218	644.5
1003.436	614.5
1003.655	682.5
1003.874	619.5
1004.092	654.5
1004.311	690.5
1004.53	660.5
1004.748	744.5
1004.966	661.5
1005.185	722.5
1005.403	700.5
1005.622	679.5
1005.84	747.5
1006.058	664.5
1006.276	687.5
1006.494	1187.5
1006.712	674.5
1006.931	748.5
1007.149	645.5
1007.367	636.5
1007.584	684.5
1007.802	710.5
1008.02	651.5
1008.238	764.5
1008.456	739.5
1008.673	590.5
1008.891	682.5
1009.109	636.5
1009.326	652.5
1009.544	728.5
1009.761	592.5
1009.979	662.5
1010.196	631.5
1010.413	669.5
1010.631	687.5
1010.848	693.5
1011.065	681.5
1011.282	614.5
1011.5	544.5
1011.717	672.5
1011.934	637.5
1012.151	673.5
1012.368	651.5
1012.585	626.5
1012.801	647.5
1013.018	608.5
1013.235	586.5
1013.452	591.5
1013.669	591.5
1013.885	572.5
1014.102	605.5
1014.318	567.5
1014.535	528.5
1014.751	582.5
1014.968	574.5
1015.184	623.5
1015.401	535.5
1015.617	573.5
1015.833	539.5
1016.049	554.5
1016.266	542.5
1016.482	561.5
1016.698	494.5
1016.914	567.5
1017.13	517.5
1017.346	518.5
1017.562	580.5
1017.778	523.5
1017.993	500.5
1018.209	558.5
1018.425	532.5
1018.641	496.5
1018.856	468.5
1019.072	515.5
1019.288	562.5
1019.503	502.5
1019.719	432.5
1019.934	458.5
1020.149	557.5
1020.365	482.5
1020.58	466.5
1020.795	551.5
1021.011	503.5
1021.226	501.5
1021.441	537.5
1021.656	490.5
1021.871	445.5
1022.086	460.5
1022.301	470.5
1022.516	480.5
1022.731	536.5
1022.946	475.5
1023.16	458.5
1023.375	452.5
1023.59	450.5
1023.804	433.5
1024.019	538.5
1024.234	430.5
1024.448	482.5
1024.663	413.5
1024.877	433.5
1025.092	467.5
1025.306	493.5
1025.52	408.5
1025.734	522.5
1025.949	440.5
1026.163	436.5
1026.377	386.5
1026.591	453.5
1026.805	373.5
1027.019	386.5
1027.233	355.5
1027.447	330.5
1027.661	425.5
1027.875	366.5
1028.088	386.5
1028.302	322.5
1028.516	338.5
1028.73	354.5
1028.943	357.5
1029.157	339.5
1029.37	302.5
1029.584	-1.5
1029.797	-2.5
1030.011	2.5
1030.224	-4.5
