Data from QEP037381__5__10-13-01-055.txt Node

Date: Fri Apr 21 10:13:01 EDT 2023
User: dcclab
Spectrometer: QEP03738
Trigger mode: 4
Integration Time (sec): 1.000000E1
Scans to average: 1
Electric dark correction enabled: true
Nonlinearity correction enabled: false
Boxcar width: 0
XAxis mode: Wavelengths
Number of Pixels in Spectrum: 1044
>>>>>Begin Spectral Data<<<<<
784.041	9.12
784.3	-0.88
784.558	-1.88
784.817	-1.88
785.075	245.12
785.334	211.12
785.592	209.12
785.851	211.12
786.109	238.12
786.368	237.12
786.626	257.12
786.884	274.12
787.143	271.12
787.401	202.12
787.659	270.12
787.917	261.12
788.175	297.12
788.433	279.12
788.691	277.12
788.949	290.12
789.207	296.12
789.465	259.12
789.723	270.12
789.98	246.12
790.238	315.12
790.496	304.12
790.753	284.12
791.011	372.12
791.268	306.12
791.526	304.12
791.783	333.12
792.041	333.12
792.298	258.12
792.556	323.12
792.813	305.12
793.07	301.12
793.327	291.12
793.584	368.12
793.841	298.12
794.099	314.12
794.356	383.12
794.613	292.12
794.869	332.12
795.126	296.12
795.383	283.12
795.64	310.12
795.897	266.12
796.153	334.12
796.41	311.12
796.667	286.12
796.923	301.12
797.18	301.12
797.436	335.12
797.693	288.12
797.949	349.12
798.206	358.12
798.462	276.12
798.718	328.12
798.974	300.12
799.231	345.12
799.487	329.12
799.743	328.12
799.999	343.12
800.255	334.12
800.511	302.12
800.767	333.12
801.023	308.12
801.279	311.12
801.534	328.12
801.79	335.12
802.046	294.12
802.302	338.12
802.557	327.12
802.813	339.12
803.068	287.12
803.324	330.12
803.579	307.12
803.835	306.12
804.09	341.12
804.345	296.12
804.601	280.12
804.856	308.12
805.111	339.12
805.366	306.12
805.621	316.12
805.876	349.12
806.131	330.12
806.386	313.12
806.641	284.12
806.896	304.12
807.151	370.12
807.406	320.12
807.661	339.12
807.915	314.12
808.17	333.12
808.425	334.12
808.679	302.12
808.934	378.12
809.188	320.12
809.443	354.12
809.697	383.12
809.951	313.12
810.206	312.12
810.46	355.12
810.714	350.12
810.968	369.12
811.223	291.12
811.477	324.12
811.731	351.12
811.985	273.12
812.239	259.12
812.493	291.12
812.747	313.12
813	267.12
813.254	333.12
813.508	341.12
813.762	301.12
814.015	305.12
814.269	325.12
814.522	344.12
814.776	347.12
815.03	344.12
815.283	321.12
815.536	346.12
815.79	338.12
816.043	345.12
816.296	341.12
816.55	328.12
816.803	308.12
817.056	423.12
817.309	329.12
817.562	331.12
817.815	378.12
818.068	296.12
818.321	303.12
818.574	287.12
818.827	351.12
819.079	307.12
819.332	424.12
819.585	353.12
819.838	419.12
820.09	314.12
820.343	369.12
820.595	294.12
820.848	358.12
821.1	357.12
821.353	333.12
821.605	317.12
821.857	390.12
822.11	292.12
822.362	314.12
822.614	288.12
822.866	326.12
823.118	275.12
823.37	386.12
823.622	328.12
823.874	314.12
824.126	363.12
824.378	289.12
824.63	309.12
824.882	339.12
825.134	317.12
825.385	345.12
825.637	340.12
825.888	308.12
826.14	335.12
826.392	290.12
826.643	302.12
826.895	383.12
827.146	325.12
827.397	318.12
827.649	385.12
827.9	306.12
828.151	280.12
828.402	290.12
828.653	324.12
828.905	342.12
829.156	385.12
829.407	296.12
829.658	325.12
829.909	372.12
830.159	337.12
830.41	350.12
830.661	361.12
830.912	339.12
831.162	311.12
831.413	321.12
831.664	366.12
831.914	336.12
832.165	347.12
832.415	356.12
832.666	354.12
832.916	373.12
833.167	312.12
833.417	380.12
833.667	345.12
833.917	340.12
834.168	398.12
834.418	359.12
834.668	332.12
834.918	270.12
835.168	314.12
835.418	265.12
835.668	334.12
835.918	359.12
836.167	360.12
836.417	304.12
836.667	360.12
836.917	369.12
837.166	340.12
837.416	359.12
837.666	372.12
837.915	334.12
838.165	352.12
838.414	310.12
838.663	273.12
838.913	349.12
839.162	294.12
839.411	390.12
839.661	318.12
839.91	339.12
840.159	329.12
840.408	331.12
840.657	333.12
840.906	339.12
841.155	367.12
841.404	325.12
841.653	343.12
841.902	301.12
842.15	346.12
842.399	355.12
842.648	326.12
842.897	360.12
843.145	303.12
843.394	307.12
843.642	316.12
843.891	366.12
844.139	324.12
844.388	291.12
844.636	276.12
844.884	321.12
845.133	303.12
845.381	318.12
845.629	345.12
845.877	285.12
846.125	321.12
846.373	347.12
846.621	301.12
846.869	365.12
847.117	332.12
847.365	318.12
847.613	336.12
847.861	362.12
848.108	381.12
848.356	355.12
848.604	316.12
848.851	356.12
849.099	339.12
849.346	314.12
849.594	346.12
849.841	350.12
850.089	320.12
850.336	293.12
850.583	306.12
850.831	335.12
851.078	341.12
851.325	298.12
851.572	369.12
851.819	363.12
852.066	331.12
852.313	335.12
852.56	299.12
852.807	290.12
853.054	295.12
853.301	314.12
853.548	313.12
853.794	412.12
854.041	353.12
854.288	293.12
854.534	391.12
854.781	319.12
855.028	312.12
855.274	400.12
855.52	341.12
855.767	305.12
856.013	363.12
856.26	639.12
856.506	325.12
856.752	376.12
856.998	325.12
857.244	305.12
857.49	347.12
857.736	350.12
857.982	346.12
858.228	355.12
858.474	289.12
858.72	343.12
858.966	365.12
859.212	349.12
859.458	350.12
859.703	356.12
859.949	312.12
860.195	376.12
860.44	371.12
860.686	317.12
860.931	393.12
861.177	328.12
861.422	392.12
861.667	330.12
861.913	336.12
862.158	331.12
862.403	401.12
862.648	358.12
862.893	389.12
863.138	349.12
863.384	320.12
863.629	363.12
863.873	357.12
864.118	334.12
864.363	281.12
864.608	355.12
864.853	384.12
865.098	335.12
865.342	351.12
865.587	340.12
865.832	367.12
866.076	366.12
866.321	310.12
866.565	330.12
866.81	274.12
867.054	338.12
867.298	344.12
867.543	315.12
867.787	369.12
868.031	347.12
868.275	349.12
868.519	333.12
868.764	338.12
869.008	328.12
869.252	380.12
869.496	350.12
869.739	338.12
869.983	379.12
870.227	366.12
870.471	315.12
870.715	361.12
870.958	367.12
871.202	321.12
871.446	339.12
871.689	311.12
871.933	344.12
872.176	350.12
872.42	334.12
872.663	326.12
872.906	390.12
873.15	326.12
873.393	293.12
873.636	383.12
873.879	372.12
874.122	409.12
874.366	361.12
874.609	379.12
874.852	340.12
875.095	351.12
875.337	329.12
875.58	274.12
875.823	338.12
876.066	385.12
876.309	406.12
876.551	310.12
876.794	281.12
877.037	367.12
877.279	310.12
877.522	319.12
877.764	362.12
878.007	316.12
878.249	353.12
878.491	322.12
878.734	381.12
878.976	358.12
879.218	313.12
879.46	389.12
879.702	378.12
879.945	373.12
880.187	340.12
880.429	384.12
880.671	374.12
880.912	389.12
881.154	385.12
881.396	293.12
881.638	356.12
881.88	347.12
882.121	323.12
882.363	341.12
882.605	408.12
882.846	359.12
883.088	378.12
883.329	335.12
883.571	306.12
883.812	310.12
884.053	325.12
884.295	324.12
884.536	413.12
884.777	332.12
885.018	359.12
885.259	363.12
885.5	294.12
885.742	518.12
885.982	371.12
886.223	324.12
886.464	341.12
886.705	308.12
886.946	347.12
887.187	285.12
887.428	385.12
887.668	348.12
887.909	297.12
888.15	312.12
888.39	370.12
888.631	413.12
888.871	378.12
889.111	377.12
889.352	374.12
889.592	347.12
889.833	359.12
890.073	355.12
890.313	403.12
890.553	306.12
890.793	349.12
891.033	331.12
891.273	338.12
891.513	348.12
891.753	417.12
891.993	355.12
892.233	358.12
892.473	426.12
892.713	362.12
892.952	319.12
893.192	374.12
893.432	320.12
893.671	383.12
893.911	344.12
894.15	348.12
894.39	297.12
894.629	343.12
894.869	378.12
895.108	351.12
895.347	323.12
895.587	376.12
895.826	330.12
896.065	313.12
896.304	370.12
896.543	397.12
896.782	298.12
897.021	380.12
897.26	481.12
897.499	404.12
897.738	403.12
897.977	358.12
898.216	350.12
898.454	350.12
898.693	331.12
898.932	375.12
899.17	356.12
899.409	349.12
899.647	347.12
899.886	345.12
900.124	379.12
900.363	325.12
900.601	372.12
900.839	352.12
901.078	369.12
901.316	355.12
901.554	345.12
901.792	357.12
902.03	315.12
902.268	331.12
902.506	395.12
902.744	334.12
902.982	384.12
903.22	310.12
903.458	345.12
903.695	381.12
903.933	386.12
904.171	335.12
904.409	337.12
904.646	401.12
904.884	346.12
905.121	411.12
905.359	391.12
905.596	384.12
905.833	340.12
906.071	341.12
906.308	405.12
906.545	376.12
906.783	328.12
907.02	362.12
907.257	315.12
907.494	340.12
907.731	379.12
907.968	385.12
908.205	333.12
908.442	340.12
908.679	385.12
908.915	347.12
909.152	359.12
909.389	300.12
909.626	343.12
909.862	330.12
910.099	369.12
910.335	408.12
910.572	318.12
910.808	376.12
911.045	353.12
911.281	325.12
911.518	421.12
911.754	349.12
911.99	373.12
912.226	359.12
912.463	318.12
912.699	352.12
912.935	348.12
913.171	351.12
913.407	322.12
913.643	394.12
913.879	372.12
914.114	363.12
914.35	342.12
914.586	354.12
914.822	340.12
915.057	448.12
915.293	318.12
915.529	323.12
915.764	411.12
916	391.12
916.235	386.12
916.471	400.12
916.706	304.12
916.941	350.12
917.177	353.12
917.412	395.12
917.647	395.12
917.882	337.12
918.117	397.12
918.352	378.12
918.588	422.12
918.823	358.12
919.057	372.12
919.292	290.12
919.527	421.12
919.762	361.12
919.997	436.12
920.232	376.12
920.466	421.12
920.701	338.12
920.935	392.12
921.17	361.12
921.405	333.12
921.639	399.12
921.873	374.12
922.108	401.12
922.342	400.12
922.576	342.12
922.811	337.12
923.045	397.12
923.279	430.12
923.513	301.12
923.747	406.12
923.981	395.12
924.215	362.12
924.449	380.12
924.683	318.12
924.917	364.12
925.151	372.12
925.385	443.12
925.618	392.12
925.852	385.12
926.086	319.12
926.319	398.12
926.553	363.12
926.786	390.12
927.02	370.12
927.253	425.12
927.486	417.12
927.72	344.12
927.953	393.12
928.186	373.12
928.42	407.12
928.653	342.12
928.886	346.12
929.119	389.12
929.352	387.12
929.585	390.12
929.818	349.12
930.051	397.12
930.284	415.12
930.516	346.12
930.749	356.12
930.982	419.12
931.215	411.12
931.447	340.12
931.68	368.12
931.912	370.12
932.145	359.12
932.377	383.12
932.61	493.12
932.842	320.12
933.074	385.12
933.307	344.12
933.539	450.12
933.771	423.12
934.003	368.12
934.236	432.12
934.468	464.12
934.7	371.12
934.932	413.12
935.164	370.12
935.395	344.12
935.627	390.12
935.859	411.12
936.091	343.12
936.323	409.12
936.554	437.12
936.786	389.12
937.017	341.12
937.249	399.12
937.481	333.12
937.712	398.12
937.943	400.12
938.175	366.12
938.406	371.12
938.637	451.12
938.869	330.12
939.1	399.12
939.331	364.12
939.562	423.12
939.793	410.12
940.024	429.12
940.255	448.12
940.486	396.12
940.717	396.12
940.948	386.12
941.179	363.12
941.409	382.12
941.64	365.12
941.871	404.12
942.102	374.12
942.332	379.12
942.563	404.12
942.793	409.12
943.024	350.12
943.254	385.12
943.484	428.12
943.715	430.12
943.945	408.12
944.175	339.12
944.405	322.12
944.636	355.12
944.866	396.12
945.096	416.12
945.326	336.12
945.556	410.12
945.786	425.12
946.016	384.12
946.245	346.12
946.475	376.12
946.705	380.12
946.935	397.12
947.164	406.12
947.394	366.12
947.624	393.12
947.853	427.12
948.083	418.12
948.312	381.12
948.542	341.12
948.771	339.12
949	370.12
949.23	362.12
949.459	385.12
949.688	449.12
949.917	387.12
950.146	403.12
950.375	446.12
950.604	359.12
950.833	454.12
951.062	446.12
951.291	389.12
951.52	375.12
951.749	412.12
951.978	363.12
952.206	373.12
952.435	372.12
952.664	424.12
952.892	431.12
953.121	412.12
953.349	436.12
953.578	435.12
953.806	403.12
954.035	370.12
954.263	416.12
954.491	371.12
954.719	427.12
954.948	388.12
955.176	390.12
955.404	332.12
955.632	425.12
955.86	422.12
956.088	413.12
956.316	439.12
956.544	467.12
956.772	421.12
956.999	413.12
957.227	481.12
957.455	397.12
957.683	424.12
957.91	387.12
958.138	392.12
958.365	403.12
958.593	412.12
958.82	366.12
959.048	435.12
959.275	418.12
959.502	420.12
959.73	386.12
959.957	431.12
960.184	462.12
960.411	391.12
960.638	486.12
960.865	421.12
961.092	450.12
961.319	371.12
961.546	449.12
961.773	457.12
962	421.12
962.227	476.12
962.454	428.12
962.68	408.12
962.907	464.12
963.134	404.12
963.36	449.12
963.587	488.12
963.813	423.12
964.04	475.12
964.266	418.12
964.493	519.12
964.719	469.12
964.945	483.12
965.171	414.12
965.398	470.12
965.624	480.12
965.85	432.12
966.076	438.12
966.302	500.12
966.528	456.12
966.754	482.12
966.98	462.12
967.206	466.12
967.431	408.12
967.657	524.12
967.883	484.12
968.109	476.12
968.334	422.12
968.56	428.12
968.785	461.12
969.011	399.12
969.236	465.12
969.462	429.12
969.687	464.12
969.912	490.12
970.138	521.12
970.363	432.12
970.588	485.12
970.813	462.12
971.038	432.12
971.263	478.12
971.488	473.12
971.713	525.12
971.938	504.12
972.163	415.12
972.388	453.12
972.613	438.12
972.838	473.12
973.062	456.12
973.287	462.12
973.512	408.12
973.736	467.12
973.961	451.12
974.185	450.12
974.41	488.12
974.634	397.12
974.858	411.12
975.083	460.12
975.307	486.12
975.531	452.12
975.755	396.12
975.98	446.12
976.204	377.12
976.428	393.12
976.652	400.12
976.876	400.12
977.1	442.12
977.324	397.12
977.547	468.12
977.771	482.12
977.995	449.12
978.219	383.12
978.442	504.12
978.666	443.12
978.89	445.12
979.113	457.12
979.337	457.12
979.56	423.12
979.783	502.12
980.007	421.12
980.23	445.12
980.453	422.12
980.677	464.12
980.9	466.12
981.123	369.12
981.346	465.12
981.569	466.12
981.792	499.12
982.015	450.12
982.238	421.12
982.461	454.12
982.684	423.12
982.907	424.12
983.129	431.12
983.352	491.12
983.575	464.12
983.797	484.12
984.02	457.12
984.242	446.12
984.465	454.12
984.687	499.12
984.91	523.12
985.132	491.12
985.354	505.12
985.577	496.12
985.799	494.12
986.021	406.12
986.243	440.12
986.465	468.12
986.687	504.12
986.909	571.12
987.131	519.12
987.353	470.12
987.575	518.12
987.797	479.12
988.019	421.12
988.241	498.12
988.462	458.12
988.684	507.12
988.906	526.12
989.127	568.12
989.349	453.12
989.57	499.12
989.792	528.12
990.013	532.12
990.234	528.12
990.456	573.12
990.677	563.12
990.898	501.12
991.119	509.12
991.341	549.12
991.562	482.12
991.783	537.12
992.004	496.12
992.225	453.12
992.446	538.12
992.667	450.12
992.887	532.12
993.108	440.12
993.329	586.12
993.55	527.12
993.77	468.12
993.991	483.12
994.212	535.12
994.432	524.12
994.653	550.12
994.873	560.12
995.093	432.12
995.314	499.12
995.534	570.12
995.754	584.12
995.975	602.12
996.195	505.12
996.415	563.12
996.635	523.12
996.855	550.12
997.075	522.12
997.295	527.12
997.515	511.12
997.735	560.12
997.955	534.12
998.174	520.12
998.394	507.12
998.614	541.12
998.834	531.12
999.053	588.12
999.273	552.12
999.492	621.12
999.712	569.12
999.931	524.12
1000.151	581.12
1000.37	572.12
1000.589	640.12
1000.809	568.12
1001.028	682.12
1001.247	624.12
1001.466	543.12
1001.685	664.12
1001.904	626.12
1002.123	626.12
1002.342	627.12
1002.561	595.12
1002.78	629.12
1002.999	699.12
1003.218	640.12
1003.436	637.12
1003.655	687.12
1003.874	625.12
1004.092	645.12
1004.311	691.12
1004.53	658.12
1004.748	722.12
1004.966	661.12
1005.185	720.12
1005.403	711.12
1005.622	674.12
1005.84	749.12
1006.058	651.12
1006.276	694.12
1006.494	1180.12
1006.712	686.12
1006.931	752.12
1007.149	665.12
1007.367	657.12
1007.584	686.12
1007.802	705.12
1008.02	639.12
1008.238	757.12
1008.456	718.12
1008.673	582.12
1008.891	679.12
1009.109	634.12
1009.326	662.12
1009.544	725.12
1009.761	608.12
1009.979	655.12
1010.196	617.12
1010.413	668.12
1010.631	687.12
1010.848	673.12
1011.065	646.12
1011.282	622.12
1011.5	573.12
1011.717	680.12
1011.934	632.12
1012.151	656.12
1012.368	661.12
1012.585	589.12
1012.801	647.12
1013.018	615.12
1013.235	587.12
1013.452	612.12
1013.669	611.12
1013.885	574.12
1014.102	601.12
1014.318	589.12
1014.535	523.12
1014.751	575.12
1014.968	569.12
1015.184	619.12
1015.401	536.12
1015.617	575.12
1015.833	517.12
1016.049	570.12
1016.266	536.12
1016.482	552.12
1016.698	485.12
1016.914	570.12
1017.13	513.12
1017.346	518.12
1017.562	593.12
1017.778	526.12
1017.993	482.12
1018.209	558.12
1018.425	542.12
1018.641	497.12
1018.856	469.12
1019.072	499.12
1019.288	552.12
1019.503	510.12
1019.719	428.12
1019.934	460.12
1020.149	548.12
1020.365	502.12
1020.58	462.12
1020.795	534.12
1021.011	482.12
1021.226	505.12
1021.441	539.12
1021.656	485.12
1021.871	449.12
1022.086	466.12
1022.301	466.12
1022.516	474.12
1022.731	513.12
1022.946	483.12
1023.16	463.12
1023.375	457.12
1023.59	442.12
1023.804	436.12
1024.019	541.12
1024.234	432.12
1024.448	473.12
1024.663	419.12
1024.877	448.12
1025.092	463.12
1025.306	491.12
1025.52	410.12
1025.734	515.12
1025.949	454.12
1026.163	434.12
1026.377	386.12
1026.591	452.12
1026.805	388.12
1027.019	392.12
1027.233	359.12
1027.447	318.12
1027.661	424.12
1027.875	374.12
1028.088	378.12
1028.302	327.12
1028.516	333.12
1028.73	350.12
1028.943	361.12
1029.157	340.12
1029.37	313.12
1029.584	0.12
1029.797	-3.88
1030.011	-0.88
1030.224	0.12
