Data from QEP037381__63__10-22-41-069.txt Node

Date: Fri Apr 21 10:22:41 EDT 2023
User: dcclab
Spectrometer: QEP03738
Trigger mode: 4
Integration Time (sec): 1.000000E1
Scans to average: 1
Electric dark correction enabled: true
Nonlinearity correction enabled: false
Boxcar width: 0
XAxis mode: Wavelengths
Number of Pixels in Spectrum: 1044
>>>>>Begin Spectral Data<<<<<
784.041	10.88
784.3	2.88
784.558	-4.12
784.817	-4.12
785.075	226.88
785.334	209.88
785.592	209.88
785.851	197.88
786.109	233.88
786.368	236.88
786.626	263.88
786.884	269.88
787.143	273.88
787.401	209.88
787.659	266.88
787.917	251.88
788.175	295.88
788.433	276.88
788.691	266.88
788.949	277.88
789.207	304.88
789.465	254.88
789.723	266.88
789.98	245.88
790.238	309.88
790.496	291.88
790.753	304.88
791.011	348.88
791.268	314.88
791.526	308.88
791.783	327.88
792.041	317.88
792.298	253.88
792.556	329.88
792.813	304.88
793.07	291.88
793.327	300.88
793.584	363.88
793.841	289.88
794.099	324.88
794.356	379.88
794.613	295.88
794.869	320.88
795.126	299.88
795.383	279.88
795.64	310.88
795.897	261.88
796.153	327.88
796.41	307.88
796.667	290.88
796.923	286.88
797.18	292.88
797.436	323.88
797.693	295.88
797.949	339.88
798.206	350.88
798.462	284.88
798.718	327.88
798.974	302.88
799.231	332.88
799.487	330.88
799.743	325.88
799.999	345.88
800.255	326.88
800.511	307.88
800.767	335.88
801.023	311.88
801.279	315.88
801.534	325.88
801.79	330.88
802.046	304.88
802.302	362.88
802.557	338.88
802.813	351.88
803.068	300.88
803.324	343.88
803.579	302.88
803.835	305.88
804.09	337.88
804.345	292.88
804.601	277.88
804.856	307.88
805.111	325.88
805.366	310.88
805.621	322.88
805.876	336.88
806.131	323.88
806.386	297.88
806.641	277.88
806.896	311.88
807.151	371.88
807.406	322.88
807.661	334.88
807.915	303.88
808.17	334.88
808.425	321.88
808.679	284.88
808.934	374.88
809.188	315.88
809.443	333.88
809.697	369.88
809.951	314.88
810.206	298.88
810.46	355.88
810.714	321.88
810.968	371.88
811.223	268.88
811.477	315.88
811.731	329.88
811.985	264.88
812.239	244.88
812.493	285.88
812.747	309.88
813	256.88
813.254	329.88
813.508	340.88
813.762	292.88
814.015	292.88
814.269	314.88
814.522	338.88
814.776	334.88
815.03	326.88
815.283	326.88
815.536	338.88
815.79	336.88
816.043	326.88
816.296	319.88
816.55	312.88
816.803	322.88
817.056	399.88
817.309	340.88
817.562	331.88
817.815	385.88
818.068	290.88
818.321	286.88
818.574	294.88
818.827	342.88
819.079	292.88
819.332	415.88
819.585	345.88
819.838	387.88
820.09	320.88
820.343	377.88
820.595	280.88
820.848	331.88
821.1	357.88
821.353	314.88
821.605	321.88
821.857	375.88
822.11	284.88
822.362	308.88
822.614	285.88
822.866	314.88
823.118	267.88
823.37	370.88
823.622	306.88
823.874	319.88
824.126	346.88
824.378	279.88
824.63	325.88
824.882	329.88
825.134	314.88
825.385	342.88
825.637	345.88
825.888	312.88
826.14	329.88
826.392	306.88
826.643	286.88
826.895	378.88
827.146	308.88
827.397	306.88
827.649	402.88
827.9	288.88
828.151	279.88
828.402	283.88
828.653	318.88
828.905	335.88
829.156	371.88
829.407	276.88
829.658	324.88
829.909	354.88
830.159	335.88
830.41	337.88
830.661	362.88
830.912	337.88
831.162	321.88
831.413	316.88
831.664	350.88
831.914	334.88
832.165	334.88
832.415	338.88
832.666	331.88
832.916	349.88
833.167	307.88
833.417	381.88
833.667	349.88
833.917	333.88
834.168	396.88
834.418	358.88
834.668	313.88
834.918	278.88
835.168	298.88
835.418	260.88
835.668	311.88
835.918	356.88
836.167	346.88
836.417	300.88
836.667	356.88
836.917	369.88
837.166	322.88
837.416	357.88
837.666	367.88
837.915	316.88
838.165	349.88
838.414	293.88
838.663	271.88
838.913	329.88
839.162	298.88
839.411	383.88
839.661	311.88
839.91	340.88
840.159	321.88
840.408	335.88
840.657	318.88
840.906	318.88
841.155	355.88
841.404	316.88
841.653	339.88
841.902	302.88
842.15	342.88
842.399	336.88
842.648	321.88
842.897	349.88
843.145	278.88
843.394	302.88
843.642	301.88
843.891	367.88
844.139	333.88
844.388	290.88
844.636	261.88
844.884	317.88
845.133	307.88
845.381	326.88
845.629	348.88
845.877	284.88
846.125	307.88
846.373	330.88
846.621	303.88
846.869	357.88
847.117	320.88
847.365	323.88
847.613	341.88
847.861	352.88
848.108	370.88
848.356	352.88
848.604	302.88
848.851	343.88
849.099	333.88
849.346	329.88
849.594	348.88
849.841	357.88
850.089	312.88
850.336	300.88
850.583	314.88
850.831	325.88
851.078	333.88
851.325	290.88
851.572	353.88
851.819	368.88
852.066	318.88
852.313	326.88
852.56	291.88
852.807	275.88
853.054	295.88
853.301	310.88
853.548	302.88
853.794	401.88
854.041	340.88
854.288	290.88
854.534	395.88
854.781	313.88
855.028	303.88
855.274	387.88
855.52	324.88
855.767	300.88
856.013	353.88
856.26	644.88
856.506	301.88
856.752	365.88
856.998	318.88
857.244	316.88
857.49	343.88
857.736	338.88
857.982	339.88
858.228	350.88
858.474	286.88
858.72	335.88
858.966	353.88
859.212	340.88
859.458	338.88
859.703	353.88
859.949	321.88
860.195	361.88
860.44	358.88
860.686	312.88
860.931	386.88
861.177	321.88
861.422	373.88
861.667	319.88
861.913	327.88
862.158	321.88
862.403	366.88
862.648	367.88
862.893	394.88
863.138	331.88
863.384	308.88
863.629	359.88
863.873	350.88
864.118	323.88
864.363	276.88
864.608	353.88
864.853	365.88
865.098	333.88
865.342	356.88
865.587	337.88
865.832	390.88
866.076	362.88
866.321	322.88
866.565	336.88
866.81	274.88
867.054	325.88
867.298	343.88
867.543	315.88
867.787	373.88
868.031	327.88
868.275	345.88
868.519	326.88
868.764	340.88
869.008	328.88
869.252	374.88
869.496	331.88
869.739	339.88
869.983	376.88
870.227	372.88
870.471	306.88
870.715	357.88
870.958	344.88
871.202	318.88
871.446	330.88
871.689	300.88
871.933	330.88
872.176	328.88
872.42	316.88
872.663	323.88
872.906	368.88
873.15	312.88
873.393	274.88
873.636	372.88
873.879	359.88
874.122	393.88
874.366	334.88
874.609	382.88
874.852	330.88
875.095	348.88
875.337	326.88
875.58	272.88
875.823	347.88
876.066	376.88
876.309	394.88
876.551	310.88
876.794	299.88
877.037	367.88
877.279	295.88
877.522	328.88
877.764	358.88
878.007	323.88
878.249	349.88
878.491	308.88
878.734	365.88
878.976	357.88
879.218	297.88
879.46	391.88
879.702	387.88
879.945	363.88
880.187	329.88
880.429	362.88
880.671	372.88
880.912	375.88
881.154	378.88
881.396	284.88
881.638	349.88
881.88	337.88
882.121	314.88
882.363	334.88
882.605	396.88
882.846	364.88
883.088	371.88
883.329	314.88
883.571	303.88
883.812	314.88
884.053	324.88
884.295	317.88
884.536	397.88
884.777	320.88
885.018	345.88
885.259	354.88
885.5	281.88
885.742	510.88
885.982	369.88
886.223	303.88
886.464	323.88
886.705	287.88
886.946	341.88
887.187	282.88
887.428	395.88
887.668	326.88
887.909	313.88
888.15	313.88
888.39	362.88
888.631	409.88
888.871	380.88
889.111	360.88
889.352	349.88
889.592	340.88
889.833	354.88
890.073	354.88
890.313	408.88
890.553	316.88
890.793	351.88
891.033	308.88
891.273	329.88
891.513	365.88
891.753	402.88
891.993	358.88
892.233	367.88
892.473	423.88
892.713	365.88
892.952	331.88
893.192	358.88
893.432	314.88
893.671	380.88
893.911	340.88
894.15	338.88
894.39	288.88
894.629	338.88
894.869	352.88
895.108	350.88
895.347	322.88
895.587	373.88
895.826	330.88
896.065	303.88
896.304	372.88
896.543	382.88
896.782	298.88
897.021	366.88
897.26	344.88
897.499	404.88
897.738	413.88
897.977	344.88
898.216	345.88
898.454	348.88
898.693	339.88
898.932	375.88
899.17	352.88
899.409	361.88
899.647	355.88
899.886	331.88
900.124	361.88
900.363	322.88
900.601	361.88
900.839	350.88
901.078	354.88
901.316	356.88
901.554	341.88
901.792	369.88
902.03	315.88
902.268	343.88
902.506	369.88
902.744	345.88
902.982	389.88
903.22	325.88
903.458	331.88
903.695	378.88
903.933	378.88
904.171	329.88
904.409	340.88
904.646	386.88
904.884	336.88
905.121	414.88
905.359	386.88
905.596	386.88
905.833	337.88
906.071	335.88
906.308	409.88
906.545	363.88
906.783	311.88
907.02	344.88
907.257	309.88
907.494	331.88
907.731	373.88
907.968	396.88
908.205	332.88
908.442	337.88
908.679	360.88
908.915	352.88
909.152	372.88
909.389	298.88
909.626	346.88
909.862	342.88
910.099	354.88
910.335	393.88
910.572	304.88
910.808	367.88
911.045	340.88
911.281	329.88
911.518	414.88
911.754	354.88
911.99	363.88
912.226	344.88
912.463	329.88
912.699	341.88
912.935	362.88
913.171	351.88
913.407	331.88
913.643	384.88
913.879	374.88
914.114	360.88
914.35	351.88
914.586	345.88
914.822	330.88
915.057	435.88
915.293	315.88
915.529	323.88
915.764	395.88
916	398.88
916.235	378.88
916.471	389.88
916.706	310.88
916.941	353.88
917.177	358.88
917.412	392.88
917.647	397.88
917.882	336.88
918.117	407.88
918.352	375.88
918.588	408.88
918.823	351.88
919.057	379.88
919.292	286.88
919.527	408.88
919.762	352.88
919.997	426.88
920.232	356.88
920.466	434.88
920.701	318.88
920.935	370.88
921.17	357.88
921.405	332.88
921.639	407.88
921.873	377.88
922.108	402.88
922.342	420.88
922.576	332.88
922.811	354.88
923.045	400.88
923.279	428.88
923.513	318.88
923.747	400.88
923.981	392.88
924.215	359.88
924.449	363.88
924.683	342.88
924.917	352.88
925.151	353.88
925.385	431.88
925.618	399.88
925.852	391.88
926.086	322.88
926.319	385.88
926.553	368.88
926.786	394.88
927.02	373.88
927.253	423.88
927.486	419.88
927.72	350.88
927.953	409.88
928.186	381.88
928.42	408.88
928.653	347.88
928.886	357.88
929.119	403.88
929.352	381.88
929.585	382.88
929.818	345.88
930.051	401.88
930.284	404.88
930.516	335.88
930.749	359.88
930.982	412.88
931.215	406.88
931.447	344.88
931.68	382.88
931.912	361.88
932.145	371.88
932.377	388.88
932.61	512.88
932.842	316.88
933.074	400.88
933.307	337.88
933.539	438.88
933.771	421.88
934.003	359.88
934.236	437.88
934.468	461.88
934.7	366.88
934.932	414.88
935.164	369.88
935.395	346.88
935.627	390.88
935.859	391.88
936.091	352.88
936.323	399.88
936.554	452.88
936.786	389.88
937.017	356.88
937.249	400.88
937.481	326.88
937.712	406.88
937.943	386.88
938.175	370.88
938.406	372.88
938.637	450.88
938.869	335.88
939.1	408.88
939.331	368.88
939.562	402.88
939.793	399.88
940.024	426.88
940.255	437.88
940.486	396.88
940.717	399.88
940.948	388.88
941.179	357.88
941.409	384.88
941.64	369.88
941.871	395.88
942.102	363.88
942.332	374.88
942.563	415.88
942.793	385.88
943.024	337.88
943.254	369.88
943.484	433.88
943.715	421.88
943.945	397.88
944.175	338.88
944.405	325.88
944.636	342.88
944.866	389.88
945.096	391.88
945.326	341.88
945.556	414.88
945.786	418.88
946.016	378.88
946.245	344.88
946.475	382.88
946.705	376.88
946.935	399.88
947.164	399.88
947.394	357.88
947.624	391.88
947.853	430.88
948.083	408.88
948.312	379.88
948.542	343.88
948.771	345.88
949	358.88
949.23	375.88
949.459	383.88
949.688	447.88
949.917	392.88
950.146	389.88
950.375	458.88
950.604	350.88
950.833	449.88
951.062	455.88
951.291	409.88
951.52	381.88
951.749	405.88
951.978	374.88
952.206	370.88
952.435	376.88
952.664	421.88
952.892	418.88
953.121	412.88
953.349	443.88
953.578	422.88
953.806	407.88
954.035	369.88
954.263	404.88
954.491	368.88
954.719	417.88
954.948	384.88
955.176	384.88
955.404	322.88
955.632	407.88
955.86	421.88
956.088	409.88
956.316	446.88
956.544	470.88
956.772	395.88
956.999	408.88
957.227	486.88
957.455	390.88
957.683	425.88
957.91	401.88
958.138	390.88
958.365	398.88
958.593	409.88
958.82	359.88
959.048	442.88
959.275	431.88
959.502	411.88
959.73	393.88
959.957	433.88
960.184	449.88
960.411	382.88
960.638	467.88
960.865	421.88
961.092	443.88
961.319	353.88
961.546	443.88
961.773	444.88
962	417.88
962.227	464.88
962.454	427.88
962.68	425.88
962.907	451.88
963.134	401.88
963.36	451.88
963.587	466.88
963.813	411.88
964.04	470.88
964.266	432.88
964.493	510.88
964.719	472.88
964.945	490.88
965.171	404.88
965.398	470.88
965.624	496.88
965.85	414.88
966.076	445.88
966.302	488.88
966.528	449.88
966.754	483.88
966.98	472.88
967.206	472.88
967.431	400.88
967.657	515.88
967.883	485.88
968.109	482.88
968.334	435.88
968.56	437.88
968.785	440.88
969.011	412.88
969.236	484.88
969.462	424.88
969.687	452.88
969.912	494.88
970.138	518.88
970.363	434.88
970.588	477.88
970.813	471.88
971.038	434.88
971.263	480.88
971.488	494.88
971.713	524.88
971.938	518.88
972.163	417.88
972.388	431.88
972.613	431.88
972.838	466.88
973.062	469.88
973.287	465.88
973.512	401.88
973.736	466.88
973.961	455.88
974.185	430.88
974.41	486.88
974.634	411.88
974.858	408.88
975.083	484.88
975.307	501.88
975.531	451.88
975.755	401.88
975.98	436.88
976.204	383.88
976.428	397.88
976.652	416.88
976.876	390.88
977.1	447.88
977.324	423.88
977.547	461.88
977.771	461.88
977.995	443.88
978.219	387.88
978.442	505.88
978.666	458.88
978.89	455.88
979.113	447.88
979.337	441.88
979.56	407.88
979.783	509.88
980.007	401.88
980.23	453.88
980.453	417.88
980.677	458.88
980.9	455.88
981.123	359.88
981.346	477.88
981.569	467.88
981.792	498.88
982.015	459.88
982.238	423.88
982.461	457.88
982.684	427.88
982.907	415.88
983.129	420.88
983.352	491.88
983.575	464.88
983.797	482.88
984.02	431.88
984.242	434.88
984.465	459.88
984.687	483.88
984.91	523.88
985.132	480.88
985.354	524.88
985.577	496.88
985.799	492.88
986.021	411.88
986.243	459.88
986.465	456.88
986.687	510.88
986.909	564.88
987.131	502.88
987.353	466.88
987.575	502.88
987.797	469.88
988.019	414.88
988.241	487.88
988.462	446.88
988.684	502.88
988.906	524.88
989.127	553.88
989.349	455.88
989.57	495.88
989.792	512.88
990.013	530.88
990.234	551.88
990.456	568.88
990.677	559.88
990.898	501.88
991.119	511.88
991.341	557.88
991.562	478.88
991.783	529.88
992.004	474.88
992.225	472.88
992.446	523.88
992.667	439.88
992.887	540.88
993.108	450.88
993.329	584.88
993.55	520.88
993.77	471.88
993.991	494.88
994.212	528.88
994.432	533.88
994.653	536.88
994.873	556.88
995.093	450.88
995.314	490.88
995.534	564.88
995.754	576.88
995.975	621.88
996.195	497.88
996.415	568.88
996.635	525.88
996.855	539.88
997.075	539.88
997.295	526.88
997.515	508.88
997.735	563.88
997.955	530.88
998.174	526.88
998.394	511.88
998.614	563.88
998.834	517.88
999.053	586.88
999.273	558.88
999.492	609.88
999.712	580.88
999.931	535.88
1000.151	598.88
1000.37	564.88
1000.589	642.88
1000.809	561.88
1001.028	680.88
1001.247	628.88
1001.466	548.88
1001.685	684.88
1001.904	625.88
1002.123	620.88
1002.342	628.88
1002.561	588.88
1002.78	637.88
1002.999	693.88
1003.218	619.88
1003.436	618.88
1003.655	672.88
1003.874	632.88
1004.092	654.88
1004.311	711.88
1004.53	657.88
1004.748	739.88
1004.966	655.88
1005.185	695.88
1005.403	711.88
1005.622	670.88
1005.84	756.88
1006.058	651.88
1006.276	681.88
1006.494	1189.88
1006.712	685.88
1006.931	739.88
1007.149	644.88
1007.367	648.88
1007.584	669.88
1007.802	698.88
1008.02	640.88
1008.238	735.88
1008.456	737.88
1008.673	580.88
1008.891	680.88
1009.109	625.88
1009.326	639.88
1009.544	730.88
1009.761	600.88
1009.979	659.88
1010.196	622.88
1010.413	670.88
1010.631	668.88
1010.848	667.88
1011.065	662.88
1011.282	619.88
1011.5	559.88
1011.717	686.88
1011.934	618.88
1012.151	657.88
1012.368	654.88
1012.585	588.88
1012.801	656.88
1013.018	628.88
1013.235	588.88
1013.452	600.88
1013.669	604.88
1013.885	562.88
1014.102	605.88
1014.318	550.88
1014.535	532.88
1014.751	580.88
1014.968	564.88
1015.184	611.88
1015.401	526.88
1015.617	585.88
1015.833	506.88
1016.049	554.88
1016.266	535.88
1016.482	553.88
1016.698	497.88
1016.914	549.88
1017.13	494.88
1017.346	510.88
1017.562	583.88
1017.778	516.88
1017.993	486.88
1018.209	549.88
1018.425	527.88
1018.641	492.88
1018.856	472.88
1019.072	498.88
1019.288	561.88
1019.503	513.88
1019.719	429.88
1019.934	456.88
1020.149	562.88
1020.365	502.88
1020.58	468.88
1020.795	527.88
1021.011	486.88
1021.226	501.88
1021.441	541.88
1021.656	479.88
1021.871	430.88
1022.086	470.88
1022.301	471.88
1022.516	478.88
1022.731	512.88
1022.946	465.88
1023.16	469.88
1023.375	456.88
1023.59	437.88
1023.804	423.88
1024.019	536.88
1024.234	434.88
1024.448	470.88
1024.663	412.88
1024.877	451.88
1025.092	461.88
1025.306	507.88
1025.52	418.88
1025.734	503.88
1025.949	447.88
1026.163	424.88
1026.377	391.88
1026.591	444.88
1026.805	379.88
1027.019	387.88
1027.233	364.88
1027.447	320.88
1027.661	412.88
1027.875	371.88
1028.088	396.88
1028.302	328.88
1028.516	336.88
1028.73	351.88
1028.943	360.88
1029.157	335.88
1029.37	305.88
1029.584	-3.12
1029.797	-4.12
1030.011	-0.12
1030.224	1.88
