Data from QEP037381__39__10-18-41-064.txt Node

Date: Fri Apr 21 10:18:41 EDT 2023
User: dcclab
Spectrometer: QEP03738
Trigger mode: 4
Integration Time (sec): 1.000000E1
Scans to average: 1
Electric dark correction enabled: true
Nonlinearity correction enabled: false
Boxcar width: 0
XAxis mode: Wavelengths
Number of Pixels in Spectrum: 1044
>>>>>Begin Spectral Data<<<<<
784.041	12.25
784.3	-0.75
784.558	0.25
784.817	-4.75
785.075	232.25
785.334	210.25
785.592	201.25
785.851	204.25
786.109	232.25
786.368	241.25
786.626	256.25
786.884	280.25
787.143	262.25
787.401	207.25
787.659	274.25
787.917	250.25
788.175	304.25
788.433	261.25
788.691	282.25
788.949	280.25
789.207	296.25
789.465	253.25
789.723	279.25
789.98	252.25
790.238	318.25
790.496	293.25
790.753	289.25
791.011	361.25
791.268	311.25
791.526	304.25
791.783	333.25
792.041	312.25
792.298	247.25
792.556	323.25
792.813	315.25
793.07	292.25
793.327	285.25
793.584	369.25
793.841	292.25
794.099	332.25
794.356	380.25
794.613	284.25
794.869	330.25
795.126	296.25
795.383	282.25
795.64	299.25
795.897	265.25
796.153	329.25
796.41	312.25
796.667	288.25
796.923	297.25
797.18	300.25
797.436	322.25
797.693	288.25
797.949	336.25
798.206	352.25
798.462	270.25
798.718	331.25
798.974	292.25
799.231	342.25
799.487	318.25
799.743	329.25
799.999	344.25
800.255	317.25
800.511	303.25
800.767	333.25
801.023	313.25
801.279	316.25
801.534	331.25
801.79	349.25
802.046	309.25
802.302	355.25
802.557	329.25
802.813	355.25
803.068	293.25
803.324	346.25
803.579	305.25
803.835	298.25
804.09	361.25
804.345	298.25
804.601	277.25
804.856	293.25
805.111	324.25
805.366	308.25
805.621	330.25
805.876	337.25
806.131	327.25
806.386	298.25
806.641	278.25
806.896	303.25
807.151	383.25
807.406	325.25
807.661	334.25
807.915	313.25
808.17	330.25
808.425	337.25
808.679	284.25
808.934	370.25
809.188	314.25
809.443	332.25
809.697	346.25
809.951	294.25
810.206	297.25
810.46	355.25
810.714	332.25
810.968	352.25
811.223	278.25
811.477	315.25
811.731	339.25
811.985	272.25
812.239	254.25
812.493	282.25
812.747	308.25
813	270.25
813.254	329.25
813.508	337.25
813.762	287.25
814.015	293.25
814.269	310.25
814.522	338.25
814.776	336.25
815.03	326.25
815.283	331.25
815.536	336.25
815.79	344.25
816.043	331.25
816.296	317.25
816.55	314.25
816.803	326.25
817.056	405.25
817.309	335.25
817.562	339.25
817.815	369.25
818.068	277.25
818.321	293.25
818.574	287.25
818.827	347.25
819.079	295.25
819.332	414.25
819.585	341.25
819.838	402.25
820.09	296.25
820.343	377.25
820.595	276.25
820.848	330.25
821.1	343.25
821.353	321.25
821.605	324.25
821.857	383.25
822.11	280.25
822.362	305.25
822.614	294.25
822.866	326.25
823.118	267.25
823.37	372.25
823.622	332.25
823.874	307.25
824.126	360.25
824.378	277.25
824.63	303.25
824.882	330.25
825.134	311.25
825.385	337.25
825.637	336.25
825.888	320.25
826.14	331.25
826.392	293.25
826.643	290.25
826.895	376.25
827.146	306.25
827.397	304.25
827.649	378.25
827.9	292.25
828.151	283.25
828.402	291.25
828.653	324.25
828.905	323.25
829.156	379.25
829.407	293.25
829.658	328.25
829.909	366.25
830.159	347.25
830.41	350.25
830.661	352.25
830.912	333.25
831.162	302.25
831.413	306.25
831.664	345.25
831.914	340.25
832.165	321.25
832.415	328.25
832.666	338.25
832.916	361.25
833.167	308.25
833.417	384.25
833.667	346.25
833.917	339.25
834.168	394.25
834.418	344.25
834.668	318.25
834.918	294.25
835.168	310.25
835.418	272.25
835.668	329.25
835.918	358.25
836.167	342.25
836.417	297.25
836.667	354.25
836.917	372.25
837.166	325.25
837.416	350.25
837.666	368.25
837.915	332.25
838.165	342.25
838.414	306.25
838.663	279.25
838.913	326.25
839.162	296.25
839.411	384.25
839.661	313.25
839.91	325.25
840.159	305.25
840.408	332.25
840.657	316.25
840.906	327.25
841.155	373.25
841.404	322.25
841.653	344.25
841.902	301.25
842.15	338.25
842.399	346.25
842.648	322.25
842.897	348.25
843.145	287.25
843.394	300.25
843.642	313.25
843.891	362.25
844.139	339.25
844.388	289.25
844.636	275.25
844.884	316.25
845.133	296.25
845.381	315.25
845.629	351.25
845.877	292.25
846.125	307.25
846.373	324.25
846.621	290.25
846.869	357.25
847.117	327.25
847.365	326.25
847.613	338.25
847.861	359.25
848.108	375.25
848.356	348.25
848.604	316.25
848.851	328.25
849.099	329.25
849.346	319.25
849.594	346.25
849.841	352.25
850.089	320.25
850.336	292.25
850.583	303.25
850.831	308.25
851.078	326.25
851.325	304.25
851.572	364.25
851.819	351.25
852.066	334.25
852.313	316.25
852.56	300.25
852.807	293.25
853.054	296.25
853.301	309.25
853.548	310.25
853.794	398.25
854.041	333.25
854.288	283.25
854.534	412.25
854.781	317.25
855.028	305.25
855.274	392.25
855.52	339.25
855.767	305.25
856.013	354.25
856.26	638.25
856.506	305.25
856.752	363.25
856.998	339.25
857.244	302.25
857.49	360.25
857.736	345.25
857.982	348.25
858.228	360.25
858.474	298.25
858.72	338.25
858.966	350.25
859.212	338.25
859.458	333.25
859.703	341.25
859.949	316.25
860.195	367.25
860.44	359.25
860.686	306.25
860.931	392.25
861.177	311.25
861.422	378.25
861.667	322.25
861.913	333.25
862.158	333.25
862.403	365.25
862.648	369.25
862.893	394.25
863.138	351.25
863.384	310.25
863.629	369.25
863.873	347.25
864.118	342.25
864.363	276.25
864.608	352.25
864.853	382.25
865.098	338.25
865.342	350.25
865.587	347.25
865.832	385.25
866.076	366.25
866.321	329.25
866.565	325.25
866.81	267.25
867.054	328.25
867.298	360.25
867.543	317.25
867.787	360.25
868.031	340.25
868.275	345.25
868.519	332.25
868.764	333.25
869.008	329.25
869.252	372.25
869.496	337.25
869.739	335.25
869.983	385.25
870.227	366.25
870.471	317.25
870.715	364.25
870.958	358.25
871.202	319.25
871.446	337.25
871.689	319.25
871.933	340.25
872.176	335.25
872.42	331.25
872.663	322.25
872.906	367.25
873.15	329.25
873.393	280.25
873.636	380.25
873.879	368.25
874.122	397.25
874.366	343.25
874.609	369.25
874.852	348.25
875.095	349.25
875.337	330.25
875.58	275.25
875.823	341.25
876.066	380.25
876.309	404.25
876.551	305.25
876.794	295.25
877.037	370.25
877.279	311.25
877.522	313.25
877.764	366.25
878.007	320.25
878.249	350.25
878.491	305.25
878.734	367.25
878.976	360.25
879.218	309.25
879.46	379.25
879.702	377.25
879.945	370.25
880.187	326.25
880.429	380.25
880.671	376.25
880.912	382.25
881.154	372.25
881.396	292.25
881.638	359.25
881.88	359.25
882.121	324.25
882.363	332.25
882.605	393.25
882.846	368.25
883.088	386.25
883.329	323.25
883.571	308.25
883.812	318.25
884.053	325.25
884.295	320.25
884.536	418.25
884.777	322.25
885.018	340.25
885.259	370.25
885.5	296.25
885.742	526.25
885.982	363.25
886.223	311.25
886.464	325.25
886.705	303.25
886.946	343.25
887.187	270.25
887.428	386.25
887.668	314.25
887.909	314.25
888.15	297.25
888.39	364.25
888.631	415.25
888.871	378.25
889.111	362.25
889.352	362.25
889.592	324.25
889.833	357.25
890.073	351.25
890.313	420.25
890.553	305.25
890.793	341.25
891.033	320.25
891.273	329.25
891.513	349.25
891.753	405.25
891.993	340.25
892.233	376.25
892.473	409.25
892.713	366.25
892.952	327.25
893.192	350.25
893.432	324.25
893.671	373.25
893.911	334.25
894.15	353.25
894.39	309.25
894.629	338.25
894.869	371.25
895.108	350.25
895.347	326.25
895.587	371.25
895.826	329.25
896.065	315.25
896.304	370.25
896.543	401.25
896.782	294.25
897.021	363.25
897.26	336.25
897.499	390.25
897.738	400.25
897.977	353.25
898.216	344.25
898.454	366.25
898.693	335.25
898.932	381.25
899.17	358.25
899.409	355.25
899.647	358.25
899.886	343.25
900.124	370.25
900.363	316.25
900.601	359.25
900.839	360.25
901.078	345.25
901.316	345.25
901.554	346.25
901.792	380.25
902.03	312.25
902.268	336.25
902.506	388.25
902.744	331.25
902.982	383.25
903.22	320.25
903.458	335.25
903.695	375.25
903.933	380.25
904.171	335.25
904.409	339.25
904.646	382.25
904.884	341.25
905.121	413.25
905.359	390.25
905.596	387.25
905.833	326.25
906.071	342.25
906.308	404.25
906.545	378.25
906.783	317.25
907.02	356.25
907.257	321.25
907.494	341.25
907.731	353.25
907.968	383.25
908.205	343.25
908.442	337.25
908.679	351.25
908.915	361.25
909.152	364.25
909.389	293.25
909.626	350.25
909.862	338.25
910.099	374.25
910.335	407.25
910.572	304.25
910.808	371.25
911.045	336.25
911.281	328.25
911.518	408.25
911.754	353.25
911.99	364.25
912.226	362.25
912.463	325.25
912.699	343.25
912.935	364.25
913.171	347.25
913.407	335.25
913.643	402.25
913.879	364.25
914.114	371.25
914.35	341.25
914.586	360.25
914.822	335.25
915.057	435.25
915.293	317.25
915.529	330.25
915.764	404.25
916	389.25
916.235	369.25
916.471	400.25
916.706	314.25
916.941	350.25
917.177	361.25
917.412	390.25
917.647	375.25
917.882	346.25
918.117	422.25
918.352	384.25
918.588	423.25
918.823	348.25
919.057	374.25
919.292	293.25
919.527	420.25
919.762	357.25
919.997	420.25
920.232	380.25
920.466	424.25
920.701	320.25
920.935	391.25
921.17	351.25
921.405	337.25
921.639	409.25
921.873	376.25
922.108	408.25
922.342	408.25
922.576	341.25
922.811	357.25
923.045	413.25
923.279	430.25
923.513	314.25
923.747	399.25
923.981	401.25
924.215	359.25
924.449	370.25
924.683	328.25
924.917	353.25
925.151	348.25
925.385	434.25
925.618	395.25
925.852	405.25
926.086	334.25
926.319	395.25
926.553	367.25
926.786	404.25
927.02	376.25
927.253	424.25
927.486	415.25
927.72	341.25
927.953	413.25
928.186	362.25
928.42	396.25
928.653	357.25
928.886	339.25
929.119	404.25
929.352	390.25
929.585	383.25
929.818	354.25
930.051	408.25
930.284	409.25
930.516	337.25
930.749	368.25
930.982	427.25
931.215	410.25
931.447	349.25
931.68	363.25
931.912	359.25
932.145	370.25
932.377	390.25
932.61	495.25
932.842	323.25
933.074	397.25
933.307	349.25
933.539	432.25
933.771	427.25
934.003	368.25
934.236	447.25
934.468	455.25
934.7	369.25
934.932	429.25
935.164	355.25
935.395	351.25
935.627	399.25
935.859	394.25
936.091	344.25
936.323	400.25
936.554	440.25
936.786	390.25
937.017	342.25
937.249	402.25
937.481	336.25
937.712	402.25
937.943	377.25
938.175	366.25
938.406	368.25
938.637	452.25
938.869	353.25
939.1	406.25
939.331	369.25
939.562	410.25
939.793	392.25
940.024	432.25
940.255	440.25
940.486	386.25
940.717	392.25
940.948	389.25
941.179	354.25
941.409	381.25
941.64	388.25
941.871	385.25
942.102	375.25
942.332	364.25
942.563	423.25
942.793	407.25
943.024	354.25
943.254	380.25
943.484	432.25
943.715	421.25
943.945	407.25
944.175	336.25
944.405	324.25
944.636	346.25
944.866	402.25
945.096	406.25
945.326	330.25
945.556	404.25
945.786	420.25
946.016	390.25
946.245	347.25
946.475	358.25
946.705	371.25
946.935	392.25
947.164	404.25
947.394	362.25
947.624	389.25
947.853	434.25
948.083	415.25
948.312	375.25
948.542	339.25
948.771	339.25
949	367.25
949.23	368.25
949.459	387.25
949.688	432.25
949.917	387.25
950.146	406.25
950.375	447.25
950.604	355.25
950.833	458.25
951.062	455.25
951.291	400.25
951.52	382.25
951.749	393.25
951.978	362.25
952.206	374.25
952.435	370.25
952.664	434.25
952.892	422.25
953.121	405.25
953.349	448.25
953.578	433.25
953.806	423.25
954.035	380.25
954.263	419.25
954.491	380.25
954.719	421.25
954.948	382.25
955.176	384.25
955.404	323.25
955.632	397.25
955.86	430.25
956.088	416.25
956.316	440.25
956.544	464.25
956.772	409.25
956.999	400.25
957.227	489.25
957.455	405.25
957.683	426.25
957.91	393.25
958.138	390.25
958.365	410.25
958.593	402.25
958.82	372.25
959.048	444.25
959.275	409.25
959.502	405.25
959.73	380.25
959.957	430.25
960.184	455.25
960.411	384.25
960.638	481.25
960.865	422.25
961.092	449.25
961.319	364.25
961.546	466.25
961.773	453.25
962	424.25
962.227	494.25
962.454	436.25
962.68	434.25
962.907	457.25
963.134	403.25
963.36	448.25
963.587	479.25
963.813	410.25
964.04	474.25
964.266	405.25
964.493	503.25
964.719	491.25
964.945	503.25
965.171	400.25
965.398	460.25
965.624	492.25
965.85	429.25
966.076	445.25
966.302	480.25
966.528	450.25
966.754	479.25
966.98	483.25
967.206	471.25
967.431	419.25
967.657	512.25
967.883	487.25
968.109	468.25
968.334	438.25
968.56	412.25
968.785	448.25
969.011	406.25
969.236	479.25
969.462	419.25
969.687	448.25
969.912	510.25
970.138	526.25
970.363	436.25
970.588	475.25
970.813	462.25
971.038	434.25
971.263	484.25
971.488	484.25
971.713	526.25
971.938	516.25
972.163	417.25
972.388	465.25
972.613	444.25
972.838	470.25
973.062	457.25
973.287	462.25
973.512	413.25
973.736	452.25
973.961	446.25
974.185	435.25
974.41	489.25
974.634	401.25
974.858	413.25
975.083	482.25
975.307	488.25
975.531	447.25
975.755	407.25
975.98	443.25
976.204	380.25
976.428	400.25
976.652	420.25
976.876	403.25
977.1	441.25
977.324	403.25
977.547	465.25
977.771	465.25
977.995	434.25
978.219	371.25
978.442	518.25
978.666	448.25
978.89	447.25
979.113	465.25
979.337	452.25
979.56	407.25
979.783	500.25
980.007	421.25
980.23	448.25
980.453	424.25
980.677	471.25
980.9	458.25
981.123	377.25
981.346	471.25
981.569	468.25
981.792	487.25
982.015	462.25
982.238	425.25
982.461	463.25
982.684	449.25
982.907	433.25
983.129	423.25
983.352	491.25
983.575	467.25
983.797	485.25
984.02	430.25
984.242	444.25
984.465	459.25
984.687	491.25
984.91	530.25
985.132	488.25
985.354	509.25
985.577	483.25
985.799	491.25
986.021	408.25
986.243	445.25
986.465	471.25
986.687	518.25
986.909	556.25
987.131	496.25
987.353	466.25
987.575	510.25
987.797	474.25
988.019	429.25
988.241	492.25
988.462	455.25
988.684	508.25
988.906	529.25
989.127	550.25
989.349	445.25
989.57	496.25
989.792	527.25
990.013	543.25
990.234	550.25
990.456	562.25
990.677	547.25
990.898	503.25
991.119	502.25
991.341	558.25
991.562	499.25
991.783	549.25
992.004	484.25
992.225	456.25
992.446	528.25
992.667	455.25
992.887	537.25
993.108	438.25
993.329	593.25
993.55	538.25
993.77	495.25
993.991	489.25
994.212	533.25
994.432	525.25
994.653	544.25
994.873	540.25
995.093	447.25
995.314	505.25
995.534	562.25
995.754	581.25
995.975	617.25
996.195	502.25
996.415	556.25
996.635	543.25
996.855	546.25
997.075	540.25
997.295	534.25
997.515	498.25
997.735	559.25
997.955	540.25
998.174	522.25
998.394	508.25
998.614	560.25
998.834	503.25
999.053	578.25
999.273	584.25
999.492	630.25
999.712	568.25
999.931	526.25
1000.151	601.25
1000.37	570.25
1000.589	642.25
1000.809	561.25
1001.028	685.25
1001.247	628.25
1001.466	533.25
1001.685	674.25
1001.904	628.25
1002.123	616.25
1002.342	642.25
1002.561	600.25
1002.78	635.25
1002.999	708.25
1003.218	652.25
1003.436	635.25
1003.655	692.25
1003.874	622.25
1004.092	653.25
1004.311	697.25
1004.53	665.25
1004.748	720.25
1004.966	656.25
1005.185	728.25
1005.403	714.25
1005.622	689.25
1005.84	753.25
1006.058	646.25
1006.276	692.25
1006.494	1154.25
1006.712	674.25
1006.931	738.25
1007.149	654.25
1007.367	647.25
1007.584	688.25
1007.802	696.25
1008.02	659.25
1008.238	740.25
1008.456	731.25
1008.673	578.25
1008.891	677.25
1009.109	629.25
1009.326	657.25
1009.544	740.25
1009.761	592.25
1009.979	644.25
1010.196	630.25
1010.413	670.25
1010.631	689.25
1010.848	675.25
1011.065	662.25
1011.282	611.25
1011.5	570.25
1011.717	675.25
1011.934	628.25
1012.151	668.25
1012.368	645.25
1012.585	596.25
1012.801	650.25
1013.018	613.25
1013.235	579.25
1013.452	593.25
1013.669	588.25
1013.885	566.25
1014.102	600.25
1014.318	574.25
1014.535	534.25
1014.751	572.25
1014.968	568.25
1015.184	604.25
1015.401	533.25
1015.617	594.25
1015.833	533.25
1016.049	554.25
1016.266	534.25
1016.482	559.25
1016.698	494.25
1016.914	560.25
1017.13	516.25
1017.346	511.25
1017.562	574.25
1017.778	521.25
1017.993	490.25
1018.209	562.25
1018.425	542.25
1018.641	483.25
1018.856	487.25
1019.072	502.25
1019.288	564.25
1019.503	505.25
1019.719	421.25
1019.934	467.25
1020.149	545.25
1020.365	497.25
1020.58	460.25
1020.795	541.25
1021.011	496.25
1021.226	507.25
1021.441	545.25
1021.656	501.25
1021.871	438.25
1022.086	474.25
1022.301	472.25
1022.516	471.25
1022.731	531.25
1022.946	481.25
1023.16	466.25
1023.375	446.25
1023.59	441.25
1023.804	435.25
1024.019	544.25
1024.234	441.25
1024.448	476.25
1024.663	416.25
1024.877	446.25
1025.092	462.25
1025.306	482.25
1025.52	404.25
1025.734	502.25
1025.949	447.25
1026.163	432.25
1026.377	389.25
1026.591	445.25
1026.805	389.25
1027.019	383.25
1027.233	368.25
1027.447	317.25
1027.661	423.25
1027.875	373.25
1028.088	390.25
1028.302	322.25
1028.516	330.25
1028.73	351.25
1028.943	358.25
1029.157	328.25
1029.37	308.25
1029.584	-0.75
1029.797	-0.75
1030.011	-2.75
1030.224	-2.75
