Data from QEP037381__7__10-13-21-056.txt Node

Date: Fri Apr 21 10:13:21 EDT 2023
User: dcclab
Spectrometer: QEP03738
Trigger mode: 4
Integration Time (sec): 1.000000E1
Scans to average: 1
Electric dark correction enabled: true
Nonlinearity correction enabled: false
Boxcar width: 0
XAxis mode: Wavelengths
Number of Pixels in Spectrum: 1044
>>>>>Begin Spectral Data<<<<<
784.041	11.88
784.3	-0.12
784.558	-0.12
784.817	-5.12
785.075	249.88
785.334	228.88
785.592	209.88
785.851	196.88
786.109	232.88
786.368	246.88
786.626	243.88
786.884	259.88
787.143	253.88
787.401	205.88
787.659	274.88
787.917	241.88
788.175	312.88
788.433	260.88
788.691	267.88
788.949	284.88
789.207	303.88
789.465	248.88
789.723	270.88
789.98	255.88
790.238	324.88
790.496	299.88
790.753	287.88
791.011	352.88
791.268	313.88
791.526	308.88
791.783	327.88
792.041	321.88
792.298	251.88
792.556	319.88
792.813	315.88
793.07	297.88
793.327	279.88
793.584	370.88
793.841	296.88
794.099	323.88
794.356	381.88
794.613	293.88
794.869	331.88
795.126	305.88
795.383	301.88
795.64	310.88
795.897	262.88
796.153	331.88
796.41	304.88
796.667	282.88
796.923	296.88
797.18	306.88
797.436	321.88
797.693	291.88
797.949	343.88
798.206	362.88
798.462	271.88
798.718	328.88
798.974	286.88
799.231	347.88
799.487	326.88
799.743	325.88
799.999	355.88
800.255	323.88
800.511	296.88
800.767	327.88
801.023	308.88
801.279	325.88
801.534	323.88
801.79	341.88
802.046	297.88
802.302	368.88
802.557	326.88
802.813	348.88
803.068	288.88
803.324	338.88
803.579	307.88
803.835	298.88
804.09	350.88
804.345	293.88
804.601	264.88
804.856	306.88
805.111	343.88
805.366	304.88
805.621	321.88
805.876	334.88
806.131	334.88
806.386	301.88
806.641	274.88
806.896	311.88
807.151	369.88
807.406	326.88
807.661	331.88
807.915	325.88
808.17	335.88
808.425	336.88
808.679	286.88
808.934	382.88
809.188	311.88
809.443	347.88
809.697	375.88
809.951	316.88
810.206	302.88
810.46	367.88
810.714	343.88
810.968	363.88
811.223	291.88
811.477	333.88
811.731	351.88
811.985	284.88
812.239	248.88
812.493	283.88
812.747	329.88
813	278.88
813.254	329.88
813.508	351.88
813.762	303.88
814.015	318.88
814.269	333.88
814.522	338.88
814.776	339.88
815.03	342.88
815.283	344.88
815.536	351.88
815.79	342.88
816.043	334.88
816.296	339.88
816.55	313.88
816.803	324.88
817.056	406.88
817.309	332.88
817.562	335.88
817.815	379.88
818.068	284.88
818.321	300.88
818.574	283.88
818.827	345.88
819.079	292.88
819.332	433.88
819.585	354.88
819.838	389.88
820.09	307.88
820.343	372.88
820.595	280.88
820.848	337.88
821.1	353.88
821.353	325.88
821.605	312.88
821.857	388.88
822.11	289.88
822.362	306.88
822.614	284.88
822.866	325.88
823.118	278.88
823.37	390.88
823.622	332.88
823.874	306.88
824.126	365.88
824.378	298.88
824.63	320.88
824.882	327.88
825.134	313.88
825.385	360.88
825.637	342.88
825.888	314.88
826.14	319.88
826.392	317.88
826.643	285.88
826.895	374.88
827.146	317.88
827.397	312.88
827.649	390.88
827.9	293.88
828.151	275.88
828.402	284.88
828.653	325.88
828.905	327.88
829.156	377.88
829.407	302.88
829.658	333.88
829.909	364.88
830.159	348.88
830.41	352.88
830.661	366.88
830.912	344.88
831.162	321.88
831.413	316.88
831.664	367.88
831.914	319.88
832.165	331.88
832.415	349.88
832.666	345.88
832.916	347.88
833.167	303.88
833.417	378.88
833.667	357.88
833.917	335.88
834.168	397.88
834.418	355.88
834.668	309.88
834.918	281.88
835.168	317.88
835.418	254.88
835.668	330.88
835.918	356.88
836.167	346.88
836.417	302.88
836.667	360.88
836.917	372.88
837.166	327.88
837.416	360.88
837.666	364.88
837.915	322.88
838.165	338.88
838.414	302.88
838.663	271.88
838.913	339.88
839.162	300.88
839.411	381.88
839.661	311.88
839.91	342.88
840.159	313.88
840.408	340.88
840.657	329.88
840.906	339.88
841.155	361.88
841.404	325.88
841.653	355.88
841.902	306.88
842.15	350.88
842.399	348.88
842.648	313.88
842.897	344.88
843.145	298.88
843.394	306.88
843.642	319.88
843.891	371.88
844.139	339.88
844.388	292.88
844.636	263.88
844.884	320.88
845.133	304.88
845.381	327.88
845.629	354.88
845.877	285.88
846.125	317.88
846.373	339.88
846.621	307.88
846.869	355.88
847.117	340.88
847.365	326.88
847.613	350.88
847.861	351.88
848.108	384.88
848.356	363.88
848.604	305.88
848.851	342.88
849.099	350.88
849.346	324.88
849.594	345.88
849.841	348.88
850.089	314.88
850.336	296.88
850.583	309.88
850.831	339.88
851.078	337.88
851.325	290.88
851.572	368.88
851.819	368.88
852.066	334.88
852.313	319.88
852.56	292.88
852.807	289.88
853.054	291.88
853.301	313.88
853.548	315.88
853.794	390.88
854.041	338.88
854.288	285.88
854.534	392.88
854.781	322.88
855.028	299.88
855.274	366.88
855.52	326.88
855.767	305.88
856.013	357.88
856.26	641.88
856.506	324.88
856.752	365.88
856.998	338.88
857.244	306.88
857.49	340.88
857.736	353.88
857.982	349.88
858.228	352.88
858.474	290.88
858.72	337.88
858.966	355.88
859.212	354.88
859.458	347.88
859.703	342.88
859.949	311.88
860.195	375.88
860.44	362.88
860.686	309.88
860.931	383.88
861.177	319.88
861.422	394.88
861.667	319.88
861.913	330.88
862.158	328.88
862.403	382.88
862.648	360.88
862.893	373.88
863.138	338.88
863.384	324.88
863.629	362.88
863.873	348.88
864.118	320.88
864.363	261.88
864.608	344.88
864.853	366.88
865.098	333.88
865.342	358.88
865.587	327.88
865.832	366.88
866.076	354.88
866.321	309.88
866.565	335.88
866.81	278.88
867.054	336.88
867.298	359.88
867.543	313.88
867.787	370.88
868.031	342.88
868.275	355.88
868.519	323.88
868.764	324.88
869.008	340.88
869.252	387.88
869.496	348.88
869.739	349.88
869.983	374.88
870.227	371.88
870.471	317.88
870.715	372.88
870.958	357.88
871.202	319.88
871.446	318.88
871.689	296.88
871.933	347.88
872.176	336.88
872.42	329.88
872.663	327.88
872.906	373.88
873.15	335.88
873.393	290.88
873.636	381.88
873.879	372.88
874.122	403.88
874.366	333.88
874.609	375.88
874.852	340.88
875.095	360.88
875.337	321.88
875.58	286.88
875.823	346.88
876.066	384.88
876.309	418.88
876.551	313.88
876.794	290.88
877.037	378.88
877.279	297.88
877.522	326.88
877.764	357.88
878.007	313.88
878.249	341.88
878.491	315.88
878.734	379.88
878.976	357.88
879.218	300.88
879.46	374.88
879.702	391.88
879.945	365.88
880.187	350.88
880.429	384.88
880.671	379.88
880.912	396.88
881.154	359.88
881.396	287.88
881.638	360.88
881.88	347.88
882.121	308.88
882.363	336.88
882.605	393.88
882.846	376.88
883.088	376.88
883.329	325.88
883.571	298.88
883.812	318.88
884.053	325.88
884.295	333.88
884.536	405.88
884.777	328.88
885.018	363.88
885.259	368.88
885.5	290.88
885.742	523.88
885.982	369.88
886.223	315.88
886.464	346.88
886.705	297.88
886.946	346.88
887.187	280.88
887.428	384.88
887.668	335.88
887.909	312.88
888.15	301.88
888.39	366.88
888.631	400.88
888.871	380.88
889.111	366.88
889.352	362.88
889.592	334.88
889.833	344.88
890.073	367.88
890.313	407.88
890.553	317.88
890.793	361.88
891.033	311.88
891.273	324.88
891.513	367.88
891.753	410.88
891.993	358.88
892.233	375.88
892.473	431.88
892.713	374.88
892.952	327.88
893.192	352.88
893.432	332.88
893.671	380.88
893.911	329.88
894.15	349.88
894.39	293.88
894.629	330.88
894.869	363.88
895.108	370.88
895.347	317.88
895.587	358.88
895.826	328.88
896.065	306.88
896.304	366.88
896.543	390.88
896.782	294.88
897.021	348.88
897.26	336.88
897.499	399.88
897.738	415.88
897.977	363.88
898.216	353.88
898.454	353.88
898.693	326.88
898.932	382.88
899.17	337.88
899.409	358.88
899.647	356.88
899.886	334.88
900.124	375.88
900.363	326.88
900.601	370.88
900.839	360.88
901.078	368.88
901.316	345.88
901.554	348.88
901.792	369.88
902.03	309.88
902.268	335.88
902.506	390.88
902.744	345.88
902.982	381.88
903.22	323.88
903.458	356.88
903.695	378.88
903.933	393.88
904.171	331.88
904.409	351.88
904.646	389.88
904.884	340.88
905.121	417.88
905.359	386.88
905.596	381.88
905.833	341.88
906.071	329.88
906.308	408.88
906.545	375.88
906.783	313.88
907.02	349.88
907.257	324.88
907.494	341.88
907.731	364.88
907.968	392.88
908.205	356.88
908.442	351.88
908.679	363.88
908.915	355.88
909.152	368.88
909.389	299.88
909.626	349.88
909.862	326.88
910.099	375.88
910.335	397.88
910.572	307.88
910.808	359.88
911.045	353.88
911.281	337.88
911.518	407.88
911.754	351.88
911.99	367.88
912.226	347.88
912.463	327.88
912.699	347.88
912.935	353.88
913.171	338.88
913.407	328.88
913.643	392.88
913.879	365.88
914.114	364.88
914.35	351.88
914.586	358.88
914.822	331.88
915.057	438.88
915.293	319.88
915.529	326.88
915.764	406.88
916	396.88
916.235	381.88
916.471	394.88
916.706	315.88
916.941	349.88
917.177	346.88
917.412	375.88
917.647	390.88
917.882	335.88
918.117	406.88
918.352	379.88
918.588	422.88
918.823	350.88
919.057	368.88
919.292	305.88
919.527	412.88
919.762	352.88
919.997	420.88
920.232	383.88
920.466	434.88
920.701	326.88
920.935	370.88
921.17	356.88
921.405	332.88
921.639	408.88
921.873	378.88
922.108	389.88
922.342	396.88
922.576	352.88
922.811	342.88
923.045	401.88
923.279	435.88
923.513	318.88
923.747	411.88
923.981	371.88
924.215	372.88
924.449	370.88
924.683	341.88
924.917	352.88
925.151	372.88
925.385	423.88
925.618	392.88
925.852	390.88
926.086	326.88
926.319	393.88
926.553	374.88
926.786	399.88
927.02	365.88
927.253	420.88
927.486	405.88
927.72	335.88
927.953	406.88
928.186	364.88
928.42	403.88
928.653	352.88
928.886	353.88
929.119	397.88
929.352	378.88
929.585	393.88
929.818	348.88
930.051	397.88
930.284	418.88
930.516	341.88
930.749	356.88
930.982	422.88
931.215	402.88
931.447	347.88
931.68	377.88
931.912	370.88
932.145	352.88
932.377	393.88
932.61	517.88
932.842	309.88
933.074	393.88
933.307	341.88
933.539	427.88
933.771	421.88
934.003	365.88
934.236	446.88
934.468	449.88
934.7	367.88
934.932	413.88
935.164	360.88
935.395	356.88
935.627	378.88
935.859	385.88
936.091	350.88
936.323	404.88
936.554	440.88
936.786	389.88
937.017	353.88
937.249	403.88
937.481	330.88
937.712	416.88
937.943	391.88
938.175	370.88
938.406	362.88
938.637	448.88
938.869	343.88
939.1	408.88
939.331	374.88
939.562	402.88
939.793	408.88
940.024	424.88
940.255	445.88
940.486	393.88
940.717	398.88
940.948	388.88
941.179	352.88
941.409	387.88
941.64	367.88
941.871	396.88
942.102	367.88
942.332	382.88
942.563	424.88
942.793	402.88
943.024	351.88
943.254	391.88
943.484	436.88
943.715	423.88
943.945	399.88
944.175	333.88
944.405	328.88
944.636	342.88
944.866	393.88
945.096	413.88
945.326	335.88
945.556	414.88
945.786	432.88
946.016	380.88
946.245	342.88
946.475	369.88
946.705	378.88
946.935	401.88
947.164	401.88
947.394	371.88
947.624	391.88
947.853	442.88
948.083	404.88
948.312	389.88
948.542	340.88
948.771	343.88
949	356.88
949.23	370.88
949.459	388.88
949.688	446.88
949.917	400.88
950.146	418.88
950.375	463.88
950.604	360.88
950.833	448.88
951.062	450.88
951.291	386.88
951.52	382.88
951.749	406.88
951.978	365.88
952.206	377.88
952.435	378.88
952.664	420.88
952.892	430.88
953.121	422.88
953.349	443.88
953.578	430.88
953.806	422.88
954.035	380.88
954.263	422.88
954.491	373.88
954.719	415.88
954.948	375.88
955.176	388.88
955.404	331.88
955.632	406.88
955.86	417.88
956.088	423.88
956.316	453.88
956.544	467.88
956.772	407.88
956.999	387.88
957.227	487.88
957.455	394.88
957.683	435.88
957.91	389.88
958.138	398.88
958.365	409.88
958.593	412.88
958.82	349.88
959.048	434.88
959.275	420.88
959.502	390.88
959.73	390.88
959.957	436.88
960.184	449.88
960.411	387.88
960.638	471.88
960.865	430.88
961.092	442.88
961.319	354.88
961.546	463.88
961.773	469.88
962	421.88
962.227	464.88
962.454	454.88
962.68	427.88
962.907	454.88
963.134	414.88
963.36	448.88
963.587	462.88
963.813	424.88
964.04	484.88
964.266	411.88
964.493	518.88
964.719	482.88
964.945	495.88
965.171	406.88
965.398	460.88
965.624	488.88
965.85	432.88
966.076	435.88
966.302	481.88
966.528	450.88
966.754	475.88
966.98	469.88
967.206	476.88
967.431	421.88
967.657	512.88
967.883	491.88
968.109	487.88
968.334	424.88
968.56	421.88
968.785	449.88
969.011	428.88
969.236	468.88
969.462	436.88
969.687	441.88
969.912	494.88
970.138	531.88
970.363	437.88
970.588	477.88
970.813	461.88
971.038	424.88
971.263	472.88
971.488	493.88
971.713	526.88
971.938	507.88
972.163	418.88
972.388	462.88
972.613	446.88
972.838	456.88
973.062	436.88
973.287	470.88
973.512	406.88
973.736	460.88
973.961	449.88
974.185	464.88
974.41	478.88
974.634	400.88
974.858	412.88
975.083	473.88
975.307	487.88
975.531	449.88
975.755	398.88
975.98	431.88
976.204	377.88
976.428	405.88
976.652	407.88
976.876	389.88
977.1	445.88
977.324	401.88
977.547	446.88
977.771	466.88
977.995	439.88
978.219	383.88
978.442	514.88
978.666	446.88
978.89	444.88
979.113	449.88
979.337	445.88
979.56	422.88
979.783	504.88
980.007	411.88
980.23	451.88
980.453	408.88
980.677	456.88
980.9	457.88
981.123	369.88
981.346	469.88
981.569	461.88
981.792	500.88
982.015	468.88
982.238	426.88
982.461	450.88
982.684	429.88
982.907	431.88
983.129	429.88
983.352	485.88
983.575	466.88
983.797	485.88
984.02	432.88
984.242	440.88
984.465	474.88
984.687	496.88
984.91	515.88
985.132	484.88
985.354	517.88
985.577	494.88
985.799	495.88
986.021	420.88
986.243	450.88
986.465	463.88
986.687	522.88
986.909	563.88
987.131	507.88
987.353	477.88
987.575	500.88
987.797	477.88
988.019	418.88
988.241	484.88
988.462	442.88
988.684	503.88
988.906	537.88
989.127	553.88
989.349	448.88
989.57	479.88
989.792	525.88
990.013	540.88
990.234	555.88
990.456	580.88
990.677	558.88
990.898	508.88
991.119	511.88
991.341	541.88
991.562	476.88
991.783	532.88
992.004	487.88
992.225	456.88
992.446	505.88
992.667	465.88
992.887	561.88
993.108	444.88
993.329	569.88
993.55	524.88
993.77	488.88
993.991	504.88
994.212	540.88
994.432	525.88
994.653	540.88
994.873	559.88
995.093	439.88
995.314	491.88
995.534	568.88
995.754	573.88
995.975	603.88
996.195	494.88
996.415	558.88
996.635	532.88
996.855	550.88
997.075	533.88
997.295	523.88
997.515	512.88
997.735	562.88
997.955	518.88
998.174	531.88
998.394	510.88
998.614	554.88
998.834	520.88
999.053	595.88
999.273	550.88
999.492	634.88
999.712	570.88
999.931	538.88
1000.151	585.88
1000.37	565.88
1000.589	647.88
1000.809	572.88
1001.028	677.88
1001.247	627.88
1001.466	524.88
1001.685	681.88
1001.904	634.88
1002.123	617.88
1002.342	631.88
1002.561	597.88
1002.78	631.88
1002.999	691.88
1003.218	629.88
1003.436	611.88
1003.655	683.88
1003.874	626.88
1004.092	640.88
1004.311	705.88
1004.53	665.88
1004.748	746.88
1004.966	645.88
1005.185	718.88
1005.403	701.88
1005.622	680.88
1005.84	734.88
1006.058	655.88
1006.276	683.88
1006.494	1172.88
1006.712	676.88
1006.931	747.88
1007.149	652.88
1007.367	642.88
1007.584	689.88
1007.802	704.88
1008.02	654.88
1008.238	731.88
1008.456	709.88
1008.673	601.88
1008.891	689.88
1009.109	628.88
1009.326	662.88
1009.544	706.88
1009.761	598.88
1009.979	654.88
1010.196	615.88
1010.413	664.88
1010.631	664.88
1010.848	696.88
1011.065	666.88
1011.282	610.88
1011.5	546.88
1011.717	688.88
1011.934	618.88
1012.151	679.88
1012.368	643.88
1012.585	611.88
1012.801	645.88
1013.018	619.88
1013.235	580.88
1013.452	598.88
1013.669	596.88
1013.885	572.88
1014.102	603.88
1014.318	578.88
1014.535	524.88
1014.751	575.88
1014.968	565.88
1015.184	617.88
1015.401	541.88
1015.617	585.88
1015.833	529.88
1016.049	566.88
1016.266	540.88
1016.482	561.88
1016.698	490.88
1016.914	553.88
1017.13	519.88
1017.346	516.88
1017.562	575.88
1017.778	514.88
1017.993	487.88
1018.209	565.88
1018.425	529.88
1018.641	497.88
1018.856	476.88
1019.072	519.88
1019.288	539.88
1019.503	512.88
1019.719	423.88
1019.934	456.88
1020.149	534.88
1020.365	509.88
1020.58	489.88
1020.795	534.88
1021.011	511.88
1021.226	498.88
1021.441	545.88
1021.656	485.88
1021.871	436.88
1022.086	469.88
1022.301	478.88
1022.516	481.88
1022.731	516.88
1022.946	491.88
1023.16	480.88
1023.375	452.88
1023.59	457.88
1023.804	432.88
1024.019	550.88
1024.234	420.88
1024.448	476.88
1024.663	416.88
1024.877	456.88
1025.092	473.88
1025.306	488.88
1025.52	419.88
1025.734	519.88
1025.949	435.88
1026.163	444.88
1026.377	392.88
1026.591	451.88
1026.805	393.88
1027.019	390.88
1027.233	354.88
1027.447	328.88
1027.661	421.88
1027.875	377.88
1028.088	392.88
1028.302	332.88
1028.516	337.88
1028.73	350.88
1028.943	354.88
1029.157	335.88
1029.37	316.88
1029.584	-0.12
1029.797	-2.12
1030.011	-1.12
1030.224	-3.12
