Data from QEP037381__27__10-16-41-061.txt Node

Date: Fri Apr 21 10:16:41 EDT 2023
User: dcclab
Spectrometer: QEP03738
Trigger mode: 4
Integration Time (sec): 1.000000E1
Scans to average: 1
Electric dark correction enabled: true
Nonlinearity correction enabled: false
Boxcar width: 0
XAxis mode: Wavelengths
Number of Pixels in Spectrum: 1044
>>>>>Begin Spectral Data<<<<<
784.041	10.62
784.3	0.62
784.558	-1.38
784.817	-2.38
785.075	236.62
785.334	213.62
785.592	209.62
785.851	197.62
786.109	223.62
786.368	235.62
786.626	260.62
786.884	282.62
787.143	266.62
787.401	218.62
787.659	283.62
787.917	253.62
788.175	296.62
788.433	271.62
788.691	273.62
788.949	290.62
789.207	309.62
789.465	255.62
789.723	266.62
789.98	252.62
790.238	324.62
790.496	292.62
790.753	287.62
791.011	359.62
791.268	303.62
791.526	313.62
791.783	326.62
792.041	318.62
792.298	255.62
792.556	324.62
792.813	316.62
793.07	289.62
793.327	287.62
793.584	377.62
793.841	299.62
794.099	315.62
794.356	389.62
794.613	286.62
794.869	326.62
795.126	289.62
795.383	286.62
795.64	305.62
795.897	258.62
796.153	323.62
796.41	304.62
796.667	286.62
796.923	295.62
797.18	293.62
797.436	326.62
797.693	290.62
797.949	338.62
798.206	361.62
798.462	286.62
798.718	335.62
798.974	295.62
799.231	342.62
799.487	316.62
799.743	325.62
799.999	335.62
800.255	333.62
800.511	297.62
800.767	348.62
801.023	297.62
801.279	313.62
801.534	320.62
801.79	330.62
802.046	293.62
802.302	357.62
802.557	324.62
802.813	340.62
803.068	297.62
803.324	341.62
803.579	317.62
803.835	304.62
804.09	342.62
804.345	307.62
804.601	279.62
804.856	307.62
805.111	329.62
805.366	314.62
805.621	312.62
805.876	333.62
806.131	329.62
806.386	304.62
806.641	281.62
806.896	292.62
807.151	379.62
807.406	320.62
807.661	341.62
807.915	307.62
808.17	330.62
808.425	328.62
808.679	288.62
808.934	371.62
809.188	313.62
809.443	340.62
809.697	366.62
809.951	311.62
810.206	296.62
810.46	354.62
810.714	332.62
810.968	345.62
811.223	265.62
811.477	322.62
811.731	342.62
811.985	263.62
812.239	249.62
812.493	286.62
812.747	314.62
813	263.62
813.254	327.62
813.508	334.62
813.762	294.62
814.015	297.62
814.269	307.62
814.522	330.62
814.776	328.62
815.03	332.62
815.283	331.62
815.536	337.62
815.79	332.62
816.043	333.62
816.296	336.62
816.55	306.62
816.803	318.62
817.056	403.62
817.309	328.62
817.562	333.62
817.815	366.62
818.068	276.62
818.321	289.62
818.574	290.62
818.827	336.62
819.079	292.62
819.332	410.62
819.585	337.62
819.838	393.62
820.09	307.62
820.343	359.62
820.595	292.62
820.848	349.62
821.1	360.62
821.353	332.62
821.605	317.62
821.857	375.62
822.11	284.62
822.362	295.62
822.614	283.62
822.866	324.62
823.118	276.62
823.37	383.62
823.622	321.62
823.874	317.62
824.126	352.62
824.378	286.62
824.63	315.62
824.882	326.62
825.134	311.62
825.385	353.62
825.637	343.62
825.888	313.62
826.14	319.62
826.392	304.62
826.643	286.62
826.895	378.62
827.146	323.62
827.397	302.62
827.649	389.62
827.9	297.62
828.151	282.62
828.402	284.62
828.653	333.62
828.905	342.62
829.156	383.62
829.407	293.62
829.658	322.62
829.909	365.62
830.159	336.62
830.41	341.62
830.661	358.62
830.912	335.62
831.162	322.62
831.413	319.62
831.664	349.62
831.914	303.62
832.165	332.62
832.415	347.62
832.666	341.62
832.916	356.62
833.167	313.62
833.417	381.62
833.667	342.62
833.917	333.62
834.168	384.62
834.418	351.62
834.668	320.62
834.918	286.62
835.168	321.62
835.418	267.62
835.668	318.62
835.918	361.62
836.167	343.62
836.417	299.62
836.667	364.62
836.917	377.62
837.166	314.62
837.416	358.62
837.666	364.62
837.915	334.62
838.165	350.62
838.414	296.62
838.663	268.62
838.913	337.62
839.162	287.62
839.411	390.62
839.661	312.62
839.91	332.62
840.159	322.62
840.408	334.62
840.657	339.62
840.906	337.62
841.155	375.62
841.404	321.62
841.653	329.62
841.902	300.62
842.15	347.62
842.399	356.62
842.648	311.62
842.897	344.62
843.145	287.62
843.394	313.62
843.642	311.62
843.891	372.62
844.139	337.62
844.388	298.62
844.636	272.62
844.884	313.62
845.133	296.62
845.381	326.62
845.629	355.62
845.877	305.62
846.125	311.62
846.373	333.62
846.621	297.62
846.869	349.62
847.117	336.62
847.365	316.62
847.613	351.62
847.861	355.62
848.108	369.62
848.356	344.62
848.604	313.62
848.851	327.62
849.099	336.62
849.346	335.62
849.594	347.62
849.841	339.62
850.089	321.62
850.336	301.62
850.583	309.62
850.831	321.62
851.078	322.62
851.325	309.62
851.572	370.62
851.819	357.62
852.066	334.62
852.313	323.62
852.56	295.62
852.807	280.62
853.054	297.62
853.301	317.62
853.548	323.62
853.794	415.62
854.041	338.62
854.288	275.62
854.534	401.62
854.781	326.62
855.028	300.62
855.274	398.62
855.52	329.62
855.767	304.62
856.013	362.62
856.26	635.62
856.506	315.62
856.752	367.62
856.998	342.62
857.244	306.62
857.49	343.62
857.736	350.62
857.982	347.62
858.228	356.62
858.474	288.62
858.72	330.62
858.966	347.62
859.212	348.62
859.458	334.62
859.703	363.62
859.949	320.62
860.195	379.62
860.44	358.62
860.686	301.62
860.931	388.62
861.177	304.62
861.422	385.62
861.667	331.62
861.913	312.62
862.158	331.62
862.403	382.62
862.648	360.62
862.893	397.62
863.138	338.62
863.384	311.62
863.629	363.62
863.873	351.62
864.118	336.62
864.363	271.62
864.608	359.62
864.853	370.62
865.098	332.62
865.342	351.62
865.587	333.62
865.832	377.62
866.076	350.62
866.321	311.62
866.565	320.62
866.81	279.62
867.054	342.62
867.298	339.62
867.543	315.62
867.787	357.62
868.031	347.62
868.275	351.62
868.519	329.62
868.764	346.62
869.008	335.62
869.252	386.62
869.496	347.62
869.739	342.62
869.983	389.62
870.227	380.62
870.471	314.62
870.715	357.62
870.958	353.62
871.202	319.62
871.446	326.62
871.689	306.62
871.933	324.62
872.176	336.62
872.42	337.62
872.663	329.62
872.906	371.62
873.15	332.62
873.393	285.62
873.636	371.62
873.879	378.62
874.122	387.62
874.366	324.62
874.609	373.62
874.852	320.62
875.095	357.62
875.337	315.62
875.58	271.62
875.823	352.62
876.066	359.62
876.309	408.62
876.551	301.62
876.794	296.62
877.037	367.62
877.279	295.62
877.522	329.62
877.764	355.62
878.007	306.62
878.249	347.62
878.491	306.62
878.734	378.62
878.976	349.62
879.218	302.62
879.46	387.62
879.702	386.62
879.945	370.62
880.187	335.62
880.429	379.62
880.671	365.62
880.912	386.62
881.154	368.62
881.396	278.62
881.638	367.62
881.88	354.62
882.121	321.62
882.363	333.62
882.605	391.62
882.846	360.62
883.088	368.62
883.329	332.62
883.571	298.62
883.812	308.62
884.053	329.62
884.295	334.62
884.536	410.62
884.777	339.62
885.018	359.62
885.259	373.62
885.5	295.62
885.742	514.62
885.982	360.62
886.223	313.62
886.464	342.62
886.705	298.62
886.946	348.62
887.187	279.62
887.428	380.62
887.668	321.62
887.909	313.62
888.15	297.62
888.39	363.62
888.631	403.62
888.871	378.62
889.111	363.62
889.352	368.62
889.592	339.62
889.833	341.62
890.073	340.62
890.313	424.62
890.553	312.62
890.793	336.62
891.033	313.62
891.273	334.62
891.513	347.62
891.753	397.62
891.993	348.62
892.233	368.62
892.473	405.62
892.713	367.62
892.952	322.62
893.192	350.62
893.432	336.62
893.671	370.62
893.911	339.62
894.15	336.62
894.39	288.62
894.629	332.62
894.869	364.62
895.108	358.62
895.347	313.62
895.587	378.62
895.826	324.62
896.065	313.62
896.304	373.62
896.543	390.62
896.782	291.62
897.021	363.62
897.26	339.62
897.499	386.62
897.738	396.62
897.977	350.62
898.216	354.62
898.454	345.62
898.693	321.62
898.932	378.62
899.17	341.62
899.409	353.62
899.647	358.62
899.886	333.62
900.124	366.62
900.363	320.62
900.601	355.62
900.839	346.62
901.078	345.62
901.316	349.62
901.554	345.62
901.792	360.62
902.03	308.62
902.268	336.62
902.506	377.62
902.744	332.62
902.982	397.62
903.22	324.62
903.458	337.62
903.695	373.62
903.933	389.62
904.171	333.62
904.409	336.62
904.646	388.62
904.884	337.62
905.121	409.62
905.359	397.62
905.596	395.62
905.833	325.62
906.071	338.62
906.308	406.62
906.545	370.62
906.783	325.62
907.02	359.62
907.257	312.62
907.494	339.62
907.731	363.62
907.968	379.62
908.205	331.62
908.442	335.62
908.679	368.62
908.915	343.62
909.152	377.62
909.389	310.62
909.626	340.62
909.862	341.62
910.099	362.62
910.335	395.62
910.572	304.62
910.808	366.62
911.045	351.62
911.281	329.62
911.518	415.62
911.754	342.62
911.99	374.62
912.226	349.62
912.463	337.62
912.699	356.62
912.935	337.62
913.171	352.62
913.407	328.62
913.643	391.62
913.879	371.62
914.114	353.62
914.35	343.62
914.586	365.62
914.822	343.62
915.057	445.62
915.293	306.62
915.529	321.62
915.764	411.62
916	399.62
916.235	389.62
916.471	404.62
916.706	306.62
916.941	353.62
917.177	336.62
917.412	388.62
917.647	402.62
917.882	339.62
918.117	404.62
918.352	374.62
918.588	445.62
918.823	366.62
919.057	368.62
919.292	290.62
919.527	421.62
919.762	375.62
919.997	437.62
920.232	377.62
920.466	415.62
920.701	303.62
920.935	372.62
921.17	367.62
921.405	329.62
921.639	403.62
921.873	378.62
922.108	395.62
922.342	406.62
922.576	339.62
922.811	345.62
923.045	414.62
923.279	428.62
923.513	308.62
923.747	413.62
923.981	384.62
924.215	356.62
924.449	369.62
924.683	335.62
924.917	353.62
925.151	364.62
925.385	430.62
925.618	388.62
925.852	392.62
926.086	330.62
926.319	372.62
926.553	381.62
926.786	373.62
927.02	372.62
927.253	409.62
927.486	419.62
927.72	337.62
927.953	411.62
928.186	359.62
928.42	398.62
928.653	350.62
928.886	345.62
929.119	396.62
929.352	369.62
929.585	395.62
929.818	356.62
930.051	395.62
930.284	416.62
930.516	343.62
930.749	363.62
930.982	425.62
931.215	418.62
931.447	339.62
931.68	371.62
931.912	357.62
932.145	366.62
932.377	380.62
932.61	489.62
932.842	313.62
933.074	402.62
933.307	367.62
933.539	440.62
933.771	407.62
934.003	363.62
934.236	448.62
934.468	450.62
934.7	361.62
934.932	405.62
935.164	361.62
935.395	343.62
935.627	375.62
935.859	398.62
936.091	335.62
936.323	408.62
936.554	441.62
936.786	389.62
937.017	340.62
937.249	413.62
937.481	319.62
937.712	420.62
937.943	387.62
938.175	373.62
938.406	376.62
938.637	437.62
938.869	346.62
939.1	406.62
939.331	369.62
939.562	420.62
939.793	401.62
940.024	424.62
940.255	442.62
940.486	406.62
940.717	398.62
940.948	396.62
941.179	361.62
941.409	382.62
941.64	381.62
941.871	389.62
942.102	363.62
942.332	375.62
942.563	413.62
942.793	410.62
943.024	354.62
943.254	401.62
943.484	428.62
943.715	428.62
943.945	400.62
944.175	340.62
944.405	310.62
944.636	341.62
944.866	396.62
945.096	408.62
945.326	328.62
945.556	415.62
945.786	430.62
946.016	394.62
946.245	342.62
946.475	379.62
946.705	375.62
946.935	391.62
947.164	399.62
947.394	366.62
947.624	389.62
947.853	443.62
948.083	422.62
948.312	385.62
948.542	333.62
948.771	343.62
949	346.62
949.23	370.62
949.459	378.62
949.688	442.62
949.917	402.62
950.146	418.62
950.375	444.62
950.604	350.62
950.833	446.62
951.062	448.62
951.291	387.62
951.52	366.62
951.749	394.62
951.978	369.62
952.206	364.62
952.435	367.62
952.664	424.62
952.892	431.62
953.121	401.62
953.349	449.62
953.578	426.62
953.806	412.62
954.035	365.62
954.263	409.62
954.491	385.62
954.719	429.62
954.948	383.62
955.176	387.62
955.404	334.62
955.632	402.62
955.86	415.62
956.088	417.62
956.316	438.62
956.544	462.62
956.772	416.62
956.999	400.62
957.227	485.62
957.455	386.62
957.683	442.62
957.91	404.62
958.138	414.62
958.365	391.62
958.593	405.62
958.82	361.62
959.048	441.62
959.275	411.62
959.502	410.62
959.73	381.62
959.957	413.62
960.184	435.62
960.411	397.62
960.638	467.62
960.865	416.62
961.092	441.62
961.319	364.62
961.546	453.62
961.773	462.62
962	421.62
962.227	478.62
962.454	443.62
962.68	426.62
962.907	458.62
963.134	399.62
963.36	452.62
963.587	474.62
963.813	402.62
964.04	473.62
964.266	418.62
964.493	509.62
964.719	481.62
964.945	483.62
965.171	400.62
965.398	466.62
965.624	479.62
965.85	429.62
966.076	430.62
966.302	481.62
966.528	447.62
966.754	465.62
966.98	481.62
967.206	484.62
967.431	416.62
967.657	508.62
967.883	488.62
968.109	484.62
968.334	436.62
968.56	420.62
968.785	443.62
969.011	423.62
969.236	478.62
969.462	416.62
969.687	447.62
969.912	488.62
970.138	528.62
970.363	431.62
970.588	476.62
970.813	453.62
971.038	446.62
971.263	472.62
971.488	456.62
971.713	510.62
971.938	509.62
972.163	426.62
972.388	457.62
972.613	437.62
972.838	467.62
973.062	457.62
973.287	455.62
973.512	399.62
973.736	473.62
973.961	449.62
974.185	446.62
974.41	477.62
974.634	399.62
974.858	417.62
975.083	475.62
975.307	507.62
975.531	433.62
975.755	397.62
975.98	424.62
976.204	375.62
976.428	391.62
976.652	409.62
976.876	390.62
977.1	438.62
977.324	409.62
977.547	457.62
977.771	482.62
977.995	451.62
978.219	384.62
978.442	513.62
978.666	449.62
978.89	461.62
979.113	445.62
979.337	440.62
979.56	430.62
979.783	506.62
980.007	410.62
980.23	438.62
980.453	414.62
980.677	454.62
980.9	441.62
981.123	361.62
981.346	479.62
981.569	456.62
981.792	499.62
982.015	448.62
982.238	425.62
982.461	445.62
982.684	441.62
982.907	424.62
983.129	423.62
983.352	492.62
983.575	484.62
983.797	481.62
984.02	443.62
984.242	438.62
984.465	466.62
984.687	474.62
984.91	504.62
985.132	484.62
985.354	502.62
985.577	482.62
985.799	473.62
986.021	413.62
986.243	434.62
986.465	450.62
986.687	530.62
986.909	554.62
987.131	500.62
987.353	478.62
987.575	511.62
987.797	473.62
988.019	432.62
988.241	481.62
988.462	435.62
988.684	503.62
988.906	543.62
989.127	571.62
989.349	446.62
989.57	472.62
989.792	519.62
990.013	552.62
990.234	547.62
990.456	579.62
990.677	564.62
990.898	502.62
991.119	510.62
991.341	542.62
991.562	481.62
991.783	539.62
992.004	479.62
992.225	452.62
992.446	529.62
992.667	450.62
992.887	556.62
993.108	449.62
993.329	587.62
993.55	526.62
993.77	482.62
993.991	489.62
994.212	542.62
994.432	527.62
994.653	542.62
994.873	547.62
995.093	432.62
995.314	498.62
995.534	559.62
995.754	576.62
995.975	614.62
996.195	499.62
996.415	553.62
996.635	532.62
996.855	536.62
997.075	530.62
997.295	524.62
997.515	511.62
997.735	560.62
997.955	530.62
998.174	524.62
998.394	487.62
998.614	555.62
998.834	509.62
999.053	599.62
999.273	577.62
999.492	631.62
999.712	562.62
999.931	519.62
1000.151	593.62
1000.37	571.62
1000.589	637.62
1000.809	565.62
1001.028	682.62
1001.247	620.62
1001.466	547.62
1001.685	695.62
1001.904	634.62
1002.123	625.62
1002.342	624.62
1002.561	604.62
1002.78	628.62
1002.999	684.62
1003.218	638.62
1003.436	629.62
1003.655	681.62
1003.874	632.62
1004.092	656.62
1004.311	694.62
1004.53	649.62
1004.748	719.62
1004.966	668.62
1005.185	721.62
1005.403	693.62
1005.622	687.62
1005.84	755.62
1006.058	653.62
1006.276	690.62
1006.494	1169.62
1006.712	684.62
1006.931	735.62
1007.149	651.62
1007.367	649.62
1007.584	688.62
1007.802	719.62
1008.02	650.62
1008.238	738.62
1008.456	714.62
1008.673	588.62
1008.891	679.62
1009.109	641.62
1009.326	645.62
1009.544	722.62
1009.761	600.62
1009.979	668.62
1010.196	616.62
1010.413	682.62
1010.631	674.62
1010.848	673.62
1011.065	669.62
1011.282	597.62
1011.5	548.62
1011.717	681.62
1011.934	626.62
1012.151	652.62
1012.368	653.62
1012.585	605.62
1012.801	646.62
1013.018	627.62
1013.235	582.62
1013.452	586.62
1013.669	594.62
1013.885	561.62
1014.102	604.62
1014.318	559.62
1014.535	539.62
1014.751	557.62
1014.968	577.62
1015.184	617.62
1015.401	538.62
1015.617	577.62
1015.833	546.62
1016.049	553.62
1016.266	541.62
1016.482	554.62
1016.698	489.62
1016.914	573.62
1017.13	517.62
1017.346	507.62
1017.562	588.62
1017.778	526.62
1017.993	508.62
1018.209	548.62
1018.425	518.62
1018.641	486.62
1018.856	474.62
1019.072	508.62
1019.288	560.62
1019.503	505.62
1019.719	422.62
1019.934	463.62
1020.149	547.62
1020.365	507.62
1020.58	463.62
1020.795	544.62
1021.011	482.62
1021.226	495.62
1021.441	534.62
1021.656	483.62
1021.871	457.62
1022.086	483.62
1022.301	464.62
1022.516	484.62
1022.731	524.62
1022.946	464.62
1023.16	469.62
1023.375	443.62
1023.59	450.62
1023.804	429.62
1024.019	554.62
1024.234	418.62
1024.448	470.62
1024.663	401.62
1024.877	443.62
1025.092	463.62
1025.306	496.62
1025.52	404.62
1025.734	523.62
1025.949	442.62
1026.163	441.62
1026.377	391.62
1026.591	448.62
1026.805	378.62
1027.019	395.62
1027.233	343.62
1027.447	328.62
1027.661	419.62
1027.875	386.62
1028.088	388.62
1028.302	341.62
1028.516	337.62
1028.73	356.62
1028.943	352.62
1029.157	340.62
1029.37	302.62
1029.584	-6.38
1029.797	1.62
1030.011	-1.38
1030.224	-1.38
