Data from QEP037381__53__10-21-01-067.txt Node

Date: Fri Apr 21 10:21:01 EDT 2023
User: dcclab
Spectrometer: QEP03738
Trigger mode: 4
Integration Time (sec): 1.000000E1
Scans to average: 1
Electric dark correction enabled: true
Nonlinearity correction enabled: false
Boxcar width: 0
XAxis mode: Wavelengths
Number of Pixels in Spectrum: 1044
>>>>>Begin Spectral Data<<<<<
784.041	11.25
784.3	0.25
784.558	-2.75
784.817	-3.75
785.075	228.25
785.334	202.25
785.592	212.25
785.851	190.25
786.109	215.25
786.368	242.25
786.626	264.25
786.884	272.25
787.143	265.25
787.401	210.25
787.659	271.25
787.917	257.25
788.175	293.25
788.433	276.25
788.691	258.25
788.949	278.25
789.207	310.25
789.465	257.25
789.723	265.25
789.98	246.25
790.238	318.25
790.496	306.25
790.753	286.25
791.011	359.25
791.268	313.25
791.526	299.25
791.783	336.25
792.041	317.25
792.298	245.25
792.556	329.25
792.813	319.25
793.07	299.25
793.327	285.25
793.584	373.25
793.841	289.25
794.099	325.25
794.356	379.25
794.613	293.25
794.869	341.25
795.126	292.25
795.383	290.25
795.64	317.25
795.897	275.25
796.153	315.25
796.41	314.25
796.667	282.25
796.923	309.25
797.18	298.25
797.436	329.25
797.693	292.25
797.949	343.25
798.206	358.25
798.462	274.25
798.718	329.25
798.974	302.25
799.231	340.25
799.487	329.25
799.743	331.25
799.999	336.25
800.255	331.25
800.511	304.25
800.767	333.25
801.023	313.25
801.279	320.25
801.534	331.25
801.79	337.25
802.046	294.25
802.302	362.25
802.557	328.25
802.813	355.25
803.068	284.25
803.324	345.25
803.579	309.25
803.835	302.25
804.09	346.25
804.345	304.25
804.601	260.25
804.856	302.25
805.111	316.25
805.366	315.25
805.621	321.25
805.876	319.25
806.131	313.25
806.386	298.25
806.641	278.25
806.896	306.25
807.151	368.25
807.406	315.25
807.661	332.25
807.915	316.25
808.17	332.25
808.425	333.25
808.679	281.25
808.934	385.25
809.188	298.25
809.443	347.25
809.697	356.25
809.951	297.25
810.206	297.25
810.46	360.25
810.714	332.25
810.968	358.25
811.223	276.25
811.477	317.25
811.731	335.25
811.985	268.25
812.239	240.25
812.493	275.25
812.747	313.25
813	266.25
813.254	321.25
813.508	339.25
813.762	300.25
814.015	307.25
814.269	311.25
814.522	333.25
814.776	332.25
815.03	328.25
815.283	323.25
815.536	333.25
815.79	325.25
816.043	331.25
816.296	334.25
816.55	314.25
816.803	319.25
817.056	412.25
817.309	339.25
817.562	323.25
817.815	358.25
818.068	284.25
818.321	295.25
818.574	280.25
818.827	343.25
819.079	286.25
819.332	418.25
819.585	324.25
819.838	392.25
820.09	302.25
820.343	368.25
820.595	283.25
820.848	338.25
821.1	343.25
821.353	330.25
821.605	320.25
821.857	376.25
822.11	280.25
822.362	307.25
822.614	294.25
822.866	321.25
823.118	262.25
823.37	361.25
823.622	315.25
823.874	300.25
824.126	341.25
824.378	275.25
824.63	309.25
824.882	330.25
825.134	292.25
825.385	353.25
825.637	316.25
825.888	314.25
826.14	329.25
826.392	295.25
826.643	286.25
826.895	384.25
827.146	317.25
827.397	299.25
827.649	386.25
827.9	298.25
828.151	269.25
828.402	281.25
828.653	314.25
828.905	328.25
829.156	377.25
829.407	294.25
829.658	319.25
829.909	356.25
830.159	337.25
830.41	342.25
830.661	348.25
830.912	343.25
831.162	318.25
831.413	376.25
831.664	367.25
831.914	332.25
832.165	329.25
832.415	339.25
832.666	333.25
832.916	348.25
833.167	313.25
833.417	375.25
833.667	347.25
833.917	328.25
834.168	386.25
834.418	350.25
834.668	328.25
834.918	272.25
835.168	305.25
835.418	263.25
835.668	313.25
835.918	365.25
836.167	336.25
836.417	291.25
836.667	367.25
836.917	364.25
837.166	322.25
837.416	354.25
837.666	379.25
837.915	330.25
838.165	346.25
838.414	308.25
838.663	274.25
838.913	341.25
839.162	300.25
839.411	391.25
839.661	300.25
839.91	327.25
840.159	310.25
840.408	326.25
840.657	327.25
840.906	338.25
841.155	364.25
841.404	308.25
841.653	327.25
841.902	300.25
842.15	346.25
842.399	340.25
842.648	317.25
842.897	346.25
843.145	281.25
843.394	305.25
843.642	310.25
843.891	367.25
844.139	336.25
844.388	299.25
844.636	263.25
844.884	318.25
845.133	297.25
845.381	320.25
845.629	340.25
845.877	290.25
846.125	307.25
846.373	336.25
846.621	296.25
846.869	347.25
847.117	328.25
847.365	320.25
847.613	342.25
847.861	342.25
848.108	377.25
848.356	344.25
848.604	312.25
848.851	331.25
849.099	337.25
849.346	320.25
849.594	346.25
849.841	351.25
850.089	320.25
850.336	297.25
850.583	308.25
850.831	319.25
851.078	335.25
851.325	299.25
851.572	356.25
851.819	363.25
852.066	318.25
852.313	326.25
852.56	294.25
852.807	284.25
853.054	284.25
853.301	319.25
853.548	317.25
853.794	401.25
854.041	327.25
854.288	273.25
854.534	403.25
854.781	319.25
855.028	308.25
855.274	386.25
855.52	329.25
855.767	298.25
856.013	349.25
856.26	631.25
856.506	307.25
856.752	365.25
856.998	317.25
857.244	303.25
857.49	343.25
857.736	341.25
857.982	341.25
858.228	349.25
858.474	296.25
858.72	319.25
858.966	340.25
859.212	339.25
859.458	344.25
859.703	355.25
859.949	301.25
860.195	370.25
860.44	379.25
860.686	330.25
860.931	382.25
861.177	321.25
861.422	381.25
861.667	315.25
861.913	333.25
862.158	335.25
862.403	373.25
862.648	364.25
862.893	384.25
863.138	337.25
863.384	304.25
863.629	354.25
863.873	351.25
864.118	327.25
864.363	268.25
864.608	350.25
864.853	368.25
865.098	336.25
865.342	354.25
865.587	326.25
865.832	371.25
866.076	364.25
866.321	330.25
866.565	336.25
866.81	270.25
867.054	338.25
867.298	355.25
867.543	309.25
867.787	370.25
868.031	326.25
868.275	346.25
868.519	322.25
868.764	343.25
869.008	332.25
869.252	370.25
869.496	330.25
869.739	346.25
869.983	387.25
870.227	363.25
870.471	322.25
870.715	351.25
870.958	341.25
871.202	329.25
871.446	336.25
871.689	313.25
871.933	337.25
872.176	324.25
872.42	322.25
872.663	324.25
872.906	360.25
873.15	339.25
873.393	283.25
873.636	380.25
873.879	364.25
874.122	396.25
874.366	336.25
874.609	371.25
874.852	332.25
875.095	355.25
875.337	321.25
875.58	274.25
875.823	342.25
876.066	374.25
876.309	404.25
876.551	304.25
876.794	293.25
877.037	369.25
877.279	307.25
877.522	314.25
877.764	361.25
878.007	321.25
878.249	355.25
878.491	301.25
878.734	363.25
878.976	364.25
879.218	304.25
879.46	398.25
879.702	389.25
879.945	356.25
880.187	344.25
880.429	372.25
880.671	363.25
880.912	378.25
881.154	366.25
881.396	282.25
881.638	347.25
881.88	354.25
882.121	314.25
882.363	333.25
882.605	397.25
882.846	356.25
883.088	382.25
883.329	318.25
883.571	291.25
883.812	313.25
884.053	323.25
884.295	319.25
884.536	401.25
884.777	316.25
885.018	348.25
885.259	366.25
885.5	303.25
885.742	508.25
885.982	366.25
886.223	317.25
886.464	327.25
886.705	296.25
886.946	337.25
887.187	283.25
887.428	380.25
887.668	311.25
887.909	315.25
888.15	307.25
888.39	356.25
888.631	394.25
888.871	372.25
889.111	358.25
889.352	356.25
889.592	330.25
889.833	345.25
890.073	367.25
890.313	403.25
890.553	307.25
890.793	346.25
891.033	322.25
891.273	323.25
891.513	353.25
891.753	417.25
891.993	352.25
892.233	373.25
892.473	434.25
892.713	354.25
892.952	314.25
893.192	366.25
893.432	327.25
893.671	375.25
893.911	344.25
894.15	353.25
894.39	304.25
894.629	345.25
894.869	367.25
895.108	349.25
895.347	331.25
895.587	372.25
895.826	335.25
896.065	318.25
896.304	352.25
896.543	394.25
896.782	295.25
897.021	365.25
897.26	339.25
897.499	387.25
897.738	412.25
897.977	375.25
898.216	348.25
898.454	357.25
898.693	340.25
898.932	382.25
899.17	355.25
899.409	353.25
899.647	352.25
899.886	330.25
900.124	373.25
900.363	312.25
900.601	360.25
900.839	359.25
901.078	350.25
901.316	350.25
901.554	343.25
901.792	372.25
902.03	290.25
902.268	336.25
902.506	386.25
902.744	343.25
902.982	393.25
903.22	315.25
903.458	333.25
903.695	381.25
903.933	390.25
904.171	329.25
904.409	346.25
904.646	378.25
904.884	335.25
905.121	413.25
905.359	383.25
905.596	379.25
905.833	332.25
906.071	356.25
906.308	391.25
906.545	372.25
906.783	330.25
907.02	346.25
907.257	307.25
907.494	339.25
907.731	361.25
907.968	375.25
908.205	332.25
908.442	331.25
908.679	370.25
908.915	359.25
909.152	367.25
909.389	301.25
909.626	340.25
909.862	336.25
910.099	353.25
910.335	391.25
910.572	317.25
910.808	374.25
911.045	348.25
911.281	324.25
911.518	407.25
911.754	354.25
911.99	372.25
912.226	342.25
912.463	328.25
912.699	333.25
912.935	356.25
913.171	342.25
913.407	324.25
913.643	394.25
913.879	365.25
914.114	371.25
914.35	346.25
914.586	357.25
914.822	326.25
915.057	433.25
915.293	319.25
915.529	334.25
915.764	407.25
916	392.25
916.235	369.25
916.471	396.25
916.706	312.25
916.941	350.25
917.177	347.25
917.412	390.25
917.647	375.25
917.882	340.25
918.117	409.25
918.352	374.25
918.588	416.25
918.823	357.25
919.057	368.25
919.292	295.25
919.527	421.25
919.762	357.25
919.997	427.25
920.232	379.25
920.466	421.25
920.701	319.25
920.935	401.25
921.17	357.25
921.405	330.25
921.639	406.25
921.873	361.25
922.108	393.25
922.342	393.25
922.576	331.25
922.811	349.25
923.045	409.25
923.279	429.25
923.513	319.25
923.747	410.25
923.981	391.25
924.215	371.25
924.449	376.25
924.683	332.25
924.917	358.25
925.151	351.25
925.385	431.25
925.618	404.25
925.852	395.25
926.086	339.25
926.319	388.25
926.553	367.25
926.786	397.25
927.02	362.25
927.253	418.25
927.486	424.25
927.72	337.25
927.953	404.25
928.186	359.25
928.42	405.25
928.653	346.25
928.886	349.25
929.119	406.25
929.352	382.25
929.585	390.25
929.818	364.25
930.051	394.25
930.284	404.25
930.516	337.25
930.749	363.25
930.982	413.25
931.215	397.25
931.447	348.25
931.68	370.25
931.912	354.25
932.145	370.25
932.377	388.25
932.61	503.25
932.842	318.25
933.074	386.25
933.307	326.25
933.539	439.25
933.771	420.25
934.003	361.25
934.236	446.25
934.468	439.25
934.7	369.25
934.932	409.25
935.164	359.25
935.395	364.25
935.627	396.25
935.859	410.25
936.091	343.25
936.323	412.25
936.554	441.25
936.786	393.25
937.017	344.25
937.249	401.25
937.481	336.25
937.712	410.25
937.943	389.25
938.175	386.25
938.406	365.25
938.637	448.25
938.869	338.25
939.1	418.25
939.331	369.25
939.562	413.25
939.793	399.25
940.024	431.25
940.255	439.25
940.486	389.25
940.717	391.25
940.948	390.25
941.179	361.25
941.409	387.25
941.64	370.25
941.871	400.25
942.102	368.25
942.332	371.25
942.563	418.25
942.793	393.25
943.024	347.25
943.254	376.25
943.484	421.25
943.715	422.25
943.945	411.25
944.175	357.25
944.405	324.25
944.636	343.25
944.866	375.25
945.096	399.25
945.326	329.25
945.556	399.25
945.786	425.25
946.016	380.25
946.245	349.25
946.475	373.25
946.705	383.25
946.935	394.25
947.164	413.25
947.394	378.25
947.624	394.25
947.853	440.25
948.083	412.25
948.312	399.25
948.542	337.25
948.771	337.25
949	352.25
949.23	369.25
949.459	382.25
949.688	455.25
949.917	396.25
950.146	395.25
950.375	454.25
950.604	353.25
950.833	455.25
951.062	437.25
951.291	394.25
951.52	377.25
951.749	392.25
951.978	346.25
952.206	380.25
952.435	366.25
952.664	419.25
952.892	428.25
953.121	409.25
953.349	447.25
953.578	441.25
953.806	405.25
954.035	378.25
954.263	410.25
954.491	380.25
954.719	441.25
954.948	381.25
955.176	391.25
955.404	331.25
955.632	395.25
955.86	414.25
956.088	401.25
956.316	454.25
956.544	451.25
956.772	406.25
956.999	404.25
957.227	491.25
957.455	398.25
957.683	436.25
957.91	397.25
958.138	385.25
958.365	400.25
958.593	400.25
958.82	369.25
959.048	425.25
959.275	411.25
959.502	417.25
959.73	385.25
959.957	428.25
960.184	441.25
960.411	395.25
960.638	488.25
960.865	403.25
961.092	459.25
961.319	357.25
961.546	459.25
961.773	460.25
962	417.25
962.227	466.25
962.454	439.25
962.68	427.25
962.907	460.25
963.134	418.25
963.36	447.25
963.587	473.25
963.813	415.25
964.04	483.25
964.266	416.25
964.493	499.25
964.719	478.25
964.945	497.25
965.171	391.25
965.398	476.25
965.624	489.25
965.85	420.25
966.076	435.25
966.302	497.25
966.528	447.25
966.754	486.25
966.98	480.25
967.206	477.25
967.431	410.25
967.657	521.25
967.883	490.25
968.109	474.25
968.334	437.25
968.56	428.25
968.785	443.25
969.011	415.25
969.236	476.25
969.462	430.25
969.687	454.25
969.912	479.25
970.138	514.25
970.363	430.25
970.588	478.25
970.813	464.25
971.038	444.25
971.263	475.25
971.488	483.25
971.713	528.25
971.938	509.25
972.163	421.25
972.388	457.25
972.613	454.25
972.838	444.25
973.062	454.25
973.287	462.25
973.512	411.25
973.736	460.25
973.961	457.25
974.185	423.25
974.41	492.25
974.634	396.25
974.858	430.25
975.083	481.25
975.307	503.25
975.531	439.25
975.755	406.25
975.98	425.25
976.204	385.25
976.428	400.25
976.652	414.25
976.876	394.25
977.1	433.25
977.324	408.25
977.547	448.25
977.771	478.25
977.995	445.25
978.219	396.25
978.442	513.25
978.666	444.25
978.89	429.25
979.113	451.25
979.337	440.25
979.56	422.25
979.783	497.25
980.007	405.25
980.23	452.25
980.453	432.25
980.677	467.25
980.9	452.25
981.123	374.25
981.346	487.25
981.569	469.25
981.792	485.25
982.015	445.25
982.238	435.25
982.461	470.25
982.684	426.25
982.907	415.25
983.129	422.25
983.352	474.25
983.575	476.25
983.797	476.25
984.02	421.25
984.242	446.25
984.465	471.25
984.687	492.25
984.91	520.25
985.132	493.25
985.354	512.25
985.577	492.25
985.799	489.25
986.021	412.25
986.243	444.25
986.465	479.25
986.687	529.25
986.909	558.25
987.131	506.25
987.353	482.25
987.575	511.25
987.797	483.25
988.019	415.25
988.241	487.25
988.462	453.25
988.684	516.25
988.906	541.25
989.127	568.25
989.349	456.25
989.57	481.25
989.792	515.25
990.013	556.25
990.234	550.25
990.456	588.25
990.677	547.25
990.898	499.25
991.119	513.25
991.341	540.25
991.562	481.25
991.783	535.25
992.004	470.25
992.225	468.25
992.446	540.25
992.667	452.25
992.887	526.25
993.108	437.25
993.329	577.25
993.55	528.25
993.77	469.25
993.991	509.25
994.212	534.25
994.432	524.25
994.653	534.25
994.873	543.25
995.093	437.25
995.314	486.25
995.534	562.25
995.754	582.25
995.975	592.25
996.195	498.25
996.415	549.25
996.635	542.25
996.855	556.25
997.075	522.25
997.295	511.25
997.515	507.25
997.735	557.25
997.955	529.25
998.174	539.25
998.394	513.25
998.614	562.25
998.834	520.25
999.053	602.25
999.273	562.25
999.492	627.25
999.712	568.25
999.931	540.25
1000.151	594.25
1000.37	583.25
1000.589	623.25
1000.809	562.25
1001.028	705.25
1001.247	644.25
1001.466	551.25
1001.685	685.25
1001.904	632.25
1002.123	601.25
1002.342	639.25
1002.561	615.25
1002.78	628.25
1002.999	712.25
1003.218	647.25
1003.436	622.25
1003.655	682.25
1003.874	617.25
1004.092	649.25
1004.311	693.25
1004.53	663.25
1004.748	743.25
1004.966	678.25
1005.185	719.25
1005.403	707.25
1005.622	678.25
1005.84	753.25
1006.058	651.25
1006.276	686.25
1006.494	1165.25
1006.712	674.25
1006.931	724.25
1007.149	644.25
1007.367	661.25
1007.584	699.25
1007.802	698.25
1008.02	658.25
1008.238	743.25
1008.456	727.25
1008.673	582.25
1008.891	686.25
1009.109	623.25
1009.326	658.25
1009.544	706.25
1009.761	595.25
1009.979	648.25
1010.196	629.25
1010.413	665.25
1010.631	689.25
1010.848	685.25
1011.065	676.25
1011.282	624.25
1011.5	554.25
1011.717	677.25
1011.934	622.25
1012.151	680.25
1012.368	649.25
1012.585	608.25
1012.801	652.25
1013.018	614.25
1013.235	575.25
1013.452	599.25
1013.669	588.25
1013.885	587.25
1014.102	610.25
1014.318	557.25
1014.535	541.25
1014.751	580.25
1014.968	568.25
1015.184	599.25
1015.401	526.25
1015.617	578.25
1015.833	521.25
1016.049	554.25
1016.266	527.25
1016.482	548.25
1016.698	489.25
1016.914	558.25
1017.13	520.25
1017.346	514.25
1017.562	593.25
1017.778	520.25
1017.993	485.25
1018.209	573.25
1018.425	532.25
1018.641	505.25
1018.856	477.25
1019.072	507.25
1019.288	543.25
1019.503	505.25
1019.719	425.25
1019.934	456.25
1020.149	543.25
1020.365	486.25
1020.58	466.25
1020.795	531.25
1021.011	487.25
1021.226	487.25
1021.441	534.25
1021.656	488.25
1021.871	448.25
1022.086	453.25
1022.301	465.25
1022.516	484.25
1022.731	527.25
1022.946	474.25
1023.16	466.25
1023.375	444.25
1023.59	448.25
1023.804	450.25
1024.019	543.25
1024.234	423.25
1024.448	466.25
1024.663	412.25
1024.877	447.25
1025.092	475.25
1025.306	497.25
1025.52	411.25
1025.734	503.25
1025.949	445.25
1026.163	427.25
1026.377	370.25
1026.591	440.25
1026.805	384.25
1027.019	390.25
1027.233	360.25
1027.447	315.25
1027.661	411.25
1027.875	375.25
1028.088	376.25
1028.302	336.25
1028.516	336.25
1028.73	367.25
1028.943	355.25
1029.157	328.25
1029.37	314.25
1029.584	-1.75
1029.797	0.25
1030.011	-4.75
1030.224	1.25
