Data from QEP037381__14__10-14-31-056.txt Node

Date: Fri Apr 21 10:14:31 EDT 2023
User: dcclab
Spectrometer: QEP03738
Trigger mode: 4
Integration Time (sec): 1.000000E1
Scans to average: 1
Electric dark correction enabled: true
Nonlinearity correction enabled: false
Boxcar width: 0
XAxis mode: Wavelengths
Number of Pixels in Spectrum: 1044
>>>>>Begin Spectral Data<<<<<
784.041	13.12
784.3	-1.88
784.558	-0.88
784.817	-3.88
785.075	240.12
785.334	208.12
785.592	214.12
785.851	199.12
786.109	233.12
786.368	246.12
786.626	250.12
786.884	272.12
787.143	273.12
787.401	220.12
787.659	277.12
787.917	256.12
788.175	287.12
788.433	274.12
788.691	272.12
788.949	281.12
789.207	301.12
789.465	253.12
789.723	276.12
789.98	264.12
790.238	309.12
790.496	304.12
790.753	295.12
791.011	350.12
791.268	314.12
791.526	298.12
791.783	330.12
792.041	326.12
792.298	247.12
792.556	323.12
792.813	304.12
793.07	311.12
793.327	293.12
793.584	382.12
793.841	312.12
794.099	334.12
794.356	374.12
794.613	292.12
794.869	331.12
795.126	297.12
795.383	286.12
795.64	313.12
795.897	265.12
796.153	319.12
796.41	296.12
796.667	298.12
796.923	292.12
797.18	304.12
797.436	327.12
797.693	296.12
797.949	337.12
798.206	371.12
798.462	274.12
798.718	338.12
798.974	286.12
799.231	341.12
799.487	327.12
799.743	328.12
799.999	344.12
800.255	323.12
800.511	306.12
800.767	340.12
801.023	308.12
801.279	323.12
801.534	328.12
801.79	326.12
802.046	302.12
802.302	356.12
802.557	335.12
802.813	338.12
803.068	297.12
803.324	340.12
803.579	312.12
803.835	296.12
804.09	342.12
804.345	295.12
804.601	268.12
804.856	318.12
805.111	331.12
805.366	318.12
805.621	312.12
805.876	323.12
806.131	342.12
806.386	304.12
806.641	284.12
806.896	299.12
807.151	374.12
807.406	326.12
807.661	344.12
807.915	322.12
808.17	331.12
808.425	340.12
808.679	273.12
808.934	376.12
809.188	321.12
809.443	341.12
809.697	370.12
809.951	304.12
810.206	323.12
810.46	363.12
810.714	352.12
810.968	367.12
811.223	277.12
811.477	337.12
811.731	354.12
811.985	288.12
812.239	251.12
812.493	288.12
812.747	321.12
813	267.12
813.254	320.12
813.508	344.12
813.762	305.12
814.015	290.12
814.269	320.12
814.522	335.12
814.776	345.12
815.03	339.12
815.283	335.12
815.536	346.12
815.79	343.12
816.043	341.12
816.296	323.12
816.55	319.12
816.803	328.12
817.056	407.12
817.309	348.12
817.562	346.12
817.815	364.12
818.068	287.12
818.321	299.12
818.574	295.12
818.827	348.12
819.079	299.12
819.332	426.12
819.585	338.12
819.838	386.12
820.09	320.12
820.343	367.12
820.595	287.12
820.848	327.12
821.1	349.12
821.353	320.12
821.605	319.12
821.857	378.12
822.11	289.12
822.362	302.12
822.614	278.12
822.866	326.12
823.118	270.12
823.37	393.12
823.622	317.12
823.874	311.12
824.126	356.12
824.378	284.12
824.63	315.12
824.882	328.12
825.134	311.12
825.385	349.12
825.637	324.12
825.888	312.12
826.14	329.12
826.392	303.12
826.643	287.12
826.895	390.12
827.146	315.12
827.397	302.12
827.649	386.12
827.9	312.12
828.151	279.12
828.402	293.12
828.653	325.12
828.905	326.12
829.156	376.12
829.407	295.12
829.658	323.12
829.909	366.12
830.159	340.12
830.41	343.12
830.661	363.12
830.912	340.12
831.162	313.12
831.413	314.12
831.664	348.12
831.914	334.12
832.165	340.12
832.415	345.12
832.666	347.12
832.916	364.12
833.167	314.12
833.417	379.12
833.667	352.12
833.917	331.12
834.168	395.12
834.418	354.12
834.668	326.12
834.918	298.12
835.168	301.12
835.418	269.12
835.668	326.12
835.918	367.12
836.167	346.12
836.417	301.12
836.667	368.12
836.917	384.12
837.166	321.12
837.416	373.12
837.666	371.12
837.915	332.12
838.165	355.12
838.414	302.12
838.663	269.12
838.913	345.12
839.162	294.12
839.411	396.12
839.661	311.12
839.91	336.12
840.159	317.12
840.408	337.12
840.657	321.12
840.906	338.12
841.155	369.12
841.404	329.12
841.653	344.12
841.902	304.12
842.15	351.12
842.399	352.12
842.648	313.12
842.897	355.12
843.145	284.12
843.394	308.12
843.642	313.12
843.891	363.12
844.139	346.12
844.388	287.12
844.636	267.12
844.884	328.12
845.133	300.12
845.381	339.12
845.629	363.12
845.877	294.12
846.125	313.12
846.373	321.12
846.621	302.12
846.869	368.12
847.117	333.12
847.365	315.12
847.613	348.12
847.861	340.12
848.108	380.12
848.356	354.12
848.604	305.12
848.851	349.12
849.099	337.12
849.346	320.12
849.594	346.12
849.841	358.12
850.089	312.12
850.336	292.12
850.583	306.12
850.831	331.12
851.078	335.12
851.325	301.12
851.572	368.12
851.819	357.12
852.066	325.12
852.313	322.12
852.56	292.12
852.807	292.12
853.054	299.12
853.301	331.12
853.548	322.12
853.794	404.12
854.041	343.12
854.288	281.12
854.534	406.12
854.781	318.12
855.028	301.12
855.274	386.12
855.52	325.12
855.767	301.12
856.013	365.12
856.26	637.12
856.506	308.12
856.752	359.12
856.998	338.12
857.244	312.12
857.49	347.12
857.736	348.12
857.982	350.12
858.228	348.12
858.474	299.12
858.72	338.12
858.966	364.12
859.212	336.12
859.458	328.12
859.703	350.12
859.949	315.12
860.195	359.12
860.44	357.12
860.686	321.12
860.931	395.12
861.177	325.12
861.422	386.12
861.667	332.12
861.913	338.12
862.158	324.12
862.403	372.12
862.648	367.12
862.893	382.12
863.138	339.12
863.384	302.12
863.629	362.12
863.873	356.12
864.118	331.12
864.363	271.12
864.608	353.12
864.853	369.12
865.098	326.12
865.342	364.12
865.587	336.12
865.832	375.12
866.076	365.12
866.321	317.12
866.565	339.12
866.81	281.12
867.054	335.12
867.298	348.12
867.543	308.12
867.787	364.12
868.031	344.12
868.275	356.12
868.519	332.12
868.764	328.12
869.008	325.12
869.252	385.12
869.496	337.12
869.739	348.12
869.983	397.12
870.227	363.12
870.471	314.12
870.715	358.12
870.958	359.12
871.202	324.12
871.446	330.12
871.689	315.12
871.933	338.12
872.176	345.12
872.42	325.12
872.663	327.12
872.906	388.12
873.15	345.12
873.393	288.12
873.636	383.12
873.879	373.12
874.122	389.12
874.366	346.12
874.609	380.12
874.852	354.12
875.095	360.12
875.337	316.12
875.58	281.12
875.823	350.12
876.066	367.12
876.309	403.12
876.551	311.12
876.794	297.12
877.037	362.12
877.279	302.12
877.522	328.12
877.764	352.12
878.007	327.12
878.249	357.12
878.491	301.12
878.734	368.12
878.976	356.12
879.218	306.12
879.46	407.12
879.702	379.12
879.945	361.12
880.187	336.12
880.429	378.12
880.671	377.12
880.912	387.12
881.154	366.12
881.396	285.12
881.638	358.12
881.88	349.12
882.121	319.12
882.363	344.12
882.605	410.12
882.846	373.12
883.088	380.12
883.329	323.12
883.571	306.12
883.812	313.12
884.053	327.12
884.295	329.12
884.536	413.12
884.777	334.12
885.018	351.12
885.259	359.12
885.5	303.12
885.742	517.12
885.982	364.12
886.223	315.12
886.464	334.12
886.705	309.12
886.946	341.12
887.187	275.12
887.428	384.12
887.668	322.12
887.909	302.12
888.15	301.12
888.39	369.12
888.631	414.12
888.871	378.12
889.111	366.12
889.352	372.12
889.592	331.12
889.833	354.12
890.073	355.12
890.313	410.12
890.553	313.12
890.793	343.12
891.033	320.12
891.273	332.12
891.513	361.12
891.753	419.12
891.993	357.12
892.233	372.12
892.473	422.12
892.713	351.12
892.952	313.12
893.192	358.12
893.432	332.12
893.671	382.12
893.911	338.12
894.15	348.12
894.39	302.12
894.629	337.12
894.869	356.12
895.108	355.12
895.347	321.12
895.587	365.12
895.826	330.12
896.065	320.12
896.304	354.12
896.543	391.12
896.782	298.12
897.021	353.12
897.26	354.12
897.499	405.12
897.738	410.12
897.977	357.12
898.216	356.12
898.454	354.12
898.693	335.12
898.932	371.12
899.17	355.12
899.409	364.12
899.647	357.12
899.886	332.12
900.124	348.12
900.363	321.12
900.601	372.12
900.839	348.12
901.078	359.12
901.316	355.12
901.554	355.12
901.792	364.12
902.03	303.12
902.268	343.12
902.506	378.12
902.744	344.12
902.982	395.12
903.22	323.12
903.458	339.12
903.695	377.12
903.933	386.12
904.171	340.12
904.409	349.12
904.646	396.12
904.884	341.12
905.121	408.12
905.359	373.12
905.596	393.12
905.833	340.12
906.071	342.12
906.308	408.12
906.545	376.12
906.783	327.12
907.02	335.12
907.257	315.12
907.494	350.12
907.731	355.12
907.968	383.12
908.205	345.12
908.442	342.12
908.679	359.12
908.915	348.12
909.152	382.12
909.389	298.12
909.626	341.12
909.862	336.12
910.099	378.12
910.335	406.12
910.572	309.12
910.808	366.12
911.045	339.12
911.281	340.12
911.518	404.12
911.754	343.12
911.99	356.12
912.226	354.12
912.463	316.12
912.699	343.12
912.935	346.12
913.171	360.12
913.407	338.12
913.643	405.12
913.879	373.12
914.114	368.12
914.35	338.12
914.586	362.12
914.822	354.12
915.057	452.12
915.293	315.12
915.529	329.12
915.764	402.12
916	394.12
916.235	376.12
916.471	399.12
916.706	317.12
916.941	353.12
917.177	357.12
917.412	396.12
917.647	393.12
917.882	336.12
918.117	394.12
918.352	394.12
918.588	425.12
918.823	358.12
919.057	369.12
919.292	285.12
919.527	417.12
919.762	355.12
919.997	431.12
920.232	371.12
920.466	417.12
920.701	310.12
920.935	380.12
921.17	358.12
921.405	334.12
921.639	397.12
921.873	367.12
922.108	389.12
922.342	397.12
922.576	342.12
922.811	350.12
923.045	395.12
923.279	430.12
923.513	304.12
923.747	409.12
923.981	392.12
924.215	369.12
924.449	366.12
924.683	336.12
924.917	353.12
925.151	375.12
925.385	434.12
925.618	397.12
925.852	408.12
926.086	323.12
926.319	372.12
926.553	375.12
926.786	404.12
927.02	370.12
927.253	413.12
927.486	422.12
927.72	344.12
927.953	404.12
928.186	363.12
928.42	408.12
928.653	342.12
928.886	342.12
929.119	400.12
929.352	388.12
929.585	392.12
929.818	365.12
930.051	386.12
930.284	415.12
930.516	330.12
930.749	362.12
930.982	408.12
931.215	416.12
931.447	343.12
931.68	381.12
931.912	355.12
932.145	357.12
932.377	404.12
932.61	512.12
932.842	316.12
933.074	391.12
933.307	347.12
933.539	448.12
933.771	418.12
934.003	372.12
934.236	455.12
934.468	462.12
934.7	375.12
934.932	423.12
935.164	355.12
935.395	362.12
935.627	388.12
935.859	409.12
936.091	361.12
936.323	400.12
936.554	439.12
936.786	385.12
937.017	337.12
937.249	408.12
937.481	334.12
937.712	405.12
937.943	386.12
938.175	379.12
938.406	368.12
938.637	457.12
938.869	345.12
939.1	417.12
939.331	381.12
939.562	418.12
939.793	409.12
940.024	431.12
940.255	434.12
940.486	388.12
940.717	393.12
940.948	402.12
941.179	358.12
941.409	402.12
941.64	377.12
941.871	414.12
942.102	365.12
942.332	400.12
942.563	414.12
942.793	393.12
943.024	353.12
943.254	380.12
943.484	423.12
943.715	433.12
943.945	406.12
944.175	347.12
944.405	325.12
944.636	339.12
944.866	387.12
945.096	397.12
945.326	340.12
945.556	401.12
945.786	424.12
946.016	367.12
946.245	346.12
946.475	369.12
946.705	384.12
946.935	397.12
947.164	404.12
947.394	367.12
947.624	389.12
947.853	429.12
948.083	408.12
948.312	380.12
948.542	346.12
948.771	333.12
949	357.12
949.23	366.12
949.459	374.12
949.688	452.12
949.917	383.12
950.146	402.12
950.375	458.12
950.604	346.12
950.833	461.12
951.062	448.12
951.291	402.12
951.52	361.12
951.749	412.12
951.978	362.12
952.206	377.12
952.435	376.12
952.664	432.12
952.892	421.12
953.121	406.12
953.349	437.12
953.578	426.12
953.806	408.12
954.035	359.12
954.263	417.12
954.491	363.12
954.719	431.12
954.948	386.12
955.176	379.12
955.404	346.12
955.632	407.12
955.86	412.12
956.088	403.12
956.316	443.12
956.544	468.12
956.772	409.12
956.999	390.12
957.227	478.12
957.455	413.12
957.683	440.12
957.91	401.12
958.138	403.12
958.365	412.12
958.593	415.12
958.82	360.12
959.048	442.12
959.275	429.12
959.502	411.12
959.73	387.12
959.957	425.12
960.184	445.12
960.411	387.12
960.638	480.12
960.865	430.12
961.092	453.12
961.319	355.12
961.546	463.12
961.773	466.12
962	427.12
962.227	473.12
962.454	449.12
962.68	429.12
962.907	443.12
963.134	410.12
963.36	452.12
963.587	480.12
963.813	411.12
964.04	480.12
964.266	419.12
964.493	498.12
964.719	490.12
964.945	481.12
965.171	405.12
965.398	477.12
965.624	491.12
965.85	437.12
966.076	442.12
966.302	481.12
966.528	465.12
966.754	479.12
966.98	484.12
967.206	498.12
967.431	418.12
967.657	519.12
967.883	503.12
968.109	479.12
968.334	429.12
968.56	430.12
968.785	437.12
969.011	412.12
969.236	477.12
969.462	434.12
969.687	448.12
969.912	504.12
970.138	512.12
970.363	446.12
970.588	484.12
970.813	455.12
971.038	433.12
971.263	474.12
971.488	478.12
971.713	508.12
971.938	510.12
972.163	417.12
972.388	458.12
972.613	445.12
972.838	460.12
973.062	461.12
973.287	460.12
973.512	409.12
973.736	471.12
973.961	454.12
974.185	449.12
974.41	493.12
974.634	405.12
974.858	417.12
975.083	486.12
975.307	508.12
975.531	443.12
975.755	413.12
975.98	451.12
976.204	396.12
976.428	392.12
976.652	415.12
976.876	394.12
977.1	447.12
977.324	397.12
977.547	453.12
977.771	467.12
977.995	448.12
978.219	388.12
978.442	518.12
978.666	450.12
978.89	445.12
979.113	445.12
979.337	456.12
979.56	409.12
979.783	527.12
980.007	390.12
980.23	450.12
980.453	401.12
980.677	457.12
980.9	454.12
981.123	365.12
981.346	471.12
981.569	467.12
981.792	492.12
982.015	457.12
982.238	423.12
982.461	469.12
982.684	432.12
982.907	415.12
983.129	419.12
983.352	472.12
983.575	457.12
983.797	473.12
984.02	442.12
984.242	446.12
984.465	459.12
984.687	500.12
984.91	533.12
985.132	486.12
985.354	503.12
985.577	489.12
985.799	486.12
986.021	408.12
986.243	459.12
986.465	475.12
986.687	517.12
986.909	570.12
987.131	495.12
987.353	457.12
987.575	525.12
987.797	469.12
988.019	427.12
988.241	485.12
988.462	439.12
988.684	513.12
988.906	535.12
989.127	568.12
989.349	451.12
989.57	500.12
989.792	525.12
990.013	552.12
990.234	548.12
990.456	581.12
990.677	564.12
990.898	509.12
991.119	520.12
991.341	557.12
991.562	487.12
991.783	528.12
992.004	478.12
992.225	444.12
992.446	531.12
992.667	447.12
992.887	562.12
993.108	452.12
993.329	584.12
993.55	534.12
993.77	484.12
993.991	493.12
994.212	545.12
994.432	513.12
994.653	562.12
994.873	559.12
995.093	431.12
995.314	493.12
995.534	576.12
995.754	584.12
995.975	600.12
996.195	494.12
996.415	554.12
996.635	514.12
996.855	539.12
997.075	528.12
997.295	523.12
997.515	502.12
997.735	576.12
997.955	537.12
998.174	527.12
998.394	517.12
998.614	564.12
998.834	523.12
999.053	594.12
999.273	560.12
999.492	624.12
999.712	571.12
999.931	528.12
1000.151	598.12
1000.37	567.12
1000.589	643.12
1000.809	559.12
1001.028	690.12
1001.247	637.12
1001.466	536.12
1001.685	682.12
1001.904	633.12
1002.123	616.12
1002.342	642.12
1002.561	603.12
1002.78	633.12
1002.999	683.12
1003.218	641.12
1003.436	611.12
1003.655	676.12
1003.874	625.12
1004.092	662.12
1004.311	697.12
1004.53	650.12
1004.748	732.12
1004.966	654.12
1005.185	719.12
1005.403	694.12
1005.622	682.12
1005.84	741.12
1006.058	656.12
1006.276	681.12
1006.494	1145.12
1006.712	699.12
1006.931	734.12
1007.149	666.12
1007.367	658.12
1007.584	684.12
1007.802	719.12
1008.02	645.12
1008.238	727.12
1008.456	723.12
1008.673	573.12
1008.891	691.12
1009.109	632.12
1009.326	653.12
1009.544	712.12
1009.761	599.12
1009.979	678.12
1010.196	634.12
1010.413	679.12
1010.631	665.12
1010.848	689.12
1011.065	676.12
1011.282	603.12
1011.5	558.12
1011.717	678.12
1011.934	627.12
1012.151	675.12
1012.368	655.12
1012.585	599.12
1012.801	633.12
1013.018	608.12
1013.235	578.12
1013.452	603.12
1013.669	612.12
1013.885	571.12
1014.102	611.12
1014.318	564.12
1014.535	530.12
1014.751	575.12
1014.968	589.12
1015.184	611.12
1015.401	536.12
1015.617	571.12
1015.833	528.12
1016.049	558.12
1016.266	548.12
1016.482	541.12
1016.698	490.12
1016.914	567.12
1017.13	501.12
1017.346	518.12
1017.562	571.12
1017.778	514.12
1017.993	490.12
1018.209	544.12
1018.425	541.12
1018.641	509.12
1018.856	475.12
1019.072	504.12
1019.288	549.12
1019.503	516.12
1019.719	421.12
1019.934	449.12
1020.149	545.12
1020.365	491.12
1020.58	458.12
1020.795	546.12
1021.011	501.12
1021.226	497.12
1021.441	534.12
1021.656	497.12
1021.871	436.12
1022.086	469.12
1022.301	477.12
1022.516	484.12
1022.731	525.12
1022.946	478.12
1023.16	461.12
1023.375	451.12
1023.59	445.12
1023.804	425.12
1024.019	534.12
1024.234	438.12
1024.448	473.12
1024.663	427.12
1024.877	466.12
1025.092	466.12
1025.306	492.12
1025.52	417.12
1025.734	514.12
1025.949	437.12
1026.163	440.12
1026.377	383.12
1026.591	453.12
1026.805	380.12
1027.019	402.12
1027.233	365.12
1027.447	326.12
1027.661	411.12
1027.875	372.12
1028.088	389.12
1028.302	336.12
1028.516	333.12
1028.73	359.12
1028.943	355.12
1029.157	332.12
1029.37	305.12
1029.584	-0.88
1029.797	-1.88
1030.011	-0.88
1030.224	-2.88
