Data from QEP037381__61__10-22-21-069.txt Node

Date: Fri Apr 21 10:22:21 EDT 2023
User: dcclab
Spectrometer: QEP03738
Trigger mode: 4
Integration Time (sec): 1.000000E1
Scans to average: 1
Electric dark correction enabled: true
Nonlinearity correction enabled: false
Boxcar width: 0
XAxis mode: Wavelengths
Number of Pixels in Spectrum: 1044
>>>>>Begin Spectral Data<<<<<
784.041	12.75
784.3	1.75
784.558	0.75
784.817	-3.25
785.075	230.75
785.334	208.75
785.592	206.75
785.851	196.75
786.109	228.75
786.368	245.75
786.626	248.75
786.884	278.75
787.143	265.75
787.401	215.75
787.659	287.75
787.917	257.75
788.175	302.75
788.433	277.75
788.691	268.75
788.949	278.75
789.207	313.75
789.465	256.75
789.723	271.75
789.98	255.75
790.238	320.75
790.496	298.75
790.753	300.75
791.011	356.75
791.268	304.75
791.526	292.75
791.783	330.75
792.041	312.75
792.298	250.75
792.556	320.75
792.813	311.75
793.07	291.75
793.327	289.75
793.584	380.75
793.841	304.75
794.099	319.75
794.356	372.75
794.613	287.75
794.869	334.75
795.126	292.75
795.383	278.75
795.64	316.75
795.897	265.75
796.153	318.75
796.41	310.75
796.667	290.75
796.923	287.75
797.18	295.75
797.436	331.75
797.693	295.75
797.949	346.75
798.206	370.75
798.462	274.75
798.718	340.75
798.974	298.75
799.231	348.75
799.487	330.75
799.743	313.75
799.999	340.75
800.255	321.75
800.511	302.75
800.767	326.75
801.023	312.75
801.279	333.75
801.534	327.75
801.79	329.75
802.046	308.75
802.302	349.75
802.557	331.75
802.813	351.75
803.068	288.75
803.324	336.75
803.579	312.75
803.835	294.75
804.09	356.75
804.345	302.75
804.601	270.75
804.856	303.75
805.111	317.75
805.366	310.75
805.621	324.75
805.876	342.75
806.131	328.75
806.386	303.75
806.641	270.75
806.896	302.75
807.151	368.75
807.406	321.75
807.661	326.75
807.915	316.75
808.17	336.75
808.425	326.75
808.679	282.75
808.934	367.75
809.188	307.75
809.443	324.75
809.697	371.75
809.951	292.75
810.206	295.75
810.46	364.75
810.714	347.75
810.968	354.75
811.223	269.75
811.477	316.75
811.731	322.75
811.985	270.75
812.239	243.75
812.493	277.75
812.747	316.75
813	263.75
813.254	325.75
813.508	333.75
813.762	295.75
814.015	285.75
814.269	303.75
814.522	339.75
814.776	336.75
815.03	339.75
815.283	325.75
815.536	338.75
815.79	337.75
816.043	338.75
816.296	321.75
816.55	311.75
816.803	309.75
817.056	387.75
817.309	332.75
817.562	335.75
817.815	371.75
818.068	288.75
818.321	291.75
818.574	281.75
818.827	332.75
819.079	299.75
819.332	412.75
819.585	333.75
819.838	386.75
820.09	301.75
820.343	374.75
820.595	284.75
820.848	338.75
821.1	348.75
821.353	325.75
821.605	321.75
821.857	391.75
822.11	277.75
822.362	290.75
822.614	274.75
822.866	324.75
823.118	271.75
823.37	364.75
823.622	316.75
823.874	312.75
824.126	358.75
824.378	286.75
824.63	326.75
824.882	328.75
825.134	306.75
825.385	351.75
825.637	328.75
825.888	300.75
826.14	317.75
826.392	300.75
826.643	290.75
826.895	377.75
827.146	308.75
827.397	309.75
827.649	378.75
827.9	289.75
828.151	288.75
828.402	283.75
828.653	328.75
828.905	337.75
829.156	371.75
829.407	285.75
829.658	331.75
829.909	342.75
830.159	325.75
830.41	347.75
830.661	356.75
830.912	329.75
831.162	314.75
831.413	312.75
831.664	342.75
831.914	347.75
832.165	325.75
832.415	344.75
832.666	338.75
832.916	357.75
833.167	294.75
833.417	370.75
833.667	355.75
833.917	328.75
834.168	385.75
834.418	351.75
834.668	315.75
834.918	287.75
835.168	304.75
835.418	256.75
835.668	324.75
835.918	363.75
836.167	341.75
836.417	293.75
836.667	353.75
836.917	369.75
837.166	320.75
837.416	359.75
837.666	366.75
837.915	325.75
838.165	343.75
838.414	288.75
838.663	280.75
838.913	336.75
839.162	295.75
839.411	374.75
839.661	307.75
839.91	334.75
840.159	315.75
840.408	336.75
840.657	332.75
840.906	332.75
841.155	360.75
841.404	321.75
841.653	344.75
841.902	295.75
842.15	348.75
842.399	352.75
842.648	323.75
842.897	357.75
843.145	293.75
843.394	305.75
843.642	319.75
843.891	359.75
844.139	324.75
844.388	291.75
844.636	267.75
844.884	318.75
845.133	301.75
845.381	316.75
845.629	332.75
845.877	296.75
846.125	320.75
846.373	334.75
846.621	305.75
846.869	342.75
847.117	321.75
847.365	327.75
847.613	345.75
847.861	339.75
848.108	389.75
848.356	355.75
848.604	307.75
848.851	336.75
849.099	339.75
849.346	326.75
849.594	341.75
849.841	353.75
850.089	307.75
850.336	300.75
850.583	292.75
850.831	317.75
851.078	338.75
851.325	303.75
851.572	356.75
851.819	355.75
852.066	331.75
852.313	321.75
852.56	291.75
852.807	281.75
853.054	291.75
853.301	311.75
853.548	305.75
853.794	394.75
854.041	332.75
854.288	284.75
854.534	390.75
854.781	318.75
855.028	295.75
855.274	384.75
855.52	328.75
855.767	312.75
856.013	350.75
856.26	646.75
856.506	321.75
856.752	355.75
856.998	325.75
857.244	311.75
857.49	334.75
857.736	357.75
857.982	350.75
858.228	360.75
858.474	303.75
858.72	337.75
858.966	353.75
859.212	346.75
859.458	331.75
859.703	343.75
859.949	304.75
860.195	362.75
860.44	348.75
860.686	314.75
860.931	389.75
861.177	321.75
861.422	367.75
861.667	328.75
861.913	319.75
862.158	332.75
862.403	388.75
862.648	366.75
862.893	389.75
863.138	341.75
863.384	315.75
863.629	358.75
863.873	350.75
864.118	336.75
864.363	279.75
864.608	342.75
864.853	371.75
865.098	336.75
865.342	349.75
865.587	325.75
865.832	375.75
866.076	355.75
866.321	310.75
866.565	327.75
866.81	273.75
867.054	330.75
867.298	344.75
867.543	312.75
867.787	378.75
868.031	331.75
868.275	344.75
868.519	331.75
868.764	345.75
869.008	334.75
869.252	365.75
869.496	336.75
869.739	339.75
869.983	368.75
870.227	352.75
870.471	318.75
870.715	348.75
870.958	349.75
871.202	307.75
871.446	327.75
871.689	298.75
871.933	339.75
872.176	327.75
872.42	333.75
872.663	316.75
872.906	390.75
873.15	330.75
873.393	283.75
873.636	372.75
873.879	365.75
874.122	394.75
874.366	348.75
874.609	371.75
874.852	343.75
875.095	360.75
875.337	320.75
875.58	284.75
875.823	348.75
876.066	361.75
876.309	397.75
876.551	299.75
876.794	304.75
877.037	371.75
877.279	294.75
877.522	319.75
877.764	363.75
878.007	323.75
878.249	344.75
878.491	302.75
878.734	368.75
878.976	352.75
879.218	307.75
879.46	388.75
879.702	381.75
879.945	372.75
880.187	332.75
880.429	371.75
880.671	378.75
880.912	386.75
881.154	358.75
881.396	262.75
881.638	346.75
881.88	367.75
882.121	304.75
882.363	329.75
882.605	394.75
882.846	360.75
883.088	382.75
883.329	325.75
883.571	300.75
883.812	313.75
884.053	331.75
884.295	335.75
884.536	398.75
884.777	323.75
885.018	345.75
885.259	366.75
885.5	295.75
885.742	512.75
885.982	359.75
886.223	313.75
886.464	323.75
886.705	304.75
886.946	348.75
887.187	293.75
887.428	374.75
887.668	315.75
887.909	312.75
888.15	306.75
888.39	358.75
888.631	408.75
888.871	376.75
889.111	361.75
889.352	365.75
889.592	338.75
889.833	358.75
890.073	350.75
890.313	408.75
890.553	304.75
890.793	360.75
891.033	319.75
891.273	319.75
891.513	353.75
891.753	405.75
891.993	357.75
892.233	376.75
892.473	431.75
892.713	358.75
892.952	310.75
893.192	355.75
893.432	333.75
893.671	378.75
893.911	349.75
894.15	345.75
894.39	301.75
894.629	337.75
894.869	369.75
895.108	344.75
895.347	315.75
895.587	363.75
895.826	336.75
896.065	306.75
896.304	371.75
896.543	394.75
896.782	295.75
897.021	364.75
897.26	345.75
897.499	393.75
897.738	403.75
897.977	351.75
898.216	356.75
898.454	352.75
898.693	332.75
898.932	380.75
899.17	346.75
899.409	342.75
899.647	363.75
899.886	324.75
900.124	375.75
900.363	321.75
900.601	369.75
900.839	347.75
901.078	357.75
901.316	355.75
901.554	346.75
901.792	362.75
902.03	313.75
902.268	332.75
902.506	390.75
902.744	343.75
902.982	394.75
903.22	322.75
903.458	329.75
903.695	379.75
903.933	390.75
904.171	340.75
904.409	337.75
904.646	392.75
904.884	344.75
905.121	402.75
905.359	382.75
905.596	378.75
905.833	344.75
906.071	339.75
906.308	416.75
906.545	373.75
906.783	310.75
907.02	349.75
907.257	307.75
907.494	328.75
907.731	367.75
907.968	385.75
908.205	331.75
908.442	336.75
908.679	362.75
908.915	368.75
909.152	369.75
909.389	299.75
909.626	342.75
909.862	326.75
910.099	370.75
910.335	401.75
910.572	314.75
910.808	379.75
911.045	344.75
911.281	343.75
911.518	412.75
911.754	343.75
911.99	364.75
912.226	358.75
912.463	332.75
912.699	339.75
912.935	353.75
913.171	333.75
913.407	339.75
913.643	384.75
913.879	365.75
914.114	364.75
914.35	337.75
914.586	366.75
914.822	336.75
915.057	423.75
915.293	301.75
915.529	329.75
915.764	409.75
916	393.75
916.235	372.75
916.471	405.75
916.706	320.75
916.941	344.75
917.177	352.75
917.412	394.75
917.647	379.75
917.882	331.75
918.117	397.75
918.352	381.75
918.588	428.75
918.823	367.75
919.057	358.75
919.292	289.75
919.527	426.75
919.762	363.75
919.997	415.75
920.232	379.75
920.466	430.75
920.701	331.75
920.935	384.75
921.17	356.75
921.405	328.75
921.639	393.75
921.873	379.75
922.108	396.75
922.342	403.75
922.576	337.75
922.811	348.75
923.045	410.75
923.279	433.75
923.513	315.75
923.747	423.75
923.981	402.75
924.215	373.75
924.449	375.75
924.683	334.75
924.917	350.75
925.151	360.75
925.385	426.75
925.618	385.75
925.852	388.75
926.086	329.75
926.319	389.75
926.553	361.75
926.786	397.75
927.02	381.75
927.253	419.75
927.486	414.75
927.72	341.75
927.953	412.75
928.186	355.75
928.42	410.75
928.653	334.75
928.886	353.75
929.119	395.75
929.352	391.75
929.585	389.75
929.818	353.75
930.051	416.75
930.284	414.75
930.516	339.75
930.749	366.75
930.982	413.75
931.215	405.75
931.447	355.75
931.68	371.75
931.912	353.75
932.145	364.75
932.377	387.75
932.61	508.75
932.842	319.75
933.074	392.75
933.307	340.75
933.539	437.75
933.771	427.75
934.003	372.75
934.236	445.75
934.468	468.75
934.7	363.75
934.932	412.75
935.164	360.75
935.395	356.75
935.627	390.75
935.859	393.75
936.091	346.75
936.323	399.75
936.554	450.75
936.786	393.75
937.017	344.75
937.249	399.75
937.481	330.75
937.712	415.75
937.943	392.75
938.175	371.75
938.406	366.75
938.637	451.75
938.869	339.75
939.1	425.75
939.331	363.75
939.562	416.75
939.793	398.75
940.024	442.75
940.255	433.75
940.486	413.75
940.717	398.75
940.948	409.75
941.179	351.75
941.409	372.75
941.64	391.75
941.871	387.75
942.102	366.75
942.332	380.75
942.563	413.75
942.793	407.75
943.024	341.75
943.254	393.75
943.484	427.75
943.715	442.75
943.945	402.75
944.175	330.75
944.405	317.75
944.636	342.75
944.866	375.75
945.096	414.75
945.326	335.75
945.556	398.75
945.786	422.75
946.016	391.75
946.245	342.75
946.475	369.75
946.705	363.75
946.935	390.75
947.164	386.75
947.394	367.75
947.624	395.75
947.853	434.75
948.083	410.75
948.312	381.75
948.542	336.75
948.771	335.75
949	354.75
949.23	362.75
949.459	371.75
949.688	445.75
949.917	377.75
950.146	410.75
950.375	470.75
950.604	362.75
950.833	452.75
951.062	452.75
951.291	400.75
951.52	369.75
951.749	409.75
951.978	380.75
952.206	374.75
952.435	371.75
952.664	416.75
952.892	440.75
953.121	400.75
953.349	440.75
953.578	444.75
953.806	428.75
954.035	361.75
954.263	409.75
954.491	359.75
954.719	432.75
954.948	380.75
955.176	394.75
955.404	341.75
955.632	410.75
955.86	414.75
956.088	407.75
956.316	436.75
956.544	444.75
956.772	415.75
956.999	393.75
957.227	495.75
957.455	394.75
957.683	442.75
957.91	391.75
958.138	390.75
958.365	392.75
958.593	386.75
958.82	371.75
959.048	455.75
959.275	414.75
959.502	405.75
959.73	391.75
959.957	423.75
960.184	457.75
960.411	394.75
960.638	466.75
960.865	423.75
961.092	457.75
961.319	356.75
961.546	462.75
961.773	454.75
962	418.75
962.227	487.75
962.454	442.75
962.68	418.75
962.907	448.75
963.134	416.75
963.36	437.75
963.587	471.75
963.813	417.75
964.04	495.75
964.266	427.75
964.493	506.75
964.719	483.75
964.945	485.75
965.171	403.75
965.398	477.75
965.624	495.75
965.85	432.75
966.076	441.75
966.302	482.75
966.528	464.75
966.754	487.75
966.98	475.75
967.206	489.75
967.431	408.75
967.657	519.75
967.883	496.75
968.109	492.75
968.334	433.75
968.56	427.75
968.785	448.75
969.011	414.75
969.236	487.75
969.462	410.75
969.687	458.75
969.912	497.75
970.138	500.75
970.363	434.75
970.588	484.75
970.813	466.75
971.038	434.75
971.263	489.75
971.488	476.75
971.713	526.75
971.938	504.75
972.163	414.75
972.388	452.75
972.613	429.75
972.838	465.75
973.062	457.75
973.287	459.75
973.512	403.75
973.736	467.75
973.961	441.75
974.185	437.75
974.41	459.75
974.634	401.75
974.858	438.75
975.083	470.75
975.307	488.75
975.531	439.75
975.755	394.75
975.98	440.75
976.204	381.75
976.428	398.75
976.652	418.75
976.876	392.75
977.1	446.75
977.324	419.75
977.547	458.75
977.771	468.75
977.995	439.75
978.219	378.75
978.442	516.75
978.666	451.75
978.89	445.75
979.113	447.75
979.337	450.75
979.56	423.75
979.783	502.75
980.007	403.75
980.23	445.75
980.453	412.75
980.677	468.75
980.9	461.75
981.123	370.75
981.346	472.75
981.569	460.75
981.792	483.75
982.015	448.75
982.238	430.75
982.461	462.75
982.684	429.75
982.907	419.75
983.129	434.75
983.352	487.75
983.575	468.75
983.797	467.75
984.02	425.75
984.242	440.75
984.465	459.75
984.687	496.75
984.91	515.75
985.132	479.75
985.354	521.75
985.577	493.75
985.799	483.75
986.021	409.75
986.243	441.75
986.465	471.75
986.687	511.75
986.909	569.75
987.131	486.75
987.353	467.75
987.575	512.75
987.797	464.75
988.019	414.75
988.241	486.75
988.462	443.75
988.684	510.75
988.906	541.75
989.127	562.75
989.349	440.75
989.57	500.75
989.792	524.75
990.013	532.75
990.234	544.75
990.456	575.75
990.677	562.75
990.898	507.75
991.119	502.75
991.341	557.75
991.562	494.75
991.783	527.75
992.004	467.75
992.225	461.75
992.446	527.75
992.667	448.75
992.887	544.75
993.108	443.75
993.329	548.75
993.55	524.75
993.77	489.75
993.991	477.75
994.212	540.75
994.432	537.75
994.653	549.75
994.873	556.75
995.093	436.75
995.314	480.75
995.534	566.75
995.754	585.75
995.975	612.75
996.195	490.75
996.415	559.75
996.635	528.75
996.855	544.75
997.075	537.75
997.295	524.75
997.515	512.75
997.735	558.75
997.955	544.75
998.174	531.75
998.394	516.75
998.614	544.75
998.834	519.75
999.053	590.75
999.273	573.75
999.492	620.75
999.712	581.75
999.931	534.75
1000.151	593.75
1000.37	559.75
1000.589	633.75
1000.809	560.75
1001.028	687.75
1001.247	622.75
1001.466	545.75
1001.685	690.75
1001.904	645.75
1002.123	624.75
1002.342	619.75
1002.561	591.75
1002.78	614.75
1002.999	687.75
1003.218	638.75
1003.436	622.75
1003.655	685.75
1003.874	615.75
1004.092	648.75
1004.311	704.75
1004.53	658.75
1004.748	729.75
1004.966	665.75
1005.185	706.75
1005.403	714.75
1005.622	681.75
1005.84	749.75
1006.058	641.75
1006.276	702.75
1006.494	1177.75
1006.712	666.75
1006.931	736.75
1007.149	646.75
1007.367	657.75
1007.584	683.75
1007.802	709.75
1008.02	641.75
1008.238	737.75
1008.456	721.75
1008.673	572.75
1008.891	692.75
1009.109	629.75
1009.326	643.75
1009.544	729.75
1009.761	594.75
1009.979	646.75
1010.196	620.75
1010.413	657.75
1010.631	679.75
1010.848	684.75
1011.065	672.75
1011.282	618.75
1011.5	559.75
1011.717	671.75
1011.934	625.75
1012.151	668.75
1012.368	655.75
1012.585	594.75
1012.801	663.75
1013.018	590.75
1013.235	572.75
1013.452	590.75
1013.669	582.75
1013.885	573.75
1014.102	607.75
1014.318	556.75
1014.535	530.75
1014.751	575.75
1014.968	552.75
1015.184	613.75
1015.401	510.75
1015.617	576.75
1015.833	547.75
1016.049	547.75
1016.266	550.75
1016.482	547.75
1016.698	499.75
1016.914	544.75
1017.13	490.75
1017.346	535.75
1017.562	601.75
1017.778	513.75
1017.993	498.75
1018.209	557.75
1018.425	541.75
1018.641	492.75
1018.856	476.75
1019.072	508.75
1019.288	542.75
1019.503	481.75
1019.719	435.75
1019.934	448.75
1020.149	539.75
1020.365	498.75
1020.58	454.75
1020.795	543.75
1021.011	502.75
1021.226	512.75
1021.441	542.75
1021.656	488.75
1021.871	441.75
1022.086	477.75
1022.301	470.75
1022.516	481.75
1022.731	540.75
1022.946	493.75
1023.16	465.75
1023.375	454.75
1023.59	453.75
1023.804	417.75
1024.019	540.75
1024.234	406.75
1024.448	475.75
1024.663	416.75
1024.877	443.75
1025.092	479.75
1025.306	500.75
1025.52	410.75
1025.734	513.75
1025.949	446.75
1026.163	426.75
1026.377	389.75
1026.591	451.75
1026.805	386.75
1027.019	391.75
1027.233	361.75
1027.447	312.75
1027.661	426.75
1027.875	378.75
1028.088	390.75
1028.302	339.75
1028.516	327.75
1028.73	361.75
1028.943	357.75
1029.157	321.75
1029.37	317.75
1029.584	-3.25
1029.797	-1.25
1030.011	-3.25
1030.224	-4.25
