Data from QEP037381__82__10-25-51-073.txt Node

Date: Fri Apr 21 10:25:51 EDT 2023
User: dcclab
Spectrometer: QEP03738
Trigger mode: 4
Integration Time (sec): 1.000000E1
Scans to average: 1
Electric dark correction enabled: true
Nonlinearity correction enabled: false
Boxcar width: 0
XAxis mode: Wavelengths
Number of Pixels in Spectrum: 1044
>>>>>Begin Spectral Data<<<<<
784.041	11.75
784.3	-0.25
784.558	-2.25
784.817	-4.25
785.075	229.75
785.334	194.75
785.592	198.75
785.851	197.75
786.109	231.75
786.368	239.75
786.626	254.75
786.884	276.75
787.143	267.75
787.401	208.75
787.659	279.75
787.917	253.75
788.175	303.75
788.433	272.75
788.691	277.75
788.949	288.75
789.207	292.75
789.465	254.75
789.723	273.75
789.98	242.75
790.238	314.75
790.496	289.75
790.753	298.75
791.011	355.75
791.268	305.75
791.526	308.75
791.783	335.75
792.041	320.75
792.298	256.75
792.556	328.75
792.813	315.75
793.07	284.75
793.327	283.75
793.584	371.75
793.841	300.75
794.099	312.75
794.356	374.75
794.613	285.75
794.869	335.75
795.126	295.75
795.383	301.75
795.64	294.75
795.897	268.75
796.153	336.75
796.41	298.75
796.667	291.75
796.923	279.75
797.18	292.75
797.436	329.75
797.693	291.75
797.949	333.75
798.206	356.75
798.462	271.75
798.718	329.75
798.974	303.75
799.231	337.75
799.487	321.75
799.743	326.75
799.999	334.75
800.255	338.75
800.511	302.75
800.767	335.75
801.023	313.75
801.279	314.75
801.534	321.75
801.79	325.75
802.046	301.75
802.302	357.75
802.557	324.75
802.813	356.75
803.068	290.75
803.324	344.75
803.579	313.75
803.835	292.75
804.09	345.75
804.345	297.75
804.601	268.75
804.856	294.75
805.111	323.75
805.366	299.75
805.621	310.75
805.876	340.75
806.131	330.75
806.386	298.75
806.641	274.75
806.896	302.75
807.151	371.75
807.406	316.75
807.661	326.75
807.915	313.75
808.17	339.75
808.425	326.75
808.679	284.75
808.934	369.75
809.188	308.75
809.443	337.75
809.697	364.75
809.951	292.75
810.206	295.75
810.46	351.75
810.714	319.75
810.968	352.75
811.223	276.75
811.477	314.75
811.731	338.75
811.985	264.75
812.239	234.75
812.493	278.75
812.747	308.75
813	265.75
813.254	320.75
813.508	339.75
813.762	293.75
814.015	296.75
814.269	313.75
814.522	327.75
814.776	334.75
815.03	320.75
815.283	327.75
815.536	338.75
815.79	339.75
816.043	326.75
816.296	324.75
816.55	313.75
816.803	307.75
817.056	396.75
817.309	333.75
817.562	326.75
817.815	372.75
818.068	287.75
818.321	293.75
818.574	286.75
818.827	342.75
819.079	287.75
819.332	402.75
819.585	332.75
819.838	386.75
820.09	294.75
820.343	365.75
820.595	285.75
820.848	329.75
821.1	350.75
821.353	322.75
821.605	315.75
821.857	378.75
822.11	281.75
822.362	294.75
822.614	288.75
822.866	314.75
823.118	266.75
823.37	382.75
823.622	321.75
823.874	299.75
824.126	352.75
824.378	275.75
824.63	305.75
824.882	329.75
825.134	308.75
825.385	339.75
825.637	324.75
825.888	311.75
826.14	310.75
826.392	295.75
826.643	289.75
826.895	377.75
827.146	316.75
827.397	293.75
827.649	391.75
827.9	312.75
828.151	296.75
828.402	280.75
828.653	318.75
828.905	328.75
829.156	382.75
829.407	278.75
829.658	309.75
829.909	352.75
830.159	341.75
830.41	331.75
830.661	358.75
830.912	329.75
831.162	314.75
831.413	301.75
831.664	359.75
831.914	319.75
832.165	331.75
832.415	338.75
832.666	342.75
832.916	365.75
833.167	294.75
833.417	377.75
833.667	354.75
833.917	330.75
834.168	370.75
834.418	355.75
834.668	317.75
834.918	284.75
835.168	303.75
835.418	269.75
835.668	327.75
835.918	342.75
836.167	350.75
836.417	286.75
836.667	357.75
836.917	369.75
837.166	334.75
837.416	346.75
837.666	361.75
837.915	322.75
838.165	337.75
838.414	298.75
838.663	281.75
838.913	324.75
839.162	299.75
839.411	396.75
839.661	312.75
839.91	319.75
840.159	322.75
840.408	344.75
840.657	324.75
840.906	341.75
841.155	354.75
841.404	320.75
841.653	348.75
841.902	295.75
842.15	342.75
842.399	351.75
842.648	323.75
842.897	351.75
843.145	278.75
843.394	302.75
843.642	316.75
843.891	362.75
844.139	333.75
844.388	287.75
844.636	271.75
844.884	316.75
845.133	297.75
845.381	320.75
845.629	350.75
845.877	299.75
846.125	311.75
846.373	331.75
846.621	300.75
846.869	340.75
847.117	337.75
847.365	321.75
847.613	336.75
847.861	348.75
848.108	390.75
848.356	343.75
848.604	304.75
848.851	318.75
849.099	334.75
849.346	326.75
849.594	342.75
849.841	347.75
850.089	322.75
850.336	294.75
850.583	300.75
850.831	319.75
851.078	334.75
851.325	289.75
851.572	374.75
851.819	359.75
852.066	321.75
852.313	314.75
852.56	307.75
852.807	293.75
853.054	295.75
853.301	317.75
853.548	300.75
853.794	393.75
854.041	328.75
854.288	282.75
854.534	391.75
854.781	305.75
855.028	295.75
855.274	400.75
855.52	333.75
855.767	300.75
856.013	347.75
856.26	640.75
856.506	305.75
856.752	372.75
856.998	326.75
857.244	293.75
857.49	341.75
857.736	340.75
857.982	348.75
858.228	358.75
858.474	275.75
858.72	328.75
858.966	355.75
859.212	344.75
859.458	343.75
859.703	339.75
859.949	312.75
860.195	371.75
860.44	346.75
860.686	305.75
860.931	388.75
861.177	308.75
861.422	391.75
861.667	326.75
861.913	330.75
862.158	317.75
862.403	370.75
862.648	359.75
862.893	378.75
863.138	331.75
863.384	308.75
863.629	365.75
863.873	347.75
864.118	327.75
864.363	266.75
864.608	342.75
864.853	360.75
865.098	332.75
865.342	344.75
865.587	331.75
865.832	377.75
866.076	358.75
866.321	311.75
866.565	336.75
866.81	275.75
867.054	331.75
867.298	353.75
867.543	311.75
867.787	363.75
868.031	331.75
868.275	351.75
868.519	336.75
868.764	346.75
869.008	320.75
869.252	376.75
869.496	336.75
869.739	334.75
869.983	379.75
870.227	366.75
870.471	301.75
870.715	367.75
870.958	351.75
871.202	311.75
871.446	321.75
871.689	297.75
871.933	327.75
872.176	336.75
872.42	333.75
872.663	316.75
872.906	381.75
873.15	331.75
873.393	276.75
873.636	368.75
873.879	372.75
874.122	379.75
874.366	339.75
874.609	373.75
874.852	335.75
875.095	353.75
875.337	325.75
875.58	283.75
875.823	350.75
876.066	371.75
876.309	404.75
876.551	307.75
876.794	281.75
877.037	367.75
877.279	307.75
877.522	318.75
877.764	353.75
878.007	308.75
878.249	341.75
878.491	305.75
878.734	368.75
878.976	352.75
879.218	320.75
879.46	382.75
879.702	375.75
879.945	374.75
880.187	343.75
880.429	377.75
880.671	368.75
880.912	379.75
881.154	362.75
881.396	280.75
881.638	361.75
881.88	351.75
882.121	318.75
882.363	348.75
882.605	369.75
882.846	359.75
883.088	372.75
883.329	322.75
883.571	299.75
883.812	312.75
884.053	322.75
884.295	322.75
884.536	395.75
884.777	322.75
885.018	346.75
885.259	365.75
885.5	290.75
885.742	505.75
885.982	362.75
886.223	314.75
886.464	319.75
886.705	297.75
886.946	346.75
887.187	282.75
887.428	372.75
887.668	323.75
887.909	298.75
888.15	310.75
888.39	365.75
888.631	406.75
888.871	372.75
889.111	367.75
889.352	359.75
889.592	328.75
889.833	352.75
890.073	347.75
890.313	418.75
890.553	301.75
890.793	344.75
891.033	317.75
891.273	331.75
891.513	355.75
891.753	404.75
891.993	344.75
892.233	370.75
892.473	442.75
892.713	371.75
892.952	330.75
893.192	365.75
893.432	344.75
893.671	376.75
893.911	336.75
894.15	345.75
894.39	295.75
894.629	344.75
894.869	361.75
895.108	343.75
895.347	318.75
895.587	360.75
895.826	335.75
896.065	321.75
896.304	369.75
896.543	385.75
896.782	289.75
897.021	349.75
897.26	341.75
897.499	392.75
897.738	390.75
897.977	353.75
898.216	345.75
898.454	342.75
898.693	325.75
898.932	371.75
899.17	338.75
899.409	353.75
899.647	356.75
899.886	322.75
900.124	364.75
900.363	320.75
900.601	364.75
900.839	352.75
901.078	348.75
901.316	352.75
901.554	340.75
901.792	363.75
902.03	303.75
902.268	327.75
902.506	379.75
902.744	337.75
902.982	381.75
903.22	329.75
903.458	334.75
903.695	359.75
903.933	378.75
904.171	332.75
904.409	338.75
904.646	388.75
904.884	339.75
905.121	402.75
905.359	384.75
905.596	382.75
905.833	329.75
906.071	341.75
906.308	401.75
906.545	371.75
906.783	305.75
907.02	365.75
907.257	317.75
907.494	339.75
907.731	372.75
907.968	379.75
908.205	336.75
908.442	354.75
908.679	357.75
908.915	352.75
909.152	378.75
909.389	308.75
909.626	333.75
909.862	329.75
910.099	361.75
910.335	392.75
910.572	308.75
910.808	366.75
911.045	345.75
911.281	329.75
911.518	400.75
911.754	360.75
911.99	359.75
912.226	353.75
912.463	323.75
912.699	344.75
912.935	340.75
913.171	337.75
913.407	324.75
913.643	401.75
913.879	373.75
914.114	366.75
914.35	349.75
914.586	362.75
914.822	346.75
915.057	434.75
915.293	311.75
915.529	319.75
915.764	416.75
916	398.75
916.235	392.75
916.471	391.75
916.706	320.75
916.941	343.75
917.177	342.75
917.412	384.75
917.647	386.75
917.882	340.75
918.117	393.75
918.352	376.75
918.588	436.75
918.823	365.75
919.057	367.75
919.292	293.75
919.527	419.75
919.762	359.75
919.997	422.75
920.232	360.75
920.466	427.75
920.701	308.75
920.935	372.75
921.17	373.75
921.405	331.75
921.639	395.75
921.873	354.75
922.108	401.75
922.342	409.75
922.576	327.75
922.811	356.75
923.045	394.75
923.279	428.75
923.513	316.75
923.747	414.75
923.981	385.75
924.215	359.75
924.449	372.75
924.683	333.75
924.917	346.75
925.151	357.75
925.385	425.75
925.618	388.75
925.852	389.75
926.086	333.75
926.319	391.75
926.553	384.75
926.786	403.75
927.02	375.75
927.253	422.75
927.486	420.75
927.72	339.75
927.953	407.75
928.186	359.75
928.42	403.75
928.653	353.75
928.886	345.75
929.119	390.75
929.352	378.75
929.585	396.75
929.818	346.75
930.051	391.75
930.284	413.75
930.516	326.75
930.749	359.75
930.982	416.75
931.215	397.75
931.447	350.75
931.68	376.75
931.912	374.75
932.145	370.75
932.377	400.75
932.61	499.75
932.842	312.75
933.074	401.75
933.307	332.75
933.539	438.75
933.771	431.75
934.003	377.75
934.236	439.75
934.468	458.75
934.7	381.75
934.932	413.75
935.164	359.75
935.395	343.75
935.627	392.75
935.859	393.75
936.091	341.75
936.323	404.75
936.554	428.75
936.786	383.75
937.017	341.75
937.249	399.75
937.481	332.75
937.712	404.75
937.943	397.75
938.175	360.75
938.406	395.75
938.637	447.75
938.869	349.75
939.1	413.75
939.331	383.75
939.562	412.75
939.793	394.75
940.024	425.75
940.255	451.75
940.486	392.75
940.717	394.75
940.948	393.75
941.179	352.75
941.409	383.75
941.64	386.75
941.871	390.75
942.102	375.75
942.332	369.75
942.563	410.75
942.793	399.75
943.024	344.75
943.254	399.75
943.484	420.75
943.715	418.75
943.945	402.75
944.175	339.75
944.405	319.75
944.636	334.75
944.866	377.75
945.096	394.75
945.326	326.75
945.556	412.75
945.786	429.75
946.016	375.75
946.245	350.75
946.475	371.75
946.705	389.75
946.935	399.75
947.164	402.75
947.394	364.75
947.624	396.75
947.853	446.75
948.083	415.75
948.312	383.75
948.542	339.75
948.771	337.75
949	362.75
949.23	375.75
949.459	377.75
949.688	440.75
949.917	389.75
950.146	397.75
950.375	444.75
950.604	352.75
950.833	449.75
951.062	461.75
951.291	389.75
951.52	363.75
951.749	391.75
951.978	364.75
952.206	381.75
952.435	383.75
952.664	402.75
952.892	423.75
953.121	399.75
953.349	444.75
953.578	435.75
953.806	427.75
954.035	369.75
954.263	419.75
954.491	372.75
954.719	433.75
954.948	385.75
955.176	392.75
955.404	330.75
955.632	407.75
955.86	412.75
956.088	407.75
956.316	437.75
956.544	462.75
956.772	419.75
956.999	387.75
957.227	482.75
957.455	401.75
957.683	431.75
957.91	389.75
958.138	392.75
958.365	403.75
958.593	412.75
958.82	371.75
959.048	449.75
959.275	412.75
959.502	402.75
959.73	386.75
959.957	421.75
960.184	431.75
960.411	388.75
960.638	484.75
960.865	415.75
961.092	455.75
961.319	347.75
961.546	447.75
961.773	464.75
962	403.75
962.227	476.75
962.454	430.75
962.68	435.75
962.907	448.75
963.134	419.75
963.36	452.75
963.587	465.75
963.813	423.75
964.04	470.75
964.266	404.75
964.493	509.75
964.719	484.75
964.945	493.75
965.171	404.75
965.398	452.75
965.624	489.75
965.85	454.75
966.076	438.75
966.302	478.75
966.528	451.75
966.754	483.75
966.98	485.75
967.206	484.75
967.431	404.75
967.657	513.75
967.883	492.75
968.109	480.75
968.334	433.75
968.56	438.75
968.785	446.75
969.011	419.75
969.236	478.75
969.462	421.75
969.687	447.75
969.912	495.75
970.138	500.75
970.363	448.75
970.588	482.75
970.813	467.75
971.038	430.75
971.263	479.75
971.488	484.75
971.713	521.75
971.938	519.75
972.163	428.75
972.388	458.75
972.613	438.75
972.838	456.75
973.062	459.75
973.287	473.75
973.512	401.75
973.736	450.75
973.961	451.75
974.185	434.75
974.41	477.75
974.634	411.75
974.858	421.75
975.083	469.75
975.307	510.75
975.531	443.75
975.755	399.75
975.98	432.75
976.204	379.75
976.428	379.75
976.652	408.75
976.876	397.75
977.1	424.75
977.324	391.75
977.547	468.75
977.771	468.75
977.995	451.75
978.219	388.75
978.442	510.75
978.666	448.75
978.89	458.75
979.113	462.75
979.337	446.75
979.56	417.75
979.783	506.75
980.007	409.75
980.23	452.75
980.453	419.75
980.677	469.75
980.9	462.75
981.123	369.75
981.346	476.75
981.569	456.75
981.792	483.75
982.015	449.75
982.238	435.75
982.461	460.75
982.684	439.75
982.907	419.75
983.129	414.75
983.352	496.75
983.575	451.75
983.797	467.75
984.02	426.75
984.242	443.75
984.465	459.75
984.687	503.75
984.91	515.75
985.132	485.75
985.354	507.75
985.577	486.75
985.799	492.75
986.021	425.75
986.243	444.75
986.465	458.75
986.687	523.75
986.909	544.75
987.131	508.75
987.353	466.75
987.575	505.75
987.797	469.75
988.019	420.75
988.241	484.75
988.462	445.75
988.684	506.75
988.906	530.75
989.127	577.75
989.349	438.75
989.57	501.75
989.792	539.75
990.013	556.75
990.234	542.75
990.456	571.75
990.677	564.75
990.898	502.75
991.119	515.75
991.341	550.75
991.562	481.75
991.783	533.75
992.004	473.75
992.225	466.75
992.446	522.75
992.667	442.75
992.887	543.75
993.108	449.75
993.329	589.75
993.55	536.75
993.77	482.75
993.991	497.75
994.212	534.75
994.432	523.75
994.653	542.75
994.873	549.75
995.093	425.75
995.314	491.75
995.534	562.75
995.754	586.75
995.975	584.75
996.195	496.75
996.415	555.75
996.635	536.75
996.855	535.75
997.075	532.75
997.295	521.75
997.515	493.75
997.735	559.75
997.955	530.75
998.174	517.75
998.394	509.75
998.614	551.75
998.834	520.75
999.053	592.75
999.273	573.75
999.492	616.75
999.712	568.75
999.931	523.75
1000.151	583.75
1000.37	573.75
1000.589	642.75
1000.809	564.75
1001.028	683.75
1001.247	632.75
1001.466	531.75
1001.685	691.75
1001.904	648.75
1002.123	596.75
1002.342	630.75
1002.561	598.75
1002.78	627.75
1002.999	691.75
1003.218	629.75
1003.436	625.75
1003.655	676.75
1003.874	620.75
1004.092	650.75
1004.311	690.75
1004.53	655.75
1004.748	742.75
1004.966	661.75
1005.185	711.75
1005.403	691.75
1005.622	689.75
1005.84	751.75
1006.058	659.75
1006.276	684.75
1006.494	1146.75
1006.712	679.75
1006.931	745.75
1007.149	638.75
1007.367	628.75
1007.584	681.75
1007.802	712.75
1008.02	642.75
1008.238	761.75
1008.456	731.75
1008.673	588.75
1008.891	683.75
1009.109	617.75
1009.326	666.75
1009.544	717.75
1009.761	606.75
1009.979	658.75
1010.196	625.75
1010.413	662.75
1010.631	661.75
1010.848	676.75
1011.065	687.75
1011.282	587.75
1011.5	555.75
1011.717	668.75
1011.934	625.75
1012.151	674.75
1012.368	640.75
1012.585	587.75
1012.801	643.75
1013.018	602.75
1013.235	581.75
1013.452	593.75
1013.669	588.75
1013.885	564.75
1014.102	607.75
1014.318	545.75
1014.535	525.75
1014.751	566.75
1014.968	581.75
1015.184	621.75
1015.401	526.75
1015.617	568.75
1015.833	527.75
1016.049	539.75
1016.266	519.75
1016.482	546.75
1016.698	498.75
1016.914	549.75
1017.13	502.75
1017.346	519.75
1017.562	584.75
1017.778	518.75
1017.993	496.75
1018.209	557.75
1018.425	525.75
1018.641	496.75
1018.856	477.75
1019.072	518.75
1019.288	546.75
1019.503	505.75
1019.719	424.75
1019.934	448.75
1020.149	546.75
1020.365	488.75
1020.58	463.75
1020.795	534.75
1021.011	497.75
1021.226	490.75
1021.441	546.75
1021.656	488.75
1021.871	450.75
1022.086	466.75
1022.301	474.75
1022.516	481.75
1022.731	532.75
1022.946	472.75
1023.16	464.75
1023.375	458.75
1023.59	451.75
1023.804	424.75
1024.019	519.75
1024.234	440.75
1024.448	476.75
1024.663	407.75
1024.877	437.75
1025.092	476.75
1025.306	486.75
1025.52	406.75
1025.734	510.75
1025.949	432.75
1026.163	440.75
1026.377	381.75
1026.591	450.75
1026.805	370.75
1027.019	381.75
1027.233	358.75
1027.447	320.75
1027.661	434.75
1027.875	370.75
1028.088	398.75
1028.302	338.75
1028.516	336.75
1028.73	345.75
1028.943	357.75
1029.157	325.75
1029.37	301.75
1029.584	-2.25
1029.797	1.75
1030.011	-3.25
1030.224	-1.25
