Data from QEP037381__12__10-14-11-057.txt Node

Date: Fri Apr 21 10:14:11 EDT 2023
User: dcclab
Spectrometer: QEP03738
Trigger mode: 4
Integration Time (sec): 1.000000E1
Scans to average: 1
Electric dark correction enabled: true
Nonlinearity correction enabled: false
Boxcar width: 0
XAxis mode: Wavelengths
Number of Pixels in Spectrum: 1044
>>>>>Begin Spectral Data<<<<<
784.041	11.88
784.3	1.88
784.558	-0.12
784.817	-2.12
785.075	248.88
785.334	211.88
785.592	208.88
785.851	201.88
786.109	227.88
786.368	226.88
786.626	244.88
786.884	272.88
787.143	259.88
787.401	213.88
787.659	276.88
787.917	251.88
788.175	285.88
788.433	279.88
788.691	272.88
788.949	283.88
789.207	312.88
789.465	253.88
789.723	274.88
789.98	255.88
790.238	317.88
790.496	298.88
790.753	288.88
791.011	359.88
791.268	311.88
791.526	302.88
791.783	338.88
792.041	308.88
792.298	249.88
792.556	329.88
792.813	310.88
793.07	297.88
793.327	286.88
793.584	368.88
793.841	291.88
794.099	321.88
794.356	387.88
794.613	291.88
794.869	336.88
795.126	295.88
795.383	288.88
795.64	306.88
795.897	257.88
796.153	322.88
796.41	297.88
796.667	297.88
796.923	295.88
797.18	288.88
797.436	319.88
797.693	278.88
797.949	327.88
798.206	360.88
798.462	258.88
798.718	321.88
798.974	299.88
799.231	334.88
799.487	328.88
799.743	323.88
799.999	349.88
800.255	333.88
800.511	300.88
800.767	337.88
801.023	317.88
801.279	310.88
801.534	323.88
801.79	333.88
802.046	288.88
802.302	354.88
802.557	326.88
802.813	340.88
803.068	288.88
803.324	335.88
803.579	319.88
803.835	306.88
804.09	350.88
804.345	292.88
804.601	273.88
804.856	306.88
805.111	327.88
805.366	303.88
805.621	312.88
805.876	332.88
806.131	339.88
806.386	303.88
806.641	284.88
806.896	313.88
807.151	380.88
807.406	313.88
807.661	339.88
807.915	325.88
808.17	343.88
808.425	332.88
808.679	283.88
808.934	377.88
809.188	314.88
809.443	343.88
809.697	361.88
809.951	303.88
810.206	301.88
810.46	352.88
810.714	337.88
810.968	359.88
811.223	277.88
811.477	322.88
811.731	350.88
811.985	273.88
812.239	245.88
812.493	294.88
812.747	320.88
813	278.88
813.254	331.88
813.508	352.88
813.762	294.88
814.015	311.88
814.269	317.88
814.522	341.88
814.776	338.88
815.03	350.88
815.283	325.88
815.536	355.88
815.79	344.88
816.043	327.88
816.296	337.88
816.55	322.88
816.803	324.88
817.056	392.88
817.309	335.88
817.562	335.88
817.815	379.88
818.068	295.88
818.321	290.88
818.574	295.88
818.827	341.88
819.079	309.88
819.332	412.88
819.585	336.88
819.838	397.88
820.09	289.88
820.343	368.88
820.595	272.88
820.848	340.88
821.1	353.88
821.353	323.88
821.605	310.88
821.857	384.88
822.11	280.88
822.362	316.88
822.614	292.88
822.866	324.88
823.118	282.88
823.37	378.88
823.622	313.88
823.874	304.88
824.126	349.88
824.378	283.88
824.63	313.88
824.882	342.88
825.134	309.88
825.385	363.88
825.637	334.88
825.888	313.88
826.14	327.88
826.392	311.88
826.643	284.88
826.895	373.88
827.146	314.88
827.397	309.88
827.649	402.88
827.9	295.88
828.151	278.88
828.402	287.88
828.653	321.88
828.905	324.88
829.156	372.88
829.407	287.88
829.658	321.88
829.909	372.88
830.159	347.88
830.41	348.88
830.661	357.88
830.912	323.88
831.162	315.88
831.413	313.88
831.664	342.88
831.914	323.88
832.165	338.88
832.415	330.88
832.666	336.88
832.916	371.88
833.167	301.88
833.417	378.88
833.667	343.88
833.917	347.88
834.168	397.88
834.418	344.88
834.668	312.88
834.918	286.88
835.168	307.88
835.418	265.88
835.668	339.88
835.918	358.88
836.167	347.88
836.417	284.88
836.667	351.88
836.917	388.88
837.166	322.88
837.416	359.88
837.666	377.88
837.915	327.88
838.165	348.88
838.414	296.88
838.663	279.88
838.913	340.88
839.162	299.88
839.411	376.88
839.661	323.88
839.91	331.88
840.159	307.88
840.408	337.88
840.657	339.88
840.906	327.88
841.155	367.88
841.404	327.88
841.653	334.88
841.902	309.88
842.15	337.88
842.399	340.88
842.648	311.88
842.897	357.88
843.145	291.88
843.394	303.88
843.642	298.88
843.891	359.88
844.139	339.88
844.388	286.88
844.636	272.88
844.884	316.88
845.133	300.88
845.381	316.88
845.629	355.88
845.877	293.88
846.125	303.88
846.373	334.88
846.621	295.88
846.869	352.88
847.117	349.88
847.365	330.88
847.613	347.88
847.861	354.88
848.108	395.88
848.356	350.88
848.604	306.88
848.851	344.88
849.099	335.88
849.346	323.88
849.594	349.88
849.841	359.88
850.089	318.88
850.336	290.88
850.583	312.88
850.831	317.88
851.078	340.88
851.325	300.88
851.572	362.88
851.819	365.88
852.066	330.88
852.313	322.88
852.56	298.88
852.807	286.88
853.054	289.88
853.301	307.88
853.548	307.88
853.794	401.88
854.041	332.88
854.288	272.88
854.534	380.88
854.781	316.88
855.028	306.88
855.274	393.88
855.52	321.88
855.767	310.88
856.013	347.88
856.26	630.88
856.506	324.88
856.752	365.88
856.998	338.88
857.244	303.88
857.49	348.88
857.736	352.88
857.982	353.88
858.228	349.88
858.474	297.88
858.72	337.88
858.966	357.88
859.212	322.88
859.458	337.88
859.703	352.88
859.949	308.88
860.195	368.88
860.44	361.88
860.686	313.88
860.931	389.88
861.177	317.88
861.422	379.88
861.667	316.88
861.913	321.88
862.158	323.88
862.403	381.88
862.648	364.88
862.893	388.88
863.138	349.88
863.384	311.88
863.629	361.88
863.873	347.88
864.118	325.88
864.363	278.88
864.608	350.88
864.853	354.88
865.098	337.88
865.342	350.88
865.587	339.88
865.832	368.88
866.076	368.88
866.321	314.88
866.565	331.88
866.81	273.88
867.054	331.88
867.298	357.88
867.543	309.88
867.787	364.88
868.031	336.88
868.275	331.88
868.519	333.88
868.764	351.88
869.008	317.88
869.252	365.88
869.496	332.88
869.739	338.88
869.983	382.88
870.227	363.88
870.471	316.88
870.715	355.88
870.958	358.88
871.202	319.88
871.446	324.88
871.689	302.88
871.933	339.88
872.176	343.88
872.42	328.88
872.663	327.88
872.906	373.88
873.15	327.88
873.393	296.88
873.636	389.88
873.879	367.88
874.122	398.88
874.366	334.88
874.609	381.88
874.852	341.88
875.095	360.88
875.337	323.88
875.58	277.88
875.823	346.88
876.066	373.88
876.309	421.88
876.551	308.88
876.794	297.88
877.037	379.88
877.279	298.88
877.522	321.88
877.764	358.88
878.007	332.88
878.249	352.88
878.491	301.88
878.734	372.88
878.976	351.88
879.218	293.88
879.46	390.88
879.702	382.88
879.945	370.88
880.187	345.88
880.429	365.88
880.671	376.88
880.912	390.88
881.154	375.88
881.396	298.88
881.638	359.88
881.88	356.88
882.121	313.88
882.363	338.88
882.605	381.88
882.846	372.88
883.088	372.88
883.329	324.88
883.571	295.88
883.812	306.88
884.053	317.88
884.295	332.88
884.536	421.88
884.777	329.88
885.018	346.88
885.259	364.88
885.5	297.88
885.742	512.88
885.982	368.88
886.223	310.88
886.464	323.88
886.705	295.88
886.946	353.88
887.187	288.88
887.428	375.88
887.668	318.88
887.909	320.88
888.15	293.88
888.39	362.88
888.631	404.88
888.871	386.88
889.111	363.88
889.352	365.88
889.592	327.88
889.833	350.88
890.073	340.88
890.313	409.88
890.553	312.88
890.793	331.88
891.033	309.88
891.273	319.88
891.513	352.88
891.753	405.88
891.993	363.88
892.233	368.88
892.473	428.88
892.713	371.88
892.952	312.88
893.192	354.88
893.432	323.88
893.671	371.88
893.911	350.88
894.15	356.88
894.39	290.88
894.629	345.88
894.869	369.88
895.108	352.88
895.347	334.88
895.587	358.88
895.826	346.88
896.065	318.88
896.304	366.88
896.543	390.88
896.782	298.88
897.021	353.88
897.26	339.88
897.499	390.88
897.738	392.88
897.977	347.88
898.216	345.88
898.454	350.88
898.693	348.88
898.932	389.88
899.17	351.88
899.409	366.88
899.647	364.88
899.886	334.88
900.124	375.88
900.363	329.88
900.601	360.88
900.839	355.88
901.078	364.88
901.316	362.88
901.554	339.88
901.792	354.88
902.03	303.88
902.268	333.88
902.506	374.88
902.744	323.88
902.982	387.88
903.22	322.88
903.458	338.88
903.695	374.88
903.933	384.88
904.171	330.88
904.409	339.88
904.646	393.88
904.884	353.88
905.121	417.88
905.359	389.88
905.596	380.88
905.833	333.88
906.071	343.88
906.308	406.88
906.545	375.88
906.783	314.88
907.02	370.88
907.257	321.88
907.494	334.88
907.731	366.88
907.968	383.88
908.205	341.88
908.442	328.88
908.679	371.88
908.915	363.88
909.152	371.88
909.389	311.88
909.626	356.88
909.862	333.88
910.099	353.88
910.335	401.88
910.572	315.88
910.808	385.88
911.045	349.88
911.281	322.88
911.518	410.88
911.754	355.88
911.99	363.88
912.226	353.88
912.463	330.88
912.699	336.88
912.935	340.88
913.171	344.88
913.407	331.88
913.643	389.88
913.879	359.88
914.114	366.88
914.35	341.88
914.586	346.88
914.822	339.88
915.057	438.88
915.293	319.88
915.529	329.88
915.764	397.88
916	394.88
916.235	389.88
916.471	397.88
916.706	308.88
916.941	342.88
917.177	343.88
917.412	386.88
917.647	381.88
917.882	334.88
918.117	403.88
918.352	377.88
918.588	435.88
918.823	368.88
919.057	375.88
919.292	303.88
919.527	416.88
919.762	362.88
919.997	428.88
920.232	387.88
920.466	410.88
920.701	317.88
920.935	376.88
921.17	363.88
921.405	338.88
921.639	416.88
921.873	379.88
922.108	386.88
922.342	394.88
922.576	344.88
922.811	342.88
923.045	397.88
923.279	423.88
923.513	313.88
923.747	405.88
923.981	383.88
924.215	363.88
924.449	371.88
924.683	339.88
924.917	360.88
925.151	358.88
925.385	432.88
925.618	394.88
925.852	384.88
926.086	324.88
926.319	386.88
926.553	377.88
926.786	390.88
927.02	374.88
927.253	431.88
927.486	420.88
927.72	340.88
927.953	411.88
928.186	360.88
928.42	403.88
928.653	350.88
928.886	370.88
929.119	388.88
929.352	376.88
929.585	383.88
929.818	364.88
930.051	389.88
930.284	407.88
930.516	343.88
930.749	354.88
930.982	433.88
931.215	405.88
931.447	361.88
931.68	377.88
931.912	364.88
932.145	374.88
932.377	381.88
932.61	511.88
932.842	331.88
933.074	394.88
933.307	344.88
933.539	434.88
933.771	413.88
934.003	361.88
934.236	442.88
934.468	467.88
934.7	371.88
934.932	416.88
935.164	359.88
935.395	355.88
935.627	382.88
935.859	400.88
936.091	349.88
936.323	400.88
936.554	450.88
936.786	380.88
937.017	338.88
937.249	407.88
937.481	321.88
937.712	416.88
937.943	388.88
938.175	364.88
938.406	362.88
938.637	443.88
938.869	338.88
939.1	413.88
939.331	358.88
939.562	406.88
939.793	395.88
940.024	421.88
940.255	450.88
940.486	401.88
940.717	400.88
940.948	390.88
941.179	353.88
941.409	405.88
941.64	384.88
941.871	383.88
942.102	368.88
942.332	381.88
942.563	413.88
942.793	399.88
943.024	345.88
943.254	382.88
943.484	440.88
943.715	413.88
943.945	396.88
944.175	335.88
944.405	324.88
944.636	347.88
944.866	379.88
945.096	404.88
945.326	322.88
945.556	399.88
945.786	425.88
946.016	372.88
946.245	338.88
946.475	374.88
946.705	380.88
946.935	403.88
947.164	395.88
947.394	363.88
947.624	391.88
947.853	439.88
948.083	408.88
948.312	389.88
948.542	336.88
948.771	320.88
949	356.88
949.23	359.88
949.459	380.88
949.688	433.88
949.917	373.88
950.146	394.88
950.375	439.88
950.604	337.88
950.833	445.88
951.062	446.88
951.291	386.88
951.52	362.88
951.749	405.88
951.978	366.88
952.206	367.88
952.435	385.88
952.664	428.88
952.892	428.88
953.121	409.88
953.349	436.88
953.578	433.88
953.806	400.88
954.035	369.88
954.263	419.88
954.491	377.88
954.719	435.88
954.948	388.88
955.176	384.88
955.404	339.88
955.632	390.88
955.86	402.88
956.088	409.88
956.316	440.88
956.544	464.88
956.772	411.88
956.999	392.88
957.227	495.88
957.455	395.88
957.683	422.88
957.91	401.88
958.138	390.88
958.365	408.88
958.593	401.88
958.82	363.88
959.048	444.88
959.275	410.88
959.502	410.88
959.73	384.88
959.957	423.88
960.184	454.88
960.411	395.88
960.638	472.88
960.865	419.88
961.092	453.88
961.319	358.88
961.546	446.88
961.773	446.88
962	410.88
962.227	476.88
962.454	435.88
962.68	418.88
962.907	452.88
963.134	413.88
963.36	449.88
963.587	472.88
963.813	419.88
964.04	464.88
964.266	405.88
964.493	492.88
964.719	480.88
964.945	491.88
965.171	396.88
965.398	458.88
965.624	487.88
965.85	417.88
966.076	431.88
966.302	477.88
966.528	436.88
966.754	493.88
966.98	476.88
967.206	476.88
967.431	414.88
967.657	502.88
967.883	479.88
968.109	484.88
968.334	426.88
968.56	428.88
968.785	433.88
969.011	419.88
969.236	475.88
969.462	416.88
969.687	453.88
969.912	508.88
970.138	513.88
970.363	431.88
970.588	477.88
970.813	451.88
971.038	423.88
971.263	475.88
971.488	472.88
971.713	515.88
971.938	508.88
972.163	416.88
972.388	444.88
972.613	434.88
972.838	471.88
973.062	446.88
973.287	455.88
973.512	411.88
973.736	462.88
973.961	455.88
974.185	445.88
974.41	482.88
974.634	404.88
974.858	420.88
975.083	482.88
975.307	493.88
975.531	447.88
975.755	401.88
975.98	439.88
976.204	369.88
976.428	387.88
976.652	400.88
976.876	392.88
977.1	444.88
977.324	406.88
977.547	472.88
977.771	473.88
977.995	439.88
978.219	397.88
978.442	514.88
978.666	451.88
978.89	448.88
979.113	440.88
979.337	447.88
979.56	411.88
979.783	494.88
980.007	420.88
980.23	443.88
980.453	417.88
980.677	460.88
980.9	441.88
981.123	359.88
981.346	456.88
981.569	464.88
981.792	496.88
982.015	453.88
982.238	426.88
982.461	449.88
982.684	449.88
982.907	423.88
983.129	419.88
983.352	469.88
983.575	458.88
983.797	470.88
984.02	441.88
984.242	447.88
984.465	456.88
984.687	493.88
984.91	515.88
985.132	506.88
985.354	517.88
985.577	475.88
985.799	478.88
986.021	421.88
986.243	452.88
986.465	476.88
986.687	519.88
986.909	563.88
987.131	489.88
987.353	458.88
987.575	500.88
987.797	474.88
988.019	420.88
988.241	479.88
988.462	456.88
988.684	506.88
988.906	544.88
989.127	558.88
989.349	455.88
989.57	495.88
989.792	539.88
990.013	551.88
990.234	549.88
990.456	575.88
990.677	544.88
990.898	513.88
991.119	507.88
991.341	533.88
991.562	479.88
991.783	535.88
992.004	491.88
992.225	460.88
992.446	521.88
992.667	470.88
992.887	536.88
993.108	450.88
993.329	567.88
993.55	526.88
993.77	478.88
993.991	484.88
994.212	541.88
994.432	513.88
994.653	555.88
994.873	542.88
995.093	449.88
995.314	503.88
995.534	552.88
995.754	576.88
995.975	590.88
996.195	482.88
996.415	561.88
996.635	534.88
996.855	546.88
997.075	517.88
997.295	518.88
997.515	509.88
997.735	553.88
997.955	512.88
998.174	519.88
998.394	508.88
998.614	555.88
998.834	511.88
999.053	589.88
999.273	557.88
999.492	630.88
999.712	548.88
999.931	537.88
1000.151	585.88
1000.37	567.88
1000.589	629.88
1000.809	562.88
1001.028	689.88
1001.247	640.88
1001.466	532.88
1001.685	678.88
1001.904	638.88
1002.123	623.88
1002.342	623.88
1002.561	596.88
1002.78	617.88
1002.999	695.88
1003.218	643.88
1003.436	624.88
1003.655	669.88
1003.874	625.88
1004.092	658.88
1004.311	693.88
1004.53	657.88
1004.748	704.88
1004.966	654.88
1005.185	718.88
1005.403	702.88
1005.622	690.88
1005.84	743.88
1006.058	680.88
1006.276	662.88
1006.494	1158.88
1006.712	681.88
1006.931	750.88
1007.149	644.88
1007.367	656.88
1007.584	676.88
1007.802	703.88
1008.02	654.88
1008.238	731.88
1008.456	723.88
1008.673	581.88
1008.891	680.88
1009.109	615.88
1009.326	668.88
1009.544	699.88
1009.761	586.88
1009.979	664.88
1010.196	630.88
1010.413	667.88
1010.631	659.88
1010.848	675.88
1011.065	652.88
1011.282	600.88
1011.5	556.88
1011.717	662.88
1011.934	625.88
1012.151	666.88
1012.368	657.88
1012.585	604.88
1012.801	651.88
1013.018	612.88
1013.235	599.88
1013.452	609.88
1013.669	598.88
1013.885	577.88
1014.102	610.88
1014.318	567.88
1014.535	519.88
1014.751	562.88
1014.968	558.88
1015.184	618.88
1015.401	532.88
1015.617	578.88
1015.833	551.88
1016.049	555.88
1016.266	547.88
1016.482	552.88
1016.698	502.88
1016.914	566.88
1017.13	502.88
1017.346	510.88
1017.562	589.88
1017.778	506.88
1017.993	504.88
1018.209	552.88
1018.425	543.88
1018.641	496.88
1018.856	477.88
1019.072	512.88
1019.288	543.88
1019.503	492.88
1019.719	441.88
1019.934	446.88
1020.149	557.88
1020.365	489.88
1020.58	475.88
1020.795	540.88
1021.011	489.88
1021.226	501.88
1021.441	554.88
1021.656	490.88
1021.871	449.88
1022.086	457.88
1022.301	466.88
1022.516	469.88
1022.731	534.88
1022.946	460.88
1023.16	468.88
1023.375	453.88
1023.59	456.88
1023.804	434.88
1024.019	545.88
1024.234	418.88
1024.448	474.88
1024.663	407.88
1024.877	444.88
1025.092	463.88
1025.306	495.88
1025.52	409.88
1025.734	513.88
1025.949	446.88
1026.163	440.88
1026.377	379.88
1026.591	453.88
1026.805	376.88
1027.019	393.88
1027.233	366.88
1027.447	323.88
1027.661	444.88
1027.875	375.88
1028.088	383.88
1028.302	332.88
1028.516	351.88
1028.73	363.88
1028.943	358.88
1029.157	330.88
1029.37	309.88
1029.584	-3.12
1029.797	-3.12
1030.011	-4.12
1030.224	-1.12
