Data from QEP037381__19__10-15-21-059.txt Node

Date: Fri Apr 21 10:15:21 EDT 2023
User: dcclab
Spectrometer: QEP03738
Trigger mode: 4
Integration Time (sec): 1.000000E1
Scans to average: 1
Electric dark correction enabled: true
Nonlinearity correction enabled: false
Boxcar width: 0
XAxis mode: Wavelengths
Number of Pixels in Spectrum: 1044
>>>>>Begin Spectral Data<<<<<
784.041	8.38
784.3	1.38
784.558	-0.62
784.817	-4.62
785.075	234.38
785.334	211.38
785.592	211.38
785.851	198.38
786.109	234.38
786.368	242.38
786.626	261.38
786.884	275.38
787.143	264.38
787.401	210.38
787.659	268.38
787.917	252.38
788.175	296.38
788.433	274.38
788.691	277.38
788.949	288.38
789.207	311.38
789.465	250.38
789.723	278.38
789.98	252.38
790.238	313.38
790.496	305.38
790.753	300.38
791.011	365.38
791.268	307.38
791.526	300.38
791.783	333.38
792.041	316.38
792.298	254.38
792.556	325.38
792.813	317.38
793.07	293.38
793.327	274.38
793.584	374.38
793.841	296.38
794.099	325.38
794.356	386.38
794.613	288.38
794.869	322.38
795.126	302.38
795.383	283.38
795.64	302.38
795.897	264.38
796.153	337.38
796.41	308.38
796.667	294.38
796.923	298.38
797.18	293.38
797.436	325.38
797.693	290.38
797.949	335.38
798.206	363.38
798.462	264.38
798.718	326.38
798.974	310.38
799.231	341.38
799.487	333.38
799.743	340.38
799.999	348.38
800.255	329.38
800.511	306.38
800.767	340.38
801.023	300.38
801.279	320.38
801.534	321.38
801.79	327.38
802.046	309.38
802.302	346.38
802.557	330.38
802.813	343.38
803.068	292.38
803.324	341.38
803.579	305.38
803.835	302.38
804.09	352.38
804.345	285.38
804.601	273.38
804.856	310.38
805.111	321.38
805.366	306.38
805.621	318.38
805.876	336.38
806.131	317.38
806.386	322.38
806.641	281.38
806.896	304.38
807.151	372.38
807.406	323.38
807.661	330.38
807.915	319.38
808.17	340.38
808.425	328.38
808.679	287.38
808.934	379.38
809.188	308.38
809.443	339.38
809.697	372.38
809.951	296.38
810.206	306.38
810.46	351.38
810.714	349.38
810.968	362.38
811.223	290.38
811.477	326.38
811.731	350.38
811.985	280.38
812.239	241.38
812.493	289.38
812.747	322.38
813	264.38
813.254	328.38
813.508	343.38
813.762	296.38
814.015	303.38
814.269	314.38
814.522	320.38
814.776	345.38
815.03	337.38
815.283	340.38
815.536	339.38
815.79	335.38
816.043	334.38
816.296	339.38
816.55	324.38
816.803	329.38
817.056	414.38
817.309	333.38
817.562	332.38
817.815	379.38
818.068	281.38
818.321	298.38
818.574	295.38
818.827	346.38
819.079	293.38
819.332	413.38
819.585	346.38
819.838	388.38
820.09	298.38
820.343	369.38
820.595	295.38
820.848	348.38
821.1	346.38
821.353	326.38
821.605	319.38
821.857	376.38
822.11	281.38
822.362	299.38
822.614	286.38
822.866	325.38
823.118	263.38
823.37	374.38
823.622	317.38
823.874	305.38
824.126	352.38
824.378	292.38
824.63	314.38
824.882	339.38
825.134	323.38
825.385	348.38
825.637	340.38
825.888	303.38
826.14	327.38
826.392	292.38
826.643	292.38
826.895	380.38
827.146	325.38
827.397	321.38
827.649	390.38
827.9	293.38
828.151	274.38
828.402	282.38
828.653	319.38
828.905	331.38
829.156	377.38
829.407	295.38
829.658	323.38
829.909	350.38
830.159	343.38
830.41	351.38
830.661	356.38
830.912	339.38
831.162	311.38
831.413	309.38
831.664	355.38
831.914	323.38
832.165	343.38
832.415	342.38
832.666	329.38
832.916	364.38
833.167	311.38
833.417	375.38
833.667	357.38
833.917	325.38
834.168	382.38
834.418	361.38
834.668	330.38
834.918	272.38
835.168	315.38
835.418	268.38
835.668	323.38
835.918	356.38
836.167	344.38
836.417	290.38
836.667	360.38
836.917	376.38
837.166	312.38
837.416	361.38
837.666	361.38
837.915	325.38
838.165	347.38
838.414	305.38
838.663	275.38
838.913	332.38
839.162	293.38
839.411	390.38
839.661	305.38
839.91	332.38
840.159	308.38
840.408	346.38
840.657	321.38
840.906	344.38
841.155	360.38
841.404	332.38
841.653	330.38
841.902	300.38
842.15	340.38
842.399	335.38
842.648	322.38
842.897	334.38
843.145	294.38
843.394	294.38
843.642	308.38
843.891	360.38
844.139	323.38
844.388	302.38
844.636	270.38
844.884	312.38
845.133	299.38
845.381	337.38
845.629	345.38
845.877	286.38
846.125	320.38
846.373	327.38
846.621	305.38
846.869	361.38
847.117	341.38
847.365	327.38
847.613	345.38
847.861	345.38
848.108	372.38
848.356	347.38
848.604	308.38
848.851	338.38
849.099	335.38
849.346	319.38
849.594	351.38
849.841	359.38
850.089	308.38
850.336	292.38
850.583	313.38
850.831	333.38
851.078	340.38
851.325	300.38
851.572	379.38
851.819	352.38
852.066	322.38
852.313	312.38
852.56	307.38
852.807	295.38
853.054	301.38
853.301	314.38
853.548	319.38
853.794	391.38
854.041	333.38
854.288	270.38
854.534	387.38
854.781	308.38
855.028	300.38
855.274	398.38
855.52	323.38
855.767	300.38
856.013	344.38
856.26	640.38
856.506	316.38
856.752	374.38
856.998	321.38
857.244	309.38
857.49	344.38
857.736	349.38
857.982	346.38
858.228	350.38
858.474	292.38
858.72	342.38
858.966	354.38
859.212	342.38
859.458	351.38
859.703	346.38
859.949	311.38
860.195	368.38
860.44	363.38
860.686	319.38
860.931	380.38
861.177	316.38
861.422	388.38
861.667	323.38
861.913	327.38
862.158	324.38
862.403	371.38
862.648	374.38
862.893	380.38
863.138	351.38
863.384	307.38
863.629	367.38
863.873	353.38
864.118	341.38
864.363	275.38
864.608	348.38
864.853	365.38
865.098	333.38
865.342	358.38
865.587	328.38
865.832	373.38
866.076	368.38
866.321	319.38
866.565	338.38
866.81	263.38
867.054	322.38
867.298	347.38
867.543	313.38
867.787	363.38
868.031	343.38
868.275	342.38
868.519	331.38
868.764	350.38
869.008	323.38
869.252	387.38
869.496	336.38
869.739	338.38
869.983	390.38
870.227	374.38
870.471	319.38
870.715	345.38
870.958	354.38
871.202	315.38
871.446	324.38
871.689	300.38
871.933	336.38
872.176	342.38
872.42	323.38
872.663	321.38
872.906	387.38
873.15	332.38
873.393	281.38
873.636	388.38
873.879	374.38
874.122	401.38
874.366	343.38
874.609	371.38
874.852	338.38
875.095	346.38
875.337	330.38
875.58	282.38
875.823	334.38
876.066	383.38
876.309	411.38
876.551	320.38
876.794	301.38
877.037	383.38
877.279	305.38
877.522	304.38
877.764	358.38
878.007	323.38
878.249	351.38
878.491	306.38
878.734	373.38
878.976	357.38
879.218	310.38
879.46	401.38
879.702	381.38
879.945	361.38
880.187	328.38
880.429	372.38
880.671	370.38
880.912	372.38
881.154	365.38
881.396	278.38
881.638	351.38
881.88	344.38
882.121	312.38
882.363	332.38
882.605	393.38
882.846	364.38
883.088	372.38
883.329	324.38
883.571	307.38
883.812	311.38
884.053	327.38
884.295	322.38
884.536	410.38
884.777	335.38
885.018	348.38
885.259	364.38
885.5	289.38
885.742	507.38
885.982	371.38
886.223	320.38
886.464	324.38
886.705	304.38
886.946	347.38
887.187	282.38
887.428	385.38
887.668	326.38
887.909	298.38
888.15	302.38
888.39	368.38
888.631	401.38
888.871	381.38
889.111	365.38
889.352	366.38
889.592	333.38
889.833	360.38
890.073	357.38
890.313	422.38
890.553	306.38
890.793	338.38
891.033	321.38
891.273	319.38
891.513	344.38
891.753	403.38
891.993	348.38
892.233	367.38
892.473	429.38
892.713	377.38
892.952	313.38
893.192	364.38
893.432	330.38
893.671	383.38
893.911	346.38
894.15	335.38
894.39	302.38
894.629	326.38
894.869	352.38
895.108	349.38
895.347	315.38
895.587	363.38
895.826	330.38
896.065	316.38
896.304	374.38
896.543	402.38
896.782	293.38
897.021	350.38
897.26	345.38
897.499	392.38
897.738	402.38
897.977	358.38
898.216	342.38
898.454	364.38
898.693	333.38
898.932	380.38
899.17	349.38
899.409	350.38
899.647	354.38
899.886	335.38
900.124	358.38
900.363	319.38
900.601	350.38
900.839	355.38
901.078	366.38
901.316	343.38
901.554	337.38
901.792	364.38
902.03	302.38
902.268	341.38
902.506	382.38
902.744	349.38
902.982	395.38
903.22	319.38
903.458	336.38
903.695	385.38
903.933	374.38
904.171	327.38
904.409	342.38
904.646	389.38
904.884	338.38
905.121	411.38
905.359	386.38
905.596	382.38
905.833	335.38
906.071	340.38
906.308	408.38
906.545	388.38
906.783	328.38
907.02	357.38
907.257	325.38
907.494	341.38
907.731	361.38
907.968	386.38
908.205	327.38
908.442	340.38
908.679	356.38
908.915	364.38
909.152	370.38
909.389	305.38
909.626	354.38
909.862	334.38
910.099	360.38
910.335	402.38
910.572	317.38
910.808	372.38
911.045	349.38
911.281	337.38
911.518	406.38
911.754	346.38
911.99	375.38
912.226	353.38
912.463	319.38
912.699	354.38
912.935	358.38
913.171	334.38
913.407	321.38
913.643	402.38
913.879	372.38
914.114	368.38
914.35	345.38
914.586	360.38
914.822	338.38
915.057	445.38
915.293	318.38
915.529	323.38
915.764	401.38
916	376.38
916.235	370.38
916.471	395.38
916.706	311.38
916.941	343.38
917.177	343.38
917.412	388.38
917.647	404.38
917.882	332.38
918.117	389.38
918.352	377.38
918.588	421.38
918.823	348.38
919.057	374.38
919.292	293.38
919.527	416.38
919.762	359.38
919.997	423.38
920.232	369.38
920.466	424.38
920.701	320.38
920.935	381.38
921.17	358.38
921.405	321.38
921.639	404.38
921.873	373.38
922.108	384.38
922.342	392.38
922.576	339.38
922.811	348.38
923.045	404.38
923.279	421.38
923.513	318.38
923.747	402.38
923.981	392.38
924.215	363.38
924.449	360.38
924.683	331.38
924.917	353.38
925.151	365.38
925.385	424.38
925.618	383.38
925.852	385.38
926.086	329.38
926.319	385.38
926.553	377.38
926.786	398.38
927.02	365.38
927.253	398.38
927.486	419.38
927.72	343.38
927.953	401.38
928.186	374.38
928.42	414.38
928.653	346.38
928.886	350.38
929.119	395.38
929.352	385.38
929.585	379.38
929.818	363.38
930.051	397.38
930.284	406.38
930.516	322.38
930.749	357.38
930.982	420.38
931.215	405.38
931.447	350.38
931.68	380.38
931.912	372.38
932.145	355.38
932.377	381.38
932.61	513.38
932.842	317.38
933.074	392.38
933.307	328.38
933.539	448.38
933.771	426.38
934.003	369.38
934.236	452.38
934.468	458.38
934.7	383.38
934.932	409.38
935.164	372.38
935.395	350.38
935.627	384.38
935.859	407.38
936.091	356.38
936.323	410.38
936.554	448.38
936.786	389.38
937.017	353.38
937.249	400.38
937.481	340.38
937.712	400.38
937.943	383.38
938.175	357.38
938.406	371.38
938.637	451.38
938.869	349.38
939.1	420.38
939.331	357.38
939.562	426.38
939.793	399.38
940.024	425.38
940.255	435.38
940.486	405.38
940.717	400.38
940.948	389.38
941.179	350.38
941.409	376.38
941.64	384.38
941.871	399.38
942.102	374.38
942.332	393.38
942.563	406.38
942.793	402.38
943.024	343.38
943.254	379.38
943.484	428.38
943.715	422.38
943.945	399.38
944.175	352.38
944.405	330.38
944.636	337.38
944.866	379.38
945.096	391.38
945.326	334.38
945.556	395.38
945.786	428.38
946.016	373.38
946.245	338.38
946.475	374.38
946.705	374.38
946.935	399.38
947.164	396.38
947.394	364.38
947.624	400.38
947.853	441.38
948.083	393.38
948.312	380.38
948.542	354.38
948.771	335.38
949	357.38
949.23	364.38
949.459	369.38
949.688	453.38
949.917	380.38
950.146	398.38
950.375	454.38
950.604	355.38
950.833	444.38
951.062	446.38
951.291	391.38
951.52	375.38
951.749	406.38
951.978	355.38
952.206	382.38
952.435	364.38
952.664	421.38
952.892	430.38
953.121	406.38
953.349	445.38
953.578	424.38
953.806	422.38
954.035	372.38
954.263	431.38
954.491	360.38
954.719	433.38
954.948	374.38
955.176	377.38
955.404	338.38
955.632	409.38
955.86	419.38
956.088	415.38
956.316	440.38
956.544	472.38
956.772	410.38
956.999	403.38
957.227	493.38
957.455	404.38
957.683	416.38
957.91	393.38
958.138	402.38
958.365	418.38
958.593	418.38
958.82	370.38
959.048	438.38
959.275	420.38
959.502	424.38
959.73	398.38
959.957	425.38
960.184	460.38
960.411	401.38
960.638	474.38
960.865	426.38
961.092	441.38
961.319	378.38
961.546	466.38
961.773	464.38
962	425.38
962.227	459.38
962.454	438.38
962.68	420.38
962.907	458.38
963.134	405.38
963.36	438.38
963.587	491.38
963.813	412.38
964.04	470.38
964.266	408.38
964.493	520.38
964.719	475.38
964.945	487.38
965.171	394.38
965.398	469.38
965.624	497.38
965.85	425.38
966.076	443.38
966.302	482.38
966.528	447.38
966.754	482.38
966.98	495.38
967.206	486.38
967.431	420.38
967.657	514.38
967.883	486.38
968.109	487.38
968.334	426.38
968.56	435.38
968.785	457.38
969.011	419.38
969.236	475.38
969.462	425.38
969.687	446.38
969.912	483.38
970.138	510.38
970.363	444.38
970.588	459.38
970.813	458.38
971.038	434.38
971.263	498.38
971.488	485.38
971.713	508.38
971.938	516.38
972.163	412.38
972.388	462.38
972.613	448.38
972.838	453.38
973.062	461.38
973.287	471.38
973.512	399.38
973.736	460.38
973.961	450.38
974.185	439.38
974.41	481.38
974.634	400.38
974.858	424.38
975.083	477.38
975.307	519.38
975.531	441.38
975.755	415.38
975.98	434.38
976.204	384.38
976.428	391.38
976.652	405.38
976.876	397.38
977.1	438.38
977.324	410.38
977.547	460.38
977.771	466.38
977.995	452.38
978.219	385.38
978.442	512.38
978.666	457.38
978.89	456.38
979.113	442.38
979.337	456.38
979.56	404.38
979.783	503.38
980.007	415.38
980.23	449.38
980.453	429.38
980.677	468.38
980.9	445.38
981.123	379.38
981.346	475.38
981.569	457.38
981.792	497.38
982.015	449.38
982.238	421.38
982.461	450.38
982.684	420.38
982.907	414.38
983.129	420.38
983.352	493.38
983.575	466.38
983.797	468.38
984.02	435.38
984.242	447.38
984.465	454.38
984.687	479.38
984.91	514.38
985.132	499.38
985.354	511.38
985.577	469.38
985.799	482.38
986.021	409.38
986.243	450.38
986.465	471.38
986.687	523.38
986.909	551.38
987.131	498.38
987.353	466.38
987.575	523.38
987.797	479.38
988.019	422.38
988.241	475.38
988.462	439.38
988.684	498.38
988.906	529.38
989.127	572.38
989.349	456.38
989.57	501.38
989.792	518.38
990.013	543.38
990.234	550.38
990.456	574.38
990.677	546.38
990.898	503.38
991.119	513.38
991.341	544.38
991.562	488.38
991.783	538.38
992.004	496.38
992.225	468.38
992.446	520.38
992.667	450.38
992.887	547.38
993.108	447.38
993.329	591.38
993.55	532.38
993.77	491.38
993.991	489.38
994.212	544.38
994.432	532.38
994.653	570.38
994.873	544.38
995.093	447.38
995.314	497.38
995.534	554.38
995.754	580.38
995.975	601.38
996.195	504.38
996.415	555.38
996.635	538.38
996.855	556.38
997.075	534.38
997.295	532.38
997.515	501.38
997.735	570.38
997.955	538.38
998.174	529.38
998.394	509.38
998.614	559.38
998.834	497.38
999.053	592.38
999.273	567.38
999.492	623.38
999.712	560.38
999.931	535.38
1000.151	607.38
1000.37	574.38
1000.589	638.38
1000.809	562.38
1001.028	686.38
1001.247	635.38
1001.466	527.38
1001.685	677.38
1001.904	630.38
1002.123	626.38
1002.342	647.38
1002.561	593.38
1002.78	630.38
1002.999	668.38
1003.218	630.38
1003.436	622.38
1003.655	671.38
1003.874	616.38
1004.092	647.38
1004.311	697.38
1004.53	661.38
1004.748	724.38
1004.966	664.38
1005.185	730.38
1005.403	704.38
1005.622	673.38
1005.84	761.38
1006.058	665.38
1006.276	695.38
1006.494	1154.38
1006.712	679.38
1006.931	742.38
1007.149	646.38
1007.367	650.38
1007.584	686.38
1007.802	708.38
1008.02	640.38
1008.238	716.38
1008.456	719.38
1008.673	587.38
1008.891	694.38
1009.109	625.38
1009.326	659.38
1009.544	725.38
1009.761	591.38
1009.979	668.38
1010.196	607.38
1010.413	667.38
1010.631	668.38
1010.848	672.38
1011.065	663.38
1011.282	631.38
1011.5	553.38
1011.717	683.38
1011.934	624.38
1012.151	651.38
1012.368	649.38
1012.585	592.38
1012.801	647.38
1013.018	603.38
1013.235	572.38
1013.452	604.38
1013.669	599.38
1013.885	577.38
1014.102	583.38
1014.318	566.38
1014.535	531.38
1014.751	566.38
1014.968	557.38
1015.184	615.38
1015.401	533.38
1015.617	574.38
1015.833	529.38
1016.049	536.38
1016.266	534.38
1016.482	560.38
1016.698	500.38
1016.914	564.38
1017.13	516.38
1017.346	520.38
1017.562	580.38
1017.778	509.38
1017.993	505.38
1018.209	554.38
1018.425	533.38
1018.641	493.38
1018.856	488.38
1019.072	494.38
1019.288	543.38
1019.503	514.38
1019.719	432.38
1019.934	451.38
1020.149	539.38
1020.365	496.38
1020.58	479.38
1020.795	524.38
1021.011	496.38
1021.226	500.38
1021.441	556.38
1021.656	506.38
1021.871	444.38
1022.086	472.38
1022.301	473.38
1022.516	475.38
1022.731	528.38
1022.946	470.38
1023.16	467.38
1023.375	434.38
1023.59	442.38
1023.804	425.38
1024.019	528.38
1024.234	433.38
1024.448	478.38
1024.663	419.38
1024.877	437.38
1025.092	475.38
1025.306	490.38
1025.52	401.38
1025.734	512.38
1025.949	449.38
1026.163	437.38
1026.377	391.38
1026.591	449.38
1026.805	391.38
1027.019	397.38
1027.233	362.38
1027.447	313.38
1027.661	424.38
1027.875	365.38
1028.088	405.38
1028.302	343.38
1028.516	332.38
1028.73	360.38
1028.943	359.38
1029.157	338.38
1029.37	311.38
1029.584	0.38
1029.797	-1.62
1030.011	-0.62
1030.224	-2.62
