Data from QEP037381__97__10-28-21-077.txt Node

Date: Fri Apr 21 10:28:21 EDT 2023
User: dcclab
Spectrometer: QEP03738
Trigger mode: 4
Integration Time (sec): 1.000000E1
Scans to average: 1
Electric dark correction enabled: true
Nonlinearity correction enabled: false
Boxcar width: 0
XAxis mode: Wavelengths
Number of Pixels in Spectrum: 1044
>>>>>Begin Spectral Data<<<<<
784.041	14.62
784.3	-1.38
784.558	-4.38
784.817	-1.38
785.075	217.62
785.334	218.62
785.592	199.62
785.851	192.62
786.109	220.62
786.368	238.62
786.626	247.62
786.884	271.62
787.143	262.62
787.401	213.62
787.659	270.62
787.917	256.62
788.175	302.62
788.433	274.62
788.691	269.62
788.949	288.62
789.207	310.62
789.465	266.62
789.723	263.62
789.98	246.62
790.238	319.62
790.496	287.62
790.753	289.62
791.011	363.62
791.268	304.62
791.526	304.62
791.783	321.62
792.041	324.62
792.298	252.62
792.556	317.62
792.813	311.62
793.07	290.62
793.327	285.62
793.584	369.62
793.841	302.62
794.099	309.62
794.356	388.62
794.613	295.62
794.869	347.62
795.126	294.62
795.383	285.62
795.64	309.62
795.897	260.62
796.153	309.62
796.41	302.62
796.667	288.62
796.923	302.62
797.18	302.62
797.436	334.62
797.693	281.62
797.949	336.62
798.206	368.62
798.462	269.62
798.718	321.62
798.974	289.62
799.231	339.62
799.487	311.62
799.743	319.62
799.999	340.62
800.255	324.62
800.511	303.62
800.767	338.62
801.023	310.62
801.279	325.62
801.534	339.62
801.79	337.62
802.046	290.62
802.302	351.62
802.557	331.62
802.813	345.62
803.068	282.62
803.324	343.62
803.579	316.62
803.835	296.62
804.09	339.62
804.345	288.62
804.601	280.62
804.856	307.62
805.111	320.62
805.366	306.62
805.621	311.62
805.876	342.62
806.131	330.62
806.386	301.62
806.641	278.62
806.896	299.62
807.151	359.62
807.406	313.62
807.661	331.62
807.915	313.62
808.17	332.62
808.425	337.62
808.679	291.62
808.934	381.62
809.188	293.62
809.443	342.62
809.697	350.62
809.951	305.62
810.206	303.62
810.46	358.62
810.714	329.62
810.968	349.62
811.223	262.62
811.477	313.62
811.731	331.62
811.985	264.62
812.239	229.62
812.493	280.62
812.747	304.62
813	267.62
813.254	325.62
813.508	339.62
813.762	287.62
814.015	297.62
814.269	312.62
814.522	349.62
814.776	336.62
815.03	334.62
815.283	312.62
815.536	340.62
815.79	339.62
816.043	336.62
816.296	327.62
816.55	333.62
816.803	310.62
817.056	402.62
817.309	326.62
817.562	328.62
817.815	369.62
818.068	277.62
818.321	293.62
818.574	288.62
818.827	326.62
819.079	293.62
819.332	398.62
819.585	332.62
819.838	397.62
820.09	301.62
820.343	354.62
820.595	283.62
820.848	334.62
821.1	343.62
821.353	329.62
821.605	307.62
821.857	380.62
822.11	274.62
822.362	290.62
822.614	284.62
822.866	309.62
823.118	265.62
823.37	365.62
823.622	306.62
823.874	309.62
824.126	345.62
824.378	282.62
824.63	305.62
824.882	314.62
825.134	303.62
825.385	348.62
825.637	316.62
825.888	307.62
826.14	327.62
826.392	292.62
826.643	289.62
826.895	374.62
827.146	309.62
827.397	297.62
827.649	386.62
827.9	301.62
828.151	273.62
828.402	283.62
828.653	313.62
828.905	323.62
829.156	376.62
829.407	302.62
829.658	302.62
829.909	368.62
830.159	337.62
830.41	337.62
830.661	360.62
830.912	322.62
831.162	308.62
831.413	302.62
831.664	353.62
831.914	320.62
832.165	335.62
832.415	339.62
832.666	342.62
832.916	353.62
833.167	302.62
833.417	387.62
833.667	336.62
833.917	327.62
834.168	375.62
834.418	339.62
834.668	331.62
834.918	283.62
835.168	303.62
835.418	263.62
835.668	329.62
835.918	360.62
836.167	343.62
836.417	296.62
836.667	350.62
836.917	369.62
837.166	318.62
837.416	355.62
837.666	360.62
837.915	322.62
838.165	350.62
838.414	303.62
838.663	270.62
838.913	335.62
839.162	302.62
839.411	395.62
839.661	307.62
839.91	320.62
840.159	319.62
840.408	332.62
840.657	328.62
840.906	336.62
841.155	365.62
841.404	322.62
841.653	345.62
841.902	298.62
842.15	343.62
842.399	329.62
842.648	323.62
842.897	346.62
843.145	284.62
843.394	305.62
843.642	310.62
843.891	373.62
844.139	331.62
844.388	296.62
844.636	271.62
844.884	311.62
845.133	291.62
845.381	316.62
845.629	350.62
845.877	281.62
846.125	318.62
846.373	331.62
846.621	295.62
846.869	352.62
847.117	322.62
847.365	324.62
847.613	339.62
847.861	352.62
848.108	376.62
848.356	343.62
848.604	310.62
848.851	337.62
849.099	329.62
849.346	324.62
849.594	352.62
849.841	336.62
850.089	316.62
850.336	300.62
850.583	303.62
850.831	319.62
851.078	337.62
851.325	300.62
851.572	370.62
851.819	368.62
852.066	330.62
852.313	328.62
852.56	292.62
852.807	288.62
853.054	289.62
853.301	305.62
853.548	308.62
853.794	406.62
854.041	329.62
854.288	273.62
854.534	375.62
854.781	317.62
855.028	308.62
855.274	374.62
855.52	330.62
855.767	295.62
856.013	359.62
856.26	647.62
856.506	320.62
856.752	362.62
856.998	317.62
857.244	296.62
857.49	342.62
857.736	343.62
857.982	352.62
858.228	352.62
858.474	283.62
858.72	325.62
858.966	345.62
859.212	328.62
859.458	335.62
859.703	340.62
859.949	311.62
860.195	356.62
860.44	358.62
860.686	308.62
860.931	385.62
861.177	305.62
861.422	378.62
861.667	317.62
861.913	334.62
862.158	329.62
862.403	368.62
862.648	362.62
862.893	386.62
863.138	334.62
863.384	307.62
863.629	358.62
863.873	344.62
864.118	322.62
864.363	266.62
864.608	349.62
864.853	370.62
865.098	338.62
865.342	346.62
865.587	321.62
865.832	366.62
866.076	352.62
866.321	312.62
866.565	320.62
866.81	280.62
867.054	329.62
867.298	345.62
867.543	309.62
867.787	374.62
868.031	347.62
868.275	337.62
868.519	322.62
868.764	342.62
869.008	334.62
869.252	378.62
869.496	341.62
869.739	328.62
869.983	379.62
870.227	363.62
870.471	306.62
870.715	359.62
870.958	348.62
871.202	314.62
871.446	325.62
871.689	306.62
871.933	342.62
872.176	339.62
872.42	327.62
872.663	313.62
872.906	377.62
873.15	326.62
873.393	283.62
873.636	376.62
873.879	385.62
874.122	393.62
874.366	341.62
874.609	377.62
874.852	344.62
875.095	360.62
875.337	321.62
875.58	275.62
875.823	351.62
876.066	373.62
876.309	397.62
876.551	305.62
876.794	289.62
877.037	363.62
877.279	296.62
877.522	314.62
877.764	354.62
878.007	315.62
878.249	345.62
878.491	305.62
878.734	373.62
878.976	361.62
879.218	296.62
879.46	380.62
879.702	371.62
879.945	365.62
880.187	324.62
880.429	363.62
880.671	363.62
880.912	383.62
881.154	377.62
881.396	283.62
881.638	357.62
881.88	353.62
882.121	319.62
882.363	330.62
882.605	390.62
882.846	365.62
883.088	377.62
883.329	318.62
883.571	297.62
883.812	313.62
884.053	323.62
884.295	318.62
884.536	401.62
884.777	313.62
885.018	349.62
885.259	358.62
885.5	293.62
885.742	504.62
885.982	363.62
886.223	301.62
886.464	332.62
886.705	294.62
886.946	335.62
887.187	278.62
887.428	370.62
887.668	323.62
887.909	314.62
888.15	308.62
888.39	359.62
888.631	409.62
888.871	380.62
889.111	365.62
889.352	363.62
889.592	332.62
889.833	340.62
890.073	353.62
890.313	414.62
890.553	310.62
890.793	354.62
891.033	323.62
891.273	319.62
891.513	345.62
891.753	404.62
891.993	360.62
892.233	368.62
892.473	423.62
892.713	371.62
892.952	319.62
893.192	351.62
893.432	315.62
893.671	385.62
893.911	342.62
894.15	347.62
894.39	293.62
894.629	335.62
894.869	364.62
895.108	356.62
895.347	317.62
895.587	367.62
895.826	346.62
896.065	305.62
896.304	364.62
896.543	389.62
896.782	295.62
897.021	355.62
897.26	339.62
897.499	391.62
897.738	418.62
897.977	357.62
898.216	347.62
898.454	353.62
898.693	323.62
898.932	372.62
899.17	342.62
899.409	364.62
899.647	355.62
899.886	331.62
900.124	362.62
900.363	321.62
900.601	349.62
900.839	353.62
901.078	349.62
901.316	356.62
901.554	349.62
901.792	368.62
902.03	303.62
902.268	333.62
902.506	376.62
902.744	330.62
902.982	385.62
903.22	324.62
903.458	333.62
903.695	387.62
903.933	389.62
904.171	333.62
904.409	328.62
904.646	395.62
904.884	337.62
905.121	410.62
905.359	380.62
905.596	377.62
905.833	346.62
906.071	354.62
906.308	393.62
906.545	363.62
906.783	318.62
907.02	344.62
907.257	304.62
907.494	336.62
907.731	370.62
907.968	369.62
908.205	340.62
908.442	337.62
908.679	364.62
908.915	367.62
909.152	370.62
909.389	297.62
909.626	345.62
909.862	324.62
910.099	356.62
910.335	402.62
910.572	299.62
910.808	383.62
911.045	352.62
911.281	324.62
911.518	408.62
911.754	341.62
911.99	361.62
912.226	342.62
912.463	331.62
912.699	345.62
912.935	358.62
913.171	342.62
913.407	330.62
913.643	392.62
913.879	366.62
914.114	363.62
914.35	332.62
914.586	362.62
914.822	340.62
915.057	434.62
915.293	311.62
915.529	332.62
915.764	396.62
916	386.62
916.235	369.62
916.471	398.62
916.706	311.62
916.941	352.62
917.177	352.62
917.412	387.62
917.647	389.62
917.882	341.62
918.117	394.62
918.352	379.62
918.588	415.62
918.823	350.62
919.057	360.62
919.292	286.62
919.527	408.62
919.762	363.62
919.997	442.62
920.232	370.62
920.466	425.62
920.701	308.62
920.935	383.62
921.17	364.62
921.405	331.62
921.639	395.62
921.873	363.62
922.108	386.62
922.342	391.62
922.576	345.62
922.811	344.62
923.045	396.62
923.279	438.62
923.513	309.62
923.747	405.62
923.981	379.62
924.215	356.62
924.449	375.62
924.683	330.62
924.917	357.62
925.151	357.62
925.385	448.62
925.618	403.62
925.852	384.62
926.086	322.62
926.319	377.62
926.553	374.62
926.786	386.62
927.02	370.62
927.253	419.62
927.486	420.62
927.72	350.62
927.953	411.62
928.186	354.62
928.42	410.62
928.653	358.62
928.886	352.62
929.119	407.62
929.352	388.62
929.585	400.62
929.818	358.62
930.051	397.62
930.284	410.62
930.516	335.62
930.749	358.62
930.982	422.62
931.215	406.62
931.447	349.62
931.68	369.62
931.912	361.62
932.145	358.62
932.377	384.62
932.61	497.62
932.842	328.62
933.074	386.62
933.307	332.62
933.539	434.62
933.771	418.62
934.003	382.62
934.236	431.62
934.468	453.62
934.7	363.62
934.932	407.62
935.164	362.62
935.395	350.62
935.627	393.62
935.859	402.62
936.091	352.62
936.323	401.62
936.554	438.62
936.786	393.62
937.017	341.62
937.249	397.62
937.481	331.62
937.712	402.62
937.943	387.62
938.175	372.62
938.406	368.62
938.637	455.62
938.869	344.62
939.1	407.62
939.331	375.62
939.562	410.62
939.793	404.62
940.024	425.62
940.255	436.62
940.486	395.62
940.717	392.62
940.948	397.62
941.179	352.62
941.409	383.62
941.64	369.62
941.871	400.62
942.102	365.62
942.332	375.62
942.563	407.62
942.793	400.62
943.024	333.62
943.254	385.62
943.484	421.62
943.715	429.62
943.945	409.62
944.175	334.62
944.405	327.62
944.636	350.62
944.866	381.62
945.096	406.62
945.326	333.62
945.556	409.62
945.786	434.62
946.016	378.62
946.245	339.62
946.475	363.62
946.705	369.62
946.935	380.62
947.164	407.62
947.394	375.62
947.624	391.62
947.853	439.62
948.083	399.62
948.312	396.62
948.542	339.62
948.771	337.62
949	351.62
949.23	375.62
949.459	377.62
949.688	447.62
949.917	378.62
950.146	404.62
950.375	449.62
950.604	349.62
950.833	468.62
951.062	438.62
951.291	399.62
951.52	380.62
951.749	388.62
951.978	359.62
952.206	369.62
952.435	367.62
952.664	420.62
952.892	414.62
953.121	411.62
953.349	433.62
953.578	438.62
953.806	418.62
954.035	373.62
954.263	426.62
954.491	364.62
954.719	420.62
954.948	378.62
955.176	394.62
955.404	338.62
955.632	403.62
955.86	422.62
956.088	427.62
956.316	437.62
956.544	443.62
956.772	410.62
956.999	390.62
957.227	481.62
957.455	394.62
957.683	428.62
957.91	389.62
958.138	382.62
958.365	419.62
958.593	408.62
958.82	362.62
959.048	433.62
959.275	401.62
959.502	406.62
959.73	391.62
959.957	432.62
960.184	439.62
960.411	395.62
960.638	459.62
960.865	411.62
961.092	449.62
961.319	350.62
961.546	454.62
961.773	460.62
962	414.62
962.227	485.62
962.454	440.62
962.68	427.62
962.907	453.62
963.134	405.62
963.36	442.62
963.587	474.62
963.813	414.62
964.04	468.62
964.266	412.62
964.493	503.62
964.719	482.62
964.945	497.62
965.171	404.62
965.398	472.62
965.624	477.62
965.85	408.62
966.076	435.62
966.302	481.62
966.528	434.62
966.754	480.62
966.98	474.62
967.206	472.62
967.431	416.62
967.657	499.62
967.883	498.62
968.109	464.62
968.334	427.62
968.56	432.62
968.785	439.62
969.011	410.62
969.236	490.62
969.462	427.62
969.687	460.62
969.912	485.62
970.138	521.62
970.363	447.62
970.588	468.62
970.813	462.62
971.038	439.62
971.263	475.62
971.488	481.62
971.713	529.62
971.938	520.62
972.163	420.62
972.388	431.62
972.613	444.62
972.838	475.62
973.062	460.62
973.287	465.62
973.512	405.62
973.736	461.62
973.961	447.62
974.185	435.62
974.41	474.62
974.634	402.62
974.858	421.62
975.083	485.62
975.307	482.62
975.531	442.62
975.755	412.62
975.98	434.62
976.204	387.62
976.428	380.62
976.652	402.62
976.876	404.62
977.1	445.62
977.324	414.62
977.547	453.62
977.771	460.62
977.995	432.62
978.219	393.62
978.442	517.62
978.666	443.62
978.89	450.62
979.113	443.62
979.337	443.62
979.56	415.62
979.783	497.62
980.007	389.62
980.23	447.62
980.453	401.62
980.677	467.62
980.9	443.62
981.123	371.62
981.346	468.62
981.569	464.62
981.792	480.62
982.015	456.62
982.238	411.62
982.461	461.62
982.684	437.62
982.907	422.62
983.129	418.62
983.352	482.62
983.575	459.62
983.797	459.62
984.02	424.62
984.242	456.62
984.465	468.62
984.687	489.62
984.91	506.62
985.132	491.62
985.354	520.62
985.577	492.62
985.799	483.62
986.021	420.62
986.243	445.62
986.465	468.62
986.687	512.62
986.909	544.62
987.131	498.62
987.353	459.62
987.575	505.62
987.797	475.62
988.019	405.62
988.241	484.62
988.462	462.62
988.684	510.62
988.906	546.62
989.127	561.62
989.349	454.62
989.57	499.62
989.792	556.62
990.013	534.62
990.234	547.62
990.456	571.62
990.677	550.62
990.898	500.62
991.119	507.62
991.341	533.62
991.562	479.62
991.783	533.62
992.004	482.62
992.225	453.62
992.446	538.62
992.667	458.62
992.887	560.62
993.108	448.62
993.329	596.62
993.55	524.62
993.77	477.62
993.991	488.62
994.212	529.62
994.432	521.62
994.653	547.62
994.873	541.62
995.093	434.62
995.314	484.62
995.534	569.62
995.754	585.62
995.975	594.62
996.195	495.62
996.415	559.62
996.635	533.62
996.855	558.62
997.075	527.62
997.295	539.62
997.515	511.62
997.735	552.62
997.955	531.62
998.174	526.62
998.394	512.62
998.614	570.62
998.834	505.62
999.053	587.62
999.273	574.62
999.492	622.62
999.712	558.62
999.931	543.62
1000.151	586.62
1000.37	562.62
1000.589	639.62
1000.809	567.62
1001.028	691.62
1001.247	617.62
1001.466	537.62
1001.685	685.62
1001.904	638.62
1002.123	621.62
1002.342	620.62
1002.561	595.62
1002.78	630.62
1002.999	709.62
1003.218	646.62
1003.436	621.62
1003.655	685.62
1003.874	633.62
1004.092	650.62
1004.311	702.62
1004.53	657.62
1004.748	747.62
1004.966	662.62
1005.185	698.62
1005.403	710.62
1005.622	683.62
1005.84	737.62
1006.058	657.62
1006.276	678.62
1006.494	1169.62
1006.712	667.62
1006.931	746.62
1007.149	636.62
1007.367	643.62
1007.584	696.62
1007.802	701.62
1008.02	664.62
1008.238	735.62
1008.456	704.62
1008.673	590.62
1008.891	678.62
1009.109	635.62
1009.326	640.62
1009.544	724.62
1009.761	607.62
1009.979	670.62
1010.196	622.62
1010.413	670.62
1010.631	661.62
1010.848	679.62
1011.065	667.62
1011.282	615.62
1011.5	561.62
1011.717	658.62
1011.934	612.62
1012.151	667.62
1012.368	647.62
1012.585	590.62
1012.801	648.62
1013.018	604.62
1013.235	595.62
1013.452	591.62
1013.669	605.62
1013.885	565.62
1014.102	599.62
1014.318	554.62
1014.535	519.62
1014.751	565.62
1014.968	573.62
1015.184	614.62
1015.401	543.62
1015.617	576.62
1015.833	540.62
1016.049	554.62
1016.266	534.62
1016.482	559.62
1016.698	495.62
1016.914	556.62
1017.13	504.62
1017.346	522.62
1017.562	583.62
1017.778	513.62
1017.993	489.62
1018.209	555.62
1018.425	523.62
1018.641	500.62
1018.856	461.62
1019.072	510.62
1019.288	544.62
1019.503	497.62
1019.719	433.62
1019.934	459.62
1020.149	549.62
1020.365	490.62
1020.58	461.62
1020.795	539.62
1021.011	503.62
1021.226	496.62
1021.441	553.62
1021.656	489.62
1021.871	447.62
1022.086	456.62
1022.301	468.62
1022.516	470.62
1022.731	525.62
1022.946	467.62
1023.16	459.62
1023.375	441.62
1023.59	442.62
1023.804	420.62
1024.019	541.62
1024.234	431.62
1024.448	468.62
1024.663	408.62
1024.877	444.62
1025.092	484.62
1025.306	494.62
1025.52	416.62
1025.734	524.62
1025.949	445.62
1026.163	433.62
1026.377	374.62
1026.591	458.62
1026.805	381.62
1027.019	376.62
1027.233	346.62
1027.447	318.62
1027.661	436.62
1027.875	377.62
1028.088	380.62
1028.302	324.62
1028.516	335.62
1028.73	360.62
1028.943	368.62
1029.157	336.62
1029.37	304.62
1029.584	-2.38
1029.797	-3.38
1030.011	-2.38
1030.224	0.62
