Data from QEP037381__3__10-12-41-056.txt Node

Date: Fri Apr 21 10:12:41 EDT 2023
User: dcclab
Spectrometer: QEP03738
Trigger mode: 4
Integration Time (sec): 1.000000E1
Scans to average: 1
Electric dark correction enabled: true
Nonlinearity correction enabled: false
Boxcar width: 0
XAxis mode: Wavelengths
Number of Pixels in Spectrum: 1044
>>>>>Begin Spectral Data<<<<<
784.041	13.75
784.3	-0.25
784.558	-4.25
784.817	-6.25
785.075	244.75
785.334	219.75
785.592	204.75
785.851	196.75
786.109	227.75
786.368	243.75
786.626	257.75
786.884	276.75
787.143	259.75
787.401	211.75
787.659	280.75
787.917	257.75
788.175	303.75
788.433	272.75
788.691	278.75
788.949	269.75
789.207	299.75
789.465	265.75
789.723	265.75
789.98	262.75
790.238	324.75
790.496	289.75
790.753	286.75
791.011	359.75
791.268	311.75
791.526	295.75
791.783	324.75
792.041	326.75
792.298	239.75
792.556	323.75
792.813	305.75
793.07	288.75
793.327	287.75
793.584	379.75
793.841	295.75
794.099	321.75
794.356	375.75
794.613	286.75
794.869	327.75
795.126	301.75
795.383	282.75
795.64	305.75
795.897	264.75
796.153	323.75
796.41	303.75
796.667	299.75
796.923	300.75
797.18	301.75
797.436	316.75
797.693	281.75
797.949	356.75
798.206	369.75
798.462	268.75
798.718	327.75
798.974	306.75
799.231	342.75
799.487	325.75
799.743	308.75
799.999	334.75
800.255	325.75
800.511	296.75
800.767	334.75
801.023	305.75
801.279	328.75
801.534	337.75
801.79	332.75
802.046	297.75
802.302	359.75
802.557	324.75
802.813	347.75
803.068	287.75
803.324	336.75
803.579	300.75
803.835	304.75
804.09	351.75
804.345	289.75
804.601	273.75
804.856	309.75
805.111	327.75
805.366	325.75
805.621	320.75
805.876	334.75
806.131	335.75
806.386	319.75
806.641	284.75
806.896	315.75
807.151	376.75
807.406	327.75
807.661	338.75
807.915	325.75
808.17	338.75
808.425	339.75
808.679	276.75
808.934	379.75
809.188	320.75
809.443	335.75
809.697	369.75
809.951	312.75
810.206	316.75
810.46	359.75
810.714	336.75
810.968	355.75
811.223	292.75
811.477	323.75
811.731	353.75
811.985	281.75
812.239	241.75
812.493	295.75
812.747	332.75
813	268.75
813.254	338.75
813.508	354.75
813.762	303.75
814.015	298.75
814.269	315.75
814.522	359.75
814.776	341.75
815.03	340.75
815.283	344.75
815.536	338.75
815.79	347.75
816.043	340.75
816.296	324.75
816.55	324.75
816.803	342.75
817.056	406.75
817.309	342.75
817.562	336.75
817.815	384.75
818.068	280.75
818.321	294.75
818.574	300.75
818.827	344.75
819.079	294.75
819.332	422.75
819.585	350.75
819.838	413.75
820.09	303.75
820.343	369.75
820.595	295.75
820.848	347.75
821.1	362.75
821.353	335.75
821.605	321.75
821.857	380.75
822.11	290.75
822.362	305.75
822.614	278.75
822.866	324.75
823.118	274.75
823.37	389.75
823.622	313.75
823.874	321.75
824.126	363.75
824.378	301.75
824.63	306.75
824.882	339.75
825.134	328.75
825.385	347.75
825.637	340.75
825.888	310.75
826.14	324.75
826.392	312.75
826.643	300.75
826.895	372.75
827.146	320.75
827.397	305.75
827.649	392.75
827.9	303.75
828.151	289.75
828.402	285.75
828.653	325.75
828.905	334.75
829.156	382.75
829.407	301.75
829.658	313.75
829.909	357.75
830.159	351.75
830.41	363.75
830.661	355.75
830.912	338.75
831.162	330.75
831.413	309.75
831.664	354.75
831.914	335.75
832.165	332.75
832.415	337.75
832.666	339.75
832.916	357.75
833.167	304.75
833.417	383.75
833.667	365.75
833.917	335.75
834.168	393.75
834.418	363.75
834.668	311.75
834.918	284.75
835.168	306.75
835.418	265.75
835.668	324.75
835.918	360.75
836.167	353.75
836.417	303.75
836.667	364.75
836.917	369.75
837.166	328.75
837.416	364.75
837.666	373.75
837.915	334.75
838.165	354.75
838.414	302.75
838.663	277.75
838.913	340.75
839.162	302.75
839.411	391.75
839.661	324.75
839.91	320.75
840.159	309.75
840.408	340.75
840.657	335.75
840.906	342.75
841.155	362.75
841.404	326.75
841.653	353.75
841.902	305.75
842.15	335.75
842.399	350.75
842.648	330.75
842.897	350.75
843.145	290.75
843.394	300.75
843.642	311.75
843.891	377.75
844.139	326.75
844.388	293.75
844.636	272.75
844.884	323.75
845.133	307.75
845.381	328.75
845.629	352.75
845.877	290.75
846.125	311.75
846.373	339.75
846.621	306.75
846.869	354.75
847.117	338.75
847.365	332.75
847.613	344.75
847.861	358.75
848.108	381.75
848.356	350.75
848.604	312.75
848.851	342.75
849.099	326.75
849.346	322.75
849.594	341.75
849.841	362.75
850.089	334.75
850.336	303.75
850.583	319.75
850.831	331.75
851.078	347.75
851.325	303.75
851.572	376.75
851.819	368.75
852.066	340.75
852.313	330.75
852.56	288.75
852.807	293.75
853.054	309.75
853.301	316.75
853.548	315.75
853.794	402.75
854.041	330.75
854.288	283.75
854.534	405.75
854.781	319.75
855.028	300.75
855.274	382.75
855.52	334.75
855.767	305.75
856.013	352.75
856.26	642.75
856.506	322.75
856.752	370.75
856.998	325.75
857.244	311.75
857.49	346.75
857.736	347.75
857.982	349.75
858.228	355.75
858.474	301.75
858.72	321.75
858.966	350.75
859.212	348.75
859.458	342.75
859.703	342.75
859.949	314.75
860.195	368.75
860.44	358.75
860.686	319.75
860.931	385.75
861.177	315.75
861.422	391.75
861.667	331.75
861.913	334.75
862.158	330.75
862.403	377.75
862.648	374.75
862.893	391.75
863.138	345.75
863.384	313.75
863.629	378.75
863.873	347.75
864.118	329.75
864.363	273.75
864.608	345.75
864.853	382.75
865.098	322.75
865.342	357.75
865.587	334.75
865.832	379.75
866.076	361.75
866.321	337.75
866.565	346.75
866.81	268.75
867.054	325.75
867.298	352.75
867.543	310.75
867.787	372.75
868.031	354.75
868.275	356.75
868.519	334.75
868.764	345.75
869.008	328.75
869.252	386.75
869.496	340.75
869.739	350.75
869.983	396.75
870.227	369.75
870.471	315.75
870.715	362.75
870.958	360.75
871.202	322.75
871.446	336.75
871.689	307.75
871.933	350.75
872.176	348.75
872.42	338.75
872.663	332.75
872.906	374.75
873.15	352.75
873.393	295.75
873.636	410.75
873.879	370.75
874.122	409.75
874.366	348.75
874.609	386.75
874.852	339.75
875.095	349.75
875.337	332.75
875.58	276.75
875.823	356.75
876.066	374.75
876.309	413.75
876.551	307.75
876.794	291.75
877.037	384.75
877.279	312.75
877.522	332.75
877.764	355.75
878.007	324.75
878.249	349.75
878.491	311.75
878.734	376.75
878.976	341.75
879.218	308.75
879.46	394.75
879.702	373.75
879.945	360.75
880.187	335.75
880.429	378.75
880.671	375.75
880.912	387.75
881.154	364.75
881.396	290.75
881.638	355.75
881.88	346.75
882.121	327.75
882.363	342.75
882.605	412.75
882.846	363.75
883.088	385.75
883.329	328.75
883.571	318.75
883.812	322.75
884.053	339.75
884.295	327.75
884.536	395.75
884.777	325.75
885.018	365.75
885.259	388.75
885.5	296.75
885.742	512.75
885.982	373.75
886.223	310.75
886.464	334.75
886.705	302.75
886.946	338.75
887.187	301.75
887.428	391.75
887.668	343.75
887.909	310.75
888.15	308.75
888.39	360.75
888.631	414.75
888.871	382.75
889.111	359.75
889.352	367.75
889.592	340.75
889.833	347.75
890.073	353.75
890.313	423.75
890.553	320.75
890.793	350.75
891.033	313.75
891.273	327.75
891.513	362.75
891.753	413.75
891.993	349.75
892.233	386.75
892.473	413.75
892.713	373.75
892.952	318.75
893.192	362.75
893.432	324.75
893.671	371.75
893.911	343.75
894.15	363.75
894.39	285.75
894.629	330.75
894.869	367.75
895.108	357.75
895.347	313.75
895.587	371.75
895.826	332.75
896.065	322.75
896.304	358.75
896.543	396.75
896.782	298.75
897.021	355.75
897.26	338.75
897.499	390.75
897.738	424.75
897.977	366.75
898.216	347.75
898.454	349.75
898.693	332.75
898.932	386.75
899.17	349.75
899.409	350.75
899.647	354.75
899.886	331.75
900.124	377.75
900.363	328.75
900.601	360.75
900.839	352.75
901.078	363.75
901.316	351.75
901.554	354.75
901.792	354.75
902.03	304.75
902.268	337.75
902.506	382.75
902.744	334.75
902.982	379.75
903.22	317.75
903.458	344.75
903.695	383.75
903.933	397.75
904.171	333.75
904.409	340.75
904.646	393.75
904.884	349.75
905.121	401.75
905.359	393.75
905.596	384.75
905.833	329.75
906.071	352.75
906.308	409.75
906.545	381.75
906.783	317.75
907.02	368.75
907.257	319.75
907.494	345.75
907.731	359.75
907.968	373.75
908.205	333.75
908.442	337.75
908.679	367.75
908.915	361.75
909.152	371.75
909.389	314.75
909.626	358.75
909.862	334.75
910.099	359.75
910.335	418.75
910.572	304.75
910.808	359.75
911.045	355.75
911.281	327.75
911.518	404.75
911.754	373.75
911.99	363.75
912.226	348.75
912.463	333.75
912.699	334.75
912.935	350.75
913.171	344.75
913.407	340.75
913.643	400.75
913.879	380.75
914.114	374.75
914.35	344.75
914.586	363.75
914.822	338.75
915.057	444.75
915.293	302.75
915.529	326.75
915.764	414.75
916	398.75
916.235	382.75
916.471	393.75
916.706	323.75
916.941	353.75
917.177	358.75
917.412	393.75
917.647	390.75
917.882	337.75
918.117	406.75
918.352	374.75
918.588	432.75
918.823	351.75
919.057	383.75
919.292	300.75
919.527	431.75
919.762	355.75
919.997	430.75
920.232	364.75
920.466	401.75
920.701	324.75
920.935	387.75
921.17	368.75
921.405	345.75
921.639	398.75
921.873	365.75
922.108	393.75
922.342	393.75
922.576	353.75
922.811	353.75
923.045	397.75
923.279	422.75
923.513	307.75
923.747	413.75
923.981	400.75
924.215	362.75
924.449	378.75
924.683	331.75
924.917	356.75
925.151	356.75
925.385	442.75
925.618	400.75
925.852	392.75
926.086	323.75
926.319	383.75
926.553	380.75
926.786	391.75
927.02	380.75
927.253	413.75
927.486	421.75
927.72	342.75
927.953	412.75
928.186	362.75
928.42	411.75
928.653	359.75
928.886	348.75
929.119	393.75
929.352	383.75
929.585	393.75
929.818	363.75
930.051	404.75
930.284	415.75
930.516	341.75
930.749	356.75
930.982	415.75
931.215	409.75
931.447	348.75
931.68	374.75
931.912	362.75
932.145	366.75
932.377	380.75
932.61	498.75
932.842	313.75
933.074	400.75
933.307	349.75
933.539	454.75
933.771	419.75
934.003	377.75
934.236	439.75
934.468	461.75
934.7	390.75
934.932	431.75
935.164	375.75
935.395	346.75
935.627	387.75
935.859	400.75
936.091	338.75
936.323	407.75
936.554	436.75
936.786	378.75
937.017	347.75
937.249	402.75
937.481	333.75
937.712	413.75
937.943	380.75
938.175	380.75
938.406	363.75
938.637	454.75
938.869	349.75
939.1	406.75
939.331	368.75
939.562	418.75
939.793	400.75
940.024	444.75
940.255	444.75
940.486	397.75
940.717	397.75
940.948	380.75
941.179	353.75
941.409	399.75
941.64	379.75
941.871	403.75
942.102	370.75
942.332	372.75
942.563	421.75
942.793	390.75
943.024	350.75
943.254	380.75
943.484	425.75
943.715	442.75
943.945	396.75
944.175	349.75
944.405	327.75
944.636	331.75
944.866	384.75
945.096	401.75
945.326	327.75
945.556	402.75
945.786	430.75
946.016	395.75
946.245	346.75
946.475	364.75
946.705	395.75
946.935	385.75
947.164	402.75
947.394	359.75
947.624	396.75
947.853	432.75
948.083	409.75
948.312	380.75
948.542	344.75
948.771	343.75
949	367.75
949.23	374.75
949.459	375.75
949.688	433.75
949.917	385.75
950.146	403.75
950.375	446.75
950.604	349.75
950.833	444.75
951.062	427.75
951.291	403.75
951.52	389.75
951.749	398.75
951.978	363.75
952.206	377.75
952.435	370.75
952.664	430.75
952.892	425.75
953.121	407.75
953.349	443.75
953.578	433.75
953.806	419.75
954.035	358.75
954.263	405.75
954.491	373.75
954.719	431.75
954.948	385.75
955.176	386.75
955.404	343.75
955.632	399.75
955.86	410.75
956.088	415.75
956.316	439.75
956.544	471.75
956.772	405.75
956.999	397.75
957.227	490.75
957.455	407.75
957.683	445.75
957.91	388.75
958.138	393.75
958.365	394.75
958.593	404.75
958.82	358.75
959.048	450.75
959.275	403.75
959.502	402.75
959.73	392.75
959.957	428.75
960.184	456.75
960.411	395.75
960.638	468.75
960.865	429.75
961.092	457.75
961.319	356.75
961.546	451.75
961.773	458.75
962	416.75
962.227	467.75
962.454	440.75
962.68	424.75
962.907	453.75
963.134	411.75
963.36	436.75
963.587	477.75
963.813	419.75
964.04	474.75
964.266	419.75
964.493	494.75
964.719	484.75
964.945	494.75
965.171	406.75
965.398	459.75
965.624	494.75
965.85	436.75
966.076	450.75
966.302	475.75
966.528	448.75
966.754	488.75
966.98	477.75
967.206	468.75
967.431	421.75
967.657	507.75
967.883	486.75
968.109	477.75
968.334	427.75
968.56	432.75
968.785	440.75
969.011	418.75
969.236	479.75
969.462	440.75
969.687	442.75
969.912	497.75
970.138	514.75
970.363	440.75
970.588	471.75
970.813	442.75
971.038	451.75
971.263	490.75
971.488	472.75
971.713	509.75
971.938	507.75
972.163	420.75
972.388	459.75
972.613	445.75
972.838	462.75
973.062	467.75
973.287	466.75
973.512	406.75
973.736	462.75
973.961	455.75
974.185	436.75
974.41	476.75
974.634	394.75
974.858	415.75
975.083	484.75
975.307	495.75
975.531	446.75
975.755	395.75
975.98	441.75
976.204	378.75
976.428	390.75
976.652	403.75
976.876	393.75
977.1	424.75
977.324	409.75
977.547	447.75
977.771	472.75
977.995	431.75
978.219	391.75
978.442	510.75
978.666	447.75
978.89	456.75
979.113	457.75
979.337	445.75
979.56	431.75
979.783	505.75
980.007	402.75
980.23	451.75
980.453	424.75
980.677	461.75
980.9	451.75
981.123	377.75
981.346	474.75
981.569	449.75
981.792	489.75
982.015	442.75
982.238	422.75
982.461	455.75
982.684	449.75
982.907	427.75
983.129	409.75
983.352	476.75
983.575	468.75
983.797	495.75
984.02	435.75
984.242	450.75
984.465	456.75
984.687	481.75
984.91	529.75
985.132	498.75
985.354	525.75
985.577	478.75
985.799	504.75
986.021	399.75
986.243	452.75
986.465	476.75
986.687	519.75
986.909	562.75
987.131	499.75
987.353	474.75
987.575	513.75
987.797	486.75
988.019	422.75
988.241	474.75
988.462	443.75
988.684	508.75
988.906	547.75
989.127	562.75
989.349	450.75
989.57	501.75
989.792	527.75
990.013	546.75
990.234	550.75
990.456	578.75
990.677	578.75
990.898	505.75
991.119	502.75
991.341	548.75
991.562	476.75
991.783	529.75
992.004	487.75
992.225	469.75
992.446	516.75
992.667	450.75
992.887	531.75
993.108	438.75
993.329	559.75
993.55	527.75
993.77	481.75
993.991	497.75
994.212	550.75
994.432	529.75
994.653	544.75
994.873	536.75
995.093	438.75
995.314	488.75
995.534	565.75
995.754	571.75
995.975	607.75
996.195	498.75
996.415	552.75
996.635	520.75
996.855	552.75
997.075	515.75
997.295	526.75
997.515	496.75
997.735	573.75
997.955	543.75
998.174	538.75
998.394	518.75
998.614	566.75
998.834	512.75
999.053	591.75
999.273	557.75
999.492	621.75
999.712	573.75
999.931	545.75
1000.151	585.75
1000.37	583.75
1000.589	632.75
1000.809	578.75
1001.028	700.75
1001.247	626.75
1001.466	549.75
1001.685	682.75
1001.904	615.75
1002.123	620.75
1002.342	634.75
1002.561	588.75
1002.78	619.75
1002.999	710.75
1003.218	626.75
1003.436	634.75
1003.655	679.75
1003.874	633.75
1004.092	653.75
1004.311	699.75
1004.53	642.75
1004.748	734.75
1004.966	663.75
1005.185	720.75
1005.403	701.75
1005.622	675.75
1005.84	752.75
1006.058	655.75
1006.276	692.75
1006.494	1157.75
1006.712	669.75
1006.931	728.75
1007.149	654.75
1007.367	651.75
1007.584	666.75
1007.802	718.75
1008.02	640.75
1008.238	740.75
1008.456	728.75
1008.673	599.75
1008.891	674.75
1009.109	626.75
1009.326	641.75
1009.544	716.75
1009.761	608.75
1009.979	662.75
1010.196	623.75
1010.413	681.75
1010.631	688.75
1010.848	675.75
1011.065	688.75
1011.282	623.75
1011.5	554.75
1011.717	677.75
1011.934	624.75
1012.151	665.75
1012.368	671.75
1012.585	601.75
1012.801	652.75
1013.018	626.75
1013.235	587.75
1013.452	594.75
1013.669	599.75
1013.885	579.75
1014.102	622.75
1014.318	577.75
1014.535	538.75
1014.751	563.75
1014.968	586.75
1015.184	600.75
1015.401	539.75
1015.617	575.75
1015.833	527.75
1016.049	549.75
1016.266	546.75
1016.482	549.75
1016.698	496.75
1016.914	570.75
1017.13	513.75
1017.346	522.75
1017.562	591.75
1017.778	514.75
1017.993	496.75
1018.209	566.75
1018.425	524.75
1018.641	487.75
1018.856	484.75
1019.072	505.75
1019.288	550.75
1019.503	503.75
1019.719	430.75
1019.934	460.75
1020.149	567.75
1020.365	498.75
1020.58	474.75
1020.795	537.75
1021.011	493.75
1021.226	508.75
1021.441	546.75
1021.656	511.75
1021.871	440.75
1022.086	465.75
1022.301	474.75
1022.516	470.75
1022.731	531.75
1022.946	458.75
1023.16	467.75
1023.375	450.75
1023.59	444.75
1023.804	433.75
1024.019	534.75
1024.234	429.75
1024.448	483.75
1024.663	415.75
1024.877	432.75
1025.092	462.75
1025.306	474.75
1025.52	418.75
1025.734	502.75
1025.949	447.75
1026.163	433.75
1026.377	386.75
1026.591	447.75
1026.805	378.75
1027.019	404.75
1027.233	370.75
1027.447	319.75
1027.661	420.75
1027.875	376.75
1028.088	401.75
1028.302	334.75
1028.516	338.75
1028.73	359.75
1028.943	359.75
1029.157	323.75
1029.37	303.75
1029.584	-4.25
1029.797	-0.25
1030.011	0.75
1030.224	0.75
