Data from QEP037381__84__10-26-11-074.txt Node

Date: Fri Apr 21 10:26:11 EDT 2023
User: dcclab
Spectrometer: QEP03738
Trigger mode: 4
Integration Time (sec): 1.000000E1
Scans to average: 1
Electric dark correction enabled: true
Nonlinearity correction enabled: false
Boxcar width: 0
XAxis mode: Wavelengths
Number of Pixels in Spectrum: 1044
>>>>>Begin Spectral Data<<<<<
784.041	12.12
784.3	-0.88
784.558	-0.88
784.817	-3.88
785.075	230.12
785.334	211.12
785.592	205.12
785.851	193.12
786.109	230.12
786.368	237.12
786.626	249.12
786.884	266.12
787.143	263.12
787.401	210.12
787.659	272.12
787.917	247.12
788.175	299.12
788.433	275.12
788.691	272.12
788.949	286.12
789.207	300.12
789.465	254.12
789.723	260.12
789.98	256.12
790.238	308.12
790.496	291.12
790.753	281.12
791.011	359.12
791.268	306.12
791.526	295.12
791.783	333.12
792.041	329.12
792.298	247.12
792.556	329.12
792.813	322.12
793.07	303.12
793.327	286.12
793.584	380.12
793.841	305.12
794.099	320.12
794.356	380.12
794.613	293.12
794.869	331.12
795.126	304.12
795.383	276.12
795.64	301.12
795.897	257.12
796.153	321.12
796.41	308.12
796.667	294.12
796.923	307.12
797.18	299.12
797.436	314.12
797.693	288.12
797.949	339.12
798.206	360.12
798.462	271.12
798.718	332.12
798.974	300.12
799.231	333.12
799.487	330.12
799.743	329.12
799.999	343.12
800.255	335.12
800.511	290.12
800.767	332.12
801.023	303.12
801.279	324.12
801.534	326.12
801.79	328.12
802.046	309.12
802.302	355.12
802.557	331.12
802.813	351.12
803.068	288.12
803.324	335.12
803.579	302.12
803.835	303.12
804.09	355.12
804.345	296.12
804.601	274.12
804.856	315.12
805.111	323.12
805.366	319.12
805.621	324.12
805.876	345.12
806.131	330.12
806.386	299.12
806.641	272.12
806.896	314.12
807.151	370.12
807.406	309.12
807.661	319.12
807.915	320.12
808.17	330.12
808.425	327.12
808.679	279.12
808.934	363.12
809.188	290.12
809.443	329.12
809.697	366.12
809.951	300.12
810.206	291.12
810.46	341.12
810.714	322.12
810.968	343.12
811.223	278.12
811.477	307.12
811.731	342.12
811.985	280.12
812.239	234.12
812.493	286.12
812.747	319.12
813	276.12
813.254	317.12
813.508	340.12
813.762	285.12
814.015	291.12
814.269	312.12
814.522	327.12
814.776	336.12
815.03	328.12
815.283	322.12
815.536	335.12
815.79	335.12
816.043	329.12
816.296	320.12
816.55	307.12
816.803	312.12
817.056	396.12
817.309	335.12
817.562	315.12
817.815	376.12
818.068	296.12
818.321	295.12
818.574	295.12
818.827	345.12
819.079	289.12
819.332	418.12
819.585	337.12
819.838	402.12
820.09	300.12
820.343	357.12
820.595	295.12
820.848	344.12
821.1	341.12
821.353	315.12
821.605	305.12
821.857	387.12
822.11	272.12
822.362	294.12
822.614	273.12
822.866	326.12
823.118	267.12
823.37	383.12
823.622	317.12
823.874	307.12
824.126	337.12
824.378	289.12
824.63	317.12
824.882	312.12
825.134	313.12
825.385	354.12
825.637	335.12
825.888	301.12
826.14	312.12
826.392	308.12
826.643	281.12
826.895	378.12
827.146	308.12
827.397	297.12
827.649	386.12
827.9	294.12
828.151	278.12
828.402	274.12
828.653	322.12
828.905	331.12
829.156	382.12
829.407	280.12
829.658	327.12
829.909	349.12
830.159	333.12
830.41	345.12
830.661	351.12
830.912	327.12
831.162	312.12
831.413	310.12
831.664	343.12
831.914	332.12
832.165	327.12
832.415	326.12
832.666	322.12
832.916	351.12
833.167	310.12
833.417	392.12
833.667	343.12
833.917	333.12
834.168	384.12
834.418	344.12
834.668	319.12
834.918	279.12
835.168	307.12
835.418	265.12
835.668	333.12
835.918	341.12
836.167	337.12
836.417	288.12
836.667	354.12
836.917	372.12
837.166	322.12
837.416	367.12
837.666	375.12
837.915	314.12
838.165	342.12
838.414	302.12
838.663	277.12
838.913	341.12
839.162	292.12
839.411	383.12
839.661	308.12
839.91	328.12
840.159	306.12
840.408	333.12
840.657	322.12
840.906	339.12
841.155	352.12
841.404	323.12
841.653	335.12
841.902	287.12
842.15	346.12
842.399	336.12
842.648	317.12
842.897	350.12
843.145	287.12
843.394	303.12
843.642	313.12
843.891	364.12
844.139	326.12
844.388	293.12
844.636	270.12
844.884	313.12
845.133	293.12
845.381	324.12
845.629	348.12
845.877	291.12
846.125	309.12
846.373	333.12
846.621	300.12
846.869	342.12
847.117	335.12
847.365	328.12
847.613	342.12
847.861	346.12
848.108	385.12
848.356	360.12
848.604	302.12
848.851	348.12
849.099	332.12
849.346	326.12
849.594	340.12
849.841	369.12
850.089	311.12
850.336	273.12
850.583	301.12
850.831	322.12
851.078	324.12
851.325	304.12
851.572	359.12
851.819	361.12
852.066	319.12
852.313	317.12
852.56	292.12
852.807	274.12
853.054	305.12
853.301	328.12
853.548	308.12
853.794	401.12
854.041	334.12
854.288	279.12
854.534	393.12
854.781	310.12
855.028	295.12
855.274	394.12
855.52	335.12
855.767	293.12
856.013	346.12
856.26	637.12
856.506	315.12
856.752	377.12
856.998	329.12
857.244	304.12
857.49	359.12
857.736	344.12
857.982	346.12
858.228	349.12
858.474	279.12
858.72	319.12
858.966	346.12
859.212	338.12
859.458	340.12
859.703	337.12
859.949	315.12
860.195	357.12
860.44	357.12
860.686	315.12
860.931	380.12
861.177	319.12
861.422	376.12
861.667	322.12
861.913	323.12
862.158	316.12
862.403	373.12
862.648	359.12
862.893	384.12
863.138	335.12
863.384	311.12
863.629	362.12
863.873	354.12
864.118	325.12
864.363	279.12
864.608	356.12
864.853	358.12
865.098	323.12
865.342	357.12
865.587	329.12
865.832	373.12
866.076	348.12
866.321	318.12
866.565	336.12
866.81	281.12
867.054	332.12
867.298	348.12
867.543	291.12
867.787	363.12
868.031	338.12
868.275	332.12
868.519	316.12
868.764	337.12
869.008	326.12
869.252	376.12
869.496	322.12
869.739	334.12
869.983	379.12
870.227	370.12
870.471	314.12
870.715	349.12
870.958	344.12
871.202	309.12
871.446	321.12
871.689	297.12
871.933	343.12
872.176	332.12
872.42	326.12
872.663	317.12
872.906	380.12
873.15	327.12
873.393	277.12
873.636	370.12
873.879	365.12
874.122	386.12
874.366	346.12
874.609	375.12
874.852	327.12
875.095	344.12
875.337	330.12
875.58	265.12
875.823	349.12
876.066	374.12
876.309	401.12
876.551	310.12
876.794	295.12
877.037	371.12
877.279	308.12
877.522	320.12
877.764	362.12
878.007	309.12
878.249	352.12
878.491	303.12
878.734	378.12
878.976	328.12
879.218	306.12
879.46	385.12
879.702	373.12
879.945	366.12
880.187	335.12
880.429	374.12
880.671	363.12
880.912	392.12
881.154	368.12
881.396	276.12
881.638	370.12
881.88	364.12
882.121	318.12
882.363	317.12
882.605	382.12
882.846	383.12
883.088	370.12
883.329	314.12
883.571	286.12
883.812	308.12
884.053	311.12
884.295	320.12
884.536	396.12
884.777	320.12
885.018	352.12
885.259	358.12
885.5	296.12
885.742	515.12
885.982	372.12
886.223	315.12
886.464	328.12
886.705	300.12
886.946	355.12
887.187	283.12
887.428	378.12
887.668	316.12
887.909	306.12
888.15	291.12
888.39	376.12
888.631	401.12
888.871	367.12
889.111	351.12
889.352	352.12
889.592	341.12
889.833	349.12
890.073	358.12
890.313	418.12
890.553	301.12
890.793	341.12
891.033	321.12
891.273	329.12
891.513	361.12
891.753	409.12
891.993	339.12
892.233	371.12
892.473	414.12
892.713	367.12
892.952	325.12
893.192	345.12
893.432	324.12
893.671	381.12
893.911	328.12
894.15	341.12
894.39	299.12
894.629	324.12
894.869	375.12
895.108	350.12
895.347	307.12
895.587	372.12
895.826	334.12
896.065	308.12
896.304	364.12
896.543	394.12
896.782	300.12
897.021	351.12
897.26	334.12
897.499	411.12
897.738	401.12
897.977	352.12
898.216	341.12
898.454	339.12
898.693	322.12
898.932	369.12
899.17	354.12
899.409	353.12
899.647	359.12
899.886	332.12
900.124	376.12
900.363	320.12
900.601	358.12
900.839	356.12
901.078	351.12
901.316	355.12
901.554	364.12
901.792	356.12
902.03	303.12
902.268	335.12
902.506	371.12
902.744	344.12
902.982	381.12
903.22	320.12
903.458	341.12
903.695	368.12
903.933	383.12
904.171	326.12
904.409	346.12
904.646	370.12
904.884	353.12
905.121	414.12
905.359	373.12
905.596	381.12
905.833	339.12
906.071	350.12
906.308	402.12
906.545	376.12
906.783	316.12
907.02	357.12
907.257	303.12
907.494	347.12
907.731	362.12
907.968	370.12
908.205	343.12
908.442	334.12
908.679	365.12
908.915	351.12
909.152	382.12
909.389	299.12
909.626	341.12
909.862	328.12
910.099	371.12
910.335	389.12
910.572	304.12
910.808	362.12
911.045	349.12
911.281	332.12
911.518	408.12
911.754	348.12
911.99	363.12
912.226	351.12
912.463	332.12
912.699	338.12
912.935	349.12
913.171	352.12
913.407	322.12
913.643	406.12
913.879	349.12
914.114	359.12
914.35	341.12
914.586	373.12
914.822	333.12
915.057	425.12
915.293	314.12
915.529	333.12
915.764	392.12
916	390.12
916.235	381.12
916.471	395.12
916.706	312.12
916.941	361.12
917.177	351.12
917.412	378.12
917.647	396.12
917.882	326.12
918.117	407.12
918.352	370.12
918.588	422.12
918.823	352.12
919.057	380.12
919.292	295.12
919.527	421.12
919.762	370.12
919.997	435.12
920.232	369.12
920.466	418.12
920.701	321.12
920.935	385.12
921.17	361.12
921.405	332.12
921.639	416.12
921.873	367.12
922.108	395.12
922.342	397.12
922.576	348.12
922.811	345.12
923.045	393.12
923.279	446.12
923.513	306.12
923.747	422.12
923.981	396.12
924.215	359.12
924.449	361.12
924.683	331.12
924.917	354.12
925.151	350.12
925.385	429.12
925.618	388.12
925.852	391.12
926.086	314.12
926.319	377.12
926.553	379.12
926.786	393.12
927.02	368.12
927.253	422.12
927.486	431.12
927.72	356.12
927.953	414.12
928.186	369.12
928.42	397.12
928.653	344.12
928.886	346.12
929.119	409.12
929.352	389.12
929.585	399.12
929.818	347.12
930.051	387.12
930.284	407.12
930.516	325.12
930.749	369.12
930.982	412.12
931.215	416.12
931.447	344.12
931.68	382.12
931.912	361.12
932.145	359.12
932.377	379.12
932.61	502.12
932.842	325.12
933.074	398.12
933.307	337.12
933.539	441.12
933.771	419.12
934.003	378.12
934.236	438.12
934.468	463.12
934.7	356.12
934.932	411.12
935.164	362.12
935.395	348.12
935.627	376.12
935.859	386.12
936.091	340.12
936.323	411.12
936.554	422.12
936.786	373.12
937.017	351.12
937.249	388.12
937.481	329.12
937.712	407.12
937.943	382.12
938.175	379.12
938.406	370.12
938.637	446.12
938.869	343.12
939.1	420.12
939.331	365.12
939.562	416.12
939.793	410.12
940.024	438.12
940.255	446.12
940.486	390.12
940.717	399.12
940.948	399.12
941.179	345.12
941.409	387.12
941.64	375.12
941.871	413.12
942.102	359.12
942.332	373.12
942.563	429.12
942.793	390.12
943.024	343.12
943.254	387.12
943.484	424.12
943.715	421.12
943.945	402.12
944.175	341.12
944.405	338.12
944.636	349.12
944.866	393.12
945.096	409.12
945.326	326.12
945.556	407.12
945.786	434.12
946.016	384.12
946.245	347.12
946.475	381.12
946.705	377.12
946.935	391.12
947.164	410.12
947.394	376.12
947.624	389.12
947.853	446.12
948.083	410.12
948.312	379.12
948.542	343.12
948.771	331.12
949	348.12
949.23	355.12
949.459	374.12
949.688	451.12
949.917	404.12
950.146	405.12
950.375	451.12
950.604	358.12
950.833	447.12
951.062	442.12
951.291	398.12
951.52	380.12
951.749	391.12
951.978	376.12
952.206	385.12
952.435	362.12
952.664	431.12
952.892	436.12
953.121	400.12
953.349	441.12
953.578	432.12
953.806	413.12
954.035	378.12
954.263	425.12
954.491	370.12
954.719	438.12
954.948	390.12
955.176	389.12
955.404	323.12
955.632	403.12
955.86	430.12
956.088	405.12
956.316	439.12
956.544	446.12
956.772	419.12
956.999	413.12
957.227	480.12
957.455	399.12
957.683	430.12
957.91	399.12
958.138	388.12
958.365	400.12
958.593	411.12
958.82	363.12
959.048	446.12
959.275	417.12
959.502	415.12
959.73	388.12
959.957	429.12
960.184	452.12
960.411	401.12
960.638	450.12
960.865	414.12
961.092	448.12
961.319	370.12
961.546	464.12
961.773	459.12
962	424.12
962.227	466.12
962.454	440.12
962.68	424.12
962.907	455.12
963.134	421.12
963.36	438.12
963.587	477.12
963.813	421.12
964.04	467.12
964.266	412.12
964.493	507.12
964.719	473.12
964.945	497.12
965.171	396.12
965.398	461.12
965.624	491.12
965.85	424.12
966.076	430.12
966.302	485.12
966.528	428.12
966.754	479.12
966.98	480.12
967.206	471.12
967.431	412.12
967.657	505.12
967.883	489.12
968.109	479.12
968.334	435.12
968.56	427.12
968.785	449.12
969.011	415.12
969.236	481.12
969.462	429.12
969.687	455.12
969.912	504.12
970.138	511.12
970.363	428.12
970.588	481.12
970.813	454.12
971.038	446.12
971.263	477.12
971.488	486.12
971.713	518.12
971.938	511.12
972.163	416.12
972.388	454.12
972.613	445.12
972.838	474.12
973.062	448.12
973.287	460.12
973.512	400.12
973.736	458.12
973.961	448.12
974.185	439.12
974.41	494.12
974.634	395.12
974.858	404.12
975.083	464.12
975.307	500.12
975.531	432.12
975.755	398.12
975.98	431.12
976.204	366.12
976.428	388.12
976.652	411.12
976.876	379.12
977.1	436.12
977.324	400.12
977.547	469.12
977.771	454.12
977.995	443.12
978.219	381.12
978.442	523.12
978.666	455.12
978.89	451.12
979.113	450.12
979.337	443.12
979.56	405.12
979.783	518.12
980.007	411.12
980.23	462.12
980.453	421.12
980.677	460.12
980.9	456.12
981.123	364.12
981.346	470.12
981.569	460.12
981.792	483.12
982.015	451.12
982.238	418.12
982.461	471.12
982.684	435.12
982.907	418.12
983.129	403.12
983.352	487.12
983.575	468.12
983.797	473.12
984.02	430.12
984.242	453.12
984.465	454.12
984.687	495.12
984.91	516.12
985.132	484.12
985.354	523.12
985.577	488.12
985.799	506.12
986.021	421.12
986.243	439.12
986.465	465.12
986.687	514.12
986.909	550.12
987.131	479.12
987.353	452.12
987.575	503.12
987.797	470.12
988.019	413.12
988.241	498.12
988.462	451.12
988.684	500.12
988.906	538.12
989.127	560.12
989.349	452.12
989.57	494.12
989.792	527.12
990.013	533.12
990.234	543.12
990.456	574.12
990.677	559.12
990.898	502.12
991.119	504.12
991.341	562.12
991.562	483.12
991.783	535.12
992.004	484.12
992.225	471.12
992.446	535.12
992.667	452.12
992.887	531.12
993.108	439.12
993.329	596.12
993.55	553.12
993.77	472.12
993.991	482.12
994.212	545.12
994.432	506.12
994.653	549.12
994.873	543.12
995.093	438.12
995.314	499.12
995.534	566.12
995.754	571.12
995.975	597.12
996.195	492.12
996.415	565.12
996.635	521.12
996.855	543.12
997.075	525.12
997.295	514.12
997.515	520.12
997.735	572.12
997.955	540.12
998.174	527.12
998.394	510.12
998.614	565.12
998.834	517.12
999.053	591.12
999.273	561.12
999.492	631.12
999.712	561.12
999.931	527.12
1000.151	582.12
1000.37	575.12
1000.589	643.12
1000.809	571.12
1001.028	693.12
1001.247	622.12
1001.466	536.12
1001.685	664.12
1001.904	613.12
1002.123	605.12
1002.342	643.12
1002.561	594.12
1002.78	624.12
1002.999	699.12
1003.218	642.12
1003.436	616.12
1003.655	663.12
1003.874	619.12
1004.092	651.12
1004.311	697.12
1004.53	651.12
1004.748	744.12
1004.966	650.12
1005.185	721.12
1005.403	697.12
1005.622	689.12
1005.84	764.12
1006.058	647.12
1006.276	683.12
1006.494	1174.12
1006.712	672.12
1006.931	734.12
1007.149	649.12
1007.367	654.12
1007.584	664.12
1007.802	708.12
1008.02	650.12
1008.238	747.12
1008.456	728.12
1008.673	589.12
1008.891	682.12
1009.109	613.12
1009.326	658.12
1009.544	721.12
1009.761	593.12
1009.979	655.12
1010.196	618.12
1010.413	669.12
1010.631	662.12
1010.848	665.12
1011.065	653.12
1011.282	622.12
1011.5	548.12
1011.717	672.12
1011.934	612.12
1012.151	668.12
1012.368	650.12
1012.585	587.12
1012.801	636.12
1013.018	608.12
1013.235	583.12
1013.452	582.12
1013.669	596.12
1013.885	584.12
1014.102	602.12
1014.318	560.12
1014.535	523.12
1014.751	568.12
1014.968	590.12
1015.184	633.12
1015.401	543.12
1015.617	576.12
1015.833	537.12
1016.049	540.12
1016.266	536.12
1016.482	532.12
1016.698	479.12
1016.914	558.12
1017.13	504.12
1017.346	513.12
1017.562	580.12
1017.778	528.12
1017.993	484.12
1018.209	554.12
1018.425	530.12
1018.641	505.12
1018.856	463.12
1019.072	498.12
1019.288	540.12
1019.503	518.12
1019.719	437.12
1019.934	462.12
1020.149	549.12
1020.365	498.12
1020.58	472.12
1020.795	542.12
1021.011	495.12
1021.226	509.12
1021.441	554.12
1021.656	504.12
1021.871	445.12
1022.086	462.12
1022.301	476.12
1022.516	477.12
1022.731	537.12
1022.946	474.12
1023.16	470.12
1023.375	443.12
1023.59	448.12
1023.804	418.12
1024.019	550.12
1024.234	429.12
1024.448	475.12
1024.663	408.12
1024.877	450.12
1025.092	470.12
1025.306	498.12
1025.52	395.12
1025.734	518.12
1025.949	436.12
1026.163	435.12
1026.377	388.12
1026.591	447.12
1026.805	396.12
1027.019	390.12
1027.233	379.12
1027.447	320.12
1027.661	421.12
1027.875	364.12
1028.088	384.12
1028.302	331.12
1028.516	339.12
1028.73	350.12
1028.943	358.12
1029.157	337.12
1029.37	299.12
1029.584	-0.88
1029.797	-2.88
1030.011	-0.88
1030.224	-1.88
