Data from QEP037381__88__10-26-51-074.txt Node

Date: Fri Apr 21 10:26:51 EDT 2023
User: dcclab
Spectrometer: QEP03738
Trigger mode: 4
Integration Time (sec): 1.000000E1
Scans to average: 1
Electric dark correction enabled: true
Nonlinearity correction enabled: false
Boxcar width: 0
XAxis mode: Wavelengths
Number of Pixels in Spectrum: 1044
>>>>>Begin Spectral Data<<<<<
784.041	11.88
784.3	-0.12
784.558	-5.12
784.817	-1.12
785.075	233.88
785.334	208.88
785.592	209.88
785.851	202.88
786.109	222.88
786.368	241.88
786.626	262.88
786.884	265.88
787.143	270.88
787.401	206.88
787.659	277.88
787.917	263.88
788.175	288.88
788.433	273.88
788.691	275.88
788.949	277.88
789.207	317.88
789.465	258.88
789.723	269.88
789.98	249.88
790.238	324.88
790.496	302.88
790.753	289.88
791.011	359.88
791.268	315.88
791.526	302.88
791.783	328.88
792.041	327.88
792.298	255.88
792.556	318.88
792.813	307.88
793.07	298.88
793.327	289.88
793.584	374.88
793.841	305.88
794.099	326.88
794.356	386.88
794.613	288.88
794.869	311.88
795.126	298.88
795.383	286.88
795.64	314.88
795.897	268.88
796.153	310.88
796.41	310.88
796.667	295.88
796.923	307.88
797.18	303.88
797.436	320.88
797.693	286.88
797.949	324.88
798.206	361.88
798.462	279.88
798.718	321.88
798.974	302.88
799.231	332.88
799.487	329.88
799.743	316.88
799.999	341.88
800.255	332.88
800.511	303.88
800.767	342.88
801.023	306.88
801.279	319.88
801.534	325.88
801.79	319.88
802.046	295.88
802.302	357.88
802.557	334.88
802.813	340.88
803.068	292.88
803.324	338.88
803.579	310.88
803.835	291.88
804.09	332.88
804.345	303.88
804.601	275.88
804.856	302.88
805.111	322.88
805.366	315.88
805.621	303.88
805.876	330.88
806.131	321.88
806.386	300.88
806.641	262.88
806.896	295.88
807.151	383.88
807.406	309.88
807.661	319.88
807.915	318.88
808.17	337.88
808.425	329.88
808.679	277.88
808.934	382.88
809.188	295.88
809.443	341.88
809.697	365.88
809.951	289.88
810.206	301.88
810.46	341.88
810.714	324.88
810.968	363.88
811.223	277.88
811.477	320.88
811.731	329.88
811.985	270.88
812.239	240.88
812.493	275.88
812.747	300.88
813	264.88
813.254	317.88
813.508	342.88
813.762	294.88
814.015	294.88
814.269	318.88
814.522	338.88
814.776	332.88
815.03	328.88
815.283	331.88
815.536	335.88
815.79	334.88
816.043	334.88
816.296	325.88
816.55	317.88
816.803	317.88
817.056	404.88
817.309	339.88
817.562	324.88
817.815	373.88
818.068	285.88
818.321	280.88
818.574	288.88
818.827	331.88
819.079	289.88
819.332	407.88
819.585	330.88
819.838	389.88
820.09	305.88
820.343	358.88
820.595	285.88
820.848	335.88
821.1	342.88
821.353	322.88
821.605	318.88
821.857	374.88
822.11	279.88
822.362	295.88
822.614	273.88
822.866	313.88
823.118	263.88
823.37	367.88
823.622	308.88
823.874	296.88
824.126	348.88
824.378	279.88
824.63	315.88
824.882	327.88
825.134	306.88
825.385	346.88
825.637	331.88
825.888	305.88
826.14	309.88
826.392	299.88
826.643	284.88
826.895	378.88
827.146	311.88
827.397	305.88
827.649	386.88
827.9	286.88
828.151	286.88
828.402	282.88
828.653	313.88
828.905	313.88
829.156	381.88
829.407	293.88
829.658	321.88
829.909	349.88
830.159	349.88
830.41	328.88
830.661	349.88
830.912	326.88
831.162	311.88
831.413	314.88
831.664	340.88
831.914	333.88
832.165	319.88
832.415	343.88
832.666	346.88
832.916	352.88
833.167	307.88
833.417	369.88
833.667	335.88
833.917	332.88
834.168	380.88
834.418	343.88
834.668	319.88
834.918	283.88
835.168	305.88
835.418	262.88
835.668	329.88
835.918	364.88
836.167	342.88
836.417	286.88
836.667	359.88
836.917	370.88
837.166	316.88
837.416	354.88
837.666	364.88
837.915	315.88
838.165	346.88
838.414	293.88
838.663	266.88
838.913	329.88
839.162	296.88
839.411	366.88
839.661	318.88
839.91	332.88
840.159	318.88
840.408	340.88
840.657	314.88
840.906	334.88
841.155	366.88
841.404	326.88
841.653	335.88
841.902	296.88
842.15	342.88
842.399	335.88
842.648	329.88
842.897	348.88
843.145	284.88
843.394	301.88
843.642	310.88
843.891	354.88
844.139	346.88
844.388	285.88
844.636	260.88
844.884	318.88
845.133	301.88
845.381	304.88
845.629	347.88
845.877	286.88
846.125	312.88
846.373	327.88
846.621	302.88
846.869	351.88
847.117	331.88
847.365	324.88
847.613	334.88
847.861	345.88
848.108	386.88
848.356	342.88
848.604	308.88
848.851	342.88
849.099	330.88
849.346	322.88
849.594	335.88
849.841	359.88
850.089	309.88
850.336	291.88
850.583	298.88
850.831	318.88
851.078	325.88
851.325	308.88
851.572	366.88
851.819	351.88
852.066	311.88
852.313	325.88
852.56	293.88
852.807	294.88
853.054	304.88
853.301	315.88
853.548	310.88
853.794	400.88
854.041	333.88
854.288	274.88
854.534	391.88
854.781	317.88
855.028	301.88
855.274	388.88
855.52	331.88
855.767	301.88
856.013	346.88
856.26	619.88
856.506	311.88
856.752	363.88
856.998	323.88
857.244	291.88
857.49	342.88
857.736	341.88
857.982	347.88
858.228	343.88
858.474	291.88
858.72	328.88
858.966	350.88
859.212	341.88
859.458	331.88
859.703	345.88
859.949	319.88
860.195	368.88
860.44	348.88
860.686	318.88
860.931	383.88
861.177	318.88
861.422	359.88
861.667	323.88
861.913	337.88
862.158	339.88
862.403	381.88
862.648	357.88
862.893	385.88
863.138	342.88
863.384	306.88
863.629	359.88
863.873	351.88
864.118	328.88
864.363	270.88
864.608	342.88
864.853	369.88
865.098	325.88
865.342	342.88
865.587	320.88
865.832	369.88
866.076	359.88
866.321	324.88
866.565	328.88
866.81	266.88
867.054	325.88
867.298	342.88
867.543	304.88
867.787	358.88
868.031	340.88
868.275	336.88
868.519	325.88
868.764	338.88
869.008	335.88
869.252	367.88
869.496	341.88
869.739	341.88
869.983	391.88
870.227	354.88
870.471	308.88
870.715	365.88
870.958	354.88
871.202	315.88
871.446	321.88
871.689	308.88
871.933	328.88
872.176	339.88
872.42	325.88
872.663	313.88
872.906	368.88
873.15	328.88
873.393	282.88
873.636	371.88
873.879	361.88
874.122	391.88
874.366	332.88
874.609	366.88
874.852	349.88
875.095	351.88
875.337	329.88
875.58	280.88
875.823	334.88
876.066	372.88
876.309	409.88
876.551	300.88
876.794	286.88
877.037	367.88
877.279	302.88
877.522	316.88
877.764	360.88
878.007	315.88
878.249	355.88
878.491	301.88
878.734	367.88
878.976	359.88
879.218	301.88
879.46	387.88
879.702	369.88
879.945	364.88
880.187	333.88
880.429	356.88
880.671	370.88
880.912	388.88
881.154	368.88
881.396	287.88
881.638	352.88
881.88	352.88
882.121	326.88
882.363	333.88
882.605	377.88
882.846	360.88
883.088	374.88
883.329	315.88
883.571	303.88
883.812	307.88
884.053	311.88
884.295	324.88
884.536	400.88
884.777	307.88
885.018	344.88
885.259	361.88
885.5	293.88
885.742	503.88
885.982	359.88
886.223	302.88
886.464	339.88
886.705	288.88
886.946	350.88
887.187	286.88
887.428	370.88
887.668	310.88
887.909	300.88
888.15	289.88
888.39	362.88
888.631	413.88
888.871	387.88
889.111	350.88
889.352	364.88
889.592	325.88
889.833	345.88
890.073	356.88
890.313	413.88
890.553	314.88
890.793	345.88
891.033	316.88
891.273	329.88
891.513	353.88
891.753	402.88
891.993	357.88
892.233	370.88
892.473	425.88
892.713	372.88
892.952	303.88
893.192	351.88
893.432	325.88
893.671	378.88
893.911	348.88
894.15	347.88
894.39	287.88
894.629	339.88
894.869	373.88
895.108	350.88
895.347	322.88
895.587	358.88
895.826	333.88
896.065	311.88
896.304	374.88
896.543	388.88
896.782	287.88
897.021	346.88
897.26	335.88
897.499	393.88
897.738	393.88
897.977	353.88
898.216	344.88
898.454	347.88
898.693	337.88
898.932	375.88
899.17	349.88
899.409	353.88
899.647	353.88
899.886	332.88
900.124	362.88
900.363	318.88
900.601	362.88
900.839	350.88
901.078	361.88
901.316	341.88
901.554	343.88
901.792	363.88
902.03	313.88
902.268	326.88
902.506	388.88
902.744	335.88
902.982	385.88
903.22	325.88
903.458	330.88
903.695	372.88
903.933	377.88
904.171	321.88
904.409	331.88
904.646	383.88
904.884	336.88
905.121	402.88
905.359	380.88
905.596	376.88
905.833	333.88
906.071	342.88
906.308	389.88
906.545	360.88
906.783	317.88
907.02	356.88
907.257	306.88
907.494	327.88
907.731	369.88
907.968	387.88
908.205	327.88
908.442	327.88
908.679	373.88
908.915	361.88
909.152	367.88
909.389	298.88
909.626	354.88
909.862	316.88
910.099	366.88
910.335	389.88
910.572	310.88
910.808	362.88
911.045	343.88
911.281	325.88
911.518	386.88
911.754	345.88
911.99	359.88
912.226	352.88
912.463	335.88
912.699	349.88
912.935	349.88
913.171	337.88
913.407	326.88
913.643	385.88
913.879	362.88
914.114	370.88
914.35	339.88
914.586	355.88
914.822	341.88
915.057	438.88
915.293	321.88
915.529	334.88
915.764	406.88
916	389.88
916.235	362.88
916.471	397.88
916.706	309.88
916.941	358.88
917.177	348.88
917.412	385.88
917.647	366.88
917.882	323.88
918.117	401.88
918.352	371.88
918.588	428.88
918.823	354.88
919.057	353.88
919.292	300.88
919.527	417.88
919.762	347.88
919.997	433.88
920.232	388.88
920.466	414.88
920.701	320.88
920.935	389.88
921.17	362.88
921.405	334.88
921.639	398.88
921.873	369.88
922.108	407.88
922.342	399.88
922.576	337.88
922.811	368.88
923.045	405.88
923.279	414.88
923.513	304.88
923.747	398.88
923.981	385.88
924.215	353.88
924.449	367.88
924.683	328.88
924.917	350.88
925.151	359.88
925.385	424.88
925.618	390.88
925.852	395.88
926.086	335.88
926.319	379.88
926.553	384.88
926.786	384.88
927.02	380.88
927.253	421.88
927.486	408.88
927.72	346.88
927.953	405.88
928.186	361.88
928.42	401.88
928.653	353.88
928.886	348.88
929.119	396.88
929.352	374.88
929.585	384.88
929.818	350.88
930.051	384.88
930.284	412.88
930.516	329.88
930.749	349.88
930.982	424.88
931.215	400.88
931.447	337.88
931.68	374.88
931.912	354.88
932.145	370.88
932.377	395.88
932.61	506.88
932.842	317.88
933.074	388.88
933.307	332.88
933.539	430.88
933.771	427.88
934.003	375.88
934.236	446.88
934.468	452.88
934.7	368.88
934.932	425.88
935.164	364.88
935.395	359.88
935.627	383.88
935.859	397.88
936.091	342.88
936.323	398.88
936.554	431.88
936.786	378.88
937.017	351.88
937.249	403.88
937.481	331.88
937.712	405.88
937.943	402.88
938.175	376.88
938.406	364.88
938.637	442.88
938.869	338.88
939.1	414.88
939.331	370.88
939.562	412.88
939.793	396.88
940.024	418.88
940.255	436.88
940.486	385.88
940.717	412.88
940.948	392.88
941.179	355.88
941.409	379.88
941.64	352.88
941.871	379.88
942.102	366.88
942.332	365.88
942.563	406.88
942.793	405.88
943.024	333.88
943.254	388.88
943.484	423.88
943.715	431.88
943.945	394.88
944.175	342.88
944.405	313.88
944.636	341.88
944.866	390.88
945.096	395.88
945.326	339.88
945.556	412.88
945.786	424.88
946.016	388.88
946.245	342.88
946.475	375.88
946.705	378.88
946.935	399.88
947.164	394.88
947.394	362.88
947.624	399.88
947.853	434.88
948.083	406.88
948.312	378.88
948.542	344.88
948.771	337.88
949	360.88
949.23	367.88
949.459	375.88
949.688	438.88
949.917	388.88
950.146	396.88
950.375	447.88
950.604	360.88
950.833	446.88
951.062	436.88
951.291	399.88
951.52	372.88
951.749	399.88
951.978	366.88
952.206	370.88
952.435	369.88
952.664	419.88
952.892	434.88
953.121	402.88
953.349	438.88
953.578	441.88
953.806	408.88
954.035	369.88
954.263	410.88
954.491	373.88
954.719	434.88
954.948	367.88
955.176	401.88
955.404	337.88
955.632	396.88
955.86	409.88
956.088	413.88
956.316	444.88
956.544	460.88
956.772	408.88
956.999	386.88
957.227	498.88
957.455	408.88
957.683	418.88
957.91	395.88
958.138	402.88
958.365	403.88
958.593	405.88
958.82	365.88
959.048	436.88
959.275	433.88
959.502	406.88
959.73	389.88
959.957	430.88
960.184	449.88
960.411	393.88
960.638	473.88
960.865	415.88
961.092	456.88
961.319	358.88
961.546	444.88
961.773	450.88
962	417.88
962.227	474.88
962.454	422.88
962.68	422.88
962.907	456.88
963.134	396.88
963.36	440.88
963.587	479.88
963.813	413.88
964.04	475.88
964.266	408.88
964.493	513.88
964.719	490.88
964.945	489.88
965.171	402.88
965.398	458.88
965.624	480.88
965.85	419.88
966.076	429.88
966.302	479.88
966.528	438.88
966.754	481.88
966.98	494.88
967.206	478.88
967.431	412.88
967.657	521.88
967.883	514.88
968.109	478.88
968.334	438.88
968.56	420.88
968.785	449.88
969.011	398.88
969.236	482.88
969.462	427.88
969.687	442.88
969.912	484.88
970.138	506.88
970.363	436.88
970.588	472.88
970.813	448.88
971.038	428.88
971.263	467.88
971.488	491.88
971.713	521.88
971.938	509.88
972.163	420.88
972.388	454.88
972.613	424.88
972.838	460.88
973.062	455.88
973.287	454.88
973.512	397.88
973.736	456.88
973.961	456.88
974.185	442.88
974.41	470.88
974.634	402.88
974.858	422.88
975.083	470.88
975.307	495.88
975.531	441.88
975.755	401.88
975.98	431.88
976.204	376.88
976.428	400.88
976.652	416.88
976.876	393.88
977.1	433.88
977.324	404.88
977.547	453.88
977.771	457.88
977.995	442.88
978.219	375.88
978.442	509.88
978.666	448.88
978.89	448.88
979.113	447.88
979.337	456.88
979.56	415.88
979.783	510.88
980.007	404.88
980.23	450.88
980.453	411.88
980.677	447.88
980.9	457.88
981.123	360.88
981.346	481.88
981.569	459.88
981.792	489.88
982.015	449.88
982.238	417.88
982.461	460.88
982.684	425.88
982.907	418.88
983.129	421.88
983.352	475.88
983.575	468.88
983.797	474.88
984.02	444.88
984.242	442.88
984.465	460.88
984.687	480.88
984.91	527.88
985.132	490.88
985.354	511.88
985.577	500.88
985.799	486.88
986.021	415.88
986.243	439.88
986.465	475.88
986.687	530.88
986.909	558.88
987.131	485.88
987.353	456.88
987.575	517.88
987.797	470.88
988.019	437.88
988.241	478.88
988.462	463.88
988.684	506.88
988.906	537.88
989.127	567.88
989.349	443.88
989.57	503.88
989.792	546.88
990.013	532.88
990.234	540.88
990.456	574.88
990.677	567.88
990.898	498.88
991.119	517.88
991.341	544.88
991.562	481.88
991.783	530.88
992.004	479.88
992.225	463.88
992.446	532.88
992.667	449.88
992.887	541.88
993.108	425.88
993.329	590.88
993.55	532.88
993.77	477.88
993.991	498.88
994.212	551.88
994.432	531.88
994.653	549.88
994.873	539.88
995.093	428.88
995.314	470.88
995.534	557.88
995.754	589.88
995.975	607.88
996.195	499.88
996.415	542.88
996.635	543.88
996.855	552.88
997.075	526.88
997.295	527.88
997.515	514.88
997.735	559.88
997.955	535.88
998.174	531.88
998.394	506.88
998.614	565.88
998.834	519.88
999.053	603.88
999.273	572.88
999.492	618.88
999.712	557.88
999.931	523.88
1000.151	590.88
1000.37	571.88
1000.589	617.88
1000.809	564.88
1001.028	688.88
1001.247	630.88
1001.466	544.88
1001.685	681.88
1001.904	626.88
1002.123	638.88
1002.342	627.88
1002.561	598.88
1002.78	627.88
1002.999	690.88
1003.218	655.88
1003.436	624.88
1003.655	682.88
1003.874	629.88
1004.092	651.88
1004.311	702.88
1004.53	654.88
1004.748	720.88
1004.966	666.88
1005.185	713.88
1005.403	692.88
1005.622	670.88
1005.84	766.88
1006.058	655.88
1006.276	681.88
1006.494	1172.88
1006.712	664.88
1006.931	737.88
1007.149	654.88
1007.367	661.88
1007.584	659.88
1007.802	700.88
1008.02	652.88
1008.238	746.88
1008.456	712.88
1008.673	589.88
1008.891	698.88
1009.109	626.88
1009.326	671.88
1009.544	709.88
1009.761	591.88
1009.979	665.88
1010.196	618.88
1010.413	670.88
1010.631	673.88
1010.848	685.88
1011.065	668.88
1011.282	612.88
1011.5	552.88
1011.717	671.88
1011.934	605.88
1012.151	669.88
1012.368	637.88
1012.585	587.88
1012.801	641.88
1013.018	610.88
1013.235	571.88
1013.452	599.88
1013.669	588.88
1013.885	564.88
1014.102	606.88
1014.318	549.88
1014.535	520.88
1014.751	564.88
1014.968	582.88
1015.184	626.88
1015.401	531.88
1015.617	578.88
1015.833	535.88
1016.049	542.88
1016.266	535.88
1016.482	554.88
1016.698	500.88
1016.914	555.88
1017.13	512.88
1017.346	508.88
1017.562	574.88
1017.778	520.88
1017.993	495.88
1018.209	549.88
1018.425	530.88
1018.641	481.88
1018.856	487.88
1019.072	513.88
1019.288	543.88
1019.503	516.88
1019.719	447.88
1019.934	456.88
1020.149	544.88
1020.365	499.88
1020.58	471.88
1020.795	548.88
1021.011	497.88
1021.226	508.88
1021.441	534.88
1021.656	484.88
1021.871	453.88
1022.086	472.88
1022.301	482.88
1022.516	474.88
1022.731	520.88
1022.946	458.88
1023.16	467.88
1023.375	466.88
1023.59	445.88
1023.804	423.88
1024.019	537.88
1024.234	426.88
1024.448	466.88
1024.663	405.88
1024.877	439.88
1025.092	476.88
1025.306	490.88
1025.52	420.88
1025.734	517.88
1025.949	450.88
1026.163	433.88
1026.377	376.88
1026.591	454.88
1026.805	382.88
1027.019	389.88
1027.233	355.88
1027.447	318.88
1027.661	414.88
1027.875	361.88
1028.088	388.88
1028.302	338.88
1028.516	334.88
1028.73	345.88
1028.943	347.88
1029.157	321.88
1029.37	299.88
1029.584	0.88
1029.797	-0.12
1030.011	-4.12
1030.224	-2.12
