Data from QEP037381__34__10-17-51-062.txt Node

Date: Fri Apr 21 10:17:51 EDT 2023
User: dcclab
Spectrometer: QEP03738
Trigger mode: 4
Integration Time (sec): 1.000000E1
Scans to average: 1
Electric dark correction enabled: true
Nonlinearity correction enabled: false
Boxcar width: 0
XAxis mode: Wavelengths
Number of Pixels in Spectrum: 1044
>>>>>Begin Spectral Data<<<<<
784.041	12.5
784.3	-3.5
784.558	1.5
784.817	-1.5
785.075	237.5
785.334	209.5
785.592	204.5
785.851	199.5
786.109	219.5
786.368	244.5
786.626	260.5
786.884	273.5
787.143	267.5
787.401	205.5
787.659	268.5
787.917	252.5
788.175	298.5
788.433	268.5
788.691	281.5
788.949	282.5
789.207	296.5
789.465	252.5
789.723	275.5
789.98	254.5
790.238	325.5
790.496	297.5
790.753	296.5
791.011	372.5
791.268	315.5
791.526	298.5
791.783	323.5
792.041	317.5
792.298	245.5
792.556	329.5
792.813	316.5
793.07	291.5
793.327	290.5
793.584	375.5
793.841	301.5
794.099	330.5
794.356	386.5
794.613	284.5
794.869	325.5
795.126	302.5
795.383	280.5
795.64	307.5
795.897	269.5
796.153	323.5
796.41	307.5
796.667	290.5
796.923	290.5
797.18	304.5
797.436	324.5
797.693	282.5
797.949	325.5
798.206	370.5
798.462	275.5
798.718	326.5
798.974	301.5
799.231	333.5
799.487	329.5
799.743	316.5
799.999	342.5
800.255	336.5
800.511	304.5
800.767	341.5
801.023	308.5
801.279	322.5
801.534	320.5
801.79	327.5
802.046	298.5
802.302	361.5
802.557	329.5
802.813	350.5
803.068	298.5
803.324	344.5
803.579	307.5
803.835	294.5
804.09	339.5
804.345	285.5
804.601	263.5
804.856	308.5
805.111	321.5
805.366	325.5
805.621	319.5
805.876	336.5
806.131	322.5
806.386	300.5
806.641	276.5
806.896	302.5
807.151	372.5
807.406	321.5
807.661	329.5
807.915	317.5
808.17	329.5
808.425	332.5
808.679	284.5
808.934	373.5
809.188	293.5
809.443	331.5
809.697	351.5
809.951	305.5
810.206	300.5
810.46	352.5
810.714	346.5
810.968	349.5
811.223	266.5
811.477	314.5
811.731	326.5
811.985	282.5
812.239	246.5
812.493	277.5
812.747	325.5
813	257.5
813.254	318.5
813.508	346.5
813.762	296.5
814.015	291.5
814.269	328.5
814.522	337.5
814.776	323.5
815.03	334.5
815.283	330.5
815.536	346.5
815.79	331.5
816.043	339.5
816.296	321.5
816.55	310.5
816.803	313.5
817.056	394.5
817.309	329.5
817.562	322.5
817.815	366.5
818.068	279.5
818.321	294.5
818.574	276.5
818.827	333.5
819.079	280.5
819.332	413.5
819.585	341.5
819.838	411.5
820.09	293.5
820.343	365.5
820.595	282.5
820.848	357.5
821.1	342.5
821.353	316.5
821.605	318.5
821.857	385.5
822.11	272.5
822.362	294.5
822.614	271.5
822.866	315.5
823.118	279.5
823.37	363.5
823.622	308.5
823.874	319.5
824.126	348.5
824.378	287.5
824.63	318.5
824.882	336.5
825.134	312.5
825.385	336.5
825.637	327.5
825.888	306.5
826.14	333.5
826.392	297.5
826.643	287.5
826.895	379.5
827.146	310.5
827.397	304.5
827.649	384.5
827.9	293.5
828.151	272.5
828.402	289.5
828.653	324.5
828.905	336.5
829.156	368.5
829.407	292.5
829.658	327.5
829.909	351.5
830.159	339.5
830.41	342.5
830.661	358.5
830.912	334.5
831.162	311.5
831.413	309.5
831.664	340.5
831.914	322.5
832.165	341.5
832.415	337.5
832.666	340.5
832.916	352.5
833.167	308.5
833.417	389.5
833.667	355.5
833.917	333.5
834.168	385.5
834.418	347.5
834.668	320.5
834.918	281.5
835.168	310.5
835.418	257.5
835.668	331.5
835.918	358.5
836.167	348.5
836.417	291.5
836.667	360.5
836.917	362.5
837.166	324.5
837.416	362.5
837.666	359.5
837.915	330.5
838.165	342.5
838.414	295.5
838.663	285.5
838.913	324.5
839.162	285.5
839.411	394.5
839.661	307.5
839.91	332.5
840.159	317.5
840.408	332.5
840.657	324.5
840.906	339.5
841.155	360.5
841.404	319.5
841.653	342.5
841.902	297.5
842.15	349.5
842.399	338.5
842.648	318.5
842.897	358.5
843.145	278.5
843.394	300.5
843.642	304.5
843.891	358.5
844.139	337.5
844.388	286.5
844.636	269.5
844.884	318.5
845.133	305.5
845.381	327.5
845.629	356.5
845.877	297.5
846.125	313.5
846.373	339.5
846.621	296.5
846.869	358.5
847.117	325.5
847.365	327.5
847.613	342.5
847.861	350.5
848.108	380.5
848.356	357.5
848.604	314.5
848.851	332.5
849.099	342.5
849.346	328.5
849.594	330.5
849.841	366.5
850.089	324.5
850.336	294.5
850.583	311.5
850.831	322.5
851.078	334.5
851.325	303.5
851.572	365.5
851.819	356.5
852.066	336.5
852.313	324.5
852.56	294.5
852.807	271.5
853.054	292.5
853.301	317.5
853.548	317.5
853.794	406.5
854.041	332.5
854.288	288.5
854.534	378.5
854.781	302.5
855.028	304.5
855.274	394.5
855.52	330.5
855.767	301.5
856.013	354.5
856.26	628.5
856.506	309.5
856.752	352.5
856.998	323.5
857.244	309.5
857.49	331.5
857.736	349.5
857.982	361.5
858.228	347.5
858.474	291.5
858.72	329.5
858.966	344.5
859.212	342.5
859.458	335.5
859.703	347.5
859.949	311.5
860.195	361.5
860.44	361.5
860.686	307.5
860.931	379.5
861.177	319.5
861.422	382.5
861.667	335.5
861.913	338.5
862.158	337.5
862.403	375.5
862.648	355.5
862.893	386.5
863.138	354.5
863.384	306.5
863.629	360.5
863.873	347.5
864.118	329.5
864.363	268.5
864.608	339.5
864.853	361.5
865.098	336.5
865.342	361.5
865.587	337.5
865.832	361.5
866.076	376.5
866.321	326.5
866.565	337.5
866.81	264.5
867.054	329.5
867.298	339.5
867.543	306.5
867.787	367.5
868.031	337.5
868.275	348.5
868.519	334.5
868.764	338.5
869.008	322.5
869.252	380.5
869.496	336.5
869.739	325.5
869.983	377.5
870.227	363.5
870.471	313.5
870.715	362.5
870.958	353.5
871.202	304.5
871.446	315.5
871.689	319.5
871.933	336.5
872.176	347.5
872.42	326.5
872.663	325.5
872.906	388.5
873.15	319.5
873.393	278.5
873.636	365.5
873.879	360.5
874.122	394.5
874.366	342.5
874.609	362.5
874.852	327.5
875.095	347.5
875.337	327.5
875.58	270.5
875.823	349.5
876.066	382.5
876.309	399.5
876.551	299.5
876.794	302.5
877.037	365.5
877.279	299.5
877.522	320.5
877.764	358.5
878.007	312.5
878.249	345.5
878.491	304.5
878.734	376.5
878.976	353.5
879.218	294.5
879.46	397.5
879.702	378.5
879.945	360.5
880.187	331.5
880.429	379.5
880.671	372.5
880.912	374.5
881.154	360.5
881.396	284.5
881.638	365.5
881.88	341.5
882.121	315.5
882.363	333.5
882.605	400.5
882.846	355.5
883.088	387.5
883.329	331.5
883.571	293.5
883.812	318.5
884.053	324.5
884.295	318.5
884.536	409.5
884.777	326.5
885.018	348.5
885.259	346.5
885.5	294.5
885.742	511.5
885.982	364.5
886.223	317.5
886.464	334.5
886.705	295.5
886.946	335.5
887.187	282.5
887.428	381.5
887.668	327.5
887.909	299.5
888.15	297.5
888.39	369.5
888.631	409.5
888.871	376.5
889.111	364.5
889.352	377.5
889.592	333.5
889.833	359.5
890.073	343.5
890.313	427.5
890.553	309.5
890.793	340.5
891.033	326.5
891.273	318.5
891.513	361.5
891.753	411.5
891.993	353.5
892.233	370.5
892.473	428.5
892.713	370.5
892.952	312.5
893.192	351.5
893.432	324.5
893.671	370.5
893.911	331.5
894.15	341.5
894.39	293.5
894.629	327.5
894.869	360.5
895.108	341.5
895.347	314.5
895.587	367.5
895.826	327.5
896.065	307.5
896.304	367.5
896.543	389.5
896.782	291.5
897.021	353.5
897.26	353.5
897.499	399.5
897.738	401.5
897.977	362.5
898.216	349.5
898.454	327.5
898.693	338.5
898.932	381.5
899.17	350.5
899.409	347.5
899.647	368.5
899.886	340.5
900.124	366.5
900.363	325.5
900.601	358.5
900.839	355.5
901.078	352.5
901.316	363.5
901.554	343.5
901.792	366.5
902.03	311.5
902.268	334.5
902.506	375.5
902.744	336.5
902.982	385.5
903.22	321.5
903.458	336.5
903.695	373.5
903.933	385.5
904.171	330.5
904.409	332.5
904.646	383.5
904.884	349.5
905.121	414.5
905.359	389.5
905.596	390.5
905.833	342.5
906.071	346.5
906.308	409.5
906.545	378.5
906.783	316.5
907.02	347.5
907.257	303.5
907.494	349.5
907.731	363.5
907.968	380.5
908.205	331.5
908.442	346.5
908.679	366.5
908.915	357.5
909.152	371.5
909.389	298.5
909.626	337.5
909.862	336.5
910.099	356.5
910.335	396.5
910.572	310.5
910.808	368.5
911.045	349.5
911.281	334.5
911.518	408.5
911.754	344.5
911.99	367.5
912.226	350.5
912.463	327.5
912.699	342.5
912.935	342.5
913.171	351.5
913.407	323.5
913.643	383.5
913.879	382.5
914.114	362.5
914.35	352.5
914.586	357.5
914.822	326.5
915.057	448.5
915.293	316.5
915.529	331.5
915.764	404.5
916	380.5
916.235	377.5
916.471	402.5
916.706	323.5
916.941	350.5
917.177	339.5
917.412	390.5
917.647	384.5
917.882	337.5
918.117	392.5
918.352	384.5
918.588	429.5
918.823	356.5
919.057	367.5
919.292	286.5
919.527	403.5
919.762	347.5
919.997	427.5
920.232	369.5
920.466	421.5
920.701	328.5
920.935	394.5
921.17	355.5
921.405	335.5
921.639	409.5
921.873	373.5
922.108	405.5
922.342	397.5
922.576	347.5
922.811	346.5
923.045	413.5
923.279	429.5
923.513	302.5
923.747	419.5
923.981	387.5
924.215	353.5
924.449	361.5
924.683	332.5
924.917	361.5
925.151	370.5
925.385	444.5
925.618	385.5
925.852	390.5
926.086	335.5
926.319	392.5
926.553	380.5
926.786	390.5
927.02	366.5
927.253	402.5
927.486	413.5
927.72	347.5
927.953	404.5
928.186	381.5
928.42	402.5
928.653	350.5
928.886	349.5
929.119	392.5
929.352	383.5
929.585	404.5
929.818	355.5
930.051	398.5
930.284	414.5
930.516	324.5
930.749	362.5
930.982	423.5
931.215	412.5
931.447	345.5
931.68	383.5
931.912	368.5
932.145	369.5
932.377	385.5
932.61	506.5
932.842	303.5
933.074	388.5
933.307	327.5
933.539	436.5
933.771	424.5
934.003	354.5
934.236	457.5
934.468	457.5
934.7	387.5
934.932	418.5
935.164	362.5
935.395	352.5
935.627	379.5
935.859	412.5
936.091	345.5
936.323	400.5
936.554	424.5
936.786	391.5
937.017	352.5
937.249	391.5
937.481	318.5
937.712	404.5
937.943	390.5
938.175	368.5
938.406	368.5
938.637	455.5
938.869	341.5
939.1	406.5
939.331	365.5
939.562	414.5
939.793	394.5
940.024	430.5
940.255	444.5
940.486	398.5
940.717	397.5
940.948	395.5
941.179	351.5
941.409	373.5
941.64	376.5
941.871	397.5
942.102	381.5
942.332	381.5
942.563	421.5
942.793	390.5
943.024	328.5
943.254	382.5
943.484	423.5
943.715	423.5
943.945	388.5
944.175	328.5
944.405	329.5
944.636	348.5
944.866	387.5
945.096	399.5
945.326	316.5
945.556	402.5
945.786	431.5
946.016	377.5
946.245	355.5
946.475	358.5
946.705	375.5
946.935	395.5
947.164	401.5
947.394	361.5
947.624	392.5
947.853	444.5
948.083	401.5
948.312	382.5
948.542	339.5
948.771	327.5
949	366.5
949.23	365.5
949.459	378.5
949.688	450.5
949.917	381.5
950.146	399.5
950.375	445.5
950.604	364.5
950.833	451.5
951.062	452.5
951.291	398.5
951.52	364.5
951.749	404.5
951.978	367.5
952.206	387.5
952.435	370.5
952.664	438.5
952.892	440.5
953.121	404.5
953.349	440.5
953.578	445.5
953.806	414.5
954.035	379.5
954.263	415.5
954.491	366.5
954.719	434.5
954.948	381.5
955.176	394.5
955.404	336.5
955.632	399.5
955.86	419.5
956.088	416.5
956.316	441.5
956.544	471.5
956.772	404.5
956.999	396.5
957.227	487.5
957.455	392.5
957.683	434.5
957.91	385.5
958.138	403.5
958.365	409.5
958.593	404.5
958.82	362.5
959.048	445.5
959.275	405.5
959.502	410.5
959.73	392.5
959.957	418.5
960.184	445.5
960.411	381.5
960.638	478.5
960.865	419.5
961.092	449.5
961.319	353.5
961.546	462.5
961.773	454.5
962	431.5
962.227	459.5
962.454	433.5
962.68	426.5
962.907	463.5
963.134	404.5
963.36	428.5
963.587	475.5
963.813	424.5
964.04	476.5
964.266	416.5
964.493	509.5
964.719	467.5
964.945	495.5
965.171	401.5
965.398	458.5
965.624	483.5
965.85	416.5
966.076	430.5
966.302	492.5
966.528	447.5
966.754	492.5
966.98	478.5
967.206	483.5
967.431	416.5
967.657	531.5
967.883	488.5
968.109	483.5
968.334	431.5
968.56	434.5
968.785	449.5
969.011	425.5
969.236	485.5
969.462	418.5
969.687	455.5
969.912	484.5
970.138	519.5
970.363	446.5
970.588	469.5
970.813	455.5
971.038	443.5
971.263	480.5
971.488	473.5
971.713	508.5
971.938	502.5
972.163	413.5
972.388	463.5
972.613	459.5
972.838	455.5
973.062	457.5
973.287	458.5
973.512	406.5
973.736	469.5
973.961	455.5
974.185	434.5
974.41	474.5
974.634	401.5
974.858	427.5
975.083	472.5
975.307	508.5
975.531	442.5
975.755	383.5
975.98	431.5
976.204	384.5
976.428	385.5
976.652	407.5
976.876	393.5
977.1	441.5
977.324	402.5
977.547	463.5
977.771	461.5
977.995	422.5
978.219	386.5
978.442	513.5
978.666	458.5
978.89	441.5
979.113	450.5
979.337	455.5
979.56	412.5
979.783	515.5
980.007	400.5
980.23	456.5
980.453	409.5
980.677	462.5
980.9	449.5
981.123	363.5
981.346	487.5
981.569	444.5
981.792	487.5
982.015	442.5
982.238	419.5
982.461	458.5
982.684	437.5
982.907	414.5
983.129	423.5
983.352	477.5
983.575	471.5
983.797	485.5
984.02	435.5
984.242	446.5
984.465	458.5
984.687	482.5
984.91	520.5
985.132	487.5
985.354	482.5
985.577	476.5
985.799	488.5
986.021	397.5
986.243	455.5
986.465	478.5
986.687	515.5
986.909	554.5
987.131	501.5
987.353	474.5
987.575	507.5
987.797	468.5
988.019	417.5
988.241	476.5
988.462	447.5
988.684	523.5
988.906	543.5
989.127	554.5
989.349	456.5
989.57	490.5
989.792	535.5
990.013	526.5
990.234	560.5
990.456	582.5
990.677	550.5
990.898	502.5
991.119	510.5
991.341	554.5
991.562	496.5
991.783	537.5
992.004	473.5
992.225	466.5
992.446	512.5
992.667	454.5
992.887	544.5
993.108	438.5
993.329	588.5
993.55	533.5
993.77	475.5
993.991	491.5
994.212	532.5
994.432	524.5
994.653	544.5
994.873	544.5
995.093	430.5
995.314	494.5
995.534	571.5
995.754	578.5
995.975	618.5
996.195	491.5
996.415	542.5
996.635	530.5
996.855	557.5
997.075	516.5
997.295	525.5
997.515	509.5
997.735	569.5
997.955	555.5
998.174	528.5
998.394	504.5
998.614	549.5
998.834	508.5
999.053	576.5
999.273	554.5
999.492	624.5
999.712	557.5
999.931	527.5
1000.151	579.5
1000.37	573.5
1000.589	640.5
1000.809	558.5
1001.028	684.5
1001.247	627.5
1001.466	521.5
1001.685	683.5
1001.904	640.5
1002.123	617.5
1002.342	645.5
1002.561	591.5
1002.78	629.5
1002.999	691.5
1003.218	648.5
1003.436	610.5
1003.655	684.5
1003.874	634.5
1004.092	639.5
1004.311	690.5
1004.53	634.5
1004.748	751.5
1004.966	678.5
1005.185	712.5
1005.403	707.5
1005.622	655.5
1005.84	755.5
1006.058	666.5
1006.276	678.5
1006.494	1184.5
1006.712	661.5
1006.931	753.5
1007.149	657.5
1007.367	648.5
1007.584	669.5
1007.802	708.5
1008.02	647.5
1008.238	741.5
1008.456	716.5
1008.673	582.5
1008.891	684.5
1009.109	627.5
1009.326	674.5
1009.544	715.5
1009.761	591.5
1009.979	652.5
1010.196	622.5
1010.413	656.5
1010.631	664.5
1010.848	683.5
1011.065	676.5
1011.282	626.5
1011.5	563.5
1011.717	664.5
1011.934	627.5
1012.151	668.5
1012.368	641.5
1012.585	573.5
1012.801	641.5
1013.018	603.5
1013.235	580.5
1013.452	599.5
1013.669	603.5
1013.885	567.5
1014.102	595.5
1014.318	571.5
1014.535	524.5
1014.751	552.5
1014.968	574.5
1015.184	608.5
1015.401	525.5
1015.617	567.5
1015.833	521.5
1016.049	547.5
1016.266	536.5
1016.482	557.5
1016.698	484.5
1016.914	547.5
1017.13	512.5
1017.346	508.5
1017.562	589.5
1017.778	516.5
1017.993	483.5
1018.209	548.5
1018.425	532.5
1018.641	490.5
1018.856	470.5
1019.072	515.5
1019.288	546.5
1019.503	497.5
1019.719	436.5
1019.934	457.5
1020.149	553.5
1020.365	497.5
1020.58	471.5
1020.795	540.5
1021.011	485.5
1021.226	513.5
1021.441	543.5
1021.656	495.5
1021.871	434.5
1022.086	468.5
1022.301	458.5
1022.516	465.5
1022.731	522.5
1022.946	466.5
1023.16	468.5
1023.375	445.5
1023.59	453.5
1023.804	431.5
1024.019	521.5
1024.234	424.5
1024.448	471.5
1024.663	400.5
1024.877	437.5
1025.092	459.5
1025.306	480.5
1025.52	415.5
1025.734	503.5
1025.949	445.5
1026.163	430.5
1026.377	386.5
1026.591	447.5
1026.805	390.5
1027.019	402.5
1027.233	361.5
1027.447	313.5
1027.661	413.5
1027.875	380.5
1028.088	384.5
1028.302	330.5
1028.516	329.5
1028.73	357.5
1028.943	363.5
1029.157	342.5
1029.37	311.5
1029.584	-1.5
1029.797	1.5
1030.011	-2.5
1030.224	-6.5
