Data from QEP037381__71__10-24-01-071.txt Node

Date: Fri Apr 21 10:24:01 EDT 2023
User: dcclab
Spectrometer: QEP03738
Trigger mode: 4
Integration Time (sec): 1.000000E1
Scans to average: 1
Electric dark correction enabled: true
Nonlinearity correction enabled: false
Boxcar width: 0
XAxis mode: Wavelengths
Number of Pixels in Spectrum: 1044
>>>>>Begin Spectral Data<<<<<
784.041	9.38
784.3	1.38
784.558	0.38
784.817	-0.62
785.075	228.38
785.334	196.38
785.592	212.38
785.851	199.38
786.109	227.38
786.368	242.38
786.626	258.38
786.884	273.38
787.143	268.38
787.401	211.38
787.659	278.38
787.917	260.38
788.175	292.38
788.433	278.38
788.691	272.38
788.949	286.38
789.207	305.38
789.465	250.38
789.723	262.38
789.98	256.38
790.238	310.38
790.496	298.38
790.753	282.38
791.011	366.38
791.268	306.38
791.526	295.38
791.783	328.38
792.041	328.38
792.298	251.38
792.556	344.38
792.813	305.38
793.07	292.38
793.327	290.38
793.584	365.38
793.841	296.38
794.099	325.38
794.356	381.38
794.613	282.38
794.869	330.38
795.126	296.38
795.383	284.38
795.64	307.38
795.897	264.38
796.153	319.38
796.41	303.38
796.667	289.38
796.923	294.38
797.18	300.38
797.436	326.38
797.693	283.38
797.949	337.38
798.206	368.38
798.462	279.38
798.718	330.38
798.974	310.38
799.231	341.38
799.487	328.38
799.743	327.38
799.999	346.38
800.255	332.38
800.511	309.38
800.767	339.38
801.023	303.38
801.279	322.38
801.534	328.38
801.79	342.38
802.046	301.38
802.302	340.38
802.557	338.38
802.813	348.38
803.068	284.38
803.324	346.38
803.579	304.38
803.835	301.38
804.09	346.38
804.345	298.38
804.601	279.38
804.856	292.38
805.111	323.38
805.366	311.38
805.621	309.38
805.876	328.38
806.131	315.38
806.386	318.38
806.641	272.38
806.896	305.38
807.151	371.38
807.406	312.38
807.661	325.38
807.915	314.38
808.17	346.38
808.425	319.38
808.679	277.38
808.934	365.38
809.188	298.38
809.443	332.38
809.697	364.38
809.951	296.38
810.206	298.38
810.46	358.38
810.714	332.38
810.968	349.38
811.223	275.38
811.477	324.38
811.731	340.38
811.985	278.38
812.239	241.38
812.493	281.38
812.747	309.38
813	262.38
813.254	318.38
813.508	357.38
813.762	298.38
814.015	300.38
814.269	305.38
814.522	341.38
814.776	331.38
815.03	345.38
815.283	336.38
815.536	333.38
815.79	339.38
816.043	338.38
816.296	324.38
816.55	314.38
816.803	321.38
817.056	409.38
817.309	333.38
817.562	334.38
817.815	382.38
818.068	295.38
818.321	289.38
818.574	298.38
818.827	334.38
819.079	297.38
819.332	408.38
819.585	331.38
819.838	397.38
820.09	305.38
820.343	361.38
820.595	268.38
820.848	340.38
821.1	348.38
821.353	308.38
821.605	309.38
821.857	373.38
822.11	272.38
822.362	294.38
822.614	294.38
822.866	321.38
823.118	266.38
823.37	370.38
823.622	316.38
823.874	312.38
824.126	342.38
824.378	286.38
824.63	309.38
824.882	321.38
825.134	313.38
825.385	340.38
825.637	336.38
825.888	315.38
826.14	321.38
826.392	299.38
826.643	284.38
826.895	367.38
827.146	310.38
827.397	308.38
827.649	393.38
827.9	290.38
828.151	275.38
828.402	276.38
828.653	325.38
828.905	321.38
829.156	387.38
829.407	287.38
829.658	322.38
829.909	356.38
830.159	335.38
830.41	340.38
830.661	356.38
830.912	335.38
831.162	320.38
831.413	309.38
831.664	354.38
831.914	325.38
832.165	330.38
832.415	337.38
832.666	333.38
832.916	356.38
833.167	308.38
833.417	378.38
833.667	346.38
833.917	332.38
834.168	391.38
834.418	346.38
834.668	326.38
834.918	284.38
835.168	297.38
835.418	268.38
835.668	327.38
835.918	361.38
836.167	347.38
836.417	285.38
836.667	362.38
836.917	376.38
837.166	314.38
837.416	362.38
837.666	369.38
837.915	323.38
838.165	340.38
838.414	304.38
838.663	271.38
838.913	338.38
839.162	289.38
839.411	386.38
839.661	305.38
839.91	324.38
840.159	302.38
840.408	330.38
840.657	323.38
840.906	349.38
841.155	365.38
841.404	316.38
841.653	339.38
841.902	297.38
842.15	337.38
842.399	334.38
842.648	316.38
842.897	352.38
843.145	287.38
843.394	293.38
843.642	303.38
843.891	380.38
844.139	340.38
844.388	294.38
844.636	273.38
844.884	318.38
845.133	285.38
845.381	326.38
845.629	344.38
845.877	283.38
846.125	305.38
846.373	333.38
846.621	299.38
846.869	351.38
847.117	331.38
847.365	317.38
847.613	349.38
847.861	356.38
848.108	366.38
848.356	348.38
848.604	299.38
848.851	344.38
849.099	333.38
849.346	308.38
849.594	344.38
849.841	346.38
850.089	319.38
850.336	289.38
850.583	314.38
850.831	318.38
851.078	332.38
851.325	306.38
851.572	353.38
851.819	350.38
852.066	335.38
852.313	312.38
852.56	289.38
852.807	287.38
853.054	297.38
853.301	313.38
853.548	305.38
853.794	394.38
854.041	319.38
854.288	272.38
854.534	392.38
854.781	319.38
855.028	301.38
855.274	389.38
855.52	326.38
855.767	298.38
856.013	349.38
856.26	641.38
856.506	313.38
856.752	354.38
856.998	324.38
857.244	307.38
857.49	353.38
857.736	339.38
857.982	351.38
858.228	348.38
858.474	295.38
858.72	324.38
858.966	358.38
859.212	350.38
859.458	347.38
859.703	349.38
859.949	325.38
860.195	371.38
860.44	356.38
860.686	311.38
860.931	385.38
861.177	306.38
861.422	373.38
861.667	319.38
861.913	322.38
862.158	333.38
862.403	366.38
862.648	362.38
862.893	400.38
863.138	343.38
863.384	306.38
863.629	366.38
863.873	347.38
864.118	324.38
864.363	278.38
864.608	347.38
864.853	360.38
865.098	327.38
865.342	347.38
865.587	323.38
865.832	373.38
866.076	353.38
866.321	328.38
866.565	340.38
866.81	278.38
867.054	337.38
867.298	345.38
867.543	317.38
867.787	365.38
868.031	339.38
868.275	343.38
868.519	329.38
868.764	344.38
869.008	332.38
869.252	386.38
869.496	337.38
869.739	337.38
869.983	378.38
870.227	372.38
870.471	309.38
870.715	353.38
870.958	363.38
871.202	324.38
871.446	327.38
871.689	305.38
871.933	336.38
872.176	329.38
872.42	328.38
872.663	329.38
872.906	380.38
873.15	327.38
873.393	265.38
873.636	374.38
873.879	367.38
874.122	391.38
874.366	333.38
874.609	366.38
874.852	328.38
875.095	359.38
875.337	335.38
875.58	280.38
875.823	349.38
876.066	385.38
876.309	418.38
876.551	308.38
876.794	279.38
877.037	374.38
877.279	306.38
877.522	316.38
877.764	362.38
878.007	304.38
878.249	352.38
878.491	311.38
878.734	372.38
878.976	356.38
879.218	307.38
879.46	381.38
879.702	376.38
879.945	369.38
880.187	337.38
880.429	376.38
880.671	375.38
880.912	386.38
881.154	364.38
881.396	278.38
881.638	362.38
881.88	360.38
882.121	321.38
882.363	336.38
882.605	381.38
882.846	356.38
883.088	379.38
883.329	320.38
883.571	302.38
883.812	307.38
884.053	327.38
884.295	329.38
884.536	411.38
884.777	331.38
885.018	340.38
885.259	354.38
885.5	297.38
885.742	507.38
885.982	366.38
886.223	314.38
886.464	333.38
886.705	292.38
886.946	348.38
887.187	286.38
887.428	386.38
887.668	315.38
887.909	317.38
888.15	309.38
888.39	365.38
888.631	413.38
888.871	378.38
889.111	361.38
889.352	353.38
889.592	328.38
889.833	348.38
890.073	351.38
890.313	410.38
890.553	324.38
890.793	344.38
891.033	306.38
891.273	330.38
891.513	345.38
891.753	405.38
891.993	341.38
892.233	369.38
892.473	421.38
892.713	370.38
892.952	317.38
893.192	351.38
893.432	326.38
893.671	376.38
893.911	342.38
894.15	357.38
894.39	289.38
894.629	331.38
894.869	376.38
895.108	358.38
895.347	312.38
895.587	373.38
895.826	327.38
896.065	305.38
896.304	357.38
896.543	387.38
896.782	300.38
897.021	357.38
897.26	340.38
897.499	396.38
897.738	412.38
897.977	352.38
898.216	354.38
898.454	346.38
898.693	330.38
898.932	379.38
899.17	353.38
899.409	362.38
899.647	357.38
899.886	334.38
900.124	370.38
900.363	320.38
900.601	360.38
900.839	354.38
901.078	361.38
901.316	353.38
901.554	352.38
901.792	361.38
902.03	315.38
902.268	339.38
902.506	387.38
902.744	335.38
902.982	375.38
903.22	328.38
903.458	339.38
903.695	387.38
903.933	380.38
904.171	343.38
904.409	347.38
904.646	397.38
904.884	339.38
905.121	409.38
905.359	373.38
905.596	370.38
905.833	330.38
906.071	350.38
906.308	405.38
906.545	369.38
906.783	308.38
907.02	349.38
907.257	301.38
907.494	334.38
907.731	373.38
907.968	385.38
908.205	332.38
908.442	348.38
908.679	366.38
908.915	353.38
909.152	372.38
909.389	313.38
909.626	342.38
909.862	331.38
910.099	365.38
910.335	412.38
910.572	301.38
910.808	373.38
911.045	340.38
911.281	325.38
911.518	410.38
911.754	354.38
911.99	368.38
912.226	346.38
912.463	323.38
912.699	344.38
912.935	348.38
913.171	343.38
913.407	328.38
913.643	393.38
913.879	367.38
914.114	365.38
914.35	349.38
914.586	350.38
914.822	328.38
915.057	441.38
915.293	323.38
915.529	328.38
915.764	396.38
916	373.38
916.235	379.38
916.471	404.38
916.706	313.38
916.941	347.38
917.177	358.38
917.412	395.38
917.647	395.38
917.882	338.38
918.117	400.38
918.352	371.38
918.588	421.38
918.823	361.38
919.057	358.38
919.292	291.38
919.527	408.38
919.762	352.38
919.997	424.38
920.232	379.38
920.466	422.38
920.701	317.38
920.935	396.38
921.17	370.38
921.405	335.38
921.639	392.38
921.873	379.38
922.108	397.38
922.342	396.38
922.576	344.38
922.811	349.38
923.045	402.38
923.279	417.38
923.513	308.38
923.747	404.38
923.981	389.38
924.215	367.38
924.449	369.38
924.683	324.38
924.917	352.38
925.151	365.38
925.385	444.38
925.618	388.38
925.852	389.38
926.086	327.38
926.319	401.38
926.553	380.38
926.786	393.38
927.02	382.38
927.253	417.38
927.486	431.38
927.72	342.38
927.953	410.38
928.186	370.38
928.42	397.38
928.653	349.38
928.886	355.38
929.119	396.38
929.352	378.38
929.585	384.38
929.818	349.38
930.051	401.38
930.284	411.38
930.516	341.38
930.749	362.38
930.982	414.38
931.215	423.38
931.447	334.38
931.68	373.38
931.912	362.38
932.145	361.38
932.377	389.38
932.61	525.38
932.842	320.38
933.074	387.38
933.307	338.38
933.539	433.38
933.771	426.38
934.003	362.38
934.236	443.38
934.468	469.38
934.7	376.38
934.932	402.38
935.164	363.38
935.395	363.38
935.627	372.38
935.859	392.38
936.091	348.38
936.323	418.38
936.554	441.38
936.786	391.38
937.017	339.38
937.249	392.38
937.481	335.38
937.712	422.38
937.943	394.38
938.175	376.38
938.406	360.38
938.637	455.38
938.869	345.38
939.1	417.38
939.331	363.38
939.562	412.38
939.793	406.38
940.024	438.38
940.255	455.38
940.486	389.38
940.717	397.38
940.948	386.38
941.179	353.38
941.409	386.38
941.64	376.38
941.871	400.38
942.102	367.38
942.332	380.38
942.563	411.38
942.793	392.38
943.024	343.38
943.254	392.38
943.484	422.38
943.715	419.38
943.945	405.38
944.175	334.38
944.405	333.38
944.636	346.38
944.866	387.38
945.096	400.38
945.326	343.38
945.556	411.38
945.786	439.38
946.016	379.38
946.245	339.38
946.475	361.38
946.705	373.38
946.935	397.38
947.164	411.38
947.394	371.38
947.624	382.38
947.853	447.38
948.083	401.38
948.312	391.38
948.542	352.38
948.771	332.38
949	357.38
949.23	365.38
949.459	372.38
949.688	452.38
949.917	391.38
950.146	400.38
950.375	448.38
950.604	361.38
950.833	457.38
951.062	442.38
951.291	394.38
951.52	376.38
951.749	399.38
951.978	356.38
952.206	380.38
952.435	374.38
952.664	417.38
952.892	434.38
953.121	409.38
953.349	445.38
953.578	434.38
953.806	421.38
954.035	370.38
954.263	416.38
954.491	369.38
954.719	421.38
954.948	383.38
955.176	382.38
955.404	339.38
955.632	406.38
955.86	418.38
956.088	421.38
956.316	452.38
956.544	473.38
956.772	401.38
956.999	391.38
957.227	481.38
957.455	407.38
957.683	404.38
957.91	408.38
958.138	404.38
958.365	408.38
958.593	406.38
958.82	367.38
959.048	450.38
959.275	418.38
959.502	409.38
959.73	390.38
959.957	417.38
960.184	455.38
960.411	381.38
960.638	483.38
960.865	427.38
961.092	472.38
961.319	358.38
961.546	460.38
961.773	466.38
962	413.38
962.227	471.38
962.454	427.38
962.68	437.38
962.907	455.38
963.134	420.38
963.36	440.38
963.587	486.38
963.813	417.38
964.04	474.38
964.266	425.38
964.493	513.38
964.719	475.38
964.945	491.38
965.171	400.38
965.398	463.38
965.624	493.38
965.85	414.38
966.076	433.38
966.302	490.38
966.528	456.38
966.754	479.38
966.98	477.38
967.206	488.38
967.431	409.38
967.657	487.38
967.883	484.38
968.109	485.38
968.334	423.38
968.56	429.38
968.785	461.38
969.011	417.38
969.236	490.38
969.462	435.38
969.687	448.38
969.912	488.38
970.138	513.38
970.363	440.38
970.588	471.38
970.813	458.38
971.038	446.38
971.263	463.38
971.488	482.38
971.713	520.38
971.938	518.38
972.163	409.38
972.388	454.38
972.613	434.38
972.838	464.38
973.062	464.38
973.287	468.38
973.512	418.38
973.736	472.38
973.961	450.38
974.185	433.38
974.41	475.38
974.634	392.38
974.858	420.38
975.083	465.38
975.307	498.38
975.531	452.38
975.755	399.38
975.98	449.38
976.204	380.38
976.428	393.38
976.652	407.38
976.876	401.38
977.1	441.38
977.324	402.38
977.547	456.38
977.771	475.38
977.995	438.38
978.219	392.38
978.442	531.38
978.666	452.38
978.89	449.38
979.113	454.38
979.337	452.38
979.56	417.38
979.783	512.38
980.007	411.38
980.23	438.38
980.453	424.38
980.677	466.38
980.9	468.38
981.123	372.38
981.346	470.38
981.569	467.38
981.792	494.38
982.015	450.38
982.238	433.38
982.461	450.38
982.684	425.38
982.907	427.38
983.129	428.38
983.352	476.38
983.575	472.38
983.797	482.38
984.02	433.38
984.242	449.38
984.465	465.38
984.687	490.38
984.91	512.38
985.132	490.38
985.354	515.38
985.577	482.38
985.799	474.38
986.021	403.38
986.243	454.38
986.465	460.38
986.687	514.38
986.909	554.38
987.131	507.38
987.353	475.38
987.575	493.38
987.797	484.38
988.019	423.38
988.241	480.38
988.462	445.38
988.684	520.38
988.906	520.38
989.127	551.38
989.349	451.38
989.57	483.38
989.792	526.38
990.013	543.38
990.234	540.38
990.456	571.38
990.677	555.38
990.898	498.38
991.119	502.38
991.341	556.38
991.562	482.38
991.783	524.38
992.004	482.38
992.225	481.38
992.446	539.38
992.667	451.38
992.887	546.38
993.108	439.38
993.329	573.38
993.55	526.38
993.77	472.38
993.991	488.38
994.212	531.38
994.432	526.38
994.653	566.38
994.873	532.38
995.093	449.38
995.314	487.38
995.534	566.38
995.754	585.38
995.975	607.38
996.195	478.38
996.415	543.38
996.635	519.38
996.855	553.38
997.075	523.38
997.295	527.38
997.515	503.38
997.735	565.38
997.955	535.38
998.174	523.38
998.394	493.38
998.614	563.38
998.834	515.38
999.053	587.38
999.273	569.38
999.492	624.38
999.712	566.38
999.931	544.38
1000.151	589.38
1000.37	572.38
1000.589	639.38
1000.809	565.38
1001.028	688.38
1001.247	621.38
1001.466	526.38
1001.685	682.38
1001.904	638.38
1002.123	615.38
1002.342	629.38
1002.561	606.38
1002.78	635.38
1002.999	721.38
1003.218	668.38
1003.436	624.38
1003.655	697.38
1003.874	618.38
1004.092	652.38
1004.311	685.38
1004.53	671.38
1004.748	733.38
1004.966	652.38
1005.185	717.38
1005.403	714.38
1005.622	682.38
1005.84	759.38
1006.058	657.38
1006.276	687.38
1006.494	1154.38
1006.712	673.38
1006.931	740.38
1007.149	635.38
1007.367	650.38
1007.584	679.38
1007.802	698.38
1008.02	639.38
1008.238	729.38
1008.456	723.38
1008.673	587.38
1008.891	681.38
1009.109	630.38
1009.326	659.38
1009.544	722.38
1009.761	604.38
1009.979	660.38
1010.196	624.38
1010.413	658.38
1010.631	680.38
1010.848	673.38
1011.065	664.38
1011.282	612.38
1011.5	556.38
1011.717	668.38
1011.934	626.38
1012.151	671.38
1012.368	662.38
1012.585	586.38
1012.801	652.38
1013.018	606.38
1013.235	594.38
1013.452	583.38
1013.669	585.38
1013.885	560.38
1014.102	602.38
1014.318	573.38
1014.535	536.38
1014.751	576.38
1014.968	576.38
1015.184	610.38
1015.401	546.38
1015.617	582.38
1015.833	525.38
1016.049	546.38
1016.266	549.38
1016.482	546.38
1016.698	504.38
1016.914	563.38
1017.13	499.38
1017.346	515.38
1017.562	583.38
1017.778	529.38
1017.993	498.38
1018.209	546.38
1018.425	531.38
1018.641	498.38
1018.856	476.38
1019.072	504.38
1019.288	552.38
1019.503	504.38
1019.719	440.38
1019.934	445.38
1020.149	539.38
1020.365	489.38
1020.58	459.38
1020.795	554.38
1021.011	493.38
1021.226	490.38
1021.441	547.38
1021.656	497.38
1021.871	440.38
1022.086	459.38
1022.301	471.38
1022.516	473.38
1022.731	533.38
1022.946	475.38
1023.16	472.38
1023.375	470.38
1023.59	441.38
1023.804	417.38
1024.019	529.38
1024.234	427.38
1024.448	474.38
1024.663	415.38
1024.877	425.38
1025.092	486.38
1025.306	513.38
1025.52	415.38
1025.734	509.38
1025.949	441.38
1026.163	434.38
1026.377	379.38
1026.591	458.38
1026.805	390.38
1027.019	379.38
1027.233	360.38
1027.447	319.38
1027.661	428.38
1027.875	378.38
1028.088	391.38
1028.302	348.38
1028.516	340.38
1028.73	355.38
1028.943	356.38
1029.157	320.38
1029.37	305.38
1029.584	-0.62
1029.797	-2.62
1030.011	-2.62
1030.224	-4.62
