Data from QEP037381__79__10-25-21-073.txt Node

Date: Fri Apr 21 10:25:21 EDT 2023
User: dcclab
Spectrometer: QEP03738
Trigger mode: 4
Integration Time (sec): 1.000000E1
Scans to average: 1
Electric dark correction enabled: true
Nonlinearity correction enabled: false
Boxcar width: 0
XAxis mode: Wavelengths
Number of Pixels in Spectrum: 1044
>>>>>Begin Spectral Data<<<<<
784.041	11.5
784.3	2.5
784.558	-4.5
784.817	-1.5
785.075	226.5
785.334	216.5
785.592	208.5
785.851	190.5
786.109	227.5
786.368	241.5
786.626	259.5
786.884	281.5
787.143	268.5
787.401	215.5
787.659	278.5
787.917	262.5
788.175	301.5
788.433	274.5
788.691	272.5
788.949	276.5
789.207	300.5
789.465	245.5
789.723	263.5
789.98	254.5
790.238	319.5
790.496	304.5
790.753	289.5
791.011	357.5
791.268	309.5
791.526	302.5
791.783	330.5
792.041	319.5
792.298	256.5
792.556	325.5
792.813	312.5
793.07	297.5
793.327	287.5
793.584	364.5
793.841	299.5
794.099	326.5
794.356	369.5
794.613	281.5
794.869	336.5
795.126	297.5
795.383	301.5
795.64	306.5
795.897	263.5
796.153	326.5
796.41	306.5
796.667	294.5
796.923	291.5
797.18	312.5
797.436	317.5
797.693	286.5
797.949	345.5
798.206	362.5
798.462	269.5
798.718	325.5
798.974	314.5
799.231	356.5
799.487	333.5
799.743	322.5
799.999	346.5
800.255	333.5
800.511	305.5
800.767	337.5
801.023	309.5
801.279	304.5
801.534	323.5
801.79	329.5
802.046	304.5
802.302	353.5
802.557	336.5
802.813	349.5
803.068	293.5
803.324	352.5
803.579	311.5
803.835	303.5
804.09	350.5
804.345	298.5
804.601	277.5
804.856	299.5
805.111	326.5
805.366	324.5
805.621	311.5
805.876	332.5
806.131	328.5
806.386	304.5
806.641	275.5
806.896	305.5
807.151	377.5
807.406	307.5
807.661	332.5
807.915	316.5
808.17	333.5
808.425	339.5
808.679	291.5
808.934	378.5
809.188	315.5
809.443	339.5
809.697	359.5
809.951	304.5
810.206	287.5
810.46	349.5
810.714	338.5
810.968	369.5
811.223	287.5
811.477	316.5
811.731	342.5
811.985	280.5
812.239	243.5
812.493	284.5
812.747	316.5
813	264.5
813.254	327.5
813.508	334.5
813.762	299.5
814.015	300.5
814.269	312.5
814.522	328.5
814.776	352.5
815.03	324.5
815.283	325.5
815.536	326.5
815.79	337.5
816.043	322.5
816.296	325.5
816.55	311.5
816.803	312.5
817.056	400.5
817.309	349.5
817.562	324.5
817.815	379.5
818.068	284.5
818.321	301.5
818.574	273.5
818.827	345.5
819.079	302.5
819.332	412.5
819.585	337.5
819.838	393.5
820.09	305.5
820.343	371.5
820.595	300.5
820.848	341.5
821.1	347.5
821.353	330.5
821.605	310.5
821.857	391.5
822.11	272.5
822.362	297.5
822.614	290.5
822.866	327.5
823.118	257.5
823.37	379.5
823.622	308.5
823.874	301.5
824.126	343.5
824.378	281.5
824.63	311.5
824.882	335.5
825.134	315.5
825.385	342.5
825.637	314.5
825.888	305.5
826.14	321.5
826.392	296.5
826.643	299.5
826.895	371.5
827.146	318.5
827.397	313.5
827.649	397.5
827.9	295.5
828.151	280.5
828.402	283.5
828.653	320.5
828.905	321.5
829.156	371.5
829.407	295.5
829.658	330.5
829.909	359.5
830.159	334.5
830.41	348.5
830.661	357.5
830.912	326.5
831.162	310.5
831.413	310.5
831.664	337.5
831.914	328.5
832.165	348.5
832.415	344.5
832.666	328.5
832.916	358.5
833.167	306.5
833.417	377.5
833.667	350.5
833.917	336.5
834.168	393.5
834.418	356.5
834.668	322.5
834.918	283.5
835.168	305.5
835.418	257.5
835.668	337.5
835.918	357.5
836.167	343.5
836.417	288.5
836.667	375.5
836.917	372.5
837.166	329.5
837.416	370.5
837.666	362.5
837.915	331.5
838.165	348.5
838.414	305.5
838.663	273.5
838.913	331.5
839.162	299.5
839.411	405.5
839.661	307.5
839.91	332.5
840.159	304.5
840.408	328.5
840.657	330.5
840.906	333.5
841.155	371.5
841.404	331.5
841.653	335.5
841.902	287.5
842.15	348.5
842.399	336.5
842.648	313.5
842.897	357.5
843.145	281.5
843.394	298.5
843.642	311.5
843.891	364.5
844.139	341.5
844.388	289.5
844.636	265.5
844.884	326.5
845.133	293.5
845.381	321.5
845.629	348.5
845.877	297.5
846.125	306.5
846.373	349.5
846.621	289.5
846.869	355.5
847.117	335.5
847.365	321.5
847.613	345.5
847.861	349.5
848.108	374.5
848.356	346.5
848.604	311.5
848.851	337.5
849.099	334.5
849.346	332.5
849.594	342.5
849.841	362.5
850.089	319.5
850.336	283.5
850.583	307.5
850.831	325.5
851.078	329.5
851.325	294.5
851.572	358.5
851.819	360.5
852.066	341.5
852.313	315.5
852.56	300.5
852.807	296.5
853.054	285.5
853.301	322.5
853.548	316.5
853.794	418.5
854.041	335.5
854.288	277.5
854.534	386.5
854.781	313.5
855.028	302.5
855.274	397.5
855.52	342.5
855.767	312.5
856.013	342.5
856.26	635.5
856.506	308.5
856.752	368.5
856.998	322.5
857.244	300.5
857.49	344.5
857.736	354.5
857.982	350.5
858.228	364.5
858.474	292.5
858.72	329.5
858.966	344.5
859.212	348.5
859.458	347.5
859.703	359.5
859.949	322.5
860.195	394.5
860.44	350.5
860.686	321.5
860.931	384.5
861.177	315.5
861.422	374.5
861.667	322.5
861.913	326.5
862.158	331.5
862.403	378.5
862.648	358.5
862.893	385.5
863.138	339.5
863.384	306.5
863.629	368.5
863.873	337.5
864.118	330.5
864.363	275.5
864.608	353.5
864.853	366.5
865.098	344.5
865.342	355.5
865.587	335.5
865.832	380.5
866.076	355.5
866.321	318.5
866.565	331.5
866.81	263.5
867.054	329.5
867.298	342.5
867.543	305.5
867.787	361.5
868.031	346.5
868.275	349.5
868.519	337.5
868.764	356.5
869.008	341.5
869.252	375.5
869.496	336.5
869.739	340.5
869.983	394.5
870.227	365.5
870.471	315.5
870.715	360.5
870.958	358.5
871.202	302.5
871.446	313.5
871.689	310.5
871.933	332.5
872.176	341.5
872.42	330.5
872.663	330.5
872.906	371.5
873.15	315.5
873.393	297.5
873.636	374.5
873.879	357.5
874.122	403.5
874.366	334.5
874.609	362.5
874.852	329.5
875.095	343.5
875.337	326.5
875.58	270.5
875.823	344.5
876.066	377.5
876.309	402.5
876.551	312.5
876.794	291.5
877.037	377.5
877.279	309.5
877.522	318.5
877.764	351.5
878.007	318.5
878.249	349.5
878.491	312.5
878.734	378.5
878.976	348.5
879.218	294.5
879.46	391.5
879.702	376.5
879.945	367.5
880.187	340.5
880.429	366.5
880.671	382.5
880.912	386.5
881.154	364.5
881.396	281.5
881.638	359.5
881.88	350.5
882.121	310.5
882.363	332.5
882.605	391.5
882.846	363.5
883.088	373.5
883.329	317.5
883.571	291.5
883.812	311.5
884.053	314.5
884.295	337.5
884.536	398.5
884.777	320.5
885.018	349.5
885.259	355.5
885.5	285.5
885.742	521.5
885.982	366.5
886.223	301.5
886.464	330.5
886.705	297.5
886.946	339.5
887.187	282.5
887.428	370.5
887.668	324.5
887.909	311.5
888.15	301.5
888.39	363.5
888.631	406.5
888.871	388.5
889.111	362.5
889.352	365.5
889.592	340.5
889.833	344.5
890.073	354.5
890.313	420.5
890.553	311.5
890.793	350.5
891.033	323.5
891.273	327.5
891.513	356.5
891.753	418.5
891.993	362.5
892.233	375.5
892.473	419.5
892.713	367.5
892.952	328.5
893.192	355.5
893.432	343.5
893.671	378.5
893.911	339.5
894.15	347.5
894.39	295.5
894.629	333.5
894.869	372.5
895.108	353.5
895.347	327.5
895.587	374.5
895.826	333.5
896.065	322.5
896.304	368.5
896.543	380.5
896.782	294.5
897.021	347.5
897.26	354.5
897.499	393.5
897.738	409.5
897.977	369.5
898.216	356.5
898.454	343.5
898.693	332.5
898.932	377.5
899.17	356.5
899.409	361.5
899.647	364.5
899.886	343.5
900.124	374.5
900.363	330.5
900.601	364.5
900.839	355.5
901.078	359.5
901.316	354.5
901.554	346.5
901.792	367.5
902.03	302.5
902.268	339.5
902.506	380.5
902.744	345.5
902.982	386.5
903.22	322.5
903.458	338.5
903.695	376.5
903.933	386.5
904.171	343.5
904.409	341.5
904.646	390.5
904.884	337.5
905.121	415.5
905.359	384.5
905.596	377.5
905.833	349.5
906.071	338.5
906.308	394.5
906.545	367.5
906.783	316.5
907.02	351.5
907.257	306.5
907.494	339.5
907.731	352.5
907.968	385.5
908.205	345.5
908.442	332.5
908.679	357.5
908.915	352.5
909.152	366.5
909.389	304.5
909.626	352.5
909.862	336.5
910.099	361.5
910.335	406.5
910.572	316.5
910.808	369.5
911.045	337.5
911.281	333.5
911.518	411.5
911.754	356.5
911.99	380.5
912.226	341.5
912.463	326.5
912.699	338.5
912.935	350.5
913.171	341.5
913.407	333.5
913.643	396.5
913.879	369.5
914.114	360.5
914.35	349.5
914.586	372.5
914.822	340.5
915.057	454.5
915.293	321.5
915.529	333.5
915.764	409.5
916	388.5
916.235	370.5
916.471	404.5
916.706	313.5
916.941	353.5
917.177	332.5
917.412	398.5
917.647	389.5
917.882	341.5
918.117	395.5
918.352	385.5
918.588	416.5
918.823	359.5
919.057	380.5
919.292	300.5
919.527	411.5
919.762	352.5
919.997	418.5
920.232	375.5
920.466	429.5
920.701	319.5
920.935	382.5
921.17	360.5
921.405	344.5
921.639	399.5
921.873	369.5
922.108	388.5
922.342	392.5
922.576	326.5
922.811	350.5
923.045	395.5
923.279	438.5
923.513	320.5
923.747	405.5
923.981	393.5
924.215	350.5
924.449	364.5
924.683	326.5
924.917	380.5
925.151	363.5
925.385	436.5
925.618	405.5
925.852	402.5
926.086	328.5
926.319	388.5
926.553	384.5
926.786	399.5
927.02	375.5
927.253	422.5
927.486	430.5
927.72	338.5
927.953	413.5
928.186	350.5
928.42	407.5
928.653	347.5
928.886	355.5
929.119	410.5
929.352	389.5
929.585	393.5
929.818	360.5
930.051	386.5
930.284	419.5
930.516	326.5
930.749	355.5
930.982	425.5
931.215	412.5
931.447	344.5
931.68	376.5
931.912	372.5
932.145	351.5
932.377	378.5
932.61	506.5
932.842	323.5
933.074	396.5
933.307	343.5
933.539	441.5
933.771	417.5
934.003	366.5
934.236	437.5
934.468	475.5
934.7	360.5
934.932	421.5
935.164	374.5
935.395	349.5
935.627	371.5
935.859	409.5
936.091	336.5
936.323	414.5
936.554	442.5
936.786	386.5
937.017	353.5
937.249	396.5
937.481	330.5
937.712	415.5
937.943	385.5
938.175	370.5
938.406	364.5
938.637	453.5
938.869	348.5
939.1	425.5
939.331	366.5
939.562	409.5
939.793	400.5
940.024	423.5
940.255	449.5
940.486	399.5
940.717	402.5
940.948	393.5
941.179	354.5
941.409	380.5
941.64	380.5
941.871	391.5
942.102	378.5
942.332	383.5
942.563	429.5
942.793	392.5
943.024	348.5
943.254	380.5
943.484	435.5
943.715	433.5
943.945	386.5
944.175	356.5
944.405	312.5
944.636	331.5
944.866	390.5
945.096	409.5
945.326	333.5
945.556	408.5
945.786	418.5
946.016	381.5
946.245	351.5
946.475	365.5
946.705	377.5
946.935	394.5
947.164	411.5
947.394	361.5
947.624	408.5
947.853	436.5
948.083	399.5
948.312	379.5
948.542	337.5
948.771	326.5
949	361.5
949.23	372.5
949.459	375.5
949.688	445.5
949.917	393.5
950.146	401.5
950.375	446.5
950.604	356.5
950.833	463.5
951.062	451.5
951.291	400.5
951.52	379.5
951.749	388.5
951.978	361.5
952.206	376.5
952.435	380.5
952.664	431.5
952.892	424.5
953.121	405.5
953.349	450.5
953.578	442.5
953.806	407.5
954.035	363.5
954.263	406.5
954.491	367.5
954.719	430.5
954.948	391.5
955.176	392.5
955.404	332.5
955.632	415.5
955.86	438.5
956.088	411.5
956.316	430.5
956.544	457.5
956.772	411.5
956.999	404.5
957.227	489.5
957.455	402.5
957.683	437.5
957.91	395.5
958.138	398.5
958.365	410.5
958.593	414.5
958.82	374.5
959.048	442.5
959.275	420.5
959.502	422.5
959.73	394.5
959.957	423.5
960.184	459.5
960.411	400.5
960.638	469.5
960.865	423.5
961.092	450.5
961.319	352.5
961.546	458.5
961.773	466.5
962	420.5
962.227	477.5
962.454	432.5
962.68	425.5
962.907	450.5
963.134	420.5
963.36	457.5
963.587	485.5
963.813	420.5
964.04	476.5
964.266	413.5
964.493	506.5
964.719	488.5
964.945	499.5
965.171	405.5
965.398	473.5
965.624	489.5
965.85	441.5
966.076	417.5
966.302	479.5
966.528	448.5
966.754	480.5
966.98	494.5
967.206	483.5
967.431	415.5
967.657	510.5
967.883	497.5
968.109	478.5
968.334	426.5
968.56	416.5
968.785	450.5
969.011	405.5
969.236	487.5
969.462	418.5
969.687	439.5
969.912	487.5
970.138	511.5
970.363	432.5
970.588	480.5
970.813	444.5
971.038	428.5
971.263	480.5
971.488	488.5
971.713	515.5
971.938	510.5
972.163	422.5
972.388	452.5
972.613	433.5
972.838	478.5
973.062	460.5
973.287	453.5
973.512	402.5
973.736	448.5
973.961	450.5
974.185	433.5
974.41	496.5
974.634	403.5
974.858	430.5
975.083	471.5
975.307	503.5
975.531	448.5
975.755	408.5
975.98	441.5
976.204	397.5
976.428	396.5
976.652	405.5
976.876	390.5
977.1	440.5
977.324	404.5
977.547	468.5
977.771	461.5
977.995	442.5
978.219	386.5
978.442	514.5
978.666	442.5
978.89	447.5
979.113	462.5
979.337	440.5
979.56	418.5
979.783	515.5
980.007	413.5
980.23	442.5
980.453	416.5
980.677	463.5
980.9	457.5
981.123	391.5
981.346	475.5
981.569	465.5
981.792	495.5
982.015	453.5
982.238	436.5
982.461	462.5
982.684	443.5
982.907	422.5
983.129	423.5
983.352	482.5
983.575	474.5
983.797	487.5
984.02	429.5
984.242	455.5
984.465	466.5
984.687	488.5
984.91	514.5
985.132	490.5
985.354	508.5
985.577	498.5
985.799	485.5
986.021	409.5
986.243	442.5
986.465	472.5
986.687	519.5
986.909	544.5
987.131	501.5
987.353	469.5
987.575	520.5
987.797	459.5
988.019	416.5
988.241	489.5
988.462	440.5
988.684	520.5
988.906	539.5
989.127	579.5
989.349	453.5
989.57	505.5
989.792	521.5
990.013	541.5
990.234	534.5
990.456	578.5
990.677	576.5
990.898	524.5
991.119	519.5
991.341	539.5
991.562	484.5
991.783	530.5
992.004	486.5
992.225	459.5
992.446	525.5
992.667	444.5
992.887	550.5
993.108	440.5
993.329	587.5
993.55	536.5
993.77	477.5
993.991	491.5
994.212	542.5
994.432	523.5
994.653	548.5
994.873	542.5
995.093	432.5
995.314	490.5
995.534	565.5
995.754	570.5
995.975	602.5
996.195	501.5
996.415	564.5
996.635	530.5
996.855	535.5
997.075	520.5
997.295	521.5
997.515	506.5
997.735	570.5
997.955	522.5
998.174	540.5
998.394	523.5
998.614	535.5
998.834	502.5
999.053	601.5
999.273	560.5
999.492	635.5
999.712	569.5
999.931	521.5
1000.151	593.5
1000.37	570.5
1000.589	628.5
1000.809	545.5
1001.028	685.5
1001.247	634.5
1001.466	520.5
1001.685	689.5
1001.904	635.5
1002.123	616.5
1002.342	626.5
1002.561	588.5
1002.78	624.5
1002.999	682.5
1003.218	633.5
1003.436	617.5
1003.655	683.5
1003.874	617.5
1004.092	654.5
1004.311	698.5
1004.53	652.5
1004.748	731.5
1004.966	652.5
1005.185	723.5
1005.403	700.5
1005.622	695.5
1005.84	762.5
1006.058	662.5
1006.276	684.5
1006.494	1171.5
1006.712	668.5
1006.931	741.5
1007.149	642.5
1007.367	655.5
1007.584	686.5
1007.802	721.5
1008.02	658.5
1008.238	754.5
1008.456	716.5
1008.673	574.5
1008.891	693.5
1009.109	627.5
1009.326	649.5
1009.544	701.5
1009.761	591.5
1009.979	668.5
1010.196	631.5
1010.413	679.5
1010.631	657.5
1010.848	659.5
1011.065	652.5
1011.282	617.5
1011.5	566.5
1011.717	675.5
1011.934	639.5
1012.151	670.5
1012.368	644.5
1012.585	593.5
1012.801	666.5
1013.018	617.5
1013.235	582.5
1013.452	589.5
1013.669	594.5
1013.885	564.5
1014.102	607.5
1014.318	563.5
1014.535	533.5
1014.751	564.5
1014.968	594.5
1015.184	616.5
1015.401	536.5
1015.617	582.5
1015.833	536.5
1016.049	549.5
1016.266	553.5
1016.482	564.5
1016.698	490.5
1016.914	551.5
1017.13	522.5
1017.346	522.5
1017.562	581.5
1017.778	527.5
1017.993	488.5
1018.209	543.5
1018.425	529.5
1018.641	522.5
1018.856	476.5
1019.072	503.5
1019.288	556.5
1019.503	505.5
1019.719	419.5
1019.934	472.5
1020.149	547.5
1020.365	498.5
1020.58	470.5
1020.795	529.5
1021.011	497.5
1021.226	495.5
1021.441	567.5
1021.656	503.5
1021.871	453.5
1022.086	465.5
1022.301	472.5
1022.516	469.5
1022.731	527.5
1022.946	465.5
1023.16	456.5
1023.375	449.5
1023.59	441.5
1023.804	431.5
1024.019	545.5
1024.234	438.5
1024.448	485.5
1024.663	417.5
1024.877	454.5
1025.092	482.5
1025.306	494.5
1025.52	404.5
1025.734	519.5
1025.949	444.5
1026.163	436.5
1026.377	379.5
1026.591	453.5
1026.805	379.5
1027.019	387.5
1027.233	362.5
1027.447	307.5
1027.661	430.5
1027.875	381.5
1028.088	389.5
1028.302	340.5
1028.516	340.5
1028.73	355.5
1028.943	351.5
1029.157	320.5
1029.37	305.5
1029.584	-2.5
1029.797	-1.5
1030.011	-1.5
1030.224	-2.5
