Data from QEP037381__20__10-15-31-059.txt Node

Date: Fri Apr 21 10:15:31 EDT 2023
User: dcclab
Spectrometer: QEP03738
Trigger mode: 4
Integration Time (sec): 1.000000E1
Scans to average: 1
Electric dark correction enabled: true
Nonlinearity correction enabled: false
Boxcar width: 0
XAxis mode: Wavelengths
Number of Pixels in Spectrum: 1044
>>>>>Begin Spectral Data<<<<<
784.041	12.38
784.3	0.38
784.558	-2.62
784.817	-7.62
785.075	237.38
785.334	218.38
785.592	204.38
785.851	193.38
786.109	235.38
786.368	238.38
786.626	264.38
786.884	278.38
787.143	260.38
787.401	211.38
787.659	279.38
787.917	255.38
788.175	302.38
788.433	268.38
788.691	269.38
788.949	284.38
789.207	314.38
789.465	248.38
789.723	273.38
789.98	245.38
790.238	309.38
790.496	299.38
790.753	286.38
791.011	366.38
791.268	311.38
791.526	301.38
791.783	336.38
792.041	322.38
792.298	251.38
792.556	328.38
792.813	304.38
793.07	293.38
793.327	291.38
793.584	365.38
793.841	311.38
794.099	315.38
794.356	381.38
794.613	293.38
794.869	329.38
795.126	298.38
795.383	284.38
795.64	311.38
795.897	270.38
796.153	320.38
796.41	307.38
796.667	294.38
796.923	296.38
797.18	300.38
797.436	333.38
797.693	297.38
797.949	331.38
798.206	361.38
798.462	269.38
798.718	332.38
798.974	307.38
799.231	347.38
799.487	325.38
799.743	323.38
799.999	330.38
800.255	327.38
800.511	306.38
800.767	326.38
801.023	309.38
801.279	323.38
801.534	328.38
801.79	342.38
802.046	302.38
802.302	360.38
802.557	337.38
802.813	354.38
803.068	288.38
803.324	334.38
803.579	302.38
803.835	295.38
804.09	354.38
804.345	311.38
804.601	279.38
804.856	303.38
805.111	321.38
805.366	305.38
805.621	318.38
805.876	329.38
806.131	337.38
806.386	307.38
806.641	276.38
806.896	312.38
807.151	378.38
807.406	312.38
807.661	334.38
807.915	323.38
808.17	341.38
808.425	341.38
808.679	288.38
808.934	373.38
809.188	316.38
809.443	341.38
809.697	374.38
809.951	302.38
810.206	313.38
810.46	364.38
810.714	338.38
810.968	348.38
811.223	279.38
811.477	319.38
811.731	343.38
811.985	269.38
812.239	248.38
812.493	294.38
812.747	306.38
813	266.38
813.254	325.38
813.508	350.38
813.762	305.38
814.015	308.38
814.269	316.38
814.522	342.38
814.776	339.38
815.03	337.38
815.283	331.38
815.536	334.38
815.79	332.38
816.043	343.38
816.296	335.38
816.55	319.38
816.803	319.38
817.056	413.38
817.309	343.38
817.562	337.38
817.815	378.38
818.068	292.38
818.321	295.38
818.574	281.38
818.827	346.38
819.079	303.38
819.332	409.38
819.585	353.38
819.838	391.38
820.09	307.38
820.343	355.38
820.595	279.38
820.848	335.38
821.1	361.38
821.353	318.38
821.605	327.38
821.857	391.38
822.11	282.38
822.362	305.38
822.614	288.38
822.866	327.38
823.118	262.38
823.37	371.38
823.622	320.38
823.874	314.38
824.126	350.38
824.378	286.38
824.63	325.38
824.882	341.38
825.134	320.38
825.385	362.38
825.637	325.38
825.888	310.38
826.14	327.38
826.392	289.38
826.643	282.38
826.895	385.38
827.146	321.38
827.397	318.38
827.649	387.38
827.9	291.38
828.151	277.38
828.402	286.38
828.653	326.38
828.905	314.38
829.156	374.38
829.407	292.38
829.658	323.38
829.909	364.38
830.159	345.38
830.41	340.38
830.661	375.38
830.912	330.38
831.162	323.38
831.413	314.38
831.664	355.38
831.914	324.38
832.165	329.38
832.415	340.38
832.666	334.38
832.916	354.38
833.167	304.38
833.417	381.38
833.667	342.38
833.917	335.38
834.168	384.38
834.418	360.38
834.668	316.38
834.918	280.38
835.168	324.38
835.418	269.38
835.668	325.38
835.918	360.38
836.167	353.38
836.417	293.38
836.667	359.38
836.917	385.38
837.166	328.38
837.416	363.38
837.666	376.38
837.915	338.38
838.165	348.38
838.414	310.38
838.663	277.38
838.913	337.38
839.162	297.38
839.411	396.38
839.661	329.38
839.91	326.38
840.159	319.38
840.408	337.38
840.657	317.38
840.906	331.38
841.155	359.38
841.404	339.38
841.653	350.38
841.902	295.38
842.15	336.38
842.399	338.38
842.648	308.38
842.897	358.38
843.145	279.38
843.394	302.38
843.642	308.38
843.891	362.38
844.139	337.38
844.388	290.38
844.636	269.38
844.884	316.38
845.133	305.38
845.381	316.38
845.629	354.38
845.877	304.38
846.125	306.38
846.373	332.38
846.621	305.38
846.869	355.38
847.117	339.38
847.365	325.38
847.613	343.38
847.861	355.38
848.108	384.38
848.356	359.38
848.604	297.38
848.851	322.38
849.099	339.38
849.346	328.38
849.594	349.38
849.841	359.38
850.089	325.38
850.336	292.38
850.583	307.38
850.831	315.38
851.078	342.38
851.325	293.38
851.572	361.38
851.819	366.38
852.066	339.38
852.313	316.38
852.56	294.38
852.807	286.38
853.054	308.38
853.301	322.38
853.548	318.38
853.794	410.38
854.041	333.38
854.288	288.38
854.534	412.38
854.781	322.38
855.028	295.38
855.274	404.38
855.52	341.38
855.767	321.38
856.013	346.38
856.26	638.38
856.506	322.38
856.752	362.38
856.998	325.38
857.244	308.38
857.49	344.38
857.736	353.38
857.982	345.38
858.228	366.38
858.474	300.38
858.72	338.38
858.966	349.38
859.212	354.38
859.458	343.38
859.703	352.38
859.949	326.38
860.195	372.38
860.44	363.38
860.686	310.38
860.931	390.38
861.177	326.38
861.422	385.38
861.667	330.38
861.913	336.38
862.158	328.38
862.403	364.38
862.648	358.38
862.893	399.38
863.138	349.38
863.384	314.38
863.629	365.38
863.873	353.38
864.118	331.38
864.363	260.38
864.608	359.38
864.853	370.38
865.098	325.38
865.342	359.38
865.587	336.38
865.832	371.38
866.076	365.38
866.321	332.38
866.565	320.38
866.81	284.38
867.054	331.38
867.298	339.38
867.543	310.38
867.787	377.38
868.031	338.38
868.275	341.38
868.519	328.38
868.764	336.38
869.008	321.38
869.252	387.38
869.496	342.38
869.739	345.38
869.983	395.38
870.227	370.38
870.471	316.38
870.715	354.38
870.958	352.38
871.202	305.38
871.446	338.38
871.689	310.38
871.933	348.38
872.176	329.38
872.42	332.38
872.663	319.38
872.906	378.38
873.15	328.38
873.393	291.38
873.636	386.38
873.879	370.38
874.122	402.38
874.366	337.38
874.609	373.38
874.852	334.38
875.095	344.38
875.337	330.38
875.58	268.38
875.823	352.38
876.066	378.38
876.309	408.38
876.551	308.38
876.794	320.38
877.037	386.38
877.279	294.38
877.522	307.38
877.764	366.38
878.007	313.38
878.249	351.38
878.491	301.38
878.734	373.38
878.976	361.38
879.218	306.38
879.46	391.38
879.702	385.38
879.945	369.38
880.187	345.38
880.429	365.38
880.671	366.38
880.912	381.38
881.154	373.38
881.396	284.38
881.638	365.38
881.88	350.38
882.121	315.38
882.363	333.38
882.605	398.38
882.846	363.38
883.088	381.38
883.329	333.38
883.571	295.38
883.812	336.38
884.053	316.38
884.295	338.38
884.536	406.38
884.777	328.38
885.018	364.38
885.259	351.38
885.5	299.38
885.742	512.38
885.982	367.38
886.223	307.38
886.464	316.38
886.705	308.38
886.946	344.38
887.187	290.38
887.428	393.38
887.668	341.38
887.909	308.38
888.15	305.38
888.39	355.38
888.631	406.38
888.871	370.38
889.111	356.38
889.352	360.38
889.592	322.38
889.833	342.38
890.073	340.38
890.313	416.38
890.553	307.38
890.793	345.38
891.033	318.38
891.273	325.38
891.513	342.38
891.753	424.38
891.993	363.38
892.233	367.38
892.473	436.38
892.713	363.38
892.952	325.38
893.192	373.38
893.432	338.38
893.671	363.38
893.911	346.38
894.15	351.38
894.39	296.38
894.629	342.38
894.869	376.38
895.108	355.38
895.347	318.38
895.587	366.38
895.826	336.38
896.065	323.38
896.304	363.38
896.543	392.38
896.782	297.38
897.021	349.38
897.26	351.38
897.499	409.38
897.738	420.38
897.977	357.38
898.216	343.38
898.454	342.38
898.693	338.38
898.932	385.38
899.17	350.38
899.409	360.38
899.647	361.38
899.886	344.38
900.124	359.38
900.363	314.38
900.601	354.38
900.839	356.38
901.078	363.38
901.316	367.38
901.554	358.38
901.792	367.38
902.03	301.38
902.268	334.38
902.506	377.38
902.744	338.38
902.982	388.38
903.22	323.38
903.458	331.38
903.695	381.38
903.933	380.38
904.171	332.38
904.409	349.38
904.646	390.38
904.884	345.38
905.121	409.38
905.359	378.38
905.596	386.38
905.833	336.38
906.071	331.38
906.308	398.38
906.545	363.38
906.783	313.38
907.02	352.38
907.257	315.38
907.494	337.38
907.731	369.38
907.968	383.38
908.205	342.38
908.442	332.38
908.679	364.38
908.915	360.38
909.152	373.38
909.389	294.38
909.626	357.38
909.862	324.38
910.099	369.38
910.335	405.38
910.572	315.38
910.808	383.38
911.045	346.38
911.281	334.38
911.518	412.38
911.754	342.38
911.99	372.38
912.226	351.38
912.463	334.38
912.699	355.38
912.935	335.38
913.171	346.38
913.407	343.38
913.643	391.38
913.879	380.38
914.114	367.38
914.35	324.38
914.586	375.38
914.822	347.38
915.057	447.38
915.293	313.38
915.529	336.38
915.764	411.38
916	377.38
916.235	376.38
916.471	400.38
916.706	299.38
916.941	351.38
917.177	341.38
917.412	389.38
917.647	393.38
917.882	345.38
918.117	393.38
918.352	372.38
918.588	429.38
918.823	365.38
919.057	373.38
919.292	291.38
919.527	412.38
919.762	356.38
919.997	422.38
920.232	383.38
920.466	424.38
920.701	324.38
920.935	387.38
921.17	365.38
921.405	339.38
921.639	406.38
921.873	373.38
922.108	384.38
922.342	396.38
922.576	351.38
922.811	352.38
923.045	403.38
923.279	411.38
923.513	316.38
923.747	414.38
923.981	395.38
924.215	364.38
924.449	370.38
924.683	342.38
924.917	358.38
925.151	365.38
925.385	437.38
925.618	399.38
925.852	394.38
926.086	328.38
926.319	394.38
926.553	367.38
926.786	399.38
927.02	388.38
927.253	417.38
927.486	429.38
927.72	352.38
927.953	408.38
928.186	367.38
928.42	412.38
928.653	357.38
928.886	357.38
929.119	400.38
929.352	383.38
929.585	395.38
929.818	365.38
930.051	401.38
930.284	403.38
930.516	337.38
930.749	344.38
930.982	420.38
931.215	405.38
931.447	341.38
931.68	377.38
931.912	375.38
932.145	370.38
932.377	390.38
932.61	508.38
932.842	315.38
933.074	398.38
933.307	347.38
933.539	431.38
933.771	428.38
934.003	369.38
934.236	442.38
934.468	464.38
934.7	373.38
934.932	421.38
935.164	350.38
935.395	354.38
935.627	388.38
935.859	397.38
936.091	340.38
936.323	394.38
936.554	442.38
936.786	395.38
937.017	344.38
937.249	397.38
937.481	341.38
937.712	410.38
937.943	388.38
938.175	367.38
938.406	375.38
938.637	438.38
938.869	343.38
939.1	413.38
939.331	386.38
939.562	424.38
939.793	400.38
940.024	426.38
940.255	442.38
940.486	394.38
940.717	393.38
940.948	398.38
941.179	361.38
941.409	402.38
941.64	376.38
941.871	408.38
942.102	369.38
942.332	382.38
942.563	426.38
942.793	389.38
943.024	340.38
943.254	376.38
943.484	418.38
943.715	434.38
943.945	409.38
944.175	349.38
944.405	323.38
944.636	352.38
944.866	393.38
945.096	398.38
945.326	338.38
945.556	396.38
945.786	420.38
946.016	380.38
946.245	346.38
946.475	372.38
946.705	378.38
946.935	400.38
947.164	408.38
947.394	371.38
947.624	398.38
947.853	443.38
948.083	409.38
948.312	380.38
948.542	345.38
948.771	332.38
949	344.38
949.23	377.38
949.459	367.38
949.688	434.38
949.917	387.38
950.146	407.38
950.375	457.38
950.604	370.38
950.833	457.38
951.062	447.38
951.291	399.38
951.52	367.38
951.749	411.38
951.978	363.38
952.206	372.38
952.435	366.38
952.664	420.38
952.892	442.38
953.121	411.38
953.349	438.38
953.578	436.38
953.806	410.38
954.035	368.38
954.263	419.38
954.491	386.38
954.719	431.38
954.948	383.38
955.176	379.38
955.404	337.38
955.632	410.38
955.86	422.38
956.088	424.38
956.316	446.38
956.544	465.38
956.772	394.38
956.999	393.38
957.227	490.38
957.455	407.38
957.683	427.38
957.91	392.38
958.138	397.38
958.365	420.38
958.593	400.38
958.82	357.38
959.048	454.38
959.275	425.38
959.502	409.38
959.73	394.38
959.957	439.38
960.184	463.38
960.411	388.38
960.638	479.38
960.865	416.38
961.092	453.38
961.319	360.38
961.546	463.38
961.773	464.38
962	411.38
962.227	486.38
962.454	440.38
962.68	413.38
962.907	464.38
963.134	407.38
963.36	444.38
963.587	464.38
963.813	423.38
964.04	468.38
964.266	424.38
964.493	506.38
964.719	492.38
964.945	502.38
965.171	418.38
965.398	469.38
965.624	489.38
965.85	433.38
966.076	425.38
966.302	485.38
966.528	459.38
966.754	497.38
966.98	483.38
967.206	487.38
967.431	417.38
967.657	510.38
967.883	496.38
968.109	464.38
968.334	443.38
968.56	413.38
968.785	450.38
969.011	415.38
969.236	469.38
969.462	440.38
969.687	451.38
969.912	489.38
970.138	524.38
970.363	448.38
970.588	475.38
970.813	467.38
971.038	439.38
971.263	481.38
971.488	483.38
971.713	528.38
971.938	506.38
972.163	418.38
972.388	472.38
972.613	439.38
972.838	463.38
973.062	454.38
973.287	458.38
973.512	396.38
973.736	460.38
973.961	465.38
974.185	439.38
974.41	481.38
974.634	395.38
974.858	410.38
975.083	473.38
975.307	497.38
975.531	427.38
975.755	384.38
975.98	438.38
976.204	382.38
976.428	398.38
976.652	395.38
976.876	396.38
977.1	430.38
977.324	410.38
977.547	465.38
977.771	460.38
977.995	438.38
978.219	376.38
978.442	507.38
978.666	439.38
978.89	442.38
979.113	446.38
979.337	448.38
979.56	423.38
979.783	516.38
980.007	412.38
980.23	438.38
980.453	419.38
980.677	455.38
980.9	464.38
981.123	372.38
981.346	469.38
981.569	457.38
981.792	491.38
982.015	456.38
982.238	421.38
982.461	464.38
982.684	442.38
982.907	428.38
983.129	412.38
983.352	494.38
983.575	470.38
983.797	483.38
984.02	444.38
984.242	443.38
984.465	458.38
984.687	492.38
984.91	519.38
985.132	486.38
985.354	510.38
985.577	485.38
985.799	497.38
986.021	418.38
986.243	452.38
986.465	454.38
986.687	531.38
986.909	566.38
987.131	484.38
987.353	460.38
987.575	489.38
987.797	476.38
988.019	423.38
988.241	494.38
988.462	456.38
988.684	508.38
988.906	540.38
989.127	566.38
989.349	440.38
989.57	483.38
989.792	533.38
990.013	542.38
990.234	549.38
990.456	567.38
990.677	555.38
990.898	515.38
991.119	507.38
991.341	557.38
991.562	487.38
991.783	537.38
992.004	479.38
992.225	456.38
992.446	525.38
992.667	447.38
992.887	557.38
993.108	454.38
993.329	567.38
993.55	538.38
993.77	481.38
993.991	503.38
994.212	525.38
994.432	515.38
994.653	545.38
994.873	538.38
995.093	442.38
995.314	502.38
995.534	568.38
995.754	594.38
995.975	612.38
996.195	487.38
996.415	566.38
996.635	540.38
996.855	546.38
997.075	496.38
997.295	512.38
997.515	515.38
997.735	570.38
997.955	537.38
998.174	546.38
998.394	515.38
998.614	581.38
998.834	509.38
999.053	581.38
999.273	553.38
999.492	616.38
999.712	569.38
999.931	540.38
1000.151	587.38
1000.37	578.38
1000.589	654.38
1000.809	568.38
1001.028	690.38
1001.247	637.38
1001.466	522.38
1001.685	691.38
1001.904	639.38
1002.123	623.38
1002.342	636.38
1002.561	601.38
1002.78	612.38
1002.999	694.38
1003.218	653.38
1003.436	625.38
1003.655	674.38
1003.874	619.38
1004.092	651.38
1004.311	695.38
1004.53	655.38
1004.748	718.38
1004.966	656.38
1005.185	720.38
1005.403	717.38
1005.622	692.38
1005.84	751.38
1006.058	648.38
1006.276	685.38
1006.494	1174.38
1006.712	670.38
1006.931	732.38
1007.149	654.38
1007.367	650.38
1007.584	680.38
1007.802	724.38
1008.02	660.38
1008.238	740.38
1008.456	708.38
1008.673	572.38
1008.891	686.38
1009.109	630.38
1009.326	653.38
1009.544	737.38
1009.761	606.38
1009.979	665.38
1010.196	638.38
1010.413	680.38
1010.631	686.38
1010.848	675.38
1011.065	671.38
1011.282	622.38
1011.5	561.38
1011.717	685.38
1011.934	628.38
1012.151	656.38
1012.368	652.38
1012.585	586.38
1012.801	649.38
1013.018	628.38
1013.235	578.38
1013.452	601.38
1013.669	604.38
1013.885	569.38
1014.102	606.38
1014.318	564.38
1014.535	543.38
1014.751	561.38
1014.968	584.38
1015.184	604.38
1015.401	535.38
1015.617	585.38
1015.833	529.38
1016.049	539.38
1016.266	549.38
1016.482	562.38
1016.698	503.38
1016.914	554.38
1017.13	520.38
1017.346	518.38
1017.562	593.38
1017.778	519.38
1017.993	491.38
1018.209	550.38
1018.425	536.38
1018.641	496.38
1018.856	467.38
1019.072	513.38
1019.288	563.38
1019.503	511.38
1019.719	442.38
1019.934	455.38
1020.149	542.38
1020.365	509.38
1020.58	461.38
1020.795	542.38
1021.011	494.38
1021.226	486.38
1021.441	559.38
1021.656	483.38
1021.871	448.38
1022.086	470.38
1022.301	480.38
1022.516	473.38
1022.731	515.38
1022.946	473.38
1023.16	461.38
1023.375	451.38
1023.59	448.38
1023.804	419.38
1024.019	535.38
1024.234	430.38
1024.448	472.38
1024.663	425.38
1024.877	448.38
1025.092	485.38
1025.306	487.38
1025.52	414.38
1025.734	522.38
1025.949	441.38
1026.163	437.38
1026.377	396.38
1026.591	457.38
1026.805	379.38
1027.019	386.38
1027.233	362.38
1027.447	313.38
1027.661	421.38
1027.875	385.38
1028.088	400.38
1028.302	334.38
1028.516	329.38
1028.73	346.38
1028.943	362.38
1029.157	323.38
1029.37	318.38
1029.584	-0.62
1029.797	-0.62
1030.011	0.38
1030.224	-1.62
