Data from QEP037381__77__10-25-01-073.txt Node

Date: Fri Apr 21 10:25:01 EDT 2023
User: dcclab
Spectrometer: QEP03738
Trigger mode: 4
Integration Time (sec): 1.000000E1
Scans to average: 1
Electric dark correction enabled: true
Nonlinearity correction enabled: false
Boxcar width: 0
XAxis mode: Wavelengths
Number of Pixels in Spectrum: 1044
>>>>>Begin Spectral Data<<<<<
784.041	10.75
784.3	1.75
784.558	-1.25
784.817	-3.25
785.075	231.75
785.334	210.75
785.592	208.75
785.851	199.75
786.109	239.75
786.368	231.75
786.626	251.75
786.884	262.75
787.143	263.75
787.401	213.75
787.659	281.75
787.917	263.75
788.175	302.75
788.433	285.75
788.691	276.75
788.949	275.75
789.207	303.75
789.465	257.75
789.723	272.75
789.98	261.75
790.238	322.75
790.496	302.75
790.753	292.75
791.011	352.75
791.268	306.75
791.526	294.75
791.783	320.75
792.041	321.75
792.298	249.75
792.556	327.75
792.813	313.75
793.07	293.75
793.327	281.75
793.584	385.75
793.841	301.75
794.099	318.75
794.356	379.75
794.613	274.75
794.869	333.75
795.126	305.75
795.383	284.75
795.64	310.75
795.897	271.75
796.153	327.75
796.41	300.75
796.667	292.75
796.923	308.75
797.18	313.75
797.436	325.75
797.693	286.75
797.949	337.75
798.206	365.75
798.462	267.75
798.718	316.75
798.974	301.75
799.231	332.75
799.487	324.75
799.743	312.75
799.999	344.75
800.255	339.75
800.511	306.75
800.767	341.75
801.023	308.75
801.279	316.75
801.534	318.75
801.79	318.75
802.046	312.75
802.302	352.75
802.557	325.75
802.813	333.75
803.068	291.75
803.324	347.75
803.579	299.75
803.835	303.75
804.09	360.75
804.345	296.75
804.601	267.75
804.856	309.75
805.111	329.75
805.366	319.75
805.621	314.75
805.876	339.75
806.131	330.75
806.386	302.75
806.641	281.75
806.896	305.75
807.151	374.75
807.406	309.75
807.661	327.75
807.915	324.75
808.17	330.75
808.425	326.75
808.679	274.75
808.934	373.75
809.188	302.75
809.443	339.75
809.697	371.75
809.951	302.75
810.206	302.75
810.46	353.75
810.714	331.75
810.968	353.75
811.223	277.75
811.477	327.75
811.731	339.75
811.985	258.75
812.239	235.75
812.493	282.75
812.747	307.75
813	265.75
813.254	336.75
813.508	331.75
813.762	291.75
814.015	293.75
814.269	316.75
814.522	342.75
814.776	337.75
815.03	341.75
815.283	338.75
815.536	333.75
815.79	332.75
816.043	332.75
816.296	316.75
816.55	317.75
816.803	318.75
817.056	397.75
817.309	330.75
817.562	337.75
817.815	373.75
818.068	286.75
818.321	290.75
818.574	281.75
818.827	337.75
819.079	300.75
819.332	414.75
819.585	329.75
819.838	396.75
820.09	293.75
820.343	371.75
820.595	271.75
820.848	330.75
821.1	353.75
821.353	321.75
821.605	323.75
821.857	385.75
822.11	269.75
822.362	306.75
822.614	282.75
822.866	322.75
823.118	263.75
823.37	391.75
823.622	321.75
823.874	308.75
824.126	351.75
824.378	279.75
824.63	298.75
824.882	324.75
825.134	301.75
825.385	345.75
825.637	331.75
825.888	311.75
826.14	321.75
826.392	294.75
826.643	292.75
826.895	367.75
827.146	317.75
827.397	304.75
827.649	378.75
827.9	297.75
828.151	281.75
828.402	284.75
828.653	321.75
828.905	330.75
829.156	370.75
829.407	284.75
829.658	313.75
829.909	371.75
830.159	343.75
830.41	336.75
830.661	365.75
830.912	335.75
831.162	326.75
831.413	310.75
831.664	349.75
831.914	334.75
832.165	333.75
832.415	343.75
832.666	337.75
832.916	350.75
833.167	308.75
833.417	384.75
833.667	358.75
833.917	325.75
834.168	393.75
834.418	355.75
834.668	324.75
834.918	287.75
835.168	308.75
835.418	271.75
835.668	318.75
835.918	361.75
836.167	339.75
836.417	295.75
836.667	356.75
836.917	373.75
837.166	327.75
837.416	358.75
837.666	365.75
837.915	312.75
838.165	349.75
838.414	296.75
838.663	274.75
838.913	333.75
839.162	296.75
839.411	377.75
839.661	314.75
839.91	327.75
840.159	316.75
840.408	342.75
840.657	304.75
840.906	327.75
841.155	358.75
841.404	332.75
841.653	338.75
841.902	302.75
842.15	334.75
842.399	340.75
842.648	318.75
842.897	344.75
843.145	280.75
843.394	304.75
843.642	312.75
843.891	367.75
844.139	326.75
844.388	287.75
844.636	266.75
844.884	317.75
845.133	297.75
845.381	316.75
845.629	363.75
845.877	298.75
846.125	305.75
846.373	341.75
846.621	304.75
846.869	359.75
847.117	330.75
847.365	317.75
847.613	349.75
847.861	352.75
848.108	392.75
848.356	344.75
848.604	300.75
848.851	344.75
849.099	328.75
849.346	326.75
849.594	354.75
849.841	353.75
850.089	312.75
850.336	302.75
850.583	314.75
850.831	312.75
851.078	334.75
851.325	288.75
851.572	359.75
851.819	359.75
852.066	330.75
852.313	325.75
852.56	299.75
852.807	283.75
853.054	294.75
853.301	318.75
853.548	306.75
853.794	406.75
854.041	332.75
854.288	280.75
854.534	391.75
854.781	315.75
855.028	301.75
855.274	382.75
855.52	326.75
855.767	303.75
856.013	359.75
856.26	639.75
856.506	309.75
856.752	356.75
856.998	331.75
857.244	305.75
857.49	344.75
857.736	334.75
857.982	333.75
858.228	362.75
858.474	287.75
858.72	330.75
858.966	349.75
859.212	340.75
859.458	341.75
859.703	344.75
859.949	323.75
860.195	381.75
860.44	351.75
860.686	310.75
860.931	386.75
861.177	324.75
861.422	367.75
861.667	330.75
861.913	327.75
862.158	334.75
862.403	374.75
862.648	367.75
862.893	390.75
863.138	331.75
863.384	302.75
863.629	361.75
863.873	354.75
864.118	322.75
864.363	277.75
864.608	346.75
864.853	374.75
865.098	325.75
865.342	359.75
865.587	334.75
865.832	372.75
866.076	353.75
866.321	315.75
866.565	345.75
866.81	274.75
867.054	337.75
867.298	342.75
867.543	308.75
867.787	370.75
868.031	337.75
868.275	349.75
868.519	335.75
868.764	338.75
869.008	324.75
869.252	380.75
869.496	346.75
869.739	345.75
869.983	388.75
870.227	368.75
870.471	312.75
870.715	351.75
870.958	344.75
871.202	314.75
871.446	328.75
871.689	309.75
871.933	331.75
872.176	343.75
872.42	329.75
872.663	311.75
872.906	369.75
873.15	342.75
873.393	280.75
873.636	379.75
873.879	381.75
874.122	379.75
874.366	332.75
874.609	373.75
874.852	357.75
875.095	354.75
875.337	323.75
875.58	279.75
875.823	340.75
876.066	376.75
876.309	406.75
876.551	310.75
876.794	292.75
877.037	362.75
877.279	293.75
877.522	326.75
877.764	363.75
878.007	325.75
878.249	343.75
878.491	316.75
878.734	373.75
878.976	363.75
879.218	295.75
879.46	388.75
879.702	379.75
879.945	360.75
880.187	342.75
880.429	373.75
880.671	368.75
880.912	378.75
881.154	366.75
881.396	283.75
881.638	360.75
881.88	353.75
882.121	314.75
882.363	322.75
882.605	389.75
882.846	369.75
883.088	374.75
883.329	321.75
883.571	299.75
883.812	318.75
884.053	336.75
884.295	322.75
884.536	395.75
884.777	328.75
885.018	346.75
885.259	353.75
885.5	292.75
885.742	513.75
885.982	370.75
886.223	306.75
886.464	342.75
886.705	297.75
886.946	334.75
887.187	283.75
887.428	386.75
887.668	318.75
887.909	299.75
888.15	303.75
888.39	369.75
888.631	395.75
888.871	376.75
889.111	377.75
889.352	352.75
889.592	338.75
889.833	348.75
890.073	350.75
890.313	413.75
890.553	312.75
890.793	341.75
891.033	322.75
891.273	337.75
891.513	361.75
891.753	422.75
891.993	349.75
892.233	381.75
892.473	418.75
892.713	375.75
892.952	320.75
893.192	344.75
893.432	334.75
893.671	376.75
893.911	350.75
894.15	363.75
894.39	303.75
894.629	343.75
894.869	367.75
895.108	349.75
895.347	340.75
895.587	360.75
895.826	321.75
896.065	308.75
896.304	363.75
896.543	384.75
896.782	303.75
897.021	365.75
897.26	352.75
897.499	399.75
897.738	410.75
897.977	362.75
898.216	348.75
898.454	355.75
898.693	332.75
898.932	370.75
899.17	337.75
899.409	352.75
899.647	350.75
899.886	332.75
900.124	356.75
900.363	320.75
900.601	350.75
900.839	352.75
901.078	357.75
901.316	343.75
901.554	347.75
901.792	357.75
902.03	312.75
902.268	345.75
902.506	384.75
902.744	331.75
902.982	384.75
903.22	319.75
903.458	338.75
903.695	369.75
903.933	377.75
904.171	327.75
904.409	341.75
904.646	393.75
904.884	343.75
905.121	416.75
905.359	379.75
905.596	386.75
905.833	334.75
906.071	351.75
906.308	386.75
906.545	374.75
906.783	318.75
907.02	353.75
907.257	301.75
907.494	336.75
907.731	369.75
907.968	380.75
908.205	333.75
908.442	327.75
908.679	371.75
908.915	357.75
909.152	378.75
909.389	292.75
909.626	341.75
909.862	329.75
910.099	360.75
910.335	399.75
910.572	305.75
910.808	359.75
911.045	343.75
911.281	338.75
911.518	400.75
911.754	353.75
911.99	366.75
912.226	348.75
912.463	330.75
912.699	358.75
912.935	346.75
913.171	344.75
913.407	323.75
913.643	404.75
913.879	373.75
914.114	357.75
914.35	339.75
914.586	358.75
914.822	342.75
915.057	448.75
915.293	315.75
915.529	325.75
915.764	394.75
916	387.75
916.235	387.75
916.471	393.75
916.706	305.75
916.941	353.75
917.177	350.75
917.412	391.75
917.647	393.75
917.882	338.75
918.117	398.75
918.352	376.75
918.588	422.75
918.823	352.75
919.057	377.75
919.292	286.75
919.527	423.75
919.762	350.75
919.997	430.75
920.232	364.75
920.466	426.75
920.701	313.75
920.935	385.75
921.17	348.75
921.405	338.75
921.639	401.75
921.873	371.75
922.108	381.75
922.342	406.75
922.576	343.75
922.811	352.75
923.045	406.75
923.279	419.75
923.513	303.75
923.747	409.75
923.981	389.75
924.215	346.75
924.449	362.75
924.683	328.75
924.917	356.75
925.151	364.75
925.385	428.75
925.618	387.75
925.852	403.75
926.086	331.75
926.319	377.75
926.553	376.75
926.786	400.75
927.02	377.75
927.253	404.75
927.486	420.75
927.72	350.75
927.953	405.75
928.186	360.75
928.42	399.75
928.653	354.75
928.886	343.75
929.119	394.75
929.352	375.75
929.585	394.75
929.818	364.75
930.051	398.75
930.284	405.75
930.516	325.75
930.749	356.75
930.982	424.75
931.215	400.75
931.447	348.75
931.68	378.75
931.912	350.75
932.145	369.75
932.377	370.75
932.61	505.75
932.842	323.75
933.074	391.75
933.307	347.75
933.539	437.75
933.771	429.75
934.003	370.75
934.236	436.75
934.468	465.75
934.7	375.75
934.932	411.75
935.164	359.75
935.395	366.75
935.627	373.75
935.859	390.75
936.091	352.75
936.323	408.75
936.554	457.75
936.786	389.75
937.017	344.75
937.249	386.75
937.481	332.75
937.712	425.75
937.943	394.75
938.175	374.75
938.406	374.75
938.637	447.75
938.869	344.75
939.1	407.75
939.331	358.75
939.562	404.75
939.793	386.75
940.024	426.75
940.255	447.75
940.486	394.75
940.717	396.75
940.948	390.75
941.179	352.75
941.409	382.75
941.64	387.75
941.871	391.75
942.102	375.75
942.332	385.75
942.563	418.75
942.793	408.75
943.024	344.75
943.254	391.75
943.484	420.75
943.715	431.75
943.945	393.75
944.175	344.75
944.405	324.75
944.636	336.75
944.866	384.75
945.096	405.75
945.326	334.75
945.556	398.75
945.786	422.75
946.016	384.75
946.245	341.75
946.475	372.75
946.705	371.75
946.935	383.75
947.164	404.75
947.394	359.75
947.624	399.75
947.853	431.75
948.083	413.75
948.312	378.75
948.542	335.75
948.771	324.75
949	364.75
949.23	370.75
949.459	394.75
949.688	451.75
949.917	392.75
950.146	397.75
950.375	448.75
950.604	359.75
950.833	460.75
951.062	430.75
951.291	392.75
951.52	373.75
951.749	390.75
951.978	374.75
952.206	373.75
952.435	364.75
952.664	425.75
952.892	442.75
953.121	412.75
953.349	432.75
953.578	433.75
953.806	415.75
954.035	374.75
954.263	411.75
954.491	366.75
954.719	438.75
954.948	395.75
955.176	391.75
955.404	331.75
955.632	414.75
955.86	403.75
956.088	416.75
956.316	450.75
956.544	457.75
956.772	432.75
956.999	395.75
957.227	485.75
957.455	402.75
957.683	430.75
957.91	398.75
958.138	395.75
958.365	406.75
958.593	416.75
958.82	364.75
959.048	443.75
959.275	417.75
959.502	405.75
959.73	390.75
959.957	415.75
960.184	467.75
960.411	401.75
960.638	494.75
960.865	418.75
961.092	458.75
961.319	367.75
961.546	463.75
961.773	465.75
962	402.75
962.227	474.75
962.454	417.75
962.68	421.75
962.907	458.75
963.134	403.75
963.36	447.75
963.587	485.75
963.813	414.75
964.04	461.75
964.266	400.75
964.493	514.75
964.719	483.75
964.945	486.75
965.171	391.75
965.398	466.75
965.624	484.75
965.85	429.75
966.076	428.75
966.302	471.75
966.528	454.75
966.754	488.75
966.98	468.75
967.206	473.75
967.431	418.75
967.657	496.75
967.883	494.75
968.109	477.75
968.334	435.75
968.56	436.75
968.785	457.75
969.011	416.75
969.236	481.75
969.462	427.75
969.687	462.75
969.912	490.75
970.138	506.75
970.363	425.75
970.588	478.75
970.813	441.75
971.038	430.75
971.263	470.75
971.488	494.75
971.713	526.75
971.938	514.75
972.163	405.75
972.388	446.75
972.613	441.75
972.838	470.75
973.062	464.75
973.287	468.75
973.512	406.75
973.736	471.75
973.961	456.75
974.185	433.75
974.41	491.75
974.634	398.75
974.858	420.75
975.083	480.75
975.307	501.75
975.531	448.75
975.755	392.75
975.98	442.75
976.204	374.75
976.428	394.75
976.652	399.75
976.876	392.75
977.1	436.75
977.324	405.75
977.547	467.75
977.771	471.75
977.995	453.75
978.219	392.75
978.442	510.75
978.666	458.75
978.89	463.75
979.113	462.75
979.337	445.75
979.56	415.75
979.783	505.75
980.007	394.75
980.23	444.75
980.453	424.75
980.677	462.75
980.9	459.75
981.123	377.75
981.346	467.75
981.569	462.75
981.792	493.75
982.015	453.75
982.238	414.75
982.461	469.75
982.684	428.75
982.907	423.75
983.129	417.75
983.352	488.75
983.575	461.75
983.797	482.75
984.02	429.75
984.242	443.75
984.465	466.75
984.687	498.75
984.91	513.75
985.132	492.75
985.354	523.75
985.577	508.75
985.799	476.75
986.021	411.75
986.243	436.75
986.465	469.75
986.687	508.75
986.909	547.75
987.131	496.75
987.353	470.75
987.575	511.75
987.797	452.75
988.019	418.75
988.241	489.75
988.462	443.75
988.684	508.75
988.906	521.75
989.127	550.75
989.349	456.75
989.57	498.75
989.792	523.75
990.013	544.75
990.234	557.75
990.456	572.75
990.677	547.75
990.898	507.75
991.119	506.75
991.341	542.75
991.562	490.75
991.783	535.75
992.004	461.75
992.225	460.75
992.446	529.75
992.667	450.75
992.887	539.75
993.108	451.75
993.329	578.75
993.55	529.75
993.77	479.75
993.991	515.75
994.212	536.75
994.432	532.75
994.653	548.75
994.873	555.75
995.093	443.75
995.314	495.75
995.534	580.75
995.754	577.75
995.975	609.75
996.195	501.75
996.415	562.75
996.635	539.75
996.855	537.75
997.075	531.75
997.295	521.75
997.515	509.75
997.735	569.75
997.955	534.75
998.174	529.75
998.394	499.75
998.614	563.75
998.834	522.75
999.053	589.75
999.273	559.75
999.492	621.75
999.712	557.75
999.931	536.75
1000.151	593.75
1000.37	571.75
1000.589	648.75
1000.809	560.75
1001.028	690.75
1001.247	617.75
1001.466	528.75
1001.685	691.75
1001.904	632.75
1002.123	623.75
1002.342	636.75
1002.561	592.75
1002.78	622.75
1002.999	686.75
1003.218	645.75
1003.436	622.75
1003.655	675.75
1003.874	628.75
1004.092	656.75
1004.311	696.75
1004.53	652.75
1004.748	748.75
1004.966	645.75
1005.185	723.75
1005.403	691.75
1005.622	663.75
1005.84	765.75
1006.058	653.75
1006.276	687.75
1006.494	1174.75
1006.712	674.75
1006.931	749.75
1007.149	647.75
1007.367	649.75
1007.584	695.75
1007.802	716.75
1008.02	622.75
1008.238	740.75
1008.456	735.75
1008.673	574.75
1008.891	708.75
1009.109	627.75
1009.326	650.75
1009.544	717.75
1009.761	599.75
1009.979	651.75
1010.196	629.75
1010.413	646.75
1010.631	664.75
1010.848	685.75
1011.065	668.75
1011.282	632.75
1011.5	570.75
1011.717	696.75
1011.934	628.75
1012.151	659.75
1012.368	647.75
1012.585	575.75
1012.801	650.75
1013.018	612.75
1013.235	587.75
1013.452	602.75
1013.669	590.75
1013.885	572.75
1014.102	600.75
1014.318	565.75
1014.535	515.75
1014.751	556.75
1014.968	588.75
1015.184	609.75
1015.401	538.75
1015.617	580.75
1015.833	527.75
1016.049	544.75
1016.266	522.75
1016.482	549.75
1016.698	505.75
1016.914	559.75
1017.13	535.75
1017.346	511.75
1017.562	573.75
1017.778	515.75
1017.993	488.75
1018.209	547.75
1018.425	543.75
1018.641	504.75
1018.856	473.75
1019.072	511.75
1019.288	558.75
1019.503	505.75
1019.719	438.75
1019.934	470.75
1020.149	545.75
1020.365	492.75
1020.58	467.75
1020.795	543.75
1021.011	486.75
1021.226	499.75
1021.441	555.75
1021.656	486.75
1021.871	443.75
1022.086	472.75
1022.301	463.75
1022.516	482.75
1022.731	529.75
1022.946	472.75
1023.16	467.75
1023.375	454.75
1023.59	459.75
1023.804	421.75
1024.019	539.75
1024.234	438.75
1024.448	467.75
1024.663	423.75
1024.877	443.75
1025.092	480.75
1025.306	500.75
1025.52	398.75
1025.734	521.75
1025.949	455.75
1026.163	433.75
1026.377	382.75
1026.591	450.75
1026.805	398.75
1027.019	395.75
1027.233	364.75
1027.447	328.75
1027.661	432.75
1027.875	374.75
1028.088	386.75
1028.302	335.75
1028.516	344.75
1028.73	351.75
1028.943	360.75
1029.157	324.75
1029.37	305.75
1029.584	0.75
1029.797	-2.25
1030.011	-3.25
1030.224	-3.25
