Data from QEP037381__31__10-17-21-063.txt Node

Date: Fri Apr 21 10:17:21 EDT 2023
User: dcclab
Spectrometer: QEP03738
Trigger mode: 4
Integration Time (sec): 1.000000E1
Scans to average: 1
Electric dark correction enabled: true
Nonlinearity correction enabled: false
Boxcar width: 0
XAxis mode: Wavelengths
Number of Pixels in Spectrum: 1044
>>>>>Begin Spectral Data<<<<<
784.041	10.12
784.3	0.12
784.558	-0.88
784.817	-3.88
785.075	245.12
785.334	214.12
785.592	206.12
785.851	196.12
786.109	226.12
786.368	236.12
786.626	265.12
786.884	270.12
787.143	269.12
787.401	203.12
787.659	289.12
787.917	254.12
788.175	296.12
788.433	287.12
788.691	276.12
788.949	281.12
789.207	308.12
789.465	263.12
789.723	281.12
789.98	261.12
790.238	311.12
790.496	296.12
790.753	290.12
791.011	355.12
791.268	307.12
791.526	305.12
791.783	321.12
792.041	324.12
792.298	254.12
792.556	327.12
792.813	317.12
793.07	305.12
793.327	289.12
793.584	372.12
793.841	302.12
794.099	330.12
794.356	371.12
794.613	285.12
794.869	330.12
795.126	288.12
795.383	275.12
795.64	310.12
795.897	271.12
796.153	323.12
796.41	304.12
796.667	293.12
796.923	301.12
797.18	296.12
797.436	330.12
797.693	291.12
797.949	331.12
798.206	357.12
798.462	272.12
798.718	336.12
798.974	305.12
799.231	330.12
799.487	312.12
799.743	317.12
799.999	339.12
800.255	325.12
800.511	310.12
800.767	334.12
801.023	315.12
801.279	320.12
801.534	320.12
801.79	327.12
802.046	304.12
802.302	347.12
802.557	331.12
802.813	342.12
803.068	292.12
803.324	334.12
803.579	298.12
803.835	290.12
804.09	340.12
804.345	303.12
804.601	275.12
804.856	310.12
805.111	329.12
805.366	312.12
805.621	318.12
805.876	341.12
806.131	326.12
806.386	305.12
806.641	266.12
806.896	316.12
807.151	371.12
807.406	316.12
807.661	328.12
807.915	312.12
808.17	330.12
808.425	331.12
808.679	286.12
808.934	381.12
809.188	318.12
809.443	347.12
809.697	367.12
809.951	316.12
810.206	300.12
810.46	359.12
810.714	343.12
810.968	367.12
811.223	288.12
811.477	321.12
811.731	351.12
811.985	273.12
812.239	251.12
812.493	297.12
812.747	306.12
813	270.12
813.254	326.12
813.508	343.12
813.762	309.12
814.015	297.12
814.269	315.12
814.522	345.12
814.776	340.12
815.03	344.12
815.283	315.12
815.536	338.12
815.79	327.12
816.043	329.12
816.296	333.12
816.55	315.12
816.803	315.12
817.056	403.12
817.309	330.12
817.562	326.12
817.815	366.12
818.068	286.12
818.321	292.12
818.574	283.12
818.827	336.12
819.079	291.12
819.332	421.12
819.585	328.12
819.838	393.12
820.09	302.12
820.343	364.12
820.595	287.12
820.848	345.12
821.1	349.12
821.353	323.12
821.605	319.12
821.857	376.12
822.11	286.12
822.362	305.12
822.614	284.12
822.866	327.12
823.118	270.12
823.37	377.12
823.622	324.12
823.874	306.12
824.126	367.12
824.378	292.12
824.63	313.12
824.882	326.12
825.134	312.12
825.385	335.12
825.637	332.12
825.888	302.12
826.14	310.12
826.392	295.12
826.643	284.12
826.895	369.12
827.146	314.12
827.397	306.12
827.649	387.12
827.9	295.12
828.151	279.12
828.402	296.12
828.653	316.12
828.905	328.12
829.156	385.12
829.407	290.12
829.658	321.12
829.909	374.12
830.159	344.12
830.41	342.12
830.661	360.12
830.912	329.12
831.162	322.12
831.413	310.12
831.664	349.12
831.914	330.12
832.165	334.12
832.415	344.12
832.666	339.12
832.916	348.12
833.167	301.12
833.417	393.12
833.667	339.12
833.917	340.12
834.168	381.12
834.418	343.12
834.668	329.12
834.918	286.12
835.168	303.12
835.418	273.12
835.668	326.12
835.918	357.12
836.167	350.12
836.417	296.12
836.667	359.12
836.917	375.12
837.166	322.12
837.416	365.12
837.666	379.12
837.915	317.12
838.165	348.12
838.414	292.12
838.663	259.12
838.913	340.12
839.162	293.12
839.411	373.12
839.661	328.12
839.91	330.12
840.159	318.12
840.408	328.12
840.657	331.12
840.906	343.12
841.155	365.12
841.404	335.12
841.653	335.12
841.902	289.12
842.15	335.12
842.399	352.12
842.648	324.12
842.897	338.12
843.145	293.12
843.394	307.12
843.642	311.12
843.891	360.12
844.139	330.12
844.388	294.12
844.636	261.12
844.884	317.12
845.133	293.12
845.381	313.12
845.629	350.12
845.877	295.12
846.125	316.12
846.373	322.12
846.621	307.12
846.869	348.12
847.117	338.12
847.365	323.12
847.613	343.12
847.861	344.12
848.108	388.12
848.356	349.12
848.604	308.12
848.851	342.12
849.099	338.12
849.346	327.12
849.594	333.12
849.841	355.12
850.089	316.12
850.336	288.12
850.583	308.12
850.831	319.12
851.078	326.12
851.325	300.12
851.572	355.12
851.819	360.12
852.066	325.12
852.313	324.12
852.56	281.12
852.807	284.12
853.054	298.12
853.301	313.12
853.548	305.12
853.794	403.12
854.041	333.12
854.288	280.12
854.534	392.12
854.781	323.12
855.028	305.12
855.274	393.12
855.52	347.12
855.767	295.12
856.013	360.12
856.26	633.12
856.506	320.12
856.752	361.12
856.998	324.12
857.244	302.12
857.49	351.12
857.736	344.12
857.982	346.12
858.228	352.12
858.474	294.12
858.72	328.12
858.966	356.12
859.212	338.12
859.458	333.12
859.703	345.12
859.949	306.12
860.195	375.12
860.44	364.12
860.686	311.12
860.931	380.12
861.177	318.12
861.422	379.12
861.667	312.12
861.913	318.12
862.158	339.12
862.403	383.12
862.648	363.12
862.893	395.12
863.138	333.12
863.384	311.12
863.629	364.12
863.873	348.12
864.118	325.12
864.363	279.12
864.608	350.12
864.853	382.12
865.098	326.12
865.342	362.12
865.587	336.12
865.832	360.12
866.076	346.12
866.321	324.12
866.565	331.12
866.81	273.12
867.054	318.12
867.298	340.12
867.543	315.12
867.787	369.12
868.031	334.12
868.275	349.12
868.519	336.12
868.764	337.12
869.008	327.12
869.252	375.12
869.496	338.12
869.739	341.12
869.983	368.12
870.227	366.12
870.471	319.12
870.715	358.12
870.958	351.12
871.202	315.12
871.446	327.12
871.689	312.12
871.933	335.12
872.176	352.12
872.42	337.12
872.663	314.12
872.906	381.12
873.15	321.12
873.393	284.12
873.636	372.12
873.879	362.12
874.122	402.12
874.366	339.12
874.609	376.12
874.852	337.12
875.095	349.12
875.337	328.12
875.58	275.12
875.823	346.12
876.066	368.12
876.309	389.12
876.551	316.12
876.794	295.12
877.037	382.12
877.279	301.12
877.522	315.12
877.764	360.12
878.007	312.12
878.249	342.12
878.491	293.12
878.734	379.12
878.976	346.12
879.218	313.12
879.46	385.12
879.702	377.12
879.945	350.12
880.187	340.12
880.429	368.12
880.671	377.12
880.912	384.12
881.154	372.12
881.396	287.12
881.638	354.12
881.88	347.12
882.121	312.12
882.363	337.12
882.605	385.12
882.846	355.12
883.088	379.12
883.329	317.12
883.571	294.12
883.812	308.12
884.053	315.12
884.295	322.12
884.536	400.12
884.777	323.12
885.018	344.12
885.259	357.12
885.5	302.12
885.742	522.12
885.982	374.12
886.223	307.12
886.464	335.12
886.705	293.12
886.946	348.12
887.187	292.12
887.428	393.12
887.668	316.12
887.909	305.12
888.15	304.12
888.39	354.12
888.631	390.12
888.871	365.12
889.111	361.12
889.352	352.12
889.592	338.12
889.833	353.12
890.073	350.12
890.313	410.12
890.553	303.12
890.793	342.12
891.033	314.12
891.273	332.12
891.513	348.12
891.753	407.12
891.993	342.12
892.233	394.12
892.473	419.12
892.713	359.12
892.952	334.12
893.192	345.12
893.432	329.12
893.671	379.12
893.911	354.12
894.15	354.12
894.39	297.12
894.629	325.12
894.869	369.12
895.108	358.12
895.347	322.12
895.587	367.12
895.826	328.12
896.065	310.12
896.304	362.12
896.543	396.12
896.782	302.12
897.021	356.12
897.26	334.12
897.499	396.12
897.738	406.12
897.977	353.12
898.216	350.12
898.454	347.12
898.693	327.12
898.932	383.12
899.17	363.12
899.409	360.12
899.647	359.12
899.886	339.12
900.124	366.12
900.363	332.12
900.601	354.12
900.839	360.12
901.078	357.12
901.316	366.12
901.554	349.12
901.792	356.12
902.03	321.12
902.268	346.12
902.506	375.12
902.744	330.12
902.982	387.12
903.22	309.12
903.458	344.12
903.695	381.12
903.933	387.12
904.171	334.12
904.409	345.12
904.646	389.12
904.884	341.12
905.121	406.12
905.359	391.12
905.596	381.12
905.833	342.12
906.071	334.12
906.308	396.12
906.545	376.12
906.783	315.12
907.02	347.12
907.257	308.12
907.494	343.12
907.731	371.12
907.968	376.12
908.205	332.12
908.442	341.12
908.679	353.12
908.915	348.12
909.152	362.12
909.389	298.12
909.626	356.12
909.862	328.12
910.099	351.12
910.335	405.12
910.572	297.12
910.808	372.12
911.045	347.12
911.281	323.12
911.518	414.12
911.754	341.12
911.99	369.12
912.226	364.12
912.463	329.12
912.699	349.12
912.935	352.12
913.171	336.12
913.407	332.12
913.643	402.12
913.879	368.12
914.114	361.12
914.35	332.12
914.586	352.12
914.822	336.12
915.057	434.12
915.293	312.12
915.529	336.12
915.764	401.12
916	384.12
916.235	361.12
916.471	405.12
916.706	313.12
916.941	348.12
917.177	355.12
917.412	377.12
917.647	385.12
917.882	336.12
918.117	399.12
918.352	370.12
918.588	422.12
918.823	351.12
919.057	373.12
919.292	294.12
919.527	419.12
919.762	353.12
919.997	423.12
920.232	373.12
920.466	418.12
920.701	316.12
920.935	374.12
921.17	363.12
921.405	333.12
921.639	406.12
921.873	365.12
922.108	402.12
922.342	406.12
922.576	339.12
922.811	354.12
923.045	405.12
923.279	428.12
923.513	320.12
923.747	410.12
923.981	407.12
924.215	358.12
924.449	369.12
924.683	336.12
924.917	340.12
925.151	359.12
925.385	435.12
925.618	391.12
925.852	406.12
926.086	337.12
926.319	390.12
926.553	367.12
926.786	393.12
927.02	372.12
927.253	435.12
927.486	414.12
927.72	338.12
927.953	406.12
928.186	367.12
928.42	408.12
928.653	350.12
928.886	349.12
929.119	395.12
929.352	380.12
929.585	394.12
929.818	367.12
930.051	394.12
930.284	422.12
930.516	345.12
930.749	362.12
930.982	412.12
931.215	411.12
931.447	349.12
931.68	387.12
931.912	362.12
932.145	354.12
932.377	391.12
932.61	517.12
932.842	315.12
933.074	398.12
933.307	360.12
933.539	434.12
933.771	419.12
934.003	365.12
934.236	450.12
934.468	454.12
934.7	373.12
934.932	416.12
935.164	358.12
935.395	358.12
935.627	374.12
935.859	394.12
936.091	340.12
936.323	408.12
936.554	439.12
936.786	382.12
937.017	346.12
937.249	383.12
937.481	323.12
937.712	411.12
937.943	387.12
938.175	377.12
938.406	372.12
938.637	453.12
938.869	342.12
939.1	405.12
939.331	365.12
939.562	411.12
939.793	398.12
940.024	435.12
940.255	444.12
940.486	385.12
940.717	395.12
940.948	394.12
941.179	340.12
941.409	380.12
941.64	366.12
941.871	381.12
942.102	374.12
942.332	368.12
942.563	420.12
942.793	391.12
943.024	348.12
943.254	385.12
943.484	425.12
943.715	431.12
943.945	399.12
944.175	352.12
944.405	332.12
944.636	351.12
944.866	391.12
945.096	403.12
945.326	337.12
945.556	388.12
945.786	427.12
946.016	380.12
946.245	346.12
946.475	370.12
946.705	376.12
946.935	380.12
947.164	409.12
947.394	376.12
947.624	399.12
947.853	443.12
948.083	396.12
948.312	386.12
948.542	334.12
948.771	333.12
949	362.12
949.23	377.12
949.459	368.12
949.688	431.12
949.917	385.12
950.146	401.12
950.375	447.12
950.604	365.12
950.833	451.12
951.062	455.12
951.291	396.12
951.52	378.12
951.749	404.12
951.978	357.12
952.206	379.12
952.435	371.12
952.664	417.12
952.892	436.12
953.121	407.12
953.349	448.12
953.578	438.12
953.806	415.12
954.035	371.12
954.263	408.12
954.491	367.12
954.719	422.12
954.948	386.12
955.176	391.12
955.404	347.12
955.632	409.12
955.86	417.12
956.088	419.12
956.316	427.12
956.544	471.12
956.772	413.12
956.999	396.12
957.227	479.12
957.455	406.12
957.683	435.12
957.91	394.12
958.138	390.12
958.365	411.12
958.593	404.12
958.82	358.12
959.048	435.12
959.275	426.12
959.502	415.12
959.73	403.12
959.957	427.12
960.184	441.12
960.411	389.12
960.638	463.12
960.865	406.12
961.092	451.12
961.319	354.12
961.546	460.12
961.773	460.12
962	416.12
962.227	479.12
962.454	440.12
962.68	416.12
962.907	455.12
963.134	415.12
963.36	457.12
963.587	472.12
963.813	416.12
964.04	489.12
964.266	419.12
964.493	492.12
964.719	488.12
964.945	505.12
965.171	404.12
965.398	463.12
965.624	490.12
965.85	424.12
966.076	437.12
966.302	494.12
966.528	452.12
966.754	473.12
966.98	475.12
967.206	487.12
967.431	429.12
967.657	502.12
967.883	482.12
968.109	487.12
968.334	423.12
968.56	422.12
968.785	456.12
969.011	412.12
969.236	483.12
969.462	418.12
969.687	447.12
969.912	514.12
970.138	516.12
970.363	431.12
970.588	492.12
970.813	451.12
971.038	430.12
971.263	490.12
971.488	476.12
971.713	508.12
971.938	528.12
972.163	410.12
972.388	452.12
972.613	448.12
972.838	459.12
973.062	456.12
973.287	466.12
973.512	397.12
973.736	457.12
973.961	445.12
974.185	445.12
974.41	485.12
974.634	393.12
974.858	431.12
975.083	464.12
975.307	493.12
975.531	437.12
975.755	409.12
975.98	436.12
976.204	377.12
976.428	405.12
976.652	414.12
976.876	404.12
977.1	442.12
977.324	383.12
977.547	481.12
977.771	462.12
977.995	432.12
978.219	392.12
978.442	513.12
978.666	433.12
978.89	441.12
979.113	446.12
979.337	438.12
979.56	412.12
979.783	502.12
980.007	411.12
980.23	441.12
980.453	416.12
980.677	468.12
980.9	457.12
981.123	375.12
981.346	480.12
981.569	459.12
981.792	466.12
982.015	459.12
982.238	415.12
982.461	456.12
982.684	417.12
982.907	433.12
983.129	421.12
983.352	483.12
983.575	463.12
983.797	463.12
984.02	445.12
984.242	451.12
984.465	461.12
984.687	479.12
984.91	513.12
985.132	478.12
985.354	505.12
985.577	486.12
985.799	478.12
986.021	410.12
986.243	446.12
986.465	477.12
986.687	527.12
986.909	533.12
987.131	490.12
987.353	473.12
987.575	505.12
987.797	472.12
988.019	424.12
988.241	467.12
988.462	441.12
988.684	521.12
988.906	544.12
989.127	564.12
989.349	444.12
989.57	480.12
989.792	534.12
990.013	543.12
990.234	539.12
990.456	572.12
990.677	571.12
990.898	504.12
991.119	511.12
991.341	549.12
991.562	488.12
991.783	519.12
992.004	489.12
992.225	474.12
992.446	517.12
992.667	435.12
992.887	521.12
993.108	444.12
993.329	592.12
993.55	526.12
993.77	469.12
993.991	498.12
994.212	546.12
994.432	520.12
994.653	547.12
994.873	551.12
995.093	441.12
995.314	483.12
995.534	567.12
995.754	588.12
995.975	611.12
996.195	485.12
996.415	559.12
996.635	533.12
996.855	551.12
997.075	519.12
997.295	537.12
997.515	514.12
997.735	573.12
997.955	546.12
998.174	523.12
998.394	502.12
998.614	567.12
998.834	521.12
999.053	588.12
999.273	561.12
999.492	615.12
999.712	571.12
999.931	544.12
1000.151	589.12
1000.37	580.12
1000.589	619.12
1000.809	566.12
1001.028	698.12
1001.247	637.12
1001.466	549.12
1001.685	687.12
1001.904	627.12
1002.123	634.12
1002.342	642.12
1002.561	608.12
1002.78	607.12
1002.999	682.12
1003.218	633.12
1003.436	614.12
1003.655	681.12
1003.874	624.12
1004.092	651.12
1004.311	699.12
1004.53	651.12
1004.748	732.12
1004.966	669.12
1005.185	708.12
1005.403	696.12
1005.622	685.12
1005.84	764.12
1006.058	656.12
1006.276	680.12
1006.494	1172.12
1006.712	674.12
1006.931	737.12
1007.149	641.12
1007.367	667.12
1007.584	680.12
1007.802	707.12
1008.02	652.12
1008.238	752.12
1008.456	721.12
1008.673	593.12
1008.891	677.12
1009.109	627.12
1009.326	655.12
1009.544	729.12
1009.761	591.12
1009.979	651.12
1010.196	617.12
1010.413	664.12
1010.631	668.12
1010.848	667.12
1011.065	671.12
1011.282	610.12
1011.5	560.12
1011.717	672.12
1011.934	622.12
1012.151	664.12
1012.368	636.12
1012.585	584.12
1012.801	647.12
1013.018	634.12
1013.235	592.12
1013.452	592.12
1013.669	604.12
1013.885	566.12
1014.102	598.12
1014.318	560.12
1014.535	522.12
1014.751	558.12
1014.968	569.12
1015.184	616.12
1015.401	515.12
1015.617	591.12
1015.833	535.12
1016.049	559.12
1016.266	536.12
1016.482	568.12
1016.698	491.12
1016.914	557.12
1017.13	507.12
1017.346	517.12
1017.562	577.12
1017.778	505.12
1017.993	495.12
1018.209	557.12
1018.425	526.12
1018.641	496.12
1018.856	465.12
1019.072	498.12
1019.288	545.12
1019.503	518.12
1019.719	431.12
1019.934	452.12
1020.149	555.12
1020.365	490.12
1020.58	457.12
1020.795	529.12
1021.011	492.12
1021.226	508.12
1021.441	547.12
1021.656	483.12
1021.871	436.12
1022.086	466.12
1022.301	469.12
1022.516	473.12
1022.731	523.12
1022.946	466.12
1023.16	467.12
1023.375	449.12
1023.59	447.12
1023.804	436.12
1024.019	531.12
1024.234	428.12
1024.448	473.12
1024.663	420.12
1024.877	445.12
1025.092	470.12
1025.306	490.12
1025.52	405.12
1025.734	507.12
1025.949	441.12
1026.163	429.12
1026.377	397.12
1026.591	445.12
1026.805	391.12
1027.019	394.12
1027.233	358.12
1027.447	328.12
1027.661	427.12
1027.875	369.12
1028.088	384.12
1028.302	348.12
1028.516	338.12
1028.73	351.12
1028.943	357.12
1029.157	324.12
1029.37	317.12
1029.584	-0.88
1029.797	0.12
1030.011	-0.88
1030.224	-3.88
