Data from QEP037381__49__10-20-21-066.txt Node

Date: Fri Apr 21 10:20:21 EDT 2023
User: dcclab
Spectrometer: QEP03738
Trigger mode: 4
Integration Time (sec): 1.000000E1
Scans to average: 1
Electric dark correction enabled: true
Nonlinearity correction enabled: false
Boxcar width: 0
XAxis mode: Wavelengths
Number of Pixels in Spectrum: 1044
>>>>>Begin Spectral Data<<<<<
784.041	14.75
784.3	-0.25
784.558	-3.25
784.817	-4.25
785.075	230.75
785.334	211.75
785.592	203.75
785.851	194.75
786.109	225.75
786.368	230.75
786.626	249.75
786.884	274.75
787.143	258.75
787.401	203.75
787.659	266.75
787.917	246.75
788.175	301.75
788.433	271.75
788.691	270.75
788.949	282.75
789.207	305.75
789.465	255.75
789.723	276.75
789.98	256.75
790.238	320.75
790.496	296.75
790.753	287.75
791.011	357.75
791.268	308.75
791.526	304.75
791.783	337.75
792.041	324.75
792.298	257.75
792.556	325.75
792.813	308.75
793.07	308.75
793.327	290.75
793.584	385.75
793.841	300.75
794.099	316.75
794.356	385.75
794.613	292.75
794.869	330.75
795.126	301.75
795.383	273.75
795.64	308.75
795.897	265.75
796.153	317.75
796.41	324.75
796.667	299.75
796.923	293.75
797.18	294.75
797.436	326.75
797.693	283.75
797.949	338.75
798.206	363.75
798.462	263.75
798.718	327.75
798.974	295.75
799.231	349.75
799.487	322.75
799.743	329.75
799.999	346.75
800.255	347.75
800.511	298.75
800.767	322.75
801.023	303.75
801.279	309.75
801.534	341.75
801.79	329.75
802.046	308.75
802.302	348.75
802.557	332.75
802.813	346.75
803.068	290.75
803.324	326.75
803.579	299.75
803.835	291.75
804.09	353.75
804.345	302.75
804.601	266.75
804.856	300.75
805.111	330.75
805.366	307.75
805.621	310.75
805.876	336.75
806.131	326.75
806.386	299.75
806.641	271.75
806.896	296.75
807.151	366.75
807.406	327.75
807.661	332.75
807.915	316.75
808.17	335.75
808.425	338.75
808.679	278.75
808.934	381.75
809.188	307.75
809.443	343.75
809.697	357.75
809.951	300.75
810.206	297.75
810.46	341.75
810.714	336.75
810.968	367.75
811.223	281.75
811.477	314.75
811.731	337.75
811.985	263.75
812.239	238.75
812.493	286.75
812.747	311.75
813	264.75
813.254	329.75
813.508	335.75
813.762	296.75
814.015	291.75
814.269	320.75
814.522	337.75
814.776	343.75
815.03	333.75
815.283	319.75
815.536	342.75
815.79	342.75
816.043	332.75
816.296	327.75
816.55	323.75
816.803	316.75
817.056	405.75
817.309	333.75
817.562	330.75
817.815	359.75
818.068	286.75
818.321	295.75
818.574	277.75
818.827	334.75
819.079	291.75
819.332	414.75
819.585	334.75
819.838	392.75
820.09	306.75
820.343	369.75
820.595	284.75
820.848	337.75
821.1	345.75
821.353	318.75
821.605	316.75
821.857	373.75
822.11	275.75
822.362	307.75
822.614	279.75
822.866	319.75
823.118	269.75
823.37	365.75
823.622	309.75
823.874	301.75
824.126	352.75
824.378	281.75
824.63	312.75
824.882	318.75
825.134	310.75
825.385	351.75
825.637	333.75
825.888	302.75
826.14	322.75
826.392	296.75
826.643	282.75
826.895	373.75
827.146	313.75
827.397	309.75
827.649	383.75
827.9	297.75
828.151	283.75
828.402	274.75
828.653	325.75
828.905	326.75
829.156	376.75
829.407	298.75
829.658	324.75
829.909	373.75
830.159	349.75
830.41	343.75
830.661	373.75
830.912	337.75
831.162	313.75
831.413	317.75
831.664	354.75
831.914	345.75
832.165	335.75
832.415	323.75
832.666	345.75
832.916	357.75
833.167	293.75
833.417	375.75
833.667	355.75
833.917	341.75
834.168	388.75
834.418	348.75
834.668	323.75
834.918	292.75
835.168	308.75
835.418	266.75
835.668	321.75
835.918	363.75
836.167	344.75
836.417	294.75
836.667	357.75
836.917	378.75
837.166	323.75
837.416	354.75
837.666	368.75
837.915	324.75
838.165	333.75
838.414	309.75
838.663	282.75
838.913	328.75
839.162	302.75
839.411	383.75
839.661	317.75
839.91	330.75
840.159	308.75
840.408	337.75
840.657	323.75
840.906	334.75
841.155	367.75
841.404	329.75
841.653	336.75
841.902	303.75
842.15	333.75
842.399	352.75
842.648	320.75
842.897	337.75
843.145	286.75
843.394	310.75
843.642	310.75
843.891	363.75
844.139	338.75
844.388	296.75
844.636	274.75
844.884	311.75
845.133	298.75
845.381	319.75
845.629	353.75
845.877	299.75
846.125	322.75
846.373	327.75
846.621	303.75
846.869	350.75
847.117	328.75
847.365	321.75
847.613	342.75
847.861	338.75
848.108	375.75
848.356	358.75
848.604	298.75
848.851	336.75
849.099	344.75
849.346	330.75
849.594	336.75
849.841	360.75
850.089	311.75
850.336	291.75
850.583	305.75
850.831	316.75
851.078	338.75
851.325	294.75
851.572	355.75
851.819	352.75
852.066	336.75
852.313	330.75
852.56	300.75
852.807	291.75
853.054	288.75
853.301	315.75
853.548	308.75
853.794	397.75
854.041	329.75
854.288	283.75
854.534	400.75
854.781	316.75
855.028	307.75
855.274	377.75
855.52	330.75
855.767	291.75
856.013	352.75
856.26	634.75
856.506	309.75
856.752	367.75
856.998	333.75
857.244	302.75
857.49	337.75
857.736	351.75
857.982	342.75
858.228	351.75
858.474	291.75
858.72	334.75
858.966	356.75
859.212	337.75
859.458	336.75
859.703	345.75
859.949	317.75
860.195	373.75
860.44	360.75
860.686	313.75
860.931	381.75
861.177	301.75
861.422	389.75
861.667	325.75
861.913	331.75
862.158	332.75
862.403	366.75
862.648	361.75
862.893	389.75
863.138	347.75
863.384	311.75
863.629	360.75
863.873	350.75
864.118	337.75
864.363	267.75
864.608	347.75
864.853	374.75
865.098	324.75
865.342	365.75
865.587	327.75
865.832	379.75
866.076	348.75
866.321	325.75
866.565	331.75
866.81	273.75
867.054	334.75
867.298	340.75
867.543	309.75
867.787	362.75
868.031	332.75
868.275	353.75
868.519	324.75
868.764	348.75
869.008	326.75
869.252	387.75
869.496	334.75
869.739	355.75
869.983	377.75
870.227	364.75
870.471	303.75
870.715	376.75
870.958	359.75
871.202	320.75
871.446	320.75
871.689	310.75
871.933	329.75
872.176	338.75
872.42	321.75
872.663	316.75
872.906	369.75
873.15	323.75
873.393	281.75
873.636	376.75
873.879	360.75
874.122	405.75
874.366	338.75
874.609	384.75
874.852	338.75
875.095	354.75
875.337	325.75
875.58	273.75
875.823	338.75
876.066	375.75
876.309	396.75
876.551	311.75
876.794	287.75
877.037	375.75
877.279	305.75
877.522	313.75
877.764	362.75
878.007	316.75
878.249	347.75
878.491	305.75
878.734	369.75
878.976	358.75
879.218	295.75
879.46	378.75
879.702	391.75
879.945	369.75
880.187	344.75
880.429	367.75
880.671	368.75
880.912	394.75
881.154	356.75
881.396	269.75
881.638	358.75
881.88	348.75
882.121	308.75
882.363	320.75
882.605	393.75
882.846	368.75
883.088	370.75
883.329	315.75
883.571	300.75
883.812	315.75
884.053	328.75
884.295	321.75
884.536	412.75
884.777	323.75
885.018	342.75
885.259	374.75
885.5	298.75
885.742	504.75
885.982	365.75
886.223	307.75
886.464	326.75
886.705	304.75
886.946	346.75
887.187	284.75
887.428	371.75
887.668	319.75
887.909	301.75
888.15	297.75
888.39	355.75
888.631	411.75
888.871	368.75
889.111	364.75
889.352	369.75
889.592	334.75
889.833	348.75
890.073	345.75
890.313	416.75
890.553	300.75
890.793	339.75
891.033	324.75
891.273	316.75
891.513	358.75
891.753	413.75
891.993	343.75
892.233	368.75
892.473	424.75
892.713	380.75
892.952	311.75
893.192	349.75
893.432	324.75
893.671	372.75
893.911	355.75
894.15	350.75
894.39	282.75
894.629	335.75
894.869	372.75
895.108	350.75
895.347	322.75
895.587	363.75
895.826	330.75
896.065	310.75
896.304	364.75
896.543	405.75
896.782	298.75
897.021	346.75
897.26	349.75
897.499	391.75
897.738	405.75
897.977	352.75
898.216	349.75
898.454	350.75
898.693	339.75
898.932	372.75
899.17	346.75
899.409	356.75
899.647	351.75
899.886	328.75
900.124	366.75
900.363	323.75
900.601	366.75
900.839	342.75
901.078	362.75
901.316	354.75
901.554	345.75
901.792	372.75
902.03	315.75
902.268	348.75
902.506	387.75
902.744	322.75
902.982	403.75
903.22	323.75
903.458	336.75
903.695	372.75
903.933	376.75
904.171	342.75
904.409	346.75
904.646	386.75
904.884	346.75
905.121	413.75
905.359	372.75
905.596	382.75
905.833	340.75
906.071	338.75
906.308	399.75
906.545	372.75
906.783	319.75
907.02	343.75
907.257	315.75
907.494	334.75
907.731	365.75
907.968	366.75
908.205	345.75
908.442	338.75
908.679	360.75
908.915	357.75
909.152	379.75
909.389	306.75
909.626	348.75
909.862	330.75
910.099	358.75
910.335	416.75
910.572	303.75
910.808	362.75
911.045	348.75
911.281	331.75
911.518	417.75
911.754	364.75
911.99	368.75
912.226	351.75
912.463	319.75
912.699	340.75
912.935	363.75
913.171	346.75
913.407	318.75
913.643	385.75
913.879	367.75
914.114	362.75
914.35	346.75
914.586	362.75
914.822	323.75
915.057	432.75
915.293	318.75
915.529	340.75
915.764	406.75
916	384.75
916.235	375.75
916.471	393.75
916.706	328.75
916.941	339.75
917.177	344.75
917.412	392.75
917.647	383.75
917.882	322.75
918.117	403.75
918.352	390.75
918.588	426.75
918.823	363.75
919.057	370.75
919.292	295.75
919.527	422.75
919.762	348.75
919.997	442.75
920.232	374.75
920.466	423.75
920.701	324.75
920.935	393.75
921.17	359.75
921.405	332.75
921.639	400.75
921.873	372.75
922.108	393.75
922.342	404.75
922.576	343.75
922.811	356.75
923.045	407.75
923.279	426.75
923.513	300.75
923.747	410.75
923.981	397.75
924.215	357.75
924.449	362.75
924.683	313.75
924.917	347.75
925.151	367.75
925.385	439.75
925.618	402.75
925.852	392.75
926.086	328.75
926.319	391.75
926.553	378.75
926.786	398.75
927.02	372.75
927.253	401.75
927.486	419.75
927.72	339.75
927.953	400.75
928.186	371.75
928.42	395.75
928.653	342.75
928.886	349.75
929.119	410.75
929.352	379.75
929.585	383.75
929.818	362.75
930.051	403.75
930.284	401.75
930.516	329.75
930.749	355.75
930.982	430.75
931.215	411.75
931.447	342.75
931.68	376.75
931.912	365.75
932.145	366.75
932.377	381.75
932.61	506.75
932.842	318.75
933.074	385.75
933.307	346.75
933.539	446.75
933.771	430.75
934.003	364.75
934.236	444.75
934.468	470.75
934.7	370.75
934.932	411.75
935.164	373.75
935.395	347.75
935.627	381.75
935.859	392.75
936.091	346.75
936.323	416.75
936.554	437.75
936.786	383.75
937.017	336.75
937.249	387.75
937.481	341.75
937.712	420.75
937.943	371.75
938.175	374.75
938.406	371.75
938.637	441.75
938.869	354.75
939.1	420.75
939.331	370.75
939.562	404.75
939.793	394.75
940.024	407.75
940.255	447.75
940.486	396.75
940.717	404.75
940.948	391.75
941.179	355.75
941.409	383.75
941.64	376.75
941.871	398.75
942.102	360.75
942.332	376.75
942.563	435.75
942.793	399.75
943.024	336.75
943.254	381.75
943.484	422.75
943.715	425.75
943.945	403.75
944.175	336.75
944.405	312.75
944.636	336.75
944.866	394.75
945.096	394.75
945.326	329.75
945.556	395.75
945.786	437.75
946.016	395.75
946.245	346.75
946.475	379.75
946.705	371.75
946.935	394.75
947.164	421.75
947.394	365.75
947.624	398.75
947.853	437.75
948.083	403.75
948.312	375.75
948.542	337.75
948.771	327.75
949	355.75
949.23	368.75
949.459	384.75
949.688	444.75
949.917	391.75
950.146	395.75
950.375	435.75
950.604	352.75
950.833	468.75
951.062	453.75
951.291	396.75
951.52	372.75
951.749	384.75
951.978	369.75
952.206	371.75
952.435	383.75
952.664	425.75
952.892	427.75
953.121	411.75
953.349	451.75
953.578	436.75
953.806	412.75
954.035	381.75
954.263	413.75
954.491	369.75
954.719	428.75
954.948	391.75
955.176	386.75
955.404	346.75
955.632	415.75
955.86	413.75
956.088	409.75
956.316	448.75
956.544	477.75
956.772	414.75
956.999	400.75
957.227	494.75
957.455	398.75
957.683	431.75
957.91	396.75
958.138	393.75
958.365	391.75
958.593	412.75
958.82	359.75
959.048	441.75
959.275	418.75
959.502	401.75
959.73	397.75
959.957	418.75
960.184	458.75
960.411	390.75
960.638	467.75
960.865	418.75
961.092	447.75
961.319	354.75
961.546	454.75
961.773	461.75
962	402.75
962.227	467.75
962.454	428.75
962.68	426.75
962.907	445.75
963.134	399.75
963.36	436.75
963.587	470.75
963.813	424.75
964.04	479.75
964.266	429.75
964.493	506.75
964.719	485.75
964.945	489.75
965.171	392.75
965.398	467.75
965.624	499.75
965.85	423.75
966.076	441.75
966.302	474.75
966.528	448.75
966.754	486.75
966.98	475.75
967.206	473.75
967.431	416.75
967.657	503.75
967.883	483.75
968.109	492.75
968.334	420.75
968.56	427.75
968.785	442.75
969.011	415.75
969.236	482.75
969.462	418.75
969.687	444.75
969.912	481.75
970.138	500.75
970.363	455.75
970.588	474.75
970.813	449.75
971.038	427.75
971.263	476.75
971.488	493.75
971.713	516.75
971.938	501.75
972.163	420.75
972.388	449.75
972.613	441.75
972.838	462.75
973.062	451.75
973.287	456.75
973.512	397.75
973.736	451.75
973.961	450.75
974.185	440.75
974.41	481.75
974.634	396.75
974.858	419.75
975.083	468.75
975.307	492.75
975.531	439.75
975.755	412.75
975.98	433.75
976.204	380.75
976.428	399.75
976.652	399.75
976.876	394.75
977.1	428.75
977.324	403.75
977.547	456.75
977.771	466.75
977.995	445.75
978.219	395.75
978.442	519.75
978.666	447.75
978.89	447.75
979.113	448.75
979.337	447.75
979.56	415.75
979.783	512.75
980.007	401.75
980.23	445.75
980.453	423.75
980.677	466.75
980.9	455.75
981.123	370.75
981.346	460.75
981.569	466.75
981.792	487.75
982.015	450.75
982.238	416.75
982.461	457.75
982.684	436.75
982.907	425.75
983.129	426.75
983.352	491.75
983.575	469.75
983.797	475.75
984.02	436.75
984.242	437.75
984.465	463.75
984.687	484.75
984.91	510.75
985.132	488.75
985.354	510.75
985.577	496.75
985.799	493.75
986.021	415.75
986.243	454.75
986.465	464.75
986.687	527.75
986.909	553.75
987.131	483.75
987.353	469.75
987.575	504.75
987.797	473.75
988.019	422.75
988.241	477.75
988.462	461.75
988.684	509.75
988.906	542.75
989.127	566.75
989.349	441.75
989.57	499.75
989.792	524.75
990.013	528.75
990.234	532.75
990.456	581.75
990.677	531.75
990.898	502.75
991.119	501.75
991.341	552.75
991.562	493.75
991.783	536.75
992.004	482.75
992.225	455.75
992.446	532.75
992.667	441.75
992.887	545.75
993.108	428.75
993.329	579.75
993.55	522.75
993.77	474.75
993.991	487.75
994.212	524.75
994.432	513.75
994.653	549.75
994.873	538.75
995.093	442.75
995.314	493.75
995.534	566.75
995.754	575.75
995.975	597.75
996.195	493.75
996.415	548.75
996.635	550.75
996.855	554.75
997.075	522.75
997.295	512.75
997.515	504.75
997.735	554.75
997.955	545.75
998.174	526.75
998.394	524.75
998.614	550.75
998.834	529.75
999.053	584.75
999.273	571.75
999.492	625.75
999.712	564.75
999.931	539.75
1000.151	596.75
1000.37	571.75
1000.589	637.75
1000.809	567.75
1001.028	697.75
1001.247	628.75
1001.466	519.75
1001.685	672.75
1001.904	638.75
1002.123	631.75
1002.342	640.75
1002.561	597.75
1002.78	634.75
1002.999	705.75
1003.218	631.75
1003.436	613.75
1003.655	675.75
1003.874	636.75
1004.092	663.75
1004.311	668.75
1004.53	669.75
1004.748	728.75
1004.966	660.75
1005.185	702.75
1005.403	684.75
1005.622	689.75
1005.84	765.75
1006.058	651.75
1006.276	688.75
1006.494	1168.75
1006.712	670.75
1006.931	742.75
1007.149	645.75
1007.367	648.75
1007.584	672.75
1007.802	686.75
1008.02	647.75
1008.238	749.75
1008.456	714.75
1008.673	575.75
1008.891	684.75
1009.109	612.75
1009.326	637.75
1009.544	716.75
1009.761	599.75
1009.979	657.75
1010.196	630.75
1010.413	667.75
1010.631	660.75
1010.848	679.75
1011.065	665.75
1011.282	604.75
1011.5	562.75
1011.717	667.75
1011.934	613.75
1012.151	678.75
1012.368	641.75
1012.585	582.75
1012.801	639.75
1013.018	623.75
1013.235	579.75
1013.452	601.75
1013.669	589.75
1013.885	552.75
1014.102	596.75
1014.318	568.75
1014.535	530.75
1014.751	563.75
1014.968	563.75
1015.184	603.75
1015.401	521.75
1015.617	579.75
1015.833	538.75
1016.049	549.75
1016.266	541.75
1016.482	560.75
1016.698	492.75
1016.914	562.75
1017.13	507.75
1017.346	512.75
1017.562	577.75
1017.778	540.75
1017.993	493.75
1018.209	560.75
1018.425	526.75
1018.641	495.75
1018.856	476.75
1019.072	509.75
1019.288	547.75
1019.503	501.75
1019.719	435.75
1019.934	458.75
1020.149	551.75
1020.365	496.75
1020.58	468.75
1020.795	547.75
1021.011	476.75
1021.226	496.75
1021.441	550.75
1021.656	477.75
1021.871	442.75
1022.086	460.75
1022.301	480.75
1022.516	479.75
1022.731	526.75
1022.946	465.75
1023.16	474.75
1023.375	441.75
1023.59	448.75
1023.804	435.75
1024.019	549.75
1024.234	411.75
1024.448	467.75
1024.663	409.75
1024.877	448.75
1025.092	476.75
1025.306	494.75
1025.52	408.75
1025.734	505.75
1025.949	441.75
1026.163	420.75
1026.377	386.75
1026.591	439.75
1026.805	381.75
1027.019	381.75
1027.233	360.75
1027.447	316.75
1027.661	420.75
1027.875	360.75
1028.088	386.75
1028.302	326.75
1028.516	343.75
1028.73	357.75
1028.943	352.75
1029.157	330.75
1029.37	296.75
1029.584	-2.25
1029.797	-3.25
1030.011	-0.25
1030.224	-1.25
