Data from QEP037381__91__10-27-21-075.txt Node

Date: Fri Apr 21 10:27:21 EDT 2023
User: dcclab
Spectrometer: QEP03738
Trigger mode: 4
Integration Time (sec): 1.000000E1
Scans to average: 1
Electric dark correction enabled: true
Nonlinearity correction enabled: false
Boxcar width: 0
XAxis mode: Wavelengths
Number of Pixels in Spectrum: 1044
>>>>>Begin Spectral Data<<<<<
784.041	10.62
784.3	0.62
784.558	1.62
784.817	-6.38
785.075	218.62
785.334	209.62
785.592	200.62
785.851	189.62
786.109	224.62
786.368	246.62
786.626	254.62
786.884	278.62
787.143	243.62
787.401	202.62
787.659	273.62
787.917	251.62
788.175	293.62
788.433	272.62
788.691	270.62
788.949	293.62
789.207	304.62
789.465	260.62
789.723	268.62
789.98	244.62
790.238	318.62
790.496	301.62
790.753	298.62
791.011	351.62
791.268	318.62
791.526	297.62
791.783	324.62
792.041	326.62
792.298	249.62
792.556	317.62
792.813	310.62
793.07	295.62
793.327	292.62
793.584	383.62
793.841	279.62
794.099	336.62
794.356	379.62
794.613	291.62
794.869	332.62
795.126	285.62
795.383	280.62
795.64	301.62
795.897	267.62
796.153	325.62
796.41	313.62
796.667	294.62
796.923	306.62
797.18	301.62
797.436	330.62
797.693	282.62
797.949	347.62
798.206	359.62
798.462	269.62
798.718	331.62
798.974	308.62
799.231	326.62
799.487	325.62
799.743	327.62
799.999	346.62
800.255	329.62
800.511	299.62
800.767	332.62
801.023	316.62
801.279	317.62
801.534	324.62
801.79	336.62
802.046	303.62
802.302	360.62
802.557	336.62
802.813	342.62
803.068	283.62
803.324	349.62
803.579	301.62
803.835	303.62
804.09	348.62
804.345	292.62
804.601	273.62
804.856	304.62
805.111	326.62
805.366	311.62
805.621	316.62
805.876	327.62
806.131	332.62
806.386	302.62
806.641	278.62
806.896	307.62
807.151	369.62
807.406	317.62
807.661	335.62
807.915	308.62
808.17	322.62
808.425	322.62
808.679	284.62
808.934	375.62
809.188	308.62
809.443	340.62
809.697	367.62
809.951	298.62
810.206	282.62
810.46	348.62
810.714	335.62
810.968	360.62
811.223	270.62
811.477	310.62
811.731	346.62
811.985	256.62
812.239	239.62
812.493	284.62
812.747	305.62
813	271.62
813.254	322.62
813.508	340.62
813.762	292.62
814.015	279.62
814.269	302.62
814.522	325.62
814.776	332.62
815.03	324.62
815.283	331.62
815.536	335.62
815.79	323.62
816.043	334.62
816.296	326.62
816.55	310.62
816.803	305.62
817.056	399.62
817.309	336.62
817.562	335.62
817.815	363.62
818.068	280.62
818.321	275.62
818.574	280.62
818.827	318.62
819.079	294.62
819.332	410.62
819.585	325.62
819.838	384.62
820.09	298.62
820.343	366.62
820.595	282.62
820.848	340.62
821.1	347.62
821.353	329.62
821.605	306.62
821.857	380.62
822.11	280.62
822.362	299.62
822.614	273.62
822.866	309.62
823.118	254.62
823.37	373.62
823.622	304.62
823.874	318.62
824.126	348.62
824.378	282.62
824.63	317.62
824.882	320.62
825.134	310.62
825.385	342.62
825.637	328.62
825.888	287.62
826.14	323.62
826.392	300.62
826.643	277.62
826.895	383.62
827.146	313.62
827.397	306.62
827.649	398.62
827.9	303.62
828.151	282.62
828.402	281.62
828.653	319.62
828.905	327.62
829.156	375.62
829.407	284.62
829.658	326.62
829.909	350.62
830.159	348.62
830.41	347.62
830.661	355.62
830.912	324.62
831.162	317.62
831.413	311.62
831.664	353.62
831.914	327.62
832.165	321.62
832.415	339.62
832.666	322.62
832.916	347.62
833.167	306.62
833.417	379.62
833.667	351.62
833.917	336.62
834.168	384.62
834.418	352.62
834.668	324.62
834.918	285.62
835.168	311.62
835.418	258.62
835.668	332.62
835.918	349.62
836.167	347.62
836.417	302.62
836.667	358.62
836.917	379.62
837.166	324.62
837.416	353.62
837.666	368.62
837.915	322.62
838.165	345.62
838.414	309.62
838.663	275.62
838.913	339.62
839.162	293.62
839.411	396.62
839.661	308.62
839.91	334.62
840.159	300.62
840.408	320.62
840.657	318.62
840.906	322.62
841.155	357.62
841.404	319.62
841.653	333.62
841.902	292.62
842.15	344.62
842.399	339.62
842.648	320.62
842.897	352.62
843.145	283.62
843.394	303.62
843.642	310.62
843.891	352.62
844.139	333.62
844.388	300.62
844.636	263.62
844.884	317.62
845.133	309.62
845.381	325.62
845.629	355.62
845.877	295.62
846.125	313.62
846.373	331.62
846.621	288.62
846.869	352.62
847.117	327.62
847.365	316.62
847.613	339.62
847.861	354.62
848.108	384.62
848.356	345.62
848.604	311.62
848.851	334.62
849.099	330.62
849.346	321.62
849.594	339.62
849.841	353.62
850.089	317.62
850.336	290.62
850.583	318.62
850.831	307.62
851.078	328.62
851.325	295.62
851.572	358.62
851.819	354.62
852.066	344.62
852.313	322.62
852.56	292.62
852.807	293.62
853.054	293.62
853.301	313.62
853.548	310.62
853.794	396.62
854.041	339.62
854.288	288.62
854.534	390.62
854.781	316.62
855.028	302.62
855.274	394.62
855.52	335.62
855.767	289.62
856.013	352.62
856.26	634.62
856.506	311.62
856.752	359.62
856.998	326.62
857.244	314.62
857.49	333.62
857.736	354.62
857.982	333.62
858.228	355.62
858.474	302.62
858.72	327.62
858.966	340.62
859.212	357.62
859.458	339.62
859.703	344.62
859.949	308.62
860.195	362.62
860.44	349.62
860.686	312.62
860.931	386.62
861.177	318.62
861.422	373.62
861.667	319.62
861.913	328.62
862.158	334.62
862.403	375.62
862.648	357.62
862.893	388.62
863.138	336.62
863.384	316.62
863.629	363.62
863.873	336.62
864.118	332.62
864.363	278.62
864.608	331.62
864.853	370.62
865.098	349.62
865.342	364.62
865.587	334.62
865.832	384.62
866.076	354.62
866.321	317.62
866.565	316.62
866.81	265.62
867.054	327.62
867.298	351.62
867.543	300.62
867.787	351.62
868.031	337.62
868.275	334.62
868.519	330.62
868.764	338.62
869.008	328.62
869.252	369.62
869.496	344.62
869.739	332.62
869.983	379.62
870.227	354.62
870.471	307.62
870.715	352.62
870.958	355.62
871.202	316.62
871.446	329.62
871.689	319.62
871.933	327.62
872.176	332.62
872.42	335.62
872.663	312.62
872.906	377.62
873.15	321.62
873.393	282.62
873.636	385.62
873.879	361.62
874.122	401.62
874.366	342.62
874.609	377.62
874.852	323.62
875.095	358.62
875.337	329.62
875.58	278.62
875.823	347.62
876.066	380.62
876.309	402.62
876.551	316.62
876.794	297.62
877.037	372.62
877.279	301.62
877.522	313.62
877.764	354.62
878.007	313.62
878.249	355.62
878.491	315.62
878.734	376.62
878.976	352.62
879.218	295.62
879.46	390.62
879.702	387.62
879.945	373.62
880.187	343.62
880.429	378.62
880.671	373.62
880.912	387.62
881.154	367.62
881.396	286.62
881.638	354.62
881.88	346.62
882.121	325.62
882.363	333.62
882.605	398.62
882.846	365.62
883.088	375.62
883.329	328.62
883.571	301.62
883.812	314.62
884.053	322.62
884.295	326.62
884.536	388.62
884.777	320.62
885.018	346.62
885.259	364.62
885.5	293.62
885.742	505.62
885.982	361.62
886.223	308.62
886.464	327.62
886.705	303.62
886.946	347.62
887.187	283.62
887.428	380.62
887.668	322.62
887.909	305.62
888.15	307.62
888.39	365.62
888.631	409.62
888.871	373.62
889.111	362.62
889.352	350.62
889.592	333.62
889.833	342.62
890.073	345.62
890.313	418.62
890.553	312.62
890.793	350.62
891.033	323.62
891.273	331.62
891.513	350.62
891.753	420.62
891.993	342.62
892.233	366.62
892.473	419.62
892.713	371.62
892.952	314.62
893.192	357.62
893.432	314.62
893.671	369.62
893.911	335.62
894.15	353.62
894.39	294.62
894.629	342.62
894.869	367.62
895.108	355.62
895.347	331.62
895.587	367.62
895.826	344.62
896.065	319.62
896.304	370.62
896.543	391.62
896.782	294.62
897.021	350.62
897.26	340.62
897.499	409.62
897.738	397.62
897.977	348.62
898.216	353.62
898.454	358.62
898.693	341.62
898.932	368.62
899.17	358.62
899.409	350.62
899.647	346.62
899.886	337.62
900.124	367.62
900.363	321.62
900.601	358.62
900.839	363.62
901.078	362.62
901.316	355.62
901.554	345.62
901.792	350.62
902.03	297.62
902.268	331.62
902.506	380.62
902.744	328.62
902.982	371.62
903.22	318.62
903.458	336.62
903.695	370.62
903.933	388.62
904.171	333.62
904.409	337.62
904.646	393.62
904.884	344.62
905.121	414.62
905.359	393.62
905.596	387.62
905.833	344.62
906.071	347.62
906.308	397.62
906.545	371.62
906.783	317.62
907.02	342.62
907.257	309.62
907.494	341.62
907.731	361.62
907.968	374.62
908.205	340.62
908.442	338.62
908.679	348.62
908.915	365.62
909.152	384.62
909.389	309.62
909.626	331.62
909.862	337.62
910.099	356.62
910.335	406.62
910.572	307.62
910.808	354.62
911.045	354.62
911.281	324.62
911.518	415.62
911.754	347.62
911.99	360.62
912.226	343.62
912.463	314.62
912.699	340.62
912.935	361.62
913.171	348.62
913.407	319.62
913.643	392.62
913.879	358.62
914.114	370.62
914.35	343.62
914.586	363.62
914.822	341.62
915.057	439.62
915.293	318.62
915.529	325.62
915.764	396.62
916	385.62
916.235	379.62
916.471	385.62
916.706	318.62
916.941	354.62
917.177	356.62
917.412	391.62
917.647	387.62
917.882	331.62
918.117	401.62
918.352	371.62
918.588	417.62
918.823	365.62
919.057	370.62
919.292	293.62
919.527	428.62
919.762	357.62
919.997	426.62
920.232	378.62
920.466	421.62
920.701	302.62
920.935	380.62
921.17	354.62
921.405	332.62
921.639	407.62
921.873	361.62
922.108	398.62
922.342	390.62
922.576	338.62
922.811	357.62
923.045	408.62
923.279	424.62
923.513	307.62
923.747	402.62
923.981	398.62
924.215	360.62
924.449	376.62
924.683	330.62
924.917	348.62
925.151	370.62
925.385	445.62
925.618	389.62
925.852	394.62
926.086	327.62
926.319	375.62
926.553	373.62
926.786	401.62
927.02	370.62
927.253	408.62
927.486	412.62
927.72	339.62
927.953	398.62
928.186	363.62
928.42	403.62
928.653	349.62
928.886	348.62
929.119	390.62
929.352	380.62
929.585	396.62
929.818	347.62
930.051	407.62
930.284	418.62
930.516	342.62
930.749	363.62
930.982	427.62
931.215	403.62
931.447	349.62
931.68	371.62
931.912	363.62
932.145	364.62
932.377	377.62
932.61	507.62
932.842	313.62
933.074	378.62
933.307	346.62
933.539	426.62
933.771	424.62
934.003	368.62
934.236	438.62
934.468	452.62
934.7	371.62
934.932	419.62
935.164	358.62
935.395	348.62
935.627	382.62
935.859	403.62
936.091	330.62
936.323	399.62
936.554	427.62
936.786	401.62
937.017	338.62
937.249	408.62
937.481	331.62
937.712	408.62
937.943	385.62
938.175	387.62
938.406	372.62
938.637	454.62
938.869	340.62
939.1	402.62
939.331	355.62
939.562	404.62
939.793	391.62
940.024	428.62
940.255	454.62
940.486	384.62
940.717	400.62
940.948	384.62
941.179	355.62
941.409	387.62
941.64	359.62
941.871	389.62
942.102	371.62
942.332	381.62
942.563	405.62
942.793	386.62
943.024	330.62
943.254	372.62
943.484	428.62
943.715	428.62
943.945	409.62
944.175	343.62
944.405	322.62
944.636	338.62
944.866	378.62
945.096	400.62
945.326	333.62
945.556	394.62
945.786	428.62
946.016	394.62
946.245	341.62
946.475	359.62
946.705	379.62
946.935	402.62
947.164	391.62
947.394	380.62
947.624	377.62
947.853	434.62
948.083	406.62
948.312	404.62
948.542	338.62
948.771	341.62
949	357.62
949.23	363.62
949.459	371.62
949.688	447.62
949.917	390.62
950.146	397.62
950.375	452.62
950.604	349.62
950.833	461.62
951.062	443.62
951.291	390.62
951.52	369.62
951.749	379.62
951.978	368.62
952.206	372.62
952.435	360.62
952.664	420.62
952.892	432.62
953.121	401.62
953.349	438.62
953.578	430.62
953.806	405.62
954.035	365.62
954.263	410.62
954.491	381.62
954.719	421.62
954.948	395.62
955.176	377.62
955.404	330.62
955.632	405.62
955.86	412.62
956.088	400.62
956.316	427.62
956.544	457.62
956.772	408.62
956.999	401.62
957.227	503.62
957.455	408.62
957.683	424.62
957.91	388.62
958.138	394.62
958.365	395.62
958.593	417.62
958.82	353.62
959.048	447.62
959.275	415.62
959.502	410.62
959.73	382.62
959.957	439.62
960.184	450.62
960.411	400.62
960.638	464.62
960.865	418.62
961.092	436.62
961.319	369.62
961.546	464.62
961.773	463.62
962	414.62
962.227	469.62
962.454	433.62
962.68	424.62
962.907	434.62
963.134	415.62
963.36	439.62
963.587	475.62
963.813	402.62
964.04	469.62
964.266	422.62
964.493	525.62
964.719	481.62
964.945	492.62
965.171	404.62
965.398	481.62
965.624	495.62
965.85	414.62
966.076	439.62
966.302	484.62
966.528	435.62
966.754	486.62
966.98	472.62
967.206	476.62
967.431	416.62
967.657	509.62
967.883	477.62
968.109	470.62
968.334	434.62
968.56	422.62
968.785	453.62
969.011	417.62
969.236	485.62
969.462	424.62
969.687	449.62
969.912	488.62
970.138	518.62
970.363	432.62
970.588	469.62
970.813	460.62
971.038	425.62
971.263	460.62
971.488	477.62
971.713	518.62
971.938	509.62
972.163	417.62
972.388	455.62
972.613	450.62
972.838	448.62
973.062	457.62
973.287	451.62
973.512	413.62
973.736	462.62
973.961	451.62
974.185	438.62
974.41	487.62
974.634	398.62
974.858	421.62
975.083	475.62
975.307	491.62
975.531	447.62
975.755	395.62
975.98	433.62
976.204	383.62
976.428	398.62
976.652	406.62
976.876	388.62
977.1	445.62
977.324	413.62
977.547	457.62
977.771	466.62
977.995	445.62
978.219	395.62
978.442	504.62
978.666	447.62
978.89	448.62
979.113	461.62
979.337	439.62
979.56	404.62
979.783	514.62
980.007	408.62
980.23	441.62
980.453	425.62
980.677	446.62
980.9	449.62
981.123	364.62
981.346	470.62
981.569	466.62
981.792	485.62
982.015	454.62
982.238	418.62
982.461	453.62
982.684	427.62
982.907	429.62
983.129	425.62
983.352	479.62
983.575	474.62
983.797	471.62
984.02	436.62
984.242	448.62
984.465	454.62
984.687	500.62
984.91	513.62
985.132	506.62
985.354	523.62
985.577	472.62
985.799	494.62
986.021	417.62
986.243	450.62
986.465	463.62
986.687	515.62
986.909	561.62
987.131	498.62
987.353	450.62
987.575	517.62
987.797	463.62
988.019	430.62
988.241	495.62
988.462	453.62
988.684	504.62
988.906	535.62
989.127	571.62
989.349	443.62
989.57	495.62
989.792	529.62
990.013	540.62
990.234	554.62
990.456	567.62
990.677	553.62
990.898	497.62
991.119	514.62
991.341	541.62
991.562	483.62
991.783	543.62
992.004	475.62
992.225	458.62
992.446	528.62
992.667	452.62
992.887	536.62
993.108	436.62
993.329	584.62
993.55	530.62
993.77	472.62
993.991	502.62
994.212	543.62
994.432	529.62
994.653	561.62
994.873	545.62
995.093	443.62
995.314	476.62
995.534	567.62
995.754	589.62
995.975	590.62
996.195	503.62
996.415	558.62
996.635	520.62
996.855	536.62
997.075	519.62
997.295	528.62
997.515	507.62
997.735	573.62
997.955	541.62
998.174	535.62
998.394	505.62
998.614	552.62
998.834	521.62
999.053	586.62
999.273	548.62
999.492	636.62
999.712	579.62
999.931	522.62
1000.151	591.62
1000.37	569.62
1000.589	636.62
1000.809	569.62
1001.028	699.62
1001.247	635.62
1001.466	531.62
1001.685	684.62
1001.904	624.62
1002.123	628.62
1002.342	629.62
1002.561	592.62
1002.78	620.62
1002.999	697.62
1003.218	641.62
1003.436	623.62
1003.655	669.62
1003.874	605.62
1004.092	661.62
1004.311	709.62
1004.53	652.62
1004.748	719.62
1004.966	669.62
1005.185	695.62
1005.403	714.62
1005.622	699.62
1005.84	745.62
1006.058	657.62
1006.276	687.62
1006.494	1152.62
1006.712	675.62
1006.931	738.62
1007.149	632.62
1007.367	655.62
1007.584	672.62
1007.802	706.62
1008.02	640.62
1008.238	739.62
1008.456	730.62
1008.673	580.62
1008.891	687.62
1009.109	630.62
1009.326	652.62
1009.544	731.62
1009.761	586.62
1009.979	669.62
1010.196	621.62
1010.413	660.62
1010.631	666.62
1010.848	677.62
1011.065	644.62
1011.282	612.62
1011.5	564.62
1011.717	666.62
1011.934	634.62
1012.151	655.62
1012.368	640.62
1012.585	576.62
1012.801	657.62
1013.018	611.62
1013.235	567.62
1013.452	587.62
1013.669	608.62
1013.885	574.62
1014.102	600.62
1014.318	546.62
1014.535	531.62
1014.751	574.62
1014.968	579.62
1015.184	607.62
1015.401	527.62
1015.617	580.62
1015.833	519.62
1016.049	555.62
1016.266	533.62
1016.482	544.62
1016.698	505.62
1016.914	566.62
1017.13	506.62
1017.346	502.62
1017.562	585.62
1017.778	520.62
1017.993	489.62
1018.209	541.62
1018.425	526.62
1018.641	494.62
1018.856	472.62
1019.072	515.62
1019.288	544.62
1019.503	503.62
1019.719	435.62
1019.934	462.62
1020.149	560.62
1020.365	496.62
1020.58	465.62
1020.795	549.62
1021.011	489.62
1021.226	491.62
1021.441	539.62
1021.656	486.62
1021.871	444.62
1022.086	452.62
1022.301	472.62
1022.516	478.62
1022.731	516.62
1022.946	478.62
1023.16	478.62
1023.375	439.62
1023.59	447.62
1023.804	429.62
1024.019	526.62
1024.234	418.62
1024.448	470.62
1024.663	424.62
1024.877	441.62
1025.092	470.62
1025.306	500.62
1025.52	409.62
1025.734	511.62
1025.949	443.62
1026.163	426.62
1026.377	385.62
1026.591	450.62
1026.805	382.62
1027.019	380.62
1027.233	371.62
1027.447	322.62
1027.661	417.62
1027.875	359.62
1028.088	400.62
1028.302	335.62
1028.516	343.62
1028.73	349.62
1028.943	341.62
1029.157	314.62
1029.37	297.62
1029.584	-2.38
1029.797	-0.38
1030.011	-0.38
1030.224	-3.38
