Data from QEP037381__36__10-18-11-063.txt Node

Date: Fri Apr 21 10:18:11 EDT 2023
User: dcclab
Spectrometer: QEP03738
Trigger mode: 4
Integration Time (sec): 1.000000E1
Scans to average: 1
Electric dark correction enabled: true
Nonlinearity correction enabled: false
Boxcar width: 0
XAxis mode: Wavelengths
Number of Pixels in Spectrum: 1044
>>>>>Begin Spectral Data<<<<<
784.041	12.75
784.3	0.75
784.558	-4.25
784.817	-2.25
785.075	241.75
785.334	209.75
785.592	206.75
785.851	196.75
786.109	234.75
786.368	253.75
786.626	246.75
786.884	279.75
787.143	259.75
787.401	218.75
787.659	273.75
787.917	244.75
788.175	304.75
788.433	268.75
788.691	272.75
788.949	269.75
789.207	305.75
789.465	252.75
789.723	269.75
789.98	251.75
790.238	316.75
790.496	298.75
790.753	290.75
791.011	367.75
791.268	308.75
791.526	306.75
791.783	330.75
792.041	316.75
792.298	257.75
792.556	304.75
792.813	314.75
793.07	305.75
793.327	287.75
793.584	377.75
793.841	298.75
794.099	322.75
794.356	389.75
794.613	282.75
794.869	331.75
795.126	297.75
795.383	300.75
795.64	311.75
795.897	271.75
796.153	325.75
796.41	308.75
796.667	292.75
796.923	302.75
797.18	290.75
797.436	332.75
797.693	280.75
797.949	333.75
798.206	371.75
798.462	273.75
798.718	333.75
798.974	300.75
799.231	324.75
799.487	332.75
799.743	315.75
799.999	337.75
800.255	335.75
800.511	311.75
800.767	331.75
801.023	302.75
801.279	326.75
801.534	324.75
801.79	333.75
802.046	312.75
802.302	358.75
802.557	329.75
802.813	354.75
803.068	294.75
803.324	341.75
803.579	306.75
803.835	296.75
804.09	355.75
804.345	297.75
804.601	260.75
804.856	305.75
805.111	325.75
805.366	306.75
805.621	311.75
805.876	340.75
806.131	322.75
806.386	304.75
806.641	271.75
806.896	300.75
807.151	359.75
807.406	312.75
807.661	335.75
807.915	315.75
808.17	331.75
808.425	336.75
808.679	281.75
808.934	377.75
809.188	297.75
809.443	332.75
809.697	357.75
809.951	298.75
810.206	300.75
810.46	351.75
810.714	333.75
810.968	359.75
811.223	281.75
811.477	316.75
811.731	339.75
811.985	270.75
812.239	251.75
812.493	279.75
812.747	316.75
813	266.75
813.254	326.75
813.508	339.75
813.762	298.75
814.015	290.75
814.269	316.75
814.522	338.75
814.776	327.75
815.03	330.75
815.283	324.75
815.536	334.75
815.79	346.75
816.043	329.75
816.296	335.75
816.55	325.75
816.803	302.75
817.056	401.75
817.309	328.75
817.562	324.75
817.815	358.75
818.068	279.75
818.321	282.75
818.574	278.75
818.827	336.75
819.079	276.75
819.332	406.75
819.585	339.75
819.838	392.75
820.09	312.75
820.343	361.75
820.595	286.75
820.848	326.75
821.1	342.75
821.353	326.75
821.605	318.75
821.857	389.75
822.11	278.75
822.362	307.75
822.614	284.75
822.866	333.75
823.118	268.75
823.37	377.75
823.622	315.75
823.874	313.75
824.126	359.75
824.378	287.75
824.63	310.75
824.882	324.75
825.134	310.75
825.385	347.75
825.637	327.75
825.888	311.75
826.14	327.75
826.392	304.75
826.643	289.75
826.895	380.75
827.146	312.75
827.397	304.75
827.649	375.75
827.9	306.75
828.151	276.75
828.402	283.75
828.653	329.75
828.905	336.75
829.156	370.75
829.407	292.75
829.658	316.75
829.909	360.75
830.159	337.75
830.41	348.75
830.661	365.75
830.912	337.75
831.162	323.75
831.413	310.75
831.664	350.75
831.914	320.75
832.165	325.75
832.415	334.75
832.666	348.75
832.916	359.75
833.167	317.75
833.417	389.75
833.667	349.75
833.917	346.75
834.168	383.75
834.418	360.75
834.668	323.75
834.918	285.75
835.168	314.75
835.418	272.75
835.668	310.75
835.918	364.75
836.167	346.75
836.417	302.75
836.667	368.75
836.917	383.75
837.166	324.75
837.416	367.75
837.666	362.75
837.915	321.75
838.165	334.75
838.414	293.75
838.663	275.75
838.913	349.75
839.162	295.75
839.411	390.75
839.661	312.75
839.91	328.75
840.159	319.75
840.408	342.75
840.657	334.75
840.906	341.75
841.155	364.75
841.404	333.75
841.653	346.75
841.902	303.75
842.15	336.75
842.399	342.75
842.648	314.75
842.897	356.75
843.145	281.75
843.394	310.75
843.642	309.75
843.891	361.75
844.139	328.75
844.388	291.75
844.636	270.75
844.884	323.75
845.133	287.75
845.381	320.75
845.629	356.75
845.877	293.75
846.125	303.75
846.373	350.75
846.621	291.75
846.869	352.75
847.117	335.75
847.365	325.75
847.613	345.75
847.861	353.75
848.108	375.75
848.356	343.75
848.604	315.75
848.851	341.75
849.099	339.75
849.346	314.75
849.594	337.75
849.841	365.75
850.089	311.75
850.336	299.75
850.583	302.75
850.831	331.75
851.078	334.75
851.325	298.75
851.572	355.75
851.819	360.75
852.066	336.75
852.313	319.75
852.56	298.75
852.807	291.75
853.054	302.75
853.301	317.75
853.548	302.75
853.794	382.75
854.041	336.75
854.288	288.75
854.534	379.75
854.781	313.75
855.028	293.75
855.274	389.75
855.52	331.75
855.767	304.75
856.013	355.75
856.26	639.75
856.506	320.75
856.752	352.75
856.998	341.75
857.244	296.75
857.49	342.75
857.736	344.75
857.982	347.75
858.228	355.75
858.474	294.75
858.72	334.75
858.966	336.75
859.212	353.75
859.458	337.75
859.703	346.75
859.949	301.75
860.195	364.75
860.44	363.75
860.686	299.75
860.931	390.75
861.177	310.75
861.422	380.75
861.667	327.75
861.913	341.75
862.158	323.75
862.403	372.75
862.648	357.75
862.893	383.75
863.138	344.75
863.384	314.75
863.629	360.75
863.873	340.75
864.118	331.75
864.363	273.75
864.608	340.75
864.853	359.75
865.098	344.75
865.342	350.75
865.587	319.75
865.832	368.75
866.076	364.75
866.321	326.75
866.565	337.75
866.81	270.75
867.054	340.75
867.298	354.75
867.543	324.75
867.787	364.75
868.031	341.75
868.275	340.75
868.519	328.75
868.764	340.75
869.008	321.75
869.252	380.75
869.496	335.75
869.739	344.75
869.983	385.75
870.227	359.75
870.471	306.75
870.715	365.75
870.958	356.75
871.202	316.75
871.446	316.75
871.689	302.75
871.933	340.75
872.176	337.75
872.42	325.75
872.663	327.75
872.906	394.75
873.15	335.75
873.393	284.75
873.636	381.75
873.879	373.75
874.122	406.75
874.366	329.75
874.609	383.75
874.852	347.75
875.095	345.75
875.337	320.75
875.58	285.75
875.823	341.75
876.066	382.75
876.309	412.75
876.551	318.75
876.794	297.75
877.037	371.75
877.279	293.75
877.522	329.75
877.764	363.75
878.007	322.75
878.249	353.75
878.491	322.75
878.734	368.75
878.976	356.75
879.218	310.75
879.46	389.75
879.702	383.75
879.945	362.75
880.187	341.75
880.429	368.75
880.671	369.75
880.912	375.75
881.154	361.75
881.396	286.75
881.638	368.75
881.88	352.75
882.121	313.75
882.363	337.75
882.605	394.75
882.846	372.75
883.088	374.75
883.329	338.75
883.571	292.75
883.812	311.75
884.053	319.75
884.295	330.75
884.536	400.75
884.777	325.75
885.018	344.75
885.259	356.75
885.5	292.75
885.742	509.75
885.982	360.75
886.223	321.75
886.464	332.75
886.705	300.75
886.946	346.75
887.187	281.75
887.428	381.75
887.668	312.75
887.909	311.75
888.15	308.75
888.39	356.75
888.631	411.75
888.871	369.75
889.111	363.75
889.352	352.75
889.592	334.75
889.833	362.75
890.073	364.75
890.313	404.75
890.553	306.75
890.793	353.75
891.033	330.75
891.273	327.75
891.513	352.75
891.753	408.75
891.993	359.75
892.233	375.75
892.473	418.75
892.713	368.75
892.952	313.75
893.192	363.75
893.432	328.75
893.671	367.75
893.911	338.75
894.15	358.75
894.39	289.75
894.629	331.75
894.869	363.75
895.108	343.75
895.347	328.75
895.587	370.75
895.826	327.75
896.065	311.75
896.304	362.75
896.543	390.75
896.782	311.75
897.021	353.75
897.26	340.75
897.499	406.75
897.738	413.75
897.977	361.75
898.216	355.75
898.454	362.75
898.693	332.75
898.932	368.75
899.17	352.75
899.409	358.75
899.647	350.75
899.886	326.75
900.124	383.75
900.363	328.75
900.601	372.75
900.839	351.75
901.078	362.75
901.316	360.75
901.554	350.75
901.792	364.75
902.03	312.75
902.268	341.75
902.506	380.75
902.744	346.75
902.982	373.75
903.22	323.75
903.458	347.75
903.695	379.75
903.933	374.75
904.171	333.75
904.409	340.75
904.646	392.75
904.884	339.75
905.121	406.75
905.359	378.75
905.596	377.75
905.833	337.75
906.071	346.75
906.308	407.75
906.545	374.75
906.783	320.75
907.02	345.75
907.257	308.75
907.494	338.75
907.731	366.75
907.968	384.75
908.205	349.75
908.442	332.75
908.679	364.75
908.915	357.75
909.152	370.75
909.389	308.75
909.626	352.75
909.862	325.75
910.099	355.75
910.335	407.75
910.572	306.75
910.808	382.75
911.045	345.75
911.281	343.75
911.518	413.75
911.754	349.75
911.99	374.75
912.226	347.75
912.463	318.75
912.699	343.75
912.935	350.75
913.171	349.75
913.407	319.75
913.643	396.75
913.879	362.75
914.114	364.75
914.35	346.75
914.586	349.75
914.822	333.75
915.057	447.75
915.293	325.75
915.529	319.75
915.764	391.75
916	395.75
916.235	373.75
916.471	401.75
916.706	317.75
916.941	356.75
917.177	344.75
917.412	398.75
917.647	390.75
917.882	330.75
918.117	402.75
918.352	377.75
918.588	433.75
918.823	356.75
919.057	376.75
919.292	298.75
919.527	422.75
919.762	357.75
919.997	435.75
920.232	368.75
920.466	422.75
920.701	321.75
920.935	388.75
921.17	368.75
921.405	335.75
921.639	417.75
921.873	355.75
922.108	410.75
922.342	409.75
922.576	334.75
922.811	354.75
923.045	421.75
923.279	423.75
923.513	312.75
923.747	413.75
923.981	392.75
924.215	359.75
924.449	371.75
924.683	335.75
924.917	359.75
925.151	371.75
925.385	440.75
925.618	398.75
925.852	394.75
926.086	338.75
926.319	387.75
926.553	379.75
926.786	395.75
927.02	386.75
927.253	420.75
927.486	417.75
927.72	342.75
927.953	396.75
928.186	361.75
928.42	396.75
928.653	352.75
928.886	348.75
929.119	399.75
929.352	380.75
929.585	402.75
929.818	363.75
930.051	395.75
930.284	401.75
930.516	319.75
930.749	351.75
930.982	417.75
931.215	400.75
931.447	353.75
931.68	369.75
931.912	354.75
932.145	366.75
932.377	382.75
932.61	503.75
932.842	325.75
933.074	388.75
933.307	337.75
933.539	435.75
933.771	421.75
934.003	378.75
934.236	433.75
934.468	464.75
934.7	380.75
934.932	415.75
935.164	363.75
935.395	348.75
935.627	390.75
935.859	392.75
936.091	341.75
936.323	409.75
936.554	442.75
936.786	387.75
937.017	346.75
937.249	407.75
937.481	331.75
937.712	398.75
937.943	394.75
938.175	369.75
938.406	381.75
938.637	430.75
938.869	340.75
939.1	409.75
939.331	364.75
939.562	412.75
939.793	401.75
940.024	431.75
940.255	444.75
940.486	397.75
940.717	400.75
940.948	394.75
941.179	358.75
941.409	392.75
941.64	377.75
941.871	387.75
942.102	356.75
942.332	383.75
942.563	413.75
942.793	389.75
943.024	334.75
943.254	385.75
943.484	422.75
943.715	420.75
943.945	400.75
944.175	324.75
944.405	320.75
944.636	337.75
944.866	387.75
945.096	400.75
945.326	341.75
945.556	407.75
945.786	413.75
946.016	389.75
946.245	348.75
946.475	365.75
946.705	383.75
946.935	392.75
947.164	401.75
947.394	367.75
947.624	395.75
947.853	426.75
948.083	417.75
948.312	377.75
948.542	333.75
948.771	334.75
949	368.75
949.23	371.75
949.459	380.75
949.688	440.75
949.917	378.75
950.146	412.75
950.375	461.75
950.604	353.75
950.833	452.75
951.062	442.75
951.291	396.75
951.52	367.75
951.749	398.75
951.978	360.75
952.206	374.75
952.435	372.75
952.664	414.75
952.892	437.75
953.121	409.75
953.349	451.75
953.578	437.75
953.806	427.75
954.035	367.75
954.263	420.75
954.491	359.75
954.719	424.75
954.948	372.75
955.176	385.75
955.404	338.75
955.632	403.75
955.86	424.75
956.088	408.75
956.316	445.75
956.544	467.75
956.772	418.75
956.999	396.75
957.227	490.75
957.455	404.75
957.683	426.75
957.91	406.75
958.138	397.75
958.365	416.75
958.593	396.75
958.82	359.75
959.048	445.75
959.275	407.75
959.502	410.75
959.73	376.75
959.957	421.75
960.184	448.75
960.411	395.75
960.638	472.75
960.865	421.75
961.092	449.75
961.319	360.75
961.546	462.75
961.773	470.75
962	422.75
962.227	469.75
962.454	432.75
962.68	436.75
962.907	453.75
963.134	393.75
963.36	444.75
963.587	474.75
963.813	417.75
964.04	472.75
964.266	410.75
964.493	507.75
964.719	489.75
964.945	500.75
965.171	409.75
965.398	465.75
965.624	492.75
965.85	425.75
966.076	443.75
966.302	492.75
966.528	435.75
966.754	477.75
966.98	479.75
967.206	483.75
967.431	416.75
967.657	504.75
967.883	500.75
968.109	474.75
968.334	430.75
968.56	429.75
968.785	452.75
969.011	415.75
969.236	487.75
969.462	425.75
969.687	452.75
969.912	497.75
970.138	525.75
970.363	424.75
970.588	492.75
970.813	447.75
971.038	432.75
971.263	486.75
971.488	490.75
971.713	514.75
971.938	500.75
972.163	419.75
972.388	449.75
972.613	441.75
972.838	465.75
973.062	442.75
973.287	465.75
973.512	412.75
973.736	456.75
973.961	452.75
974.185	442.75
974.41	476.75
974.634	402.75
974.858	409.75
975.083	481.75
975.307	493.75
975.531	437.75
975.755	402.75
975.98	437.75
976.204	384.75
976.428	395.75
976.652	402.75
976.876	392.75
977.1	443.75
977.324	403.75
977.547	446.75
977.771	472.75
977.995	448.75
978.219	387.75
978.442	508.75
978.666	444.75
978.89	446.75
979.113	453.75
979.337	433.75
979.56	426.75
979.783	515.75
980.007	404.75
980.23	445.75
980.453	406.75
980.677	458.75
980.9	431.75
981.123	370.75
981.346	478.75
981.569	471.75
981.792	487.75
982.015	460.75
982.238	428.75
982.461	464.75
982.684	438.75
982.907	424.75
983.129	424.75
983.352	475.75
983.575	465.75
983.797	483.75
984.02	442.75
984.242	446.75
984.465	458.75
984.687	493.75
984.91	510.75
985.132	492.75
985.354	520.75
985.577	483.75
985.799	489.75
986.021	425.75
986.243	456.75
986.465	467.75
986.687	525.75
986.909	553.75
987.131	495.75
987.353	490.75
987.575	502.75
987.797	471.75
988.019	415.75
988.241	474.75
988.462	446.75
988.684	506.75
988.906	563.75
989.127	565.75
989.349	439.75
989.57	487.75
989.792	537.75
990.013	541.75
990.234	554.75
990.456	568.75
990.677	556.75
990.898	510.75
991.119	511.75
991.341	538.75
991.562	481.75
991.783	536.75
992.004	471.75
992.225	451.75
992.446	530.75
992.667	451.75
992.887	537.75
993.108	438.75
993.329	579.75
993.55	540.75
993.77	488.75
993.991	497.75
994.212	539.75
994.432	525.75
994.653	549.75
994.873	542.75
995.093	445.75
995.314	499.75
995.534	570.75
995.754	578.75
995.975	611.75
996.195	506.75
996.415	553.75
996.635	536.75
996.855	554.75
997.075	515.75
997.295	534.75
997.515	494.75
997.735	567.75
997.955	534.75
998.174	525.75
998.394	513.75
998.614	563.75
998.834	525.75
999.053	592.75
999.273	565.75
999.492	634.75
999.712	566.75
999.931	526.75
1000.151	579.75
1000.37	585.75
1000.589	644.75
1000.809	561.75
1001.028	701.75
1001.247	617.75
1001.466	540.75
1001.685	699.75
1001.904	636.75
1002.123	624.75
1002.342	644.75
1002.561	597.75
1002.78	631.75
1002.999	695.75
1003.218	647.75
1003.436	632.75
1003.655	666.75
1003.874	625.75
1004.092	664.75
1004.311	709.75
1004.53	656.75
1004.748	729.75
1004.966	657.75
1005.185	727.75
1005.403	696.75
1005.622	686.75
1005.84	745.75
1006.058	663.75
1006.276	690.75
1006.494	1177.75
1006.712	687.75
1006.931	738.75
1007.149	648.75
1007.367	656.75
1007.584	677.75
1007.802	702.75
1008.02	635.75
1008.238	743.75
1008.456	725.75
1008.673	571.75
1008.891	680.75
1009.109	638.75
1009.326	643.75
1009.544	741.75
1009.761	601.75
1009.979	663.75
1010.196	636.75
1010.413	662.75
1010.631	670.75
1010.848	670.75
1011.065	651.75
1011.282	620.75
1011.5	558.75
1011.717	683.75
1011.934	620.75
1012.151	679.75
1012.368	659.75
1012.585	591.75
1012.801	642.75
1013.018	606.75
1013.235	572.75
1013.452	586.75
1013.669	590.75
1013.885	575.75
1014.102	599.75
1014.318	564.75
1014.535	526.75
1014.751	571.75
1014.968	569.75
1015.184	587.75
1015.401	517.75
1015.617	562.75
1015.833	527.75
1016.049	554.75
1016.266	531.75
1016.482	569.75
1016.698	493.75
1016.914	566.75
1017.13	507.75
1017.346	517.75
1017.562	582.75
1017.778	504.75
1017.993	489.75
1018.209	552.75
1018.425	539.75
1018.641	487.75
1018.856	466.75
1019.072	524.75
1019.288	536.75
1019.503	502.75
1019.719	418.75
1019.934	461.75
1020.149	559.75
1020.365	497.75
1020.58	468.75
1020.795	549.75
1021.011	488.75
1021.226	505.75
1021.441	547.75
1021.656	503.75
1021.871	443.75
1022.086	463.75
1022.301	465.75
1022.516	480.75
1022.731	523.75
1022.946	474.75
1023.16	483.75
1023.375	436.75
1023.59	445.75
1023.804	416.75
1024.019	557.75
1024.234	430.75
1024.448	471.75
1024.663	422.75
1024.877	447.75
1025.092	466.75
1025.306	510.75
1025.52	410.75
1025.734	506.75
1025.949	452.75
1026.163	439.75
1026.377	379.75
1026.591	444.75
1026.805	390.75
1027.019	388.75
1027.233	351.75
1027.447	321.75
1027.661	426.75
1027.875	364.75
1028.088	390.75
1028.302	318.75
1028.516	332.75
1028.73	352.75
1028.943	361.75
1029.157	319.75
1029.37	300.75
1029.584	-1.25
1029.797	-4.25
1030.011	1.75
1030.224	-3.25
