Data from QEP037381__78__10-25-11-071.txt Node

Date: Fri Apr 21 10:25:11 EDT 2023
User: dcclab
Spectrometer: QEP03738
Trigger mode: 4
Integration Time (sec): 1.000000E1
Scans to average: 1
Electric dark correction enabled: true
Nonlinearity correction enabled: false
Boxcar width: 0
XAxis mode: Wavelengths
Number of Pixels in Spectrum: 1044
>>>>>Begin Spectral Data<<<<<
784.041	13.75
784.3	1.75
784.558	-1.25
784.817	-4.25
785.075	227.75
785.334	204.75
785.592	199.75
785.851	197.75
786.109	220.75
786.368	240.75
786.626	249.75
786.884	271.75
787.143	275.75
787.401	211.75
787.659	274.75
787.917	249.75
788.175	296.75
788.433	281.75
788.691	275.75
788.949	286.75
789.207	299.75
789.465	254.75
789.723	274.75
789.98	253.75
790.238	314.75
790.496	286.75
790.753	291.75
791.011	347.75
791.268	305.75
791.526	299.75
791.783	334.75
792.041	318.75
792.298	243.75
792.556	326.75
792.813	316.75
793.07	299.75
793.327	287.75
793.584	374.75
793.841	304.75
794.099	316.75
794.356	381.75
794.613	289.75
794.869	319.75
795.126	288.75
795.383	287.75
795.64	308.75
795.897	265.75
796.153	327.75
796.41	307.75
796.667	284.75
796.923	292.75
797.18	302.75
797.436	334.75
797.693	288.75
797.949	343.75
798.206	352.75
798.462	275.75
798.718	337.75
798.974	311.75
799.231	342.75
799.487	318.75
799.743	323.75
799.999	363.75
800.255	330.75
800.511	307.75
800.767	332.75
801.023	309.75
801.279	318.75
801.534	325.75
801.79	336.75
802.046	308.75
802.302	359.75
802.557	334.75
802.813	338.75
803.068	280.75
803.324	338.75
803.579	315.75
803.835	306.75
804.09	350.75
804.345	295.75
804.601	272.75
804.856	305.75
805.111	323.75
805.366	301.75
805.621	316.75
805.876	333.75
806.131	318.75
806.386	308.75
806.641	285.75
806.896	301.75
807.151	374.75
807.406	316.75
807.661	329.75
807.915	310.75
808.17	333.75
808.425	321.75
808.679	282.75
808.934	368.75
809.188	309.75
809.443	328.75
809.697	366.75
809.951	299.75
810.206	295.75
810.46	344.75
810.714	341.75
810.968	352.75
811.223	278.75
811.477	312.75
811.731	335.75
811.985	262.75
812.239	240.75
812.493	280.75
812.747	312.75
813	264.75
813.254	341.75
813.508	339.75
813.762	299.75
814.015	297.75
814.269	317.75
814.522	342.75
814.776	338.75
815.03	330.75
815.283	321.75
815.536	333.75
815.79	343.75
816.043	332.75
816.296	317.75
816.55	316.75
816.803	319.75
817.056	398.75
817.309	325.75
817.562	324.75
817.815	369.75
818.068	278.75
818.321	298.75
818.574	285.75
818.827	346.75
819.079	300.75
819.332	414.75
819.585	334.75
819.838	385.75
820.09	309.75
820.343	358.75
820.595	287.75
820.848	340.75
821.1	340.75
821.353	332.75
821.605	320.75
821.857	381.75
822.11	272.75
822.362	303.75
822.614	279.75
822.866	322.75
823.118	275.75
823.37	371.75
823.622	321.75
823.874	311.75
824.126	349.75
824.378	282.75
824.63	317.75
824.882	331.75
825.134	297.75
825.385	344.75
825.637	315.75
825.888	307.75
826.14	325.75
826.392	297.75
826.643	282.75
826.895	370.75
827.146	312.75
827.397	312.75
827.649	392.75
827.9	294.75
828.151	281.75
828.402	281.75
828.653	313.75
828.905	326.75
829.156	375.75
829.407	280.75
829.658	324.75
829.909	350.75
830.159	344.75
830.41	343.75
830.661	352.75
830.912	333.75
831.162	313.75
831.413	314.75
831.664	331.75
831.914	323.75
832.165	328.75
832.415	331.75
832.666	350.75
832.916	357.75
833.167	302.75
833.417	382.75
833.667	344.75
833.917	332.75
834.168	379.75
834.418	347.75
834.668	315.75
834.918	279.75
835.168	309.75
835.418	266.75
835.668	317.75
835.918	349.75
836.167	346.75
836.417	285.75
836.667	350.75
836.917	358.75
837.166	326.75
837.416	355.75
837.666	363.75
837.915	313.75
838.165	344.75
838.414	292.75
838.663	265.75
838.913	329.75
839.162	299.75
839.411	380.75
839.661	320.75
839.91	327.75
840.159	316.75
840.408	337.75
840.657	319.75
840.906	341.75
841.155	350.75
841.404	324.75
841.653	345.75
841.902	295.75
842.15	341.75
842.399	349.75
842.648	325.75
842.897	346.75
843.145	280.75
843.394	301.75
843.642	314.75
843.891	362.75
844.139	335.75
844.388	289.75
844.636	270.75
844.884	319.75
845.133	302.75
845.381	320.75
845.629	352.75
845.877	297.75
846.125	306.75
846.373	340.75
846.621	297.75
846.869	343.75
847.117	324.75
847.365	324.75
847.613	342.75
847.861	352.75
848.108	380.75
848.356	343.75
848.604	306.75
848.851	340.75
849.099	326.75
849.346	311.75
849.594	347.75
849.841	368.75
850.089	316.75
850.336	283.75
850.583	310.75
850.831	325.75
851.078	333.75
851.325	294.75
851.572	351.75
851.819	357.75
852.066	333.75
852.313	326.75
852.56	286.75
852.807	286.75
853.054	291.75
853.301	314.75
853.548	298.75
853.794	403.75
854.041	321.75
854.288	282.75
854.534	400.75
854.781	306.75
855.028	304.75
855.274	389.75
855.52	323.75
855.767	294.75
856.013	344.75
856.26	630.75
856.506	311.75
856.752	353.75
856.998	328.75
857.244	304.75
857.49	344.75
857.736	335.75
857.982	342.75
858.228	345.75
858.474	302.75
858.72	341.75
858.966	348.75
859.212	348.75
859.458	352.75
859.703	340.75
859.949	317.75
860.195	366.75
860.44	351.75
860.686	320.75
860.931	381.75
861.177	309.75
861.422	387.75
861.667	320.75
861.913	340.75
862.158	335.75
862.403	388.75
862.648	340.75
862.893	385.75
863.138	327.75
863.384	317.75
863.629	356.75
863.873	363.75
864.118	332.75
864.363	280.75
864.608	341.75
864.853	369.75
865.098	325.75
865.342	356.75
865.587	332.75
865.832	367.75
866.076	344.75
866.321	325.75
866.565	326.75
866.81	272.75
867.054	334.75
867.298	353.75
867.543	318.75
867.787	373.75
868.031	336.75
868.275	335.75
868.519	323.75
868.764	336.75
869.008	321.75
869.252	375.75
869.496	340.75
869.739	335.75
869.983	383.75
870.227	352.75
870.471	312.75
870.715	349.75
870.958	359.75
871.202	314.75
871.446	332.75
871.689	295.75
871.933	337.75
872.176	338.75
872.42	320.75
872.663	326.75
872.906	376.75
873.15	340.75
873.393	283.75
873.636	380.75
873.879	371.75
874.122	392.75
874.366	342.75
874.609	364.75
874.852	337.75
875.095	348.75
875.337	324.75
875.58	263.75
875.823	352.75
876.066	382.75
876.309	405.75
876.551	308.75
876.794	297.75
877.037	378.75
877.279	295.75
877.522	324.75
877.764	356.75
878.007	325.75
878.249	342.75
878.491	301.75
878.734	374.75
878.976	351.75
879.218	299.75
879.46	391.75
879.702	376.75
879.945	362.75
880.187	329.75
880.429	375.75
880.671	367.75
880.912	385.75
881.154	370.75
881.396	278.75
881.638	347.75
881.88	354.75
882.121	323.75
882.363	332.75
882.605	393.75
882.846	367.75
883.088	374.75
883.329	334.75
883.571	291.75
883.812	317.75
884.053	320.75
884.295	314.75
884.536	394.75
884.777	311.75
885.018	344.75
885.259	366.75
885.5	291.75
885.742	508.75
885.982	366.75
886.223	305.75
886.464	328.75
886.705	299.75
886.946	341.75
887.187	284.75
887.428	388.75
887.668	329.75
887.909	309.75
888.15	298.75
888.39	362.75
888.631	405.75
888.871	380.75
889.111	354.75
889.352	368.75
889.592	322.75
889.833	334.75
890.073	353.75
890.313	415.75
890.553	321.75
890.793	355.75
891.033	318.75
891.273	321.75
891.513	343.75
891.753	406.75
891.993	355.75
892.233	373.75
892.473	426.75
892.713	372.75
892.952	323.75
893.192	345.75
893.432	312.75
893.671	375.75
893.911	357.75
894.15	346.75
894.39	296.75
894.629	342.75
894.869	368.75
895.108	354.75
895.347	322.75
895.587	377.75
895.826	337.75
896.065	309.75
896.304	368.75
896.543	400.75
896.782	301.75
897.021	362.75
897.26	348.75
897.499	398.75
897.738	409.75
897.977	354.75
898.216	342.75
898.454	350.75
898.693	326.75
898.932	378.75
899.17	350.75
899.409	363.75
899.647	343.75
899.886	337.75
900.124	367.75
900.363	325.75
900.601	350.75
900.839	359.75
901.078	362.75
901.316	358.75
901.554	339.75
901.792	360.75
902.03	321.75
902.268	329.75
902.506	387.75
902.744	341.75
902.982	394.75
903.22	320.75
903.458	330.75
903.695	377.75
903.933	380.75
904.171	333.75
904.409	332.75
904.646	379.75
904.884	346.75
905.121	418.75
905.359	387.75
905.596	388.75
905.833	339.75
906.071	340.75
906.308	398.75
906.545	372.75
906.783	311.75
907.02	333.75
907.257	307.75
907.494	335.75
907.731	367.75
907.968	373.75
908.205	344.75
908.442	339.75
908.679	361.75
908.915	347.75
909.152	365.75
909.389	316.75
909.626	348.75
909.862	326.75
910.099	363.75
910.335	401.75
910.572	302.75
910.808	370.75
911.045	348.75
911.281	334.75
911.518	414.75
911.754	346.75
911.99	373.75
912.226	351.75
912.463	323.75
912.699	337.75
912.935	337.75
913.171	345.75
913.407	335.75
913.643	405.75
913.879	360.75
914.114	364.75
914.35	337.75
914.586	361.75
914.822	330.75
915.057	435.75
915.293	312.75
915.529	326.75
915.764	401.75
916	385.75
916.235	384.75
916.471	402.75
916.706	312.75
916.941	344.75
917.177	348.75
917.412	381.75
917.647	385.75
917.882	344.75
918.117	397.75
918.352	375.75
918.588	412.75
918.823	358.75
919.057	372.75
919.292	297.75
919.527	414.75
919.762	353.75
919.997	440.75
920.232	363.75
920.466	427.75
920.701	325.75
920.935	377.75
921.17	368.75
921.405	333.75
921.639	411.75
921.873	376.75
922.108	398.75
922.342	399.75
922.576	352.75
922.811	349.75
923.045	398.75
923.279	427.75
923.513	317.75
923.747	404.75
923.981	398.75
924.215	364.75
924.449	363.75
924.683	326.75
924.917	352.75
925.151	352.75
925.385	444.75
925.618	399.75
925.852	392.75
926.086	318.75
926.319	378.75
926.553	382.75
926.786	396.75
927.02	367.75
927.253	422.75
927.486	405.75
927.72	347.75
927.953	408.75
928.186	364.75
928.42	400.75
928.653	347.75
928.886	348.75
929.119	391.75
929.352	381.75
929.585	389.75
929.818	364.75
930.051	388.75
930.284	423.75
930.516	337.75
930.749	360.75
930.982	405.75
931.215	415.75
931.447	344.75
931.68	375.75
931.912	361.75
932.145	369.75
932.377	384.75
932.61	502.75
932.842	325.75
933.074	401.75
933.307	352.75
933.539	433.75
933.771	422.75
934.003	372.75
934.236	449.75
934.468	457.75
934.7	376.75
934.932	420.75
935.164	361.75
935.395	350.75
935.627	382.75
935.859	397.75
936.091	349.75
936.323	415.75
936.554	444.75
936.786	396.75
937.017	349.75
937.249	383.75
937.481	326.75
937.712	417.75
937.943	387.75
938.175	379.75
938.406	375.75
938.637	445.75
938.869	346.75
939.1	420.75
939.331	362.75
939.562	420.75
939.793	397.75
940.024	416.75
940.255	447.75
940.486	410.75
940.717	402.75
940.948	382.75
941.179	341.75
941.409	393.75
941.64	395.75
941.871	397.75
942.102	370.75
942.332	371.75
942.563	429.75
942.793	397.75
943.024	340.75
943.254	386.75
943.484	430.75
943.715	428.75
943.945	413.75
944.175	340.75
944.405	336.75
944.636	353.75
944.866	373.75
945.096	394.75
945.326	329.75
945.556	404.75
945.786	425.75
946.016	386.75
946.245	333.75
946.475	359.75
946.705	386.75
946.935	395.75
947.164	412.75
947.394	376.75
947.624	397.75
947.853	424.75
948.083	415.75
948.312	379.75
948.542	338.75
948.771	337.75
949	352.75
949.23	376.75
949.459	379.75
949.688	436.75
949.917	390.75
950.146	403.75
950.375	462.75
950.604	367.75
950.833	457.75
951.062	447.75
951.291	397.75
951.52	387.75
951.749	419.75
951.978	367.75
952.206	364.75
952.435	377.75
952.664	425.75
952.892	443.75
953.121	402.75
953.349	451.75
953.578	444.75
953.806	416.75
954.035	376.75
954.263	419.75
954.491	362.75
954.719	430.75
954.948	375.75
955.176	395.75
955.404	328.75
955.632	403.75
955.86	426.75
956.088	418.75
956.316	454.75
956.544	464.75
956.772	405.75
956.999	395.75
957.227	488.75
957.455	404.75
957.683	421.75
957.91	393.75
958.138	388.75
958.365	414.75
958.593	400.75
958.82	362.75
959.048	440.75
959.275	419.75
959.502	401.75
959.73	395.75
959.957	429.75
960.184	455.75
960.411	394.75
960.638	465.75
960.865	416.75
961.092	468.75
961.319	362.75
961.546	469.75
961.773	458.75
962	415.75
962.227	471.75
962.454	442.75
962.68	422.75
962.907	441.75
963.134	412.75
963.36	434.75
963.587	477.75
963.813	412.75
964.04	479.75
964.266	405.75
964.493	512.75
964.719	476.75
964.945	480.75
965.171	399.75
965.398	447.75
965.624	492.75
965.85	425.75
966.076	446.75
966.302	476.75
966.528	441.75
966.754	488.75
966.98	482.75
967.206	466.75
967.431	425.75
967.657	510.75
967.883	486.75
968.109	485.75
968.334	416.75
968.56	416.75
968.785	459.75
969.011	406.75
969.236	482.75
969.462	435.75
969.687	452.75
969.912	498.75
970.138	517.75
970.363	435.75
970.588	462.75
970.813	456.75
971.038	452.75
971.263	470.75
971.488	493.75
971.713	531.75
971.938	507.75
972.163	414.75
972.388	455.75
972.613	450.75
972.838	465.75
973.062	450.75
973.287	452.75
973.512	406.75
973.736	466.75
973.961	470.75
974.185	448.75
974.41	476.75
974.634	401.75
974.858	417.75
975.083	477.75
975.307	491.75
975.531	449.75
975.755	391.75
975.98	444.75
976.204	385.75
976.428	388.75
976.652	408.75
976.876	395.75
977.1	446.75
977.324	402.75
977.547	445.75
977.771	464.75
977.995	433.75
978.219	385.75
978.442	509.75
978.666	450.75
978.89	450.75
979.113	446.75
979.337	455.75
979.56	410.75
979.783	519.75
980.007	418.75
980.23	454.75
980.453	421.75
980.677	474.75
980.9	455.75
981.123	372.75
981.346	484.75
981.569	471.75
981.792	482.75
982.015	448.75
982.238	425.75
982.461	446.75
982.684	432.75
982.907	409.75
983.129	426.75
983.352	502.75
983.575	449.75
983.797	482.75
984.02	430.75
984.242	447.75
984.465	456.75
984.687	475.75
984.91	508.75
985.132	515.75
985.354	516.75
985.577	494.75
985.799	487.75
986.021	416.75
986.243	444.75
986.465	474.75
986.687	513.75
986.909	543.75
987.131	511.75
987.353	456.75
987.575	509.75
987.797	466.75
988.019	420.75
988.241	475.75
988.462	441.75
988.684	511.75
988.906	537.75
989.127	569.75
989.349	447.75
989.57	486.75
989.792	525.75
990.013	552.75
990.234	551.75
990.456	575.75
990.677	565.75
990.898	519.75
991.119	518.75
991.341	535.75
991.562	473.75
991.783	550.75
992.004	472.75
992.225	467.75
992.446	534.75
992.667	442.75
992.887	526.75
993.108	443.75
993.329	585.75
993.55	524.75
993.77	463.75
993.991	497.75
994.212	535.75
994.432	521.75
994.653	540.75
994.873	541.75
995.093	444.75
995.314	483.75
995.534	563.75
995.754	582.75
995.975	626.75
996.195	499.75
996.415	549.75
996.635	534.75
996.855	554.75
997.075	538.75
997.295	524.75
997.515	526.75
997.735	570.75
997.955	533.75
998.174	528.75
998.394	489.75
998.614	551.75
998.834	519.75
999.053	586.75
999.273	549.75
999.492	634.75
999.712	568.75
999.931	527.75
1000.151	586.75
1000.37	567.75
1000.589	648.75
1000.809	556.75
1001.028	682.75
1001.247	629.75
1001.466	541.75
1001.685	684.75
1001.904	640.75
1002.123	615.75
1002.342	624.75
1002.561	594.75
1002.78	638.75
1002.999	702.75
1003.218	636.75
1003.436	617.75
1003.655	671.75
1003.874	615.75
1004.092	641.75
1004.311	690.75
1004.53	653.75
1004.748	726.75
1004.966	664.75
1005.185	723.75
1005.403	691.75
1005.622	668.75
1005.84	748.75
1006.058	669.75
1006.276	694.75
1006.494	1179.75
1006.712	679.75
1006.931	745.75
1007.149	646.75
1007.367	661.75
1007.584	667.75
1007.802	715.75
1008.02	647.75
1008.238	743.75
1008.456	734.75
1008.673	586.75
1008.891	680.75
1009.109	631.75
1009.326	665.75
1009.544	744.75
1009.761	589.75
1009.979	651.75
1010.196	634.75
1010.413	692.75
1010.631	674.75
1010.848	689.75
1011.065	654.75
1011.282	611.75
1011.5	566.75
1011.717	678.75
1011.934	614.75
1012.151	664.75
1012.368	652.75
1012.585	604.75
1012.801	660.75
1013.018	614.75
1013.235	586.75
1013.452	615.75
1013.669	588.75
1013.885	573.75
1014.102	593.75
1014.318	568.75
1014.535	523.75
1014.751	564.75
1014.968	573.75
1015.184	624.75
1015.401	532.75
1015.617	574.75
1015.833	522.75
1016.049	551.75
1016.266	552.75
1016.482	559.75
1016.698	504.75
1016.914	556.75
1017.13	520.75
1017.346	511.75
1017.562	589.75
1017.778	520.75
1017.993	493.75
1018.209	547.75
1018.425	533.75
1018.641	486.75
1018.856	479.75
1019.072	511.75
1019.288	557.75
1019.503	490.75
1019.719	437.75
1019.934	456.75
1020.149	549.75
1020.365	495.75
1020.58	468.75
1020.795	539.75
1021.011	491.75
1021.226	499.75
1021.441	538.75
1021.656	482.75
1021.871	441.75
1022.086	467.75
1022.301	463.75
1022.516	473.75
1022.731	525.75
1022.946	459.75
1023.16	458.75
1023.375	454.75
1023.59	450.75
1023.804	433.75
1024.019	545.75
1024.234	419.75
1024.448	478.75
1024.663	416.75
1024.877	453.75
1025.092	490.75
1025.306	495.75
1025.52	407.75
1025.734	506.75
1025.949	449.75
1026.163	434.75
1026.377	381.75
1026.591	447.75
1026.805	393.75
1027.019	393.75
1027.233	367.75
1027.447	318.75
1027.661	428.75
1027.875	385.75
1028.088	392.75
1028.302	327.75
1028.516	339.75
1028.73	354.75
1028.943	357.75
1029.157	334.75
1029.37	303.75
1029.584	-1.25
1029.797	-5.25
1030.011	-1.25
1030.224	-2.25
