Data from QEP037381__81__10-25-41-073.txt Node

Date: Fri Apr 21 10:25:41 EDT 2023
User: dcclab
Spectrometer: QEP03738
Trigger mode: 4
Integration Time (sec): 1.000000E1
Scans to average: 1
Electric dark correction enabled: true
Nonlinearity correction enabled: false
Boxcar width: 0
XAxis mode: Wavelengths
Number of Pixels in Spectrum: 1044
>>>>>Begin Spectral Data<<<<<
784.041	8.75
784.3	1.75
784.558	-1.25
784.817	-5.25
785.075	237.75
785.334	198.75
785.592	194.75
785.851	196.75
786.109	235.75
786.368	238.75
786.626	259.75
786.884	291.75
787.143	269.75
787.401	210.75
787.659	281.75
787.917	254.75
788.175	296.75
788.433	270.75
788.691	272.75
788.949	272.75
789.207	305.75
789.465	250.75
789.723	283.75
789.98	251.75
790.238	320.75
790.496	301.75
790.753	291.75
791.011	358.75
791.268	310.75
791.526	306.75
791.783	340.75
792.041	330.75
792.298	249.75
792.556	330.75
792.813	309.75
793.07	300.75
793.327	290.75
793.584	371.75
793.841	291.75
794.099	326.75
794.356	379.75
794.613	282.75
794.869	327.75
795.126	299.75
795.383	288.75
795.64	306.75
795.897	265.75
796.153	328.75
796.41	309.75
796.667	284.75
796.923	304.75
797.18	300.75
797.436	329.75
797.693	301.75
797.949	327.75
798.206	360.75
798.462	272.75
798.718	330.75
798.974	298.75
799.231	339.75
799.487	333.75
799.743	321.75
799.999	337.75
800.255	333.75
800.511	305.75
800.767	342.75
801.023	313.75
801.279	325.75
801.534	348.75
801.79	350.75
802.046	305.75
802.302	355.75
802.557	336.75
802.813	347.75
803.068	288.75
803.324	329.75
803.579	308.75
803.835	298.75
804.09	352.75
804.345	296.75
804.601	256.75
804.856	298.75
805.111	333.75
805.366	309.75
805.621	315.75
805.876	331.75
806.131	327.75
806.386	315.75
806.641	286.75
806.896	308.75
807.151	376.75
807.406	314.75
807.661	333.75
807.915	324.75
808.17	341.75
808.425	329.75
808.679	292.75
808.934	370.75
809.188	304.75
809.443	328.75
809.697	362.75
809.951	311.75
810.206	295.75
810.46	347.75
810.714	344.75
810.968	354.75
811.223	281.75
811.477	319.75
811.731	341.75
811.985	274.75
812.239	241.75
812.493	291.75
812.747	318.75
813	255.75
813.254	321.75
813.508	345.75
813.762	300.75
814.015	293.75
814.269	319.75
814.522	343.75
814.776	335.75
815.03	332.75
815.283	329.75
815.536	321.75
815.79	334.75
816.043	329.75
816.296	333.75
816.55	313.75
816.803	316.75
817.056	420.75
817.309	337.75
817.562	327.75
817.815	368.75
818.068	301.75
818.321	291.75
818.574	280.75
818.827	356.75
819.079	294.75
819.332	426.75
819.585	346.75
819.838	390.75
820.09	302.75
820.343	361.75
820.595	287.75
820.848	336.75
821.1	345.75
821.353	324.75
821.605	310.75
821.857	372.75
822.11	287.75
822.362	294.75
822.614	278.75
822.866	326.75
823.118	265.75
823.37	370.75
823.622	320.75
823.874	306.75
824.126	345.75
824.378	280.75
824.63	310.75
824.882	329.75
825.134	320.75
825.385	358.75
825.637	331.75
825.888	309.75
826.14	325.75
826.392	290.75
826.643	283.75
826.895	377.75
827.146	319.75
827.397	301.75
827.649	379.75
827.9	294.75
828.151	283.75
828.402	286.75
828.653	324.75
828.905	333.75
829.156	379.75
829.407	288.75
829.658	319.75
829.909	357.75
830.159	340.75
830.41	357.75
830.661	364.75
830.912	329.75
831.162	316.75
831.413	309.75
831.664	344.75
831.914	322.75
832.165	331.75
832.415	343.75
832.666	342.75
832.916	358.75
833.167	304.75
833.417	379.75
833.667	343.75
833.917	332.75
834.168	385.75
834.418	356.75
834.668	332.75
834.918	289.75
835.168	308.75
835.418	273.75
835.668	332.75
835.918	362.75
836.167	343.75
836.417	294.75
836.667	358.75
836.917	381.75
837.166	319.75
837.416	374.75
837.666	367.75
837.915	322.75
838.165	347.75
838.414	312.75
838.663	283.75
838.913	331.75
839.162	298.75
839.411	374.75
839.661	320.75
839.91	343.75
840.159	307.75
840.408	339.75
840.657	315.75
840.906	344.75
841.155	361.75
841.404	314.75
841.653	332.75
841.902	295.75
842.15	348.75
842.399	345.75
842.648	315.75
842.897	336.75
843.145	282.75
843.394	300.75
843.642	301.75
843.891	358.75
844.139	336.75
844.388	292.75
844.636	269.75
844.884	329.75
845.133	296.75
845.381	316.75
845.629	357.75
845.877	302.75
846.125	315.75
846.373	333.75
846.621	310.75
846.869	355.75
847.117	333.75
847.365	323.75
847.613	341.75
847.861	344.75
848.108	375.75
848.356	356.75
848.604	307.75
848.851	342.75
849.099	338.75
849.346	314.75
849.594	337.75
849.841	355.75
850.089	324.75
850.336	290.75
850.583	312.75
850.831	327.75
851.078	334.75
851.325	297.75
851.572	368.75
851.819	355.75
852.066	317.75
852.313	318.75
852.56	285.75
852.807	288.75
853.054	298.75
853.301	325.75
853.548	312.75
853.794	407.75
854.041	335.75
854.288	278.75
854.534	379.75
854.781	320.75
855.028	309.75
855.274	383.75
855.52	332.75
855.767	302.75
856.013	351.75
856.26	630.75
856.506	298.75
856.752	372.75
856.998	325.75
857.244	300.75
857.49	346.75
857.736	345.75
857.982	339.75
858.228	355.75
858.474	298.75
858.72	332.75
858.966	351.75
859.212	342.75
859.458	339.75
859.703	358.75
859.949	311.75
860.195	370.75
860.44	348.75
860.686	308.75
860.931	393.75
861.177	310.75
861.422	366.75
861.667	316.75
861.913	334.75
862.158	330.75
862.403	353.75
862.648	374.75
862.893	385.75
863.138	343.75
863.384	300.75
863.629	355.75
863.873	350.75
864.118	327.75
864.363	271.75
864.608	347.75
864.853	370.75
865.098	333.75
865.342	350.75
865.587	336.75
865.832	374.75
866.076	350.75
866.321	329.75
866.565	329.75
866.81	280.75
867.054	332.75
867.298	340.75
867.543	310.75
867.787	372.75
868.031	333.75
868.275	348.75
868.519	332.75
868.764	345.75
869.008	329.75
869.252	377.75
869.496	335.75
869.739	342.75
869.983	372.75
870.227	370.75
870.471	312.75
870.715	356.75
870.958	353.75
871.202	309.75
871.446	322.75
871.689	305.75
871.933	344.75
872.176	336.75
872.42	325.75
872.663	317.75
872.906	381.75
873.15	343.75
873.393	282.75
873.636	388.75
873.879	355.75
874.122	398.75
874.366	347.75
874.609	388.75
874.852	336.75
875.095	358.75
875.337	324.75
875.58	284.75
875.823	349.75
876.066	388.75
876.309	412.75
876.551	312.75
876.794	281.75
877.037	382.75
877.279	302.75
877.522	324.75
877.764	379.75
878.007	316.75
878.249	354.75
878.491	310.75
878.734	371.75
878.976	343.75
879.218	300.75
879.46	389.75
879.702	388.75
879.945	366.75
880.187	336.75
880.429	365.75
880.671	370.75
880.912	379.75
881.154	373.75
881.396	282.75
881.638	353.75
881.88	357.75
882.121	317.75
882.363	333.75
882.605	378.75
882.846	365.75
883.088	380.75
883.329	314.75
883.571	309.75
883.812	315.75
884.053	330.75
884.295	337.75
884.536	406.75
884.777	330.75
885.018	358.75
885.259	366.75
885.5	298.75
885.742	525.75
885.982	359.75
886.223	318.75
886.464	332.75
886.705	299.75
886.946	343.75
887.187	277.75
887.428	388.75
887.668	319.75
887.909	309.75
888.15	309.75
888.39	360.75
888.631	416.75
888.871	374.75
889.111	352.75
889.352	369.75
889.592	322.75
889.833	341.75
890.073	344.75
890.313	424.75
890.553	317.75
890.793	351.75
891.033	322.75
891.273	327.75
891.513	357.75
891.753	407.75
891.993	365.75
892.233	376.75
892.473	421.75
892.713	360.75
892.952	320.75
893.192	351.75
893.432	322.75
893.671	367.75
893.911	334.75
894.15	360.75
894.39	315.75
894.629	340.75
894.869	372.75
895.108	339.75
895.347	317.75
895.587	357.75
895.826	335.75
896.065	308.75
896.304	359.75
896.543	384.75
896.782	301.75
897.021	345.75
897.26	341.75
897.499	412.75
897.738	405.75
897.977	359.75
898.216	349.75
898.454	349.75
898.693	323.75
898.932	379.75
899.17	350.75
899.409	360.75
899.647	362.75
899.886	320.75
900.124	375.75
900.363	314.75
900.601	361.75
900.839	353.75
901.078	364.75
901.316	364.75
901.554	343.75
901.792	367.75
902.03	303.75
902.268	337.75
902.506	384.75
902.744	332.75
902.982	383.75
903.22	321.75
903.458	342.75
903.695	382.75
903.933	382.75
904.171	329.75
904.409	341.75
904.646	372.75
904.884	335.75
905.121	417.75
905.359	377.75
905.596	385.75
905.833	355.75
906.071	352.75
906.308	408.75
906.545	368.75
906.783	319.75
907.02	343.75
907.257	313.75
907.494	338.75
907.731	368.75
907.968	382.75
908.205	329.75
908.442	337.75
908.679	375.75
908.915	361.75
909.152	375.75
909.389	298.75
909.626	353.75
909.862	336.75
910.099	354.75
910.335	413.75
910.572	314.75
910.808	357.75
911.045	355.75
911.281	334.75
911.518	397.75
911.754	351.75
911.99	364.75
912.226	359.75
912.463	329.75
912.699	348.75
912.935	355.75
913.171	356.75
913.407	336.75
913.643	402.75
913.879	356.75
914.114	359.75
914.35	345.75
914.586	366.75
914.822	336.75
915.057	436.75
915.293	313.75
915.529	336.75
915.764	408.75
916	383.75
916.235	369.75
916.471	406.75
916.706	315.75
916.941	364.75
917.177	359.75
917.412	390.75
917.647	387.75
917.882	328.75
918.117	399.75
918.352	380.75
918.588	430.75
918.823	365.75
919.057	369.75
919.292	292.75
919.527	423.75
919.762	370.75
919.997	426.75
920.232	379.75
920.466	429.75
920.701	320.75
920.935	383.75
921.17	371.75
921.405	336.75
921.639	411.75
921.873	374.75
922.108	385.75
922.342	387.75
922.576	346.75
922.811	353.75
923.045	413.75
923.279	428.75
923.513	310.75
923.747	402.75
923.981	377.75
924.215	356.75
924.449	378.75
924.683	330.75
924.917	346.75
925.151	361.75
925.385	447.75
925.618	401.75
925.852	389.75
926.086	322.75
926.319	388.75
926.553	364.75
926.786	391.75
927.02	375.75
927.253	417.75
927.486	409.75
927.72	354.75
927.953	406.75
928.186	360.75
928.42	391.75
928.653	356.75
928.886	347.75
929.119	394.75
929.352	372.75
929.585	401.75
929.818	347.75
930.051	396.75
930.284	416.75
930.516	331.75
930.749	359.75
930.982	422.75
931.215	411.75
931.447	350.75
931.68	382.75
931.912	356.75
932.145	364.75
932.377	393.75
932.61	494.75
932.842	322.75
933.074	396.75
933.307	334.75
933.539	448.75
933.771	430.75
934.003	354.75
934.236	444.75
934.468	460.75
934.7	378.75
934.932	417.75
935.164	370.75
935.395	350.75
935.627	381.75
935.859	400.75
936.091	342.75
936.323	403.75
936.554	447.75
936.786	394.75
937.017	359.75
937.249	396.75
937.481	315.75
937.712	407.75
937.943	385.75
938.175	371.75
938.406	371.75
938.637	441.75
938.869	333.75
939.1	397.75
939.331	363.75
939.562	406.75
939.793	394.75
940.024	438.75
940.255	437.75
940.486	401.75
940.717	392.75
940.948	397.75
941.179	366.75
941.409	388.75
941.64	380.75
941.871	417.75
942.102	383.75
942.332	370.75
942.563	410.75
942.793	409.75
943.024	349.75
943.254	378.75
943.484	424.75
943.715	424.75
943.945	411.75
944.175	339.75
944.405	328.75
944.636	343.75
944.866	395.75
945.096	385.75
945.326	345.75
945.556	400.75
945.786	409.75
946.016	384.75
946.245	349.75
946.475	370.75
946.705	380.75
946.935	401.75
947.164	410.75
947.394	379.75
947.624	392.75
947.853	434.75
948.083	408.75
948.312	386.75
948.542	347.75
948.771	336.75
949	367.75
949.23	371.75
949.459	385.75
949.688	451.75
949.917	395.75
950.146	405.75
950.375	440.75
950.604	346.75
950.833	449.75
951.062	444.75
951.291	393.75
951.52	384.75
951.749	393.75
951.978	363.75
952.206	371.75
952.435	364.75
952.664	428.75
952.892	433.75
953.121	414.75
953.349	453.75
953.578	427.75
953.806	409.75
954.035	369.75
954.263	418.75
954.491	360.75
954.719	422.75
954.948	387.75
955.176	385.75
955.404	348.75
955.632	422.75
955.86	433.75
956.088	411.75
956.316	425.75
956.544	467.75
956.772	419.75
956.999	388.75
957.227	501.75
957.455	401.75
957.683	438.75
957.91	390.75
958.138	384.75
958.365	420.75
958.593	414.75
958.82	360.75
959.048	448.75
959.275	420.75
959.502	408.75
959.73	403.75
959.957	425.75
960.184	437.75
960.411	384.75
960.638	471.75
960.865	419.75
961.092	443.75
961.319	370.75
961.546	463.75
961.773	456.75
962	422.75
962.227	487.75
962.454	442.75
962.68	429.75
962.907	452.75
963.134	412.75
963.36	458.75
963.587	482.75
963.813	419.75
964.04	477.75
964.266	415.75
964.493	507.75
964.719	494.75
964.945	476.75
965.171	390.75
965.398	463.75
965.624	493.75
965.85	428.75
966.076	428.75
966.302	467.75
966.528	440.75
966.754	483.75
966.98	473.75
967.206	485.75
967.431	412.75
967.657	525.75
967.883	493.75
968.109	477.75
968.334	434.75
968.56	429.75
968.785	450.75
969.011	414.75
969.236	473.75
969.462	424.75
969.687	454.75
969.912	495.75
970.138	510.75
970.363	435.75
970.588	477.75
970.813	460.75
971.038	433.75
971.263	496.75
971.488	476.75
971.713	505.75
971.938	510.75
972.163	425.75
972.388	444.75
972.613	448.75
972.838	479.75
973.062	452.75
973.287	453.75
973.512	400.75
973.736	465.75
973.961	445.75
974.185	447.75
974.41	498.75
974.634	389.75
974.858	407.75
975.083	470.75
975.307	508.75
975.531	430.75
975.755	401.75
975.98	433.75
976.204	391.75
976.428	390.75
976.652	412.75
976.876	388.75
977.1	443.75
977.324	411.75
977.547	459.75
977.771	466.75
977.995	436.75
978.219	389.75
978.442	507.75
978.666	448.75
978.89	452.75
979.113	452.75
979.337	446.75
979.56	412.75
979.783	509.75
980.007	407.75
980.23	446.75
980.453	415.75
980.677	469.75
980.9	463.75
981.123	362.75
981.346	477.75
981.569	471.75
981.792	493.75
982.015	456.75
982.238	421.75
982.461	460.75
982.684	448.75
982.907	423.75
983.129	425.75
983.352	474.75
983.575	469.75
983.797	478.75
984.02	446.75
984.242	427.75
984.465	453.75
984.687	490.75
984.91	514.75
985.132	501.75
985.354	517.75
985.577	486.75
985.799	493.75
986.021	412.75
986.243	444.75
986.465	469.75
986.687	525.75
986.909	553.75
987.131	488.75
987.353	463.75
987.575	506.75
987.797	470.75
988.019	416.75
988.241	493.75
988.462	460.75
988.684	519.75
988.906	548.75
989.127	566.75
989.349	455.75
989.57	487.75
989.792	522.75
990.013	552.75
990.234	552.75
990.456	583.75
990.677	555.75
990.898	520.75
991.119	512.75
991.341	554.75
991.562	484.75
991.783	529.75
992.004	474.75
992.225	464.75
992.446	533.75
992.667	454.75
992.887	541.75
993.108	445.75
993.329	578.75
993.55	519.75
993.77	488.75
993.991	493.75
994.212	540.75
994.432	534.75
994.653	551.75
994.873	551.75
995.093	439.75
995.314	486.75
995.534	557.75
995.754	569.75
995.975	594.75
996.195	501.75
996.415	540.75
996.635	536.75
996.855	544.75
997.075	530.75
997.295	518.75
997.515	508.75
997.735	577.75
997.955	533.75
998.174	518.75
998.394	516.75
998.614	560.75
998.834	511.75
999.053	611.75
999.273	561.75
999.492	629.75
999.712	577.75
999.931	543.75
1000.151	592.75
1000.37	554.75
1000.589	628.75
1000.809	565.75
1001.028	687.75
1001.247	632.75
1001.466	535.75
1001.685	684.75
1001.904	642.75
1002.123	617.75
1002.342	639.75
1002.561	607.75
1002.78	634.75
1002.999	713.75
1003.218	643.75
1003.436	620.75
1003.655	678.75
1003.874	617.75
1004.092	653.75
1004.311	701.75
1004.53	666.75
1004.748	737.75
1004.966	654.75
1005.185	705.75
1005.403	705.75
1005.622	686.75
1005.84	759.75
1006.058	655.75
1006.276	685.75
1006.494	1181.75
1006.712	689.75
1006.931	741.75
1007.149	652.75
1007.367	642.75
1007.584	673.75
1007.802	711.75
1008.02	647.75
1008.238	759.75
1008.456	719.75
1008.673	596.75
1008.891	680.75
1009.109	617.75
1009.326	667.75
1009.544	736.75
1009.761	607.75
1009.979	647.75
1010.196	609.75
1010.413	666.75
1010.631	679.75
1010.848	683.75
1011.065	666.75
1011.282	608.75
1011.5	557.75
1011.717	682.75
1011.934	623.75
1012.151	677.75
1012.368	646.75
1012.585	593.75
1012.801	657.75
1013.018	607.75
1013.235	596.75
1013.452	585.75
1013.669	606.75
1013.885	562.75
1014.102	614.75
1014.318	564.75
1014.535	528.75
1014.751	570.75
1014.968	567.75
1015.184	615.75
1015.401	532.75
1015.617	567.75
1015.833	547.75
1016.049	548.75
1016.266	539.75
1016.482	555.75
1016.698	499.75
1016.914	560.75
1017.13	495.75
1017.346	526.75
1017.562	573.75
1017.778	519.75
1017.993	497.75
1018.209	549.75
1018.425	524.75
1018.641	491.75
1018.856	483.75
1019.072	510.75
1019.288	554.75
1019.503	497.75
1019.719	454.75
1019.934	445.75
1020.149	551.75
1020.365	489.75
1020.58	469.75
1020.795	545.75
1021.011	500.75
1021.226	493.75
1021.441	543.75
1021.656	487.75
1021.871	451.75
1022.086	474.75
1022.301	463.75
1022.516	470.75
1022.731	529.75
1022.946	465.75
1023.16	486.75
1023.375	461.75
1023.59	460.75
1023.804	422.75
1024.019	524.75
1024.234	431.75
1024.448	480.75
1024.663	413.75
1024.877	454.75
1025.092	473.75
1025.306	499.75
1025.52	411.75
1025.734	512.75
1025.949	460.75
1026.163	437.75
1026.377	395.75
1026.591	455.75
1026.805	387.75
1027.019	398.75
1027.233	369.75
1027.447	310.75
1027.661	427.75
1027.875	378.75
1028.088	392.75
1028.302	341.75
1028.516	332.75
1028.73	350.75
1028.943	356.75
1029.157	323.75
1029.37	315.75
1029.584	0.75
1029.797	-2.25
1030.011	-1.25
1030.224	-1.25
