Data from QEP037381__377__16-38-59-924.txt Node

Date: Fri Dec 16 16:38:59 EST 2022
User: dcclab
Spectrometer: QEP03738
Trigger mode: 4
Integration Time (sec): 1.000000E1
Scans to average: 1
Electric dark correction enabled: true
Nonlinearity correction enabled: false
Boxcar width: 0
XAxis mode: Wavelengths
Number of Pixels in Spectrum: 1044
>>>>>Begin Spectral Data<<<<<
784.041	13.25
784.3	0.25
784.558	-2.75
784.817	-3.75
785.075	106583.25
785.334	17961.25
785.592	8245.25
785.851	5750.25
786.109	4291.25
786.368	3407.25
786.626	2709.25
786.884	2282.25
787.143	1919.25
787.401	1592.25
787.659	1447.25
787.917	1248.25
788.175	1134.25
788.433	1010.25
788.691	922.25
788.949	835.25
789.207	826.25
789.465	729.25
789.723	701.25
789.98	629.25
790.238	670.25
790.496	643.25
790.753	622.25
791.011	667.25
791.268	592.25
791.526	578.25
791.783	600.25
792.041	583.25
792.298	494.25
792.556	561.25
792.813	540.25
793.07	527.25
793.327	500.25
793.584	593.25
793.841	518.25
794.099	543.25
794.356	590.25
794.613	509.25
794.869	532.25
795.126	507.25
795.383	481.25
795.64	521.25
795.897	456.25
796.153	516.25
796.41	502.25
796.667	501.25
796.923	505.25
797.18	518.25
797.436	554.25
797.693	502.25
797.949	559.25
798.206	595.25
798.462	508.25
798.718	579.25
798.974	563.25
799.231	606.25
799.487	620.25
799.743	642.25
799.999	671.25
800.255	688.25
800.511	674.25
800.767	743.25
801.023	761.25
801.279	791.25
801.534	852.25
801.79	946.25
802.046	1077.25
802.302	1296.25
802.557	1566.25
802.813	2020.25
803.068	2666.25
803.324	3728.25
803.579	5228.25
803.835	7434.25
804.09	10276.25
804.345	13535.25
804.601	17147.25
804.856	20917.25
805.111	24252.25
805.366	26962.25
805.621	28867.25
805.876	30199.25
806.131	31069.25
806.386	31764.25
806.641	32555.25
806.896	33169.25
807.151	33822.25
807.406	34412.25
807.661	35102.25
807.915	35990.25
808.17	36485.25
808.425	36825.25
808.679	37475.25
808.934	37790.25
809.188	38223.25
809.443	38736.25
809.697	39229.25
809.951	39614.25
810.206	40053.25
810.46	40523.25
810.714	40943.25
810.968	41303.25
811.223	41624.25
811.477	41972.25
811.731	42286.25
811.985	42730.25
812.239	43067.25
812.493	43390.25
812.747	43582.25
813	43829.25
813.254	44032.25
813.508	44352.25
813.762	44583.25
814.015	44831.25
814.269	45435.25
814.522	45776.25
814.776	46285.25
815.03	46837.25
815.283	47757.25
815.536	48652.25
815.79	49331.25
816.043	50118.25
816.296	50978.25
816.55	51485.25
816.803	52269.25
817.056	53111.25
817.309	53518.25
817.562	53995.25
817.815	54700.25
818.068	55396.25
818.321	56016.25
818.574	56778.25
818.827	57570.25
819.079	58266.25
819.332	59323.25
819.585	60034.25
819.838	60749.25
820.09	61390.25
820.343	61876.25
820.595	62315.25
820.848	63000.25
821.1	63102.25
821.353	63228.25
821.605	63350.25
821.857	63357.25
822.11	63367.25
822.362	63169.25
822.614	62956.25
822.866	63138.25
823.118	63041.25
823.37	63109.25
823.622	63559.25
823.874	63533.25
824.126	63987.25
824.378	64115.25
824.63	64599.25
824.882	64757.25
825.134	64618.25
825.385	64486.25
825.637	64536.25
825.888	64410.25
826.14	64369.25
826.392	64316.25
826.643	63950.25
826.895	63819.25
827.146	63650.25
827.397	63766.25
827.649	63570.25
827.9	63605.25
828.151	63719.25
828.402	64089.25
828.653	64187.25
828.905	64241.25
829.156	64416.25
829.407	64417.25
829.658	64305.25
829.909	64421.25
830.159	64311.25
830.41	63963.25
830.661	63703.25
830.912	63338.25
831.162	63354.25
831.413	63243.25
831.664	63147.25
831.914	63236.25
832.165	63259.25
832.415	63131.25
832.666	63365.25
832.916	63310.25
833.167	63302.25
833.417	63315.25
833.667	63237.25
833.917	63066.25
834.168	62912.25
834.418	62795.25
834.668	62405.25
834.918	62244.25
835.168	61956.25
835.418	61911.25
835.668	61669.25
835.918	61425.25
836.167	61515.25
836.417	61213.25
836.667	61317.25
836.917	61240.25
837.166	61148.25
837.416	61268.25
837.666	61168.25
837.915	61168.25
838.165	61105.25
838.414	60864.25
838.663	60728.25
838.913	60691.25
839.162	60592.25
839.411	60539.25
839.661	60195.25
839.91	60286.25
840.159	60097.25
840.408	59986.25
840.657	59993.25
840.906	59925.25
841.155	60055.25
841.404	60017.25
841.653	60417.25
841.902	60233.25
842.15	60300.25
842.399	60314.25
842.648	60115.25
842.897	60029.25
843.145	59691.25
843.394	59239.25
843.642	59333.25
843.891	58883.25
844.139	58715.25
844.388	58491.25
844.636	58182.25
844.884	58099.25
845.133	58052.25
845.381	58049.25
845.629	58100.25
845.877	57926.25
846.125	58040.25
846.373	57782.25
846.621	57758.25
846.869	57572.25
847.117	57331.25
847.365	56982.25
847.613	56752.25
847.861	56561.25
848.108	56512.25
848.356	56295.25
848.604	56266.25
848.851	56636.25
849.099	56419.25
849.346	56662.25
849.594	56964.25
849.841	57017.25
850.089	57242.25
850.336	57240.25
850.583	57239.25
850.831	56955.25
851.078	56662.25
851.325	56588.25
851.572	56521.25
851.819	55931.25
852.066	55065.25
852.313	54526.25
852.56	54241.25
852.807	54097.25
853.054	53875.25
853.301	53788.25
853.548	53803.25
853.794	54003.25
854.041	54099.25
854.288	54581.25
854.534	54806.25
854.781	54721.25
855.028	54478.25
855.274	54418.25
855.52	54230.25
855.767	53688.25
856.013	53727.25
856.26	53778.25
856.506	53365.25
856.752	53363.25
856.998	53300.25
857.244	53729.25
857.49	53707.25
857.736	53812.25
857.982	53639.25
858.228	53660.25
858.474	53423.25
858.72	53183.25
858.966	52869.25
859.212	52476.25
859.458	51949.25
859.703	51534.25
859.949	50928.25
860.195	50740.25
860.44	50375.25
860.686	49987.25
860.931	50039.25
861.177	49856.25
861.422	49807.25
861.667	49697.25
861.913	49799.25
862.158	50173.25
862.403	50220.25
862.648	50294.25
862.893	50261.25
863.138	50298.25
863.384	50075.25
863.629	50007.25
863.873	50091.25
864.118	49821.25
864.363	49711.25
864.608	49695.25
864.853	49301.25
865.098	49153.25
865.342	48984.25
865.587	48891.25
865.832	48577.25
866.076	48600.25
866.321	48440.25
866.565	48334.25
866.81	48080.25
867.054	47931.25
867.298	47895.25
867.543	47761.25
867.787	47547.25
868.031	47567.25
868.275	47498.25
868.519	47455.25
868.764	47405.25
869.008	47124.25
869.252	47021.25
869.496	46860.25
869.739	46757.25
869.983	46675.25
870.227	46609.25
870.471	46674.25
870.715	46719.25
870.958	46726.25
871.202	46787.25
871.446	47115.25
871.689	46867.25
871.933	46777.25
872.176	46972.25
872.42	46864.25
872.663	46588.25
872.906	46579.25
873.15	46177.25
873.393	45891.25
873.636	45490.25
873.879	45254.25
874.122	44848.25
874.366	44536.25
874.609	44375.25
874.852	44239.25
875.095	43910.25
875.337	43920.25
875.58	43684.25
875.823	43611.25
876.066	43444.25
876.309	43398.25
876.551	42971.25
876.794	42947.25
877.037	42843.25
877.279	42684.25
877.522	42888.25
877.764	42900.25
878.007	42870.25
878.249	42792.25
878.491	42800.25
878.734	42651.25
878.976	42553.25
879.218	42431.25
879.46	42285.25
879.702	41967.25
879.945	41665.25
880.187	41323.25
880.429	41275.25
880.671	41056.25
880.912	40863.25
881.154	41024.25
881.396	40729.25
881.638	40701.25
881.88	40689.25
882.121	40622.25
882.363	40443.25
882.605	40312.25
882.846	40243.25
883.088	39987.25
883.329	39758.25
883.571	39655.25
883.812	39679.25
884.053	39816.25
884.295	39893.25
884.536	40188.25
884.777	39838.25
885.018	39874.25
885.259	39900.25
885.5	39758.25
885.742	39972.25
885.982	39740.25
886.223	39687.25
886.464	39547.25
886.705	39254.25
886.946	39236.25
887.187	38856.25
887.428	38461.25
887.668	38268.25
887.909	37800.25
888.15	37583.25
888.39	37441.25
888.631	37206.25
888.871	37011.25
889.111	36947.25
889.352	36563.25
889.592	36271.25
889.833	35884.25
890.073	35826.25
890.313	35774.25
890.553	35414.25
890.793	35428.25
891.033	35137.25
891.273	34965.25
891.513	34891.25
891.753	34922.25
891.993	34799.25
892.233	34911.25
892.473	34905.25
892.713	35008.25
892.952	35008.25
893.192	35071.25
893.432	34939.25
893.671	34913.25
893.911	34723.25
894.15	34492.25
894.39	34394.25
894.629	34184.25
894.869	33938.25
895.108	33840.25
895.347	33653.25
895.587	33503.25
895.826	33390.25
896.065	33345.25
896.304	33237.25
896.543	33226.25
896.782	33117.25
897.021	33011.25
897.26	32865.25
897.499	32906.25
897.738	32719.25
897.977	32528.25
898.216	32205.25
898.454	32003.25
898.693	31821.25
898.932	31827.25
899.17	31541.25
899.409	31389.25
899.647	31329.25
899.886	31412.25
900.124	31450.25
900.363	31333.25
900.601	31332.25
900.839	31470.25
901.078	31349.25
901.316	31533.25
901.554	31488.25
901.792	31603.25
902.03	31509.25
902.268	31514.25
902.506	31374.25
902.744	31212.25
902.982	31062.25
903.22	30778.25
903.458	30456.25
903.695	30059.25
903.933	29861.25
904.171	29380.25
904.409	28995.25
904.646	28727.25
904.884	28441.25
905.121	28089.25
905.359	27777.25
905.596	27571.25
905.833	27376.25
906.071	27281.25
906.308	27169.25
906.545	27143.25
906.783	26987.25
907.02	27012.25
907.257	26912.25
907.494	26947.25
907.731	26741.25
907.968	26631.25
908.205	26565.25
908.442	26220.25
908.679	26182.25
908.915	26101.25
909.152	25824.25
909.389	25643.25
909.626	25460.25
909.862	25281.25
910.099	25269.25
910.335	25152.25
910.572	24976.25
910.808	25038.25
911.045	24845.25
911.281	24917.25
911.518	24768.25
911.754	24646.25
911.99	24396.25
912.226	24370.25
912.463	24061.25
912.699	23873.25
912.935	23753.25
913.171	23501.25
913.407	23240.25
913.643	23338.25
913.879	23113.25
914.114	22763.25
914.35	22558.25
914.586	22499.25
914.822	22200.25
915.057	22170.25
915.293	21845.25
915.529	21788.25
915.764	21977.25
916	21741.25
916.235	21663.25
916.471	21815.25
916.706	21579.25
916.941	21611.25
917.177	21386.25
917.412	21575.25
917.647	21466.25
917.882	21386.25
918.117	21338.25
918.352	21318.25
918.588	21278.25
918.823	20963.25
919.057	20886.25
919.292	20637.25
919.527	20542.25
919.762	20225.25
919.997	20200.25
920.232	19915.25
920.466	19798.25
920.701	19517.25
920.935	19451.25
921.17	19324.25
921.405	19296.25
921.639	19310.25
921.873	19086.25
922.108	18997.25
922.342	18984.25
922.576	18853.25
922.811	18767.25
923.045	18807.25
923.279	18697.25
923.513	18626.25
923.747	18533.25
923.981	18417.25
924.215	18209.25
924.449	18172.25
924.683	17938.25
924.917	17851.25
925.151	17843.25
925.385	17862.25
925.618	17716.25
925.852	17653.25
926.086	17585.25
926.319	17648.25
926.553	17573.25
926.786	17675.25
927.02	17527.25
927.253	17663.25
927.486	17557.25
927.72	17423.25
927.953	17503.25
928.186	17353.25
928.42	17382.25
928.653	17321.25
928.886	17181.25
929.119	17173.25
929.352	17047.25
929.585	16956.25
929.818	16743.25
930.051	16623.25
930.284	16522.25
930.516	16339.25
930.749	16245.25
930.982	16190.25
931.215	16105.25
931.447	15975.25
931.68	15993.25
931.912	15805.25
932.145	15790.25
932.377	15919.25
932.61	16109.25
932.842	15856.25
933.074	15846.25
933.307	15745.25
933.539	15795.25
933.771	15880.25
934.003	15762.25
934.236	15797.25
934.468	15841.25
934.7	15701.25
934.932	15656.25
935.164	15645.25
935.395	15600.25
935.627	15551.25
935.859	15435.25
936.091	15393.25
936.323	15435.25
936.554	15290.25
936.786	15232.25
937.017	15139.25
937.249	15099.25
937.481	15034.25
937.712	15091.25
937.943	14929.25
938.175	14942.25
938.406	14959.25
938.637	15046.25
938.869	14754.25
939.1	14818.25
939.331	14747.25
939.562	14694.25
939.793	14734.25
940.024	14726.25
940.255	14534.25
940.486	14440.25
940.717	14393.25
940.948	14385.25
941.179	14341.25
941.409	14257.25
941.64	14202.25
941.871	14224.25
942.102	14111.25
942.332	14194.25
942.563	14190.25
942.793	14193.25
943.024	14175.25
943.254	14128.25
943.484	14128.25
943.715	14080.25
943.945	14127.25
944.175	14054.25
944.405	13941.25
944.636	14119.25
944.866	14004.25
945.096	13977.25
945.326	13862.25
945.556	13988.25
945.786	13852.25
946.016	13623.25
946.245	13449.25
946.475	13545.25
946.705	13388.25
946.935	13354.25
947.164	13317.25
947.394	13110.25
947.624	13179.25
947.853	13134.25
948.083	13050.25
948.312	12970.25
948.542	12862.25
948.771	12788.25
949	12911.25
949.23	12870.25
949.459	12833.25
949.688	12859.25
949.917	12773.25
950.146	12785.25
950.375	12746.25
950.604	12653.25
950.833	12766.25
951.062	12733.25
951.291	12627.25
951.52	12545.25
951.749	12504.25
951.978	12473.25
952.206	12421.25
952.435	12388.25
952.664	12424.25
952.892	12277.25
953.121	12275.25
953.349	12258.25
953.578	12215.25
953.806	12107.25
954.035	12046.25
954.263	12075.25
954.491	12014.25
954.719	11982.25
954.948	11863.25
955.176	11780.25
955.404	11632.25
955.632	11697.25
955.86	11631.25
956.088	11604.25
956.316	11555.25
956.544	11459.25
956.772	11355.25
956.999	11279.25
957.227	11328.25
957.455	11125.25
957.683	11117.25
957.91	11073.25
958.138	11048.25
958.365	10987.25
958.593	10821.25
958.82	10810.25
959.048	10833.25
959.275	10765.25
959.502	10792.25
959.73	10693.25
959.957	10722.25
960.184	10657.25
960.411	10658.25
960.638	10686.25
960.865	10595.25
961.092	10641.25
961.319	10514.25
961.546	10539.25
961.773	10553.25
962	10508.25
962.227	10563.25
962.454	10445.25
962.68	10393.25
962.907	10308.25
963.134	10188.25
963.36	10221.25
963.587	10181.25
963.813	10016.25
964.04	9994.25
964.266	9901.25
964.493	9947.25
964.719	9857.25
964.945	9833.25
965.171	9740.25
965.398	9736.25
965.624	9691.25
965.85	9527.25
966.076	9497.25
966.302	9470.25
966.528	9396.25
966.754	9464.25
966.98	9391.25
967.206	9330.25
967.431	9227.25
967.657	9278.25
967.883	9237.25
968.109	9265.25
968.334	9065.25
968.56	9105.25
968.785	9089.25
969.011	9024.25
969.236	9060.25
969.462	8969.25
969.687	8845.25
969.912	8951.25
970.138	8982.25
970.363	8837.25
970.588	8816.25
970.813	8758.25
971.038	8706.25
971.263	8762.25
971.488	8723.25
971.713	8709.25
971.938	8645.25
972.163	8494.25
972.388	8511.25
972.613	8449.25
972.838	8435.25
973.062	8463.25
973.287	8416.25
973.512	8284.25
973.736	8234.25
973.961	8178.25
974.185	8145.25
974.41	8139.25
974.634	8039.25
974.858	7956.25
975.083	7949.25
975.307	7974.25
975.531	7853.25
975.755	7768.25
975.98	7715.25
976.204	7614.25
976.428	7613.25
976.652	7537.25
976.876	7550.25
977.1	7581.25
977.324	7489.25
977.547	7544.25
977.771	7460.25
977.995	7459.25
978.219	7299.25
978.442	7466.25
978.666	7392.25
978.89	7319.25
979.113	7297.25
979.337	7242.25
979.56	7189.25
979.783	7250.25
980.007	7134.25
980.23	7133.25
980.453	7098.25
980.677	7073.25
980.9	6991.25
981.123	6869.25
981.346	6966.25
981.569	6949.25
981.792	6906.25
982.015	6796.25
982.238	6751.25
982.461	6728.25
982.684	6696.25
982.907	6609.25
983.129	6549.25
983.352	6569.25
983.575	6552.25
983.797	6508.25
984.02	6430.25
984.242	6410.25
984.465	6387.25
984.687	6432.25
984.91	6359.25
985.132	6299.25
985.354	6296.25
985.577	6196.25
985.799	6171.25
986.021	6117.25
986.243	6077.25
986.465	6114.25
986.687	6099.25
986.909	6103.25
987.131	6074.25
987.353	5984.25
987.575	5990.25
987.797	5936.25
988.019	5862.25
988.241	5913.25
988.462	5824.25
988.684	5900.25
988.906	5855.25
989.127	5889.25
989.349	5730.25
989.57	5802.25
989.792	5775.25
990.013	5813.25
990.234	5695.25
990.456	5730.25
990.677	5704.25
990.898	5602.25
991.119	5554.25
991.341	5535.25
991.562	5499.25
991.783	5485.25
992.004	5425.25
992.225	5328.25
992.446	5419.25
992.667	5220.25
992.887	5311.25
993.108	5198.25
993.329	5254.25
993.55	5216.25
993.77	5092.25
993.991	5066.25
994.212	5096.25
994.432	5028.25
994.653	4988.25
994.873	4999.25
995.093	4855.25
995.314	4880.25
995.534	4887.25
995.754	4915.25
995.975	4912.25
996.195	4752.25
996.415	4834.25
996.635	4727.25
996.855	4808.25
997.075	4711.25
997.295	4722.25
997.515	4659.25
997.735	4773.25
997.955	4676.25
998.174	4642.25
998.394	4610.25
998.614	4634.25
998.834	4591.25
999.053	4666.25
999.273	4544.25
999.492	4567.25
999.712	4490.25
999.931	4458.25
1000.151	4442.25
1000.37	4432.25
1000.589	4481.25
1000.809	4347.25
1001.028	4435.25
1001.247	4366.25
1001.466	4177.25
1001.685	4359.25
1001.904	4267.25
1002.123	4214.25
1002.342	4181.25
1002.561	4154.25
1002.78	4108.25
1002.999	4148.25
1003.218	4078.25
1003.436	4031.25
1003.655	4065.25
1003.874	3989.25
1004.092	4032.25
1004.311	3996.25
1004.53	3969.25
1004.748	4014.25
1004.966	3896.25
1005.185	3939.25
1005.403	3913.25
1005.622	3874.25
1005.84	3929.25
1006.058	3845.25
1006.276	3842.25
1006.494	4288.25
1006.712	3798.25
1006.931	3872.25
1007.149	3750.25
1007.367	3764.25
1007.584	3804.25
1007.802	3827.25
1008.02	3717.25
1008.238	3789.25
1008.456	3821.25
1008.673	3672.25
1008.891	3768.25
1009.109	3710.25
1009.326	3719.25
1009.544	3833.25
1009.761	3751.25
1009.979	3792.25
1010.196	3812.25
1010.413	3940.25
1010.631	3951.25
1010.848	3970.25
1011.065	4000.25
1011.282	4016.25
1011.5	3902.25
1011.717	3969.25
1011.934	3865.25
1012.151	3925.25
1012.368	3875.25
1012.585	3818.25
1012.801	3836.25
1013.018	3803.25
1013.235	3781.25
1013.452	3775.25
1013.669	3749.25
1013.885	3755.25
1014.102	3787.25
1014.318	3755.25
1014.535	3666.25
1014.751	3735.25
1014.968	3707.25
1015.184	3747.25
1015.401	3633.25
1015.617	3603.25
1015.833	3531.25
1016.049	3557.25
1016.266	3495.25
1016.482	3485.25
1016.698	3380.25
1016.914	3439.25
1017.13	3353.25
1017.346	3382.25
1017.562	3452.25
1017.778	3325.25
1017.993	3281.25
1018.209	3370.25
1018.425	3334.25
1018.641	3290.25
1018.856	3260.25
1019.072	3306.25
1019.288	3329.25
1019.503	3259.25
1019.719	3232.25
1019.934	3164.25
1020.149	3281.25
1020.365	3205.25
1020.58	3112.25
1020.795	3105.25
1021.011	3063.25
1021.226	3009.25
1021.441	2980.25
1021.656	2908.25
1021.871	2825.25
1022.086	2790.25
1022.301	2772.25
1022.516	2738.25
1022.731	2731.25
1022.946	2625.25
1023.16	2610.25
1023.375	2551.25
1023.59	2536.25
1023.804	2503.25
1024.019	2552.25
1024.234	2401.25
1024.448	2441.25
1024.663	2338.25
1024.877	2288.25
1025.092	2311.25
1025.306	2301.25
1025.52	2168.25
1025.734	2236.25
1025.949	2091.25
1026.163	2050.25
1026.377	1982.25
1026.591	2009.25
1026.805	1922.25
1027.019	1905.25
1027.233	1838.25
1027.447	1768.25
1027.661	1846.25
1027.875	1764.25
1028.088	1739.25
1028.302	1658.25
1028.516	1619.25
1028.73	1595.25
1028.943	1559.25
1029.157	1429.25
1029.37	1348.25
1029.584	-1.75
1029.797	0.25
1030.011	-5.75
1030.224	0.25
