Data from QEP037381__386__16-40-29-925.txt Node

Date: Fri Dec 16 16:40:29 EST 2022
User: dcclab
Spectrometer: QEP03738
Trigger mode: 4
Integration Time (sec): 1.000000E1
Scans to average: 1
Electric dark correction enabled: true
Nonlinearity correction enabled: false
Boxcar width: 0
XAxis mode: Wavelengths
Number of Pixels in Spectrum: 1044
>>>>>Begin Spectral Data<<<<<
784.041	11.62
784.3	-2.38
784.558	-1.38
784.817	-3.38
785.075	105391.62
785.334	18259.62
785.592	8542.62
785.851	5903.62
786.109	4454.62
786.368	3453.62
786.626	2787.62
786.884	2330.62
787.143	1950.62
787.401	1612.62
787.659	1446.62
787.917	1238.62
788.175	1148.62
788.433	1003.62
788.691	903.62
788.949	863.62
789.207	808.62
789.465	718.62
789.723	677.62
789.98	638.62
790.238	654.62
790.496	620.62
790.753	596.62
791.011	640.62
791.268	569.62
791.526	552.62
791.783	582.62
792.041	560.62
792.298	475.62
792.556	530.62
792.813	513.62
793.07	486.62
793.327	462.62
793.584	548.62
793.841	487.62
794.099	505.62
794.356	554.62
794.613	462.62
794.869	495.62
795.126	462.62
795.383	444.62
795.64	468.62
795.897	422.62
796.153	476.62
796.41	466.62
796.667	452.62
796.923	462.62
797.18	457.62
797.436	470.62
797.693	444.62
797.949	505.62
798.206	536.62
798.462	458.62
798.718	506.62
798.974	482.62
799.231	529.62
799.487	535.62
799.743	541.62
799.999	577.62
800.255	576.62
800.511	562.62
800.767	612.62
801.023	602.62
801.279	645.62
801.534	705.62
801.79	777.62
802.046	832.62
802.302	1002.62
802.557	1179.62
802.813	1476.62
803.068	1860.62
803.324	2608.62
803.579	3607.62
803.835	5056.62
804.09	6912.62
804.345	9120.62
804.601	11544.62
804.856	14050.62
805.111	16181.62
805.366	17852.62
805.621	19036.62
805.876	19968.62
806.131	20600.62
806.386	21009.62
806.641	21428.62
806.896	21849.62
807.151	22354.62
807.406	22578.62
807.661	23138.62
807.915	23531.62
808.17	23955.62
808.425	24147.62
808.679	24411.62
808.934	24746.62
809.188	25121.62
809.443	25340.62
809.697	25740.62
809.951	25858.62
810.206	26131.62
810.46	26489.62
810.714	26701.62
810.968	27072.62
811.223	27326.62
811.477	27519.62
811.731	27759.62
811.985	27819.62
812.239	28092.62
812.493	28272.62
812.747	28278.62
813	28433.62
813.254	28527.62
813.508	28766.62
813.762	28980.62
814.015	29109.62
814.269	29393.62
814.522	29749.62
814.776	29992.62
815.03	30415.62
815.283	30932.62
815.536	31426.62
815.79	31958.62
816.043	32464.62
816.296	32864.62
816.55	33300.62
816.803	33673.62
817.056	34319.62
817.309	34617.62
817.562	35102.62
817.815	35353.62
818.068	35780.62
818.321	36058.62
818.574	36651.62
818.827	37104.62
819.079	37398.62
819.332	38167.62
819.585	38597.62
819.838	39101.62
820.09	39478.62
820.343	39749.62
820.595	39921.62
820.848	40324.62
821.1	40438.62
821.353	40474.62
821.605	40719.62
821.857	40359.62
822.11	40411.62
822.362	40281.62
822.614	40296.62
822.866	40403.62
823.118	40216.62
823.37	40427.62
823.622	40586.62
823.874	40706.62
824.126	40893.62
824.378	41026.62
824.63	40972.62
824.882	41188.62
825.134	41190.62
825.385	41110.62
825.637	41056.62
825.888	41027.62
826.14	41022.62
826.392	40884.62
826.643	40706.62
826.895	40523.62
827.146	40519.62
827.397	40395.62
827.649	40305.62
827.9	40236.62
828.151	40504.62
828.402	40439.62
828.653	40844.62
828.905	40699.62
829.156	40855.62
829.407	40869.62
829.658	40867.62
829.909	41110.62
830.159	40907.62
830.41	40843.62
830.661	40647.62
830.912	40359.62
831.162	40275.62
831.413	40158.62
831.664	40214.62
831.914	40092.62
832.165	40119.62
832.415	40138.62
832.666	40107.62
832.916	40026.62
833.167	40029.62
833.417	40149.62
833.667	40071.62
833.917	39831.62
834.168	39789.62
834.418	39733.62
834.668	39579.62
834.918	39378.62
835.168	39216.62
835.418	39099.62
835.668	39002.62
835.918	38892.62
836.167	38837.62
836.417	38753.62
836.667	38779.62
836.917	38694.62
837.166	38573.62
837.416	38721.62
837.666	38578.62
837.915	38596.62
838.165	38494.62
838.414	38544.62
838.663	38454.62
838.913	38373.62
839.162	38346.62
839.411	38423.62
839.661	38142.62
839.91	38123.62
840.159	37962.62
840.408	38022.62
840.657	38061.62
840.906	38142.62
841.155	38067.62
841.404	37900.62
841.653	38174.62
841.902	38175.62
842.15	38310.62
842.399	38235.62
842.648	38070.62
842.897	37844.62
843.145	37730.62
843.394	37396.62
843.642	37429.62
843.891	37286.62
844.139	37035.62
844.388	36829.62
844.636	36836.62
844.884	36761.62
845.133	36674.62
845.381	36630.62
845.629	36564.62
845.877	36637.62
846.125	36685.62
846.373	36518.62
846.621	36412.62
846.869	36352.62
847.117	36105.62
847.365	35931.62
847.613	35771.62
847.861	35579.62
848.108	35542.62
848.356	35626.62
848.604	35360.62
848.851	35331.62
849.099	35506.62
849.346	35732.62
849.594	35776.62
849.841	35944.62
850.089	35944.62
850.336	36010.62
850.583	35854.62
850.831	35808.62
851.078	35730.62
851.325	35605.62
851.572	35724.62
851.819	35442.62
852.066	34751.62
852.313	34275.62
852.56	33960.62
852.807	34060.62
853.054	33831.62
853.301	33696.62
853.548	33788.62
853.794	33924.62
854.041	34052.62
854.288	34140.62
854.534	34418.62
854.781	34301.62
855.028	34347.62
855.274	34271.62
855.52	33968.62
855.767	33886.62
856.013	33846.62
856.26	34046.62
856.506	33754.62
856.752	33515.62
856.998	33767.62
857.244	33759.62
857.49	33873.62
857.736	33894.62
857.982	33975.62
858.228	33815.62
858.474	33414.62
858.72	33431.62
858.966	33044.62
859.212	32970.62
859.458	32452.62
859.703	32214.62
859.949	31910.62
860.195	31747.62
860.44	31575.62
860.686	31522.62
860.931	31389.62
861.177	31366.62
861.422	31266.62
861.667	31043.62
861.913	31002.62
862.158	31205.62
862.403	31307.62
862.648	31431.62
862.893	31325.62
863.138	31385.62
863.384	31340.62
863.629	31308.62
863.873	31159.62
864.118	31082.62
864.363	30938.62
864.608	30911.62
864.853	30730.62
865.098	30614.62
865.342	30447.62
865.587	30460.62
865.832	30318.62
866.076	30371.62
866.321	30332.62
866.565	30213.62
866.81	29935.62
867.054	29875.62
867.298	29905.62
867.543	29680.62
867.787	29703.62
868.031	29731.62
868.275	29553.62
868.519	29564.62
868.764	29533.62
869.008	29452.62
869.252	29268.62
869.496	29276.62
869.739	29189.62
869.983	29233.62
870.227	29175.62
870.471	29180.62
870.715	29172.62
870.958	29332.62
871.202	29378.62
871.446	29546.62
871.689	29357.62
871.933	29409.62
872.176	29322.62
872.42	29401.62
872.663	29324.62
872.906	29311.62
873.15	29064.62
873.393	29037.62
873.636	28882.62
873.879	28606.62
874.122	28349.62
874.366	28078.62
874.609	27867.62
874.852	27680.62
875.095	27662.62
875.337	27461.62
875.58	27245.62
875.823	27296.62
876.066	27349.62
876.309	27226.62
876.551	26865.62
876.794	27024.62
877.037	26866.62
877.279	26674.62
877.522	26723.62
877.764	26830.62
878.007	26700.62
878.249	26716.62
878.491	26549.62
878.734	26539.62
878.976	26513.62
879.218	26406.62
879.46	26280.62
879.702	26134.62
879.945	25896.62
880.187	25572.62
880.429	25498.62
880.671	25334.62
880.912	25395.62
881.154	25295.62
881.396	25170.62
881.638	25269.62
881.88	25241.62
882.121	25188.62
882.363	25203.62
882.605	25254.62
882.846	24978.62
883.088	25083.62
883.329	24923.62
883.571	24850.62
883.812	25063.62
884.053	25399.62
884.295	25854.62
884.536	26097.62
884.777	25921.62
885.018	25742.62
885.259	25711.62
885.5	25523.62
885.742	25646.62
885.982	25461.62
886.223	25108.62
886.464	25168.62
886.705	24964.62
886.946	24663.62
887.187	24420.62
887.428	24302.62
887.668	23798.62
887.909	23562.62
888.15	23386.62
888.39	23227.62
888.631	23173.62
888.871	22813.62
889.111	22803.62
889.352	22619.62
889.592	22377.62
889.833	22217.62
890.073	22112.62
890.313	22156.62
890.553	21778.62
890.793	21696.62
891.033	21775.62
891.273	21592.62
891.513	21548.62
891.753	21536.62
891.993	21396.62
892.233	21427.62
892.473	21624.62
892.713	21617.62
892.952	21519.62
893.192	21530.62
893.432	21565.62
893.671	21475.62
893.911	21313.62
894.15	21226.62
894.39	21209.62
894.629	21023.62
894.869	20958.62
895.108	20906.62
895.347	20776.62
895.587	20748.62
895.826	20699.62
896.065	20613.62
896.304	20646.62
896.543	20617.62
896.782	20442.62
897.021	20400.62
897.26	20495.62
897.499	20477.62
897.738	20420.62
897.977	20029.62
898.216	20064.62
898.454	19898.62
898.693	19732.62
898.932	19768.62
899.17	19649.62
899.409	19489.62
899.647	19538.62
899.886	19392.62
900.124	19474.62
900.363	19448.62
900.601	19554.62
900.839	19718.62
901.078	19667.62
901.316	19627.62
901.554	19836.62
901.792	19799.62
902.03	19805.62
902.268	19842.62
902.506	19760.62
902.744	19566.62
902.982	19556.62
903.22	19245.62
903.458	19004.62
903.695	18706.62
903.933	18550.62
904.171	18188.62
904.409	17960.62
904.646	17755.62
904.884	17540.62
905.121	17486.62
905.359	17224.62
905.596	17030.62
905.833	16877.62
906.071	16791.62
906.308	16779.62
906.545	16702.62
906.783	16719.62
907.02	16656.62
907.257	16641.62
907.494	16536.62
907.731	16526.62
907.968	16468.62
908.205	16321.62
908.442	16196.62
908.679	16116.62
908.915	15970.62
909.152	15942.62
909.389	15742.62
909.626	15679.62
909.862	15589.62
910.099	15436.62
910.335	15492.62
910.572	15352.62
910.808	15362.62
911.045	15158.62
911.281	15165.62
911.518	15275.62
911.754	15020.62
911.99	14906.62
912.226	14857.62
912.463	14766.62
912.699	14679.62
912.935	14541.62
913.171	14448.62
913.407	14337.62
913.643	14296.62
913.879	14131.62
914.114	13958.62
914.35	13961.62
914.586	13732.62
914.822	13584.62
915.057	13572.62
915.293	13371.62
915.529	13364.62
915.764	13402.62
916	13364.62
916.235	13259.62
916.471	13286.62
916.706	13258.62
916.941	13158.62
917.177	13216.62
917.412	13186.62
917.647	13213.62
917.882	13141.62
918.117	13075.62
918.352	13086.62
918.588	13055.62
918.823	12910.62
919.057	12836.62
919.292	12687.62
919.527	12528.62
919.762	12428.62
919.997	12348.62
920.232	12136.62
920.466	12157.62
920.701	11905.62
920.935	11866.62
921.17	11837.62
921.405	11805.62
921.639	11770.62
921.873	11698.62
922.108	11724.62
922.342	11592.62
922.576	11547.62
922.811	11532.62
923.045	11550.62
923.279	11496.62
923.513	11375.62
923.747	11350.62
923.981	11368.62
924.215	11243.62
924.449	11133.62
924.683	11045.62
924.917	10985.62
925.151	10955.62
925.385	10950.62
925.618	10882.62
925.852	10841.62
926.086	10746.62
926.319	10902.62
926.553	10763.62
926.786	10742.62
927.02	10693.62
927.253	10857.62
927.486	10795.62
927.72	10721.62
927.953	10731.62
928.186	10674.62
928.42	10650.62
928.653	10540.62
928.886	10504.62
929.119	10469.62
929.352	10383.62
929.585	10372.62
929.818	10263.62
930.051	10263.62
930.284	10413.62
930.516	10092.62
930.749	9971.62
930.982	9895.62
931.215	9849.62
931.447	9723.62
931.68	9814.62
931.912	9720.62
932.145	9744.62
932.377	9760.62
932.61	9919.62
932.842	9717.62
933.074	9769.62
933.307	9729.62
933.539	9732.62
933.771	9737.62
934.003	9625.62
934.236	9714.62
934.468	9745.62
934.7	9555.62
934.932	9632.62
935.164	9628.62
935.395	9462.62
935.627	9502.62
935.859	9531.62
936.091	9442.62
936.323	9447.62
936.554	9430.62
936.786	9409.62
937.017	9257.62
937.249	9289.62
937.481	9203.62
937.712	9309.62
937.943	9258.62
938.175	9222.62
938.406	9097.62
938.637	9269.62
938.869	9061.62
939.1	9136.62
939.331	8970.62
939.562	9023.62
939.793	9074.62
940.024	9059.62
940.255	9013.62
940.486	8889.62
940.717	8818.62
940.948	8758.62
941.179	8738.62
941.409	8792.62
941.64	8723.62
941.871	8798.62
942.102	8728.62
942.332	8716.62
942.563	8801.62
942.793	8717.62
943.024	8701.62
943.254	8707.62
943.484	8655.62
943.715	8731.62
943.945	8705.62
944.175	8566.62
944.405	8551.62
944.636	8618.62
944.866	8628.62
945.096	8603.62
945.326	8489.62
945.556	8568.62
945.786	8512.62
946.016	8351.62
946.245	8317.62
946.475	8282.62
946.705	8255.62
946.935	8153.62
947.164	8144.62
947.394	8148.62
947.624	8061.62
947.853	8107.62
948.083	8026.62
948.312	8028.62
948.542	7944.62
948.771	7849.62
949	7891.62
949.23	7881.62
949.459	7844.62
949.688	7936.62
949.917	7863.62
950.146	7876.62
950.375	7888.62
950.604	7790.62
950.833	7865.62
951.062	7851.62
951.291	7769.62
951.52	7744.62
951.749	7657.62
951.978	7668.62
952.206	7660.62
952.435	7637.62
952.664	7687.62
952.892	7633.62
953.121	7569.62
953.349	7535.62
953.578	7511.62
953.806	7499.62
954.035	7357.62
954.263	7410.62
954.491	7275.62
954.719	7285.62
954.948	7186.62
955.176	7272.62
955.404	7126.62
955.632	7203.62
955.86	7108.62
956.088	7101.62
956.316	7138.62
956.544	7043.62
956.772	6978.62
956.999	7002.62
957.227	6955.62
957.455	6891.62
957.683	6891.62
957.91	6815.62
958.138	6726.62
958.365	6742.62
958.593	6728.62
958.82	6676.62
959.048	6696.62
959.275	6657.62
959.502	6653.62
959.73	6579.62
959.957	6636.62
960.184	6630.62
960.411	6497.62
960.638	6661.62
960.865	6524.62
961.092	6555.62
961.319	6454.62
961.546	6530.62
961.773	6516.62
962	6435.62
962.227	6526.62
962.454	6478.62
962.68	6469.62
962.907	6397.62
963.134	6359.62
963.36	6324.62
963.587	6328.62
963.813	6195.62
964.04	6212.62
964.266	6131.62
964.493	6163.62
964.719	6109.62
964.945	6112.62
965.171	5974.62
965.398	5990.62
965.624	6019.62
965.85	5907.62
966.076	5886.62
966.302	5959.62
966.528	5883.62
966.754	5823.62
966.98	5819.62
967.206	5776.62
967.431	5740.62
967.657	5837.62
967.883	5759.62
968.109	5752.62
968.334	5671.62
968.56	5679.62
968.785	5655.62
969.011	5605.62
969.236	5651.62
969.462	5596.62
969.687	5625.62
969.912	5605.62
970.138	5613.62
970.363	5492.62
970.588	5513.62
970.813	5464.62
971.038	5446.62
971.263	5469.62
971.488	5470.62
971.713	5430.62
971.938	5443.62
972.163	5335.62
972.388	5300.62
972.613	5255.62
972.838	5304.62
973.062	5265.62
973.287	5223.62
973.512	5173.62
973.736	5161.62
973.961	5176.62
974.185	5075.62
974.41	5099.62
974.634	5010.62
974.858	5005.62
975.083	5053.62
975.307	5003.62
975.531	4938.62
975.755	4818.62
975.98	4821.62
976.204	4767.62
976.428	4752.62
976.652	4723.62
976.876	4756.62
977.1	4719.62
977.324	4667.62
977.547	4684.62
977.771	4688.62
977.995	4660.62
978.219	4560.62
978.442	4731.62
978.666	4598.62
978.89	4618.62
979.113	4585.62
979.337	4620.62
979.56	4524.62
979.783	4566.62
980.007	4453.62
980.23	4526.62
980.453	4478.62
980.677	4447.62
980.9	4436.62
981.123	4330.62
981.346	4413.62
981.569	4397.62
981.792	4419.62
982.015	4303.62
982.238	4298.62
982.461	4255.62
982.684	4244.62
982.907	4183.62
983.129	4172.62
983.352	4201.62
983.575	4158.62
983.797	4144.62
984.02	4075.62
984.242	4063.62
984.465	4071.62
984.687	4065.62
984.91	4101.62
985.132	4031.62
985.354	4027.62
985.577	3960.62
985.799	3919.62
986.021	3869.62
986.243	3935.62
986.465	3872.62
986.687	3906.62
986.909	3948.62
987.131	3887.62
987.353	3826.62
987.575	3870.62
987.797	3820.62
988.019	3734.62
988.241	3766.62
988.462	3747.62
988.684	3762.62
988.906	3821.62
989.127	3777.62
989.349	3627.62
989.57	3729.62
989.792	3684.62
990.013	3720.62
990.234	3718.62
990.456	3733.62
990.677	3660.62
990.898	3616.62
991.119	3593.62
991.341	3581.62
991.562	3594.62
991.783	3534.62
992.004	3507.62
992.225	3442.62
992.446	3525.62
992.667	3378.62
992.887	3497.62
993.108	3349.62
993.329	3503.62
993.55	3406.62
993.77	3330.62
993.991	3311.62
994.212	3340.62
994.432	3306.62
994.653	3274.62
994.873	3239.62
995.093	3154.62
995.314	3172.62
995.534	3230.62
995.754	3284.62
995.975	3269.62
996.195	3123.62
996.415	3204.62
996.635	3154.62
996.855	3185.62
997.075	3121.62
997.295	3113.62
997.515	3066.62
997.735	3192.62
997.955	3097.62
998.174	3140.62
998.394	3060.62
998.614	3121.62
998.834	3076.62
999.053	3107.62
999.273	3069.62
999.492	3106.62
999.712	3045.62
999.931	3011.62
1000.151	3006.62
1000.37	2974.62
1000.589	2999.62
1000.809	2915.62
1001.028	3025.62
1001.247	2918.62
1001.466	2832.62
1001.685	2958.62
1001.904	2844.62
1002.123	2855.62
1002.342	2852.62
1002.561	2807.62
1002.78	2805.62
1002.999	2846.62
1003.218	2782.62
1003.436	2740.62
1003.655	2824.62
1003.874	2683.62
1004.092	2744.62
1004.311	2763.62
1004.53	2744.62
1004.748	2789.62
1004.966	2704.62
1005.185	2714.62
1005.403	2756.62
1005.622	2677.62
1005.84	2751.62
1006.058	2648.62
1006.276	2647.62
1006.494	3143.62
1006.712	2647.62
1006.931	2737.62
1007.149	2616.62
1007.367	2610.62
1007.584	2671.62
1007.802	2697.62
1008.02	2623.62
1008.238	2737.62
1008.456	2750.62
1008.673	2571.62
1008.891	2729.62
1009.109	2701.62
1009.326	2759.62
1009.544	2820.62
1009.761	2744.62
1009.979	2861.62
1010.196	2916.62
1010.413	3066.62
1010.631	3127.62
1010.848	3199.62
1011.065	3158.62
1011.282	3156.62
1011.5	3096.62
1011.717	3238.62
1011.934	3138.62
1012.151	3131.62
1012.368	3106.62
1012.585	3069.62
1012.801	3109.62
1013.018	3062.62
1013.235	3021.62
1013.452	3029.62
1013.669	3064.62
1013.885	3016.62
1014.102	3041.62
1014.318	3067.62
1014.535	3014.62
1014.751	3045.62
1014.968	2972.62
1015.184	3044.62
1015.401	2923.62
1015.617	2932.62
1015.833	2908.62
1016.049	2824.62
1016.266	2853.62
1016.482	2812.62
1016.698	2722.62
1016.914	2750.62
1017.13	2677.62
1017.346	2680.62
1017.562	2754.62
1017.778	2687.62
1017.993	2630.62
1018.209	2741.62
1018.425	2649.62
1018.641	2615.62
1018.856	2608.62
1019.072	2635.62
1019.288	2655.62
1019.503	2620.62
1019.719	2553.62
1019.934	2551.62
1020.149	2612.62
1020.365	2519.62
1020.58	2452.62
1020.795	2469.62
1021.011	2388.62
1021.226	2341.62
1021.441	2323.62
1021.656	2236.62
1021.871	2160.62
1022.086	2114.62
1022.301	2117.62
1022.516	2088.62
1022.731	2096.62
1022.946	2004.62
1023.16	2003.62
1023.375	1958.62
1023.59	1903.62
1023.804	1852.62
1024.019	1966.62
1024.234	1818.62
1024.448	1802.62
1024.663	1741.62
1024.877	1708.62
1025.092	1728.62
1025.306	1720.62
1025.52	1613.62
1025.734	1688.62
1025.949	1565.62
1026.163	1535.62
1026.377	1474.62
1026.591	1498.62
1026.805	1402.62
1027.019	1420.62
1027.233	1389.62
1027.447	1307.62
1027.661	1394.62
1027.875	1298.62
1028.088	1306.62
1028.302	1205.62
1028.516	1205.62
1028.73	1133.62
1028.943	1141.62
1029.157	1072.62
1029.37	1012.62
1029.584	-0.38
1029.797	-3.38
1030.011	-0.38
1030.224	-0.38
