Data from QEP037381__375__16-38-39-924.txt Node

Date: Fri Dec 16 16:38:39 EST 2022
User: dcclab
Spectrometer: QEP03738
Trigger mode: 4
Integration Time (sec): 1.000000E1
Scans to average: 1
Electric dark correction enabled: true
Nonlinearity correction enabled: false
Boxcar width: 0
XAxis mode: Wavelengths
Number of Pixels in Spectrum: 1044
>>>>>Begin Spectral Data<<<<<
784.041	11.62
784.3	-1.38
784.558	-0.38
784.817	-6.38
785.075	104178.62
785.334	17827.62
785.592	8358.62
785.851	5741.62
786.109	4276.62
786.368	3306.62
786.626	2713.62
786.884	2253.62
787.143	1883.62
787.401	1578.62
787.659	1418.62
787.917	1240.62
788.175	1132.62
788.433	1002.62
788.691	901.62
788.949	830.62
789.207	806.62
789.465	703.62
789.723	688.62
789.98	630.62
790.238	681.62
790.496	640.62
790.753	610.62
791.011	655.62
791.268	583.62
791.526	580.62
791.783	609.62
792.041	570.62
792.298	494.62
792.556	560.62
792.813	551.62
793.07	512.62
793.327	533.62
793.584	599.62
793.841	525.62
794.099	546.62
794.356	610.62
794.613	495.62
794.869	536.62
795.126	492.62
795.383	488.62
795.64	515.62
795.897	466.62
796.153	523.62
796.41	503.62
796.667	502.62
796.923	521.62
797.18	506.62
797.436	560.62
797.693	507.62
797.949	563.62
798.206	602.62
798.462	511.62
798.718	570.62
798.974	564.62
799.231	636.62
799.487	602.62
799.743	646.62
799.999	655.62
800.255	681.62
800.511	679.62
800.767	755.62
801.023	757.62
801.279	814.62
801.534	889.62
801.79	984.62
802.046	1079.62
802.302	1312.62
802.557	1600.62
802.813	2103.62
803.068	2750.62
803.324	3920.62
803.579	5514.62
803.835	7738.62
804.09	10678.62
804.345	14039.62
804.601	17751.62
804.856	21401.62
805.111	24774.62
805.366	27233.62
805.621	29101.62
805.876	30559.62
806.131	31378.62
806.386	32016.62
806.641	32773.62
806.896	33393.62
807.151	34040.62
807.406	34670.62
807.661	35427.62
807.915	36087.62
808.17	36789.62
808.425	37148.62
808.679	37601.62
808.934	38231.62
809.188	38708.62
809.443	39044.62
809.697	39608.62
809.951	39811.62
810.206	40256.62
810.46	40812.62
810.714	41154.62
810.968	41703.62
811.223	42080.62
811.477	42619.62
811.731	42879.62
811.985	43186.62
812.239	43499.62
812.493	43724.62
812.747	43996.62
813	44134.62
813.254	44434.62
813.508	44737.62
813.762	44980.62
814.015	45293.62
814.269	45756.62
814.522	46248.62
814.776	47024.62
815.03	47565.62
815.283	48301.62
815.536	49097.62
815.79	49959.62
816.043	50822.62
816.296	51608.62
816.55	52366.62
816.803	52899.62
817.056	53730.62
817.309	54188.62
817.562	54791.62
817.815	55616.62
818.068	56194.62
818.321	56716.62
818.574	57616.62
818.827	58354.62
819.079	59090.62
819.332	60202.62
819.585	61030.62
819.838	61813.62
820.09	62388.62
820.343	63058.62
820.595	63349.62
820.848	63690.62
821.1	64234.62
821.353	63971.62
821.605	64220.62
821.857	64415.62
822.11	64032.62
822.362	64043.62
822.614	63983.62
822.866	63763.62
823.118	63907.62
823.37	64147.62
823.622	64361.62
823.874	64590.62
824.126	64969.62
824.378	65219.62
824.63	65419.62
824.882	65513.62
825.134	65559.62
825.385	65784.62
825.637	65583.62
825.888	65285.62
826.14	65263.62
826.392	65262.62
826.643	64793.62
826.895	64853.62
827.146	64598.62
827.397	64568.62
827.649	64391.62
827.9	64563.62
828.151	64623.62
828.402	64793.62
828.653	65059.62
828.905	65391.62
829.156	65495.62
829.407	65400.62
829.658	65313.62
829.909	65280.62
830.159	65326.62
830.41	64857.62
830.661	64728.62
830.912	64422.62
831.162	64205.62
831.413	64234.62
831.664	63865.62
831.914	64065.62
832.165	63925.62
832.415	64105.62
832.666	63985.62
832.916	64133.62
833.167	63961.62
833.417	64221.62
833.667	63877.62
833.917	63836.62
834.168	63701.62
834.418	63455.62
834.668	63275.62
834.918	63102.62
835.168	62795.62
835.418	62731.62
835.668	62662.62
835.918	62310.62
836.167	62283.62
836.417	62212.62
836.667	62180.62
836.917	62134.62
837.166	61877.62
837.416	62162.62
837.666	62141.62
837.915	62085.62
838.165	61813.62
838.414	61718.62
838.663	61653.62
838.913	61345.62
839.162	61354.62
839.411	61257.62
839.661	60956.62
839.91	60925.62
840.159	60648.62
840.408	60897.62
840.657	60647.62
840.906	60704.62
841.155	60687.62
841.404	60942.62
841.653	60919.62
841.902	61013.62
842.15	61122.62
842.399	61060.62
842.648	60956.62
842.897	60704.62
843.145	60392.62
843.394	60096.62
843.642	59897.62
843.891	59710.62
844.139	59322.62
844.388	59198.62
844.636	58933.62
844.884	59034.62
845.133	58886.62
845.381	58946.62
845.629	58846.62
845.877	58802.62
846.125	58723.62
846.373	58732.62
846.621	58662.62
846.869	58321.62
847.117	58128.62
847.365	57615.62
847.613	57512.62
847.861	57238.62
848.108	57200.62
848.356	57148.62
848.604	57069.62
848.851	57098.62
849.099	57058.62
849.346	57280.62
849.594	57563.62
849.841	57799.62
850.089	57893.62
850.336	57811.62
850.583	57980.62
850.831	57473.62
851.078	57028.62
851.325	57127.62
851.572	56958.62
851.819	56522.62
852.066	55694.62
852.313	55093.62
852.56	54824.62
852.807	54657.62
853.054	54323.62
853.301	54217.62
853.548	54380.62
853.794	54601.62
854.041	54721.62
854.288	55107.62
854.534	55424.62
854.781	55210.62
855.028	55128.62
855.274	54963.62
855.52	54631.62
855.767	54391.62
856.013	54020.62
856.26	54343.62
856.506	53809.62
856.752	53858.62
856.998	53872.62
857.244	53837.62
857.49	54215.62
857.736	54141.62
857.982	54108.62
858.228	54182.62
858.474	53877.62
858.72	53611.62
858.966	53045.62
859.212	52784.62
859.458	52308.62
859.703	51709.62
859.949	51140.62
860.195	51053.62
860.44	50774.62
860.686	50609.62
860.931	50388.62
861.177	50138.62
861.422	50110.62
861.667	50116.62
861.913	50054.62
862.158	50331.62
862.403	50421.62
862.648	50615.62
862.893	50466.62
863.138	50258.62
863.384	50302.62
863.629	50349.62
863.873	50170.62
864.118	50087.62
864.363	49970.62
864.608	49855.62
864.853	49639.62
865.098	49387.62
865.342	49201.62
865.587	49043.62
865.832	48876.62
866.076	48854.62
866.321	48646.62
866.565	48573.62
866.81	48321.62
867.054	48326.62
867.298	48016.62
867.543	47894.62
867.787	47867.62
868.031	47646.62
868.275	47715.62
868.519	47403.62
868.764	47475.62
869.008	47123.62
869.252	47155.62
869.496	46918.62
869.739	46905.62
869.983	46813.62
870.227	46863.62
870.471	46608.62
870.715	46813.62
870.958	46904.62
871.202	47025.62
871.446	47202.62
871.689	47080.62
871.933	47101.62
872.176	46966.62
872.42	46911.62
872.663	46742.62
872.906	46498.62
873.15	46353.62
873.393	45916.62
873.636	45629.62
873.879	45240.62
874.122	44962.62
874.366	44532.62
874.609	44227.62
874.852	44044.62
875.095	43879.62
875.337	43758.62
875.58	43645.62
875.823	43635.62
876.066	43579.62
876.309	43243.62
876.551	42906.62
876.794	42778.62
877.037	42864.62
877.279	42794.62
877.522	42845.62
877.764	42863.62
878.007	42931.62
878.249	42919.62
878.491	42724.62
878.734	42639.62
878.976	42706.62
879.218	42411.62
879.46	42173.62
879.702	41819.62
879.945	41581.62
880.187	41413.62
880.429	41269.62
880.671	40901.62
880.912	40767.62
881.154	40415.62
881.396	40340.62
881.638	40640.62
881.88	40536.62
882.121	40302.62
882.363	40334.62
882.605	40291.62
882.846	40037.62
883.088	39898.62
883.329	39746.62
883.571	39679.62
883.812	39501.62
884.053	39710.62
884.295	40000.62
884.536	40049.62
884.777	39962.62
885.018	39757.62
885.259	39708.62
885.5	39766.62
885.742	39814.62
885.982	39750.62
886.223	39351.62
886.464	39306.62
886.705	39064.62
886.946	38980.62
887.187	38592.62
887.428	38508.62
887.668	38061.62
887.909	37768.62
888.15	37367.62
888.39	37353.62
888.631	37026.62
888.871	36725.62
889.111	36575.62
889.352	36353.62
889.592	36122.62
889.833	35901.62
890.073	35587.62
890.313	35491.62
890.553	35051.62
890.793	35006.62
891.033	34879.62
891.273	34792.62
891.513	34577.62
891.753	34439.62
891.993	34443.62
892.233	34507.62
892.473	34743.62
892.713	34741.62
892.952	34493.62
893.192	34672.62
893.432	34569.62
893.671	34572.62
893.911	34419.62
894.15	34240.62
894.39	33985.62
894.629	33787.62
894.869	33656.62
895.108	33426.62
895.347	33204.62
895.587	32992.62
895.826	33067.62
896.065	32889.62
896.304	32688.62
896.543	32800.62
896.782	32762.62
897.021	32560.62
897.26	32519.62
897.499	32437.62
897.738	32335.62
897.977	32047.62
898.216	31923.62
898.454	31650.62
898.693	31390.62
898.932	31331.62
899.17	31100.62
899.409	31055.62
899.647	30859.62
899.886	30953.62
900.124	30955.62
900.363	30796.62
900.601	30900.62
900.839	30914.62
901.078	30909.62
901.316	31144.62
901.554	31022.62
901.792	31153.62
902.03	31056.62
902.268	30930.62
902.506	30929.62
902.744	30749.62
902.982	30666.62
903.22	30201.62
903.458	29986.62
903.695	29705.62
903.933	29235.62
904.171	28966.62
904.409	28601.62
904.646	28341.62
904.884	27873.62
905.121	27593.62
905.359	27387.62
905.596	27235.62
905.833	26933.62
906.071	26932.62
906.308	26805.62
906.545	26649.62
906.783	26697.62
907.02	26614.62
907.257	26487.62
907.494	26514.62
907.731	26341.62
907.968	26194.62
908.205	26053.62
908.442	25843.62
908.679	25916.62
908.915	25566.62
909.152	25397.62
909.389	25116.62
909.626	25026.62
909.862	24866.62
910.099	24841.62
910.335	24752.62
910.572	24553.62
910.808	24586.62
911.045	24474.62
911.281	24281.62
911.518	24351.62
911.754	24177.62
911.99	24027.62
912.226	23853.62
912.463	23596.62
912.699	23327.62
912.935	23204.62
913.171	23150.62
913.407	22889.62
913.643	22761.62
913.879	22594.62
914.114	22372.62
914.35	22097.62
914.586	21997.62
914.822	21853.62
915.057	21714.62
915.293	21462.62
915.529	21391.62
915.764	21343.62
916	21330.62
916.235	21219.62
916.471	21179.62
916.706	21102.62
916.941	21062.62
917.177	21014.62
917.412	21051.62
917.647	20937.62
917.882	20855.62
918.117	20978.62
918.352	20837.62
918.588	20732.62
918.823	20533.62
919.057	20365.62
919.292	20187.62
919.527	20065.62
919.762	19793.62
919.997	19765.62
920.232	19419.62
920.466	19377.62
920.701	19093.62
920.935	19009.62
921.17	18858.62
921.405	18722.62
921.639	18780.62
921.873	18664.62
922.108	18525.62
922.342	18628.62
922.576	18423.62
922.811	18349.62
923.045	18253.62
923.279	18312.62
923.513	18165.62
923.747	18045.62
923.981	17822.62
924.215	17846.62
924.449	17733.62
924.683	17519.62
924.917	17410.62
925.151	17394.62
925.385	17392.62
925.618	17177.62
925.852	17277.62
926.086	17215.62
926.319	17187.62
926.553	17100.62
926.786	17096.62
927.02	17111.62
927.253	17147.62
927.486	17121.62
927.72	16920.62
927.953	17011.62
928.186	16865.62
928.42	16877.62
928.653	16771.62
928.886	16606.62
929.119	16598.62
929.352	16440.62
929.585	16389.62
929.818	16198.62
930.051	16123.62
930.284	15980.62
930.516	15820.62
930.749	15771.62
930.982	15779.62
931.215	15723.62
931.447	15560.62
931.68	15483.62
931.912	15398.62
932.145	15352.62
932.377	15369.62
932.61	15529.62
932.842	15326.62
933.074	15345.62
933.307	15238.62
933.539	15347.62
933.771	15396.62
934.003	15394.62
934.236	15396.62
934.468	15316.62
934.7	15195.62
934.932	15238.62
935.164	15154.62
935.395	15104.62
935.627	15039.62
935.859	15004.62
936.091	14905.62
936.323	14896.62
936.554	14870.62
936.786	14768.62
937.017	14588.62
937.249	14654.62
937.481	14553.62
937.712	14629.62
937.943	14484.62
938.175	14458.62
938.406	14429.62
938.637	14488.62
938.869	14442.62
939.1	14319.62
939.331	14213.62
939.562	14318.62
939.793	14180.62
940.024	14195.62
940.255	14103.62
940.486	13982.62
940.717	13937.62
940.948	13845.62
941.179	13771.62
941.409	13819.62
941.64	13631.62
941.871	13779.62
942.102	13742.62
942.332	13758.62
942.563	13730.62
942.793	13771.62
943.024	13621.62
943.254	13729.62
943.484	13618.62
943.715	13674.62
943.945	13629.62
944.175	13504.62
944.405	13503.62
944.636	13475.62
944.866	13528.62
945.096	13461.62
945.326	13322.62
945.556	13398.62
945.786	13367.62
946.016	13298.62
946.245	13065.62
946.475	12974.62
946.705	12931.62
946.935	12840.62
947.164	12890.62
947.394	12708.62
947.624	12680.62
947.853	12676.62
948.083	12533.62
948.312	12556.62
948.542	12454.62
948.771	12441.62
949	12398.62
949.23	12357.62
949.459	12343.62
949.688	12432.62
949.917	12277.62
950.146	12344.62
950.375	12340.62
950.604	12195.62
950.833	12233.62
951.062	12257.62
951.291	12164.62
951.52	12120.62
951.749	12044.62
951.978	12057.62
952.206	11944.62
952.435	11935.62
952.664	11950.62
952.892	11854.62
953.121	11824.62
953.349	11800.62
953.578	11768.62
953.806	11665.62
954.035	11657.62
954.263	11560.62
954.491	11466.62
954.719	11427.62
954.948	11370.62
955.176	11335.62
955.404	11222.62
955.632	11287.62
955.86	11193.62
956.088	11102.62
956.316	11064.62
956.544	10983.62
956.772	10957.62
956.999	10898.62
957.227	10849.62
957.455	10728.62
957.683	10705.62
957.91	10614.62
958.138	10630.62
958.365	10567.62
958.593	10537.62
958.82	10291.62
959.048	10484.62
959.275	10350.62
959.502	10319.62
959.73	10201.62
959.957	10245.62
960.184	10253.62
960.411	10221.62
960.638	10240.62
960.865	10251.62
961.092	10216.62
961.319	10027.62
961.546	10134.62
961.773	10182.62
962	10075.62
962.227	10198.62
962.454	10126.62
962.68	10005.62
962.907	9971.62
963.134	9906.62
963.36	9807.62
963.587	9827.62
963.813	9665.62
964.04	9636.62
964.266	9554.62
964.493	9608.62
964.719	9527.62
964.945	9477.62
965.171	9364.62
965.398	9346.62
965.624	9312.62
965.85	9196.62
966.076	9117.62
966.302	9167.62
966.528	9040.62
966.754	9100.62
966.98	8981.62
967.206	9035.62
967.431	8915.62
967.657	8924.62
967.883	8931.62
968.109	8914.62
968.334	8791.62
968.56	8766.62
968.785	8750.62
969.011	8732.62
969.236	8750.62
969.462	8680.62
969.687	8584.62
969.912	8618.62
970.138	8682.62
970.363	8542.62
970.588	8567.62
970.813	8419.62
971.038	8362.62
971.263	8391.62
971.488	8364.62
971.713	8428.62
971.938	8344.62
972.163	8247.62
972.388	8182.62
972.613	8167.62
972.838	8126.62
973.062	8120.62
973.287	8052.62
973.512	7951.62
973.736	7982.62
973.961	7919.62
974.185	7861.62
974.41	7823.62
974.634	7684.62
974.858	7743.62
975.083	7669.62
975.307	7713.62
975.531	7578.62
975.755	7449.62
975.98	7496.62
976.204	7347.62
976.428	7292.62
976.652	7299.62
976.876	7288.62
977.1	7316.62
977.324	7215.62
977.547	7223.62
977.771	7204.62
977.995	7162.62
978.219	7108.62
978.442	7177.62
978.666	7109.62
978.89	7034.62
979.113	6959.62
979.337	7045.62
979.56	6984.62
979.783	6989.62
980.007	6895.62
980.23	6899.62
980.453	6864.62
980.677	6807.62
980.9	6775.62
981.123	6665.62
981.346	6742.62
981.569	6677.62
981.792	6634.62
982.015	6607.62
982.238	6501.62
982.461	6505.62
982.684	6412.62
982.907	6354.62
983.129	6366.62
983.352	6316.62
983.575	6309.62
983.797	6223.62
984.02	6218.62
984.242	6172.62
984.465	6180.62
984.687	6157.62
984.91	6115.62
985.132	6038.62
985.354	6095.62
985.577	6011.62
985.799	5986.62
986.021	5834.62
986.243	5867.62
986.465	5896.62
986.687	5925.62
986.909	5891.62
987.131	5814.62
987.353	5780.62
987.575	5756.62
987.797	5758.62
988.019	5679.62
988.241	5691.62
988.462	5657.62
988.684	5702.62
988.906	5688.62
989.127	5657.62
989.349	5499.62
989.57	5545.62
989.792	5593.62
990.013	5600.62
990.234	5539.62
990.456	5553.62
990.677	5469.62
990.898	5421.62
991.119	5393.62
991.341	5324.62
991.562	5249.62
991.783	5318.62
992.004	5206.62
992.225	5175.62
992.446	5220.62
992.667	5104.62
992.887	5156.62
993.108	4999.62
993.329	5138.62
993.55	5002.62
993.77	4956.62
993.991	4894.62
994.212	4889.62
994.432	4854.62
994.653	4878.62
994.873	4827.62
995.093	4693.62
995.314	4701.62
995.534	4785.62
995.754	4781.62
995.975	4721.62
996.195	4608.62
996.415	4661.62
996.635	4577.62
996.855	4658.62
997.075	4565.62
997.295	4613.62
997.515	4568.62
997.735	4565.62
997.955	4518.62
998.174	4469.62
998.394	4494.62
998.614	4513.62
998.834	4460.62
999.053	4465.62
999.273	4435.62
999.492	4483.62
999.712	4372.62
999.931	4300.62
1000.151	4322.62
1000.37	4263.62
1000.589	4353.62
1000.809	4240.62
1001.028	4350.62
1001.247	4244.62
1001.466	4098.62
1001.685	4242.62
1001.904	4116.62
1002.123	4110.62
1002.342	4083.62
1002.561	3994.62
1002.78	3996.62
1002.999	4032.62
1003.218	3997.62
1003.436	3934.62
1003.655	3939.62
1003.874	3886.62
1004.092	3886.62
1004.311	3911.62
1004.53	3863.62
1004.748	3921.62
1004.966	3809.62
1005.185	3807.62
1005.403	3811.62
1005.622	3784.62
1005.84	3840.62
1006.058	3709.62
1006.276	3747.62
1006.494	4179.62
1006.712	3724.62
1006.931	3754.62
1007.149	3620.62
1007.367	3621.62
1007.584	3703.62
1007.802	3711.62
1008.02	3641.62
1008.238	3739.62
1008.456	3710.62
1008.673	3592.62
1008.891	3664.62
1009.109	3655.62
1009.326	3643.62
1009.544	3725.62
1009.761	3628.62
1009.979	3680.62
1010.196	3757.62
1010.413	3819.62
1010.631	3850.62
1010.848	3903.62
1011.065	3871.62
1011.282	3854.62
1011.5	3762.62
1011.717	3862.62
1011.934	3846.62
1012.151	3783.62
1012.368	3814.62
1012.585	3705.62
1012.801	3781.62
1013.018	3755.62
1013.235	3661.62
1013.452	3687.62
1013.669	3744.62
1013.885	3689.62
1014.102	3739.62
1014.318	3616.62
1014.535	3605.62
1014.751	3594.62
1014.968	3602.62
1015.184	3612.62
1015.401	3482.62
1015.617	3499.62
1015.833	3504.62
1016.049	3479.62
1016.266	3457.62
1016.482	3408.62
1016.698	3338.62
1016.914	3304.62
1017.13	3297.62
1017.346	3304.62
1017.562	3364.62
1017.778	3263.62
1017.993	3297.62
1018.209	3269.62
1018.425	3260.62
1018.641	3209.62
1018.856	3200.62
1019.072	3243.62
1019.288	3253.62
1019.503	3216.62
1019.719	3119.62
1019.934	3101.62
1020.149	3181.62
1020.365	3126.62
1020.58	3027.62
1020.795	3044.62
1021.011	3001.62
1021.226	2948.62
1021.441	2936.62
1021.656	2800.62
1021.871	2726.62
1022.086	2658.62
1022.301	2680.62
1022.516	2680.62
1022.731	2681.62
1022.946	2585.62
1023.16	2527.62
1023.375	2514.62
1023.59	2487.62
1023.804	2422.62
1024.019	2517.62
1024.234	2359.62
1024.448	2379.62
1024.663	2260.62
1024.877	2270.62
1025.092	2239.62
1025.306	2249.62
1025.52	2095.62
1025.734	2197.62
1025.949	2071.62
1026.163	2018.62
1026.377	1924.62
1026.591	1974.62
1026.805	1880.62
1027.019	1803.62
1027.233	1777.62
1027.447	1719.62
1027.661	1804.62
1027.875	1747.62
1028.088	1672.62
1028.302	1621.62
1028.516	1533.62
1028.73	1574.62
1028.943	1488.62
1029.157	1430.62
1029.37	1315.62
1029.584	0.62
1029.797	-4.38
1030.011	-1.38
1030.224	1.62
