Data from QEP037381__369__16-37-39-923.txt Node

Date: Fri Dec 16 16:37:39 EST 2022
User: dcclab
Spectrometer: QEP03738
Trigger mode: 4
Integration Time (sec): 1.000000E1
Scans to average: 1
Electric dark correction enabled: true
Nonlinearity correction enabled: false
Boxcar width: 0
XAxis mode: Wavelengths
Number of Pixels in Spectrum: 1044
>>>>>Begin Spectral Data<<<<<
784.041	16.62
784.3	-3.38
784.558	-6.38
784.817	-3.38
785.075	101474.62
785.334	17472.62
785.592	8238.62
785.851	5688.62
786.109	4315.62
786.368	3364.62
786.626	2731.62
786.884	2239.62
787.143	1900.62
787.401	1599.62
787.659	1452.62
787.917	1236.62
788.175	1135.62
788.433	1012.62
788.691	916.62
788.949	820.62
789.207	794.62
789.465	719.62
789.723	676.62
789.98	621.62
790.238	660.62
790.496	630.62
790.753	590.62
791.011	665.62
791.268	588.62
791.526	573.62
791.783	593.62
792.041	578.62
792.298	491.62
792.556	555.62
792.813	543.62
793.07	513.62
793.327	508.62
793.584	573.62
793.841	488.62
794.099	526.62
794.356	579.62
794.613	480.62
794.869	511.62
795.126	478.62
795.383	469.62
795.64	512.62
795.897	458.62
796.153	508.62
796.41	492.62
796.667	482.62
796.923	482.62
797.18	507.62
797.436	532.62
797.693	496.62
797.949	544.62
798.206	580.62
798.462	503.62
798.718	570.62
798.974	534.62
799.231	587.62
799.487	578.62
799.743	595.62
799.999	637.62
800.255	640.62
800.511	640.62
800.767	681.62
801.023	690.62
801.279	741.62
801.534	805.62
801.79	906.62
802.046	992.62
802.302	1196.62
802.557	1443.62
802.813	1838.62
803.068	2412.62
803.324	3321.62
803.579	4681.62
803.835	6580.62
804.09	9172.62
804.345	12077.62
804.601	15348.62
804.856	18594.62
805.111	21600.62
805.366	23865.62
805.621	25674.62
805.876	26772.62
806.131	27678.62
806.386	28425.62
806.641	28823.62
806.896	29413.62
807.151	30050.62
807.406	30556.62
807.661	31305.62
807.915	31771.62
808.17	32320.62
808.425	32773.62
808.679	33113.62
808.934	33721.62
809.188	33976.62
809.443	34488.62
809.697	34873.62
809.951	35125.62
810.206	35384.62
810.46	35867.62
810.714	36187.62
810.968	36779.62
811.223	36951.62
811.477	37271.62
811.731	37702.62
811.985	37921.62
812.239	38181.62
812.493	38469.62
812.747	38654.62
813	38755.62
813.254	39104.62
813.508	39282.62
813.762	39515.62
814.015	39807.62
814.269	40183.62
814.522	40519.62
814.776	40974.62
815.03	41720.62
815.283	42163.62
815.536	42973.62
815.79	43607.62
816.043	44476.62
816.296	45071.62
816.55	45591.62
816.803	46408.62
817.056	46922.62
817.309	47344.62
817.562	47825.62
817.815	48431.62
818.068	48973.62
818.321	49533.62
818.574	50158.62
818.827	51038.62
819.079	51595.62
819.332	52479.62
819.585	53182.62
819.838	53954.62
820.09	54432.62
820.343	54983.62
820.595	55109.62
820.848	55605.62
821.1	55830.62
821.353	55878.62
821.605	56058.62
821.857	55920.62
822.11	55763.62
822.362	55750.62
822.614	55770.62
822.866	55830.62
823.118	55820.62
823.37	55819.62
823.622	56127.62
823.874	56254.62
824.126	56612.62
824.378	56753.62
824.63	57018.62
824.882	57177.62
825.134	57055.62
825.385	57091.62
825.637	57093.62
825.888	57010.62
826.14	56824.62
826.392	56514.62
826.643	56506.62
826.895	56290.62
827.146	56159.62
827.397	55895.62
827.649	56086.62
827.9	56135.62
828.151	56292.62
828.402	56420.62
828.653	56491.62
828.905	56713.62
829.156	56860.62
829.407	56848.62
829.658	56703.62
829.909	56683.62
830.159	56637.62
830.41	56268.62
830.661	56184.62
830.912	55955.62
831.162	55741.62
831.413	55810.62
831.664	55984.62
831.914	55735.62
832.165	55571.62
832.415	55682.62
832.666	55690.62
832.916	55611.62
833.167	55670.62
833.417	55624.62
833.667	55629.62
833.917	55327.62
834.168	55417.62
834.418	55214.62
834.668	54823.62
834.918	54668.62
835.168	54625.62
835.418	54540.62
835.668	54397.62
835.918	54290.62
836.167	54332.62
836.417	53914.62
836.667	53956.62
836.917	53937.62
837.166	53955.62
837.416	53856.62
837.666	53854.62
837.915	53797.62
838.165	53765.62
838.414	53625.62
838.663	53368.62
838.913	53342.62
839.162	53295.62
839.411	53222.62
839.661	52957.62
839.91	52923.62
840.159	52885.62
840.408	52732.62
840.657	52743.62
840.906	52838.62
841.155	52958.62
841.404	52968.62
841.653	52892.62
841.902	53117.62
842.15	52914.62
842.399	53010.62
842.648	52852.62
842.897	52801.62
843.145	52508.62
843.394	52128.62
843.642	52079.62
843.891	51674.62
844.139	51645.62
844.388	51460.62
844.636	51183.62
844.884	51142.62
845.133	51004.62
845.381	51193.62
845.629	51165.62
845.877	51056.62
846.125	50903.62
846.373	50861.62
846.621	50757.62
846.869	50562.62
847.117	50366.62
847.365	50044.62
847.613	49871.62
847.861	49637.62
848.108	49789.62
848.356	49658.62
848.604	49371.62
848.851	49425.62
849.099	49576.62
849.346	49704.62
849.594	49880.62
849.841	50245.62
850.089	50249.62
850.336	50321.62
850.583	50087.62
850.831	50044.62
851.078	49831.62
851.325	49696.62
851.572	49762.62
851.819	49218.62
852.066	48336.62
852.313	48059.62
852.56	47660.62
852.807	47376.62
853.054	47348.62
853.301	47073.62
853.548	47175.62
853.794	47473.62
854.041	47490.62
854.288	47812.62
854.534	48035.62
854.781	48035.62
855.028	47936.62
855.274	47770.62
855.52	47450.62
855.767	47190.62
856.013	47138.62
856.26	47337.62
856.506	46680.62
856.752	46794.62
856.998	46807.62
857.244	46877.62
857.49	47124.62
857.736	47287.62
857.982	47170.62
858.228	47252.62
858.474	46813.62
858.72	46589.62
858.966	46428.62
859.212	45973.62
859.458	45474.62
859.703	45074.62
859.949	44731.62
860.195	44393.62
860.44	44121.62
860.686	43908.62
860.931	43775.62
861.177	43596.62
861.422	43471.62
861.667	43677.62
861.913	43545.62
862.158	43818.62
862.403	43768.62
862.648	43953.62
862.893	44156.62
863.138	43999.62
863.384	43967.62
863.629	43969.62
863.873	43810.62
864.118	43752.62
864.363	43556.62
864.608	43265.62
864.853	43231.62
865.098	42846.62
865.342	42915.62
865.587	42724.62
865.832	42596.62
866.076	42487.62
866.321	42417.62
866.565	42272.62
866.81	42098.62
867.054	42055.62
867.298	42010.62
867.543	41721.62
867.787	41763.62
868.031	41720.62
868.275	41505.62
868.519	41461.62
868.764	41505.62
869.008	41287.62
869.252	41354.62
869.496	41071.62
869.739	41034.62
869.983	40952.62
870.227	40748.62
870.471	40865.62
870.715	40851.62
870.958	41080.62
871.202	41045.62
871.446	41177.62
871.689	41181.62
871.933	41268.62
872.176	41152.62
872.42	41060.62
872.663	40771.62
872.906	40793.62
873.15	40529.62
873.393	40218.62
873.636	40045.62
873.879	39733.62
874.122	39463.62
874.366	39133.62
874.609	38987.62
874.852	38692.62
875.095	38426.62
875.337	38357.62
875.58	38225.62
875.823	38127.62
876.066	38079.62
876.309	37999.62
876.551	37882.62
876.794	37566.62
877.037	37549.62
877.279	37469.62
877.522	37585.62
877.764	37684.62
878.007	37447.62
878.249	37458.62
878.491	37494.62
878.734	37392.62
878.976	37338.62
879.218	37050.62
879.46	36924.62
879.702	36774.62
879.945	36512.62
880.187	36213.62
880.429	36043.62
880.671	35841.62
880.912	35660.62
881.154	35683.62
881.396	35560.62
881.638	35687.62
881.88	35547.62
882.121	35435.62
882.363	35394.62
882.605	35353.62
882.846	35089.62
883.088	35054.62
883.329	34915.62
883.571	34792.62
883.812	34763.62
884.053	35087.62
884.295	35224.62
884.536	35348.62
884.777	35155.62
885.018	35169.62
885.259	35150.62
885.5	34973.62
885.742	35187.62
885.982	35010.62
886.223	34732.62
886.464	34714.62
886.705	34515.62
886.946	34411.62
887.187	34025.62
887.428	33831.62
887.668	33535.62
887.909	33190.62
888.15	32900.62
888.39	32682.62
888.631	32640.62
888.871	32242.62
889.111	32104.62
889.352	31986.62
889.592	31752.62
889.833	31505.62
890.073	31277.62
890.313	31136.62
890.553	30862.62
890.793	30829.62
891.033	30787.62
891.273	30532.62
891.513	30596.62
891.753	30301.62
891.993	30396.62
892.233	30417.62
892.473	30558.62
892.713	30446.62
892.952	30471.62
893.192	30433.62
893.432	30375.62
893.671	30343.62
893.911	30217.62
894.15	30077.62
894.39	29896.62
894.629	29710.62
894.869	29576.62
895.108	29545.62
895.347	29224.62
895.587	29242.62
895.826	29095.62
896.065	29141.62
896.304	29053.62
896.543	28930.62
896.782	28945.62
897.021	28869.62
897.26	28840.62
897.499	28684.62
897.738	28629.62
897.977	28594.62
898.216	28204.62
898.454	28095.62
898.693	27859.62
898.932	27737.62
899.17	27532.62
899.409	27552.62
899.647	27462.62
899.886	27401.62
900.124	27432.62
900.363	27399.62
900.601	27460.62
900.839	27468.62
901.078	27473.62
901.316	27632.62
901.554	27570.62
901.792	27633.62
902.03	27499.62
902.268	27632.62
902.506	27606.62
902.744	27395.62
902.982	27112.62
903.22	26871.62
903.458	26583.62
903.695	26357.62
903.933	26016.62
904.171	25610.62
904.409	25369.62
904.646	25143.62
904.884	24695.62
905.121	24523.62
905.359	24266.62
905.596	24003.62
905.833	23816.62
906.071	23737.62
906.308	23696.62
906.545	23602.62
906.783	23442.62
907.02	23544.62
907.257	23438.62
907.494	23264.62
907.731	23285.62
907.968	23226.62
908.205	23000.62
908.442	22799.62
908.679	22752.62
908.915	22651.62
909.152	22500.62
909.389	22160.62
909.626	22158.62
909.862	21959.62
910.099	21971.62
910.335	21949.62
910.572	21693.62
910.808	21724.62
911.045	21481.62
911.281	21499.62
911.518	21507.62
911.754	21408.62
911.99	21270.62
912.226	21133.62
912.463	20876.62
912.699	20791.62
912.935	20558.62
913.171	20559.62
913.407	20185.62
913.643	20188.62
913.879	20007.62
914.114	19877.62
914.35	19542.62
914.586	19472.62
914.822	19245.62
915.057	19205.62
915.293	19019.62
915.529	18851.62
915.764	19007.62
916	18884.62
916.235	18796.62
916.471	18776.62
916.706	18763.62
916.941	18702.62
917.177	18626.62
917.412	18667.62
917.647	18623.62
917.882	18561.62
918.117	18555.62
918.352	18453.62
918.588	18370.62
918.823	18184.62
919.057	18050.62
919.292	17889.62
919.527	17687.62
919.762	17572.62
919.997	17511.62
920.232	17204.62
920.466	17134.62
920.701	16887.62
920.935	16840.62
921.17	16723.62
921.405	16602.62
921.639	16708.62
921.873	16525.62
922.108	16455.62
922.342	16410.62
922.576	16399.62
922.811	16280.62
923.045	16298.62
923.279	16227.62
923.513	15993.62
923.747	16018.62
923.981	15880.62
924.215	15716.62
924.449	15716.62
924.683	15569.62
924.917	15518.62
925.151	15425.62
925.385	15475.62
925.618	15311.62
925.852	15295.62
926.086	15224.62
926.319	15232.62
926.553	15197.62
926.786	15225.62
927.02	15156.62
927.253	15230.62
927.486	15145.62
927.72	15149.62
927.953	15178.62
928.186	15002.62
928.42	14984.62
928.653	14835.62
928.886	14738.62
929.119	14785.62
929.352	14637.62
929.585	14598.62
929.818	14396.62
930.051	14394.62
930.284	14229.62
930.516	14140.62
930.749	14004.62
930.982	14030.62
931.215	13924.62
931.447	13767.62
931.68	13792.62
931.912	13731.62
932.145	13678.62
932.377	13810.62
932.61	13904.62
932.842	13670.62
933.074	13692.62
933.307	13590.62
933.539	13753.62
933.771	13695.62
934.003	13549.62
934.236	13653.62
934.468	13693.62
934.7	13555.62
934.932	13578.62
935.164	13435.62
935.395	13427.62
935.627	13521.62
935.859	13385.62
936.091	13316.62
936.323	13286.62
936.554	13240.62
936.786	13166.62
937.017	13027.62
937.249	13027.62
937.481	12886.62
937.712	13005.62
937.943	12901.62
938.175	12879.62
938.406	12767.62
938.637	12853.62
938.869	12820.62
939.1	12827.62
939.331	12849.62
939.562	12795.62
939.793	12600.62
940.024	12670.62
940.255	12546.62
940.486	12474.62
940.717	12435.62
940.948	12372.62
941.179	12333.62
941.409	12257.62
941.64	12286.62
941.871	12280.62
942.102	12213.62
942.332	12260.62
942.563	12212.62
942.793	12295.62
943.024	12116.62
943.254	12183.62
943.484	12215.62
943.715	12228.62
943.945	12222.62
944.175	12159.62
944.405	12056.62
944.636	12105.62
944.866	12023.62
945.096	12074.62
945.326	11954.62
945.556	11899.62
945.786	11945.62
946.016	11813.62
946.245	11672.62
946.475	11583.62
946.705	11542.62
946.935	11531.62
947.164	11491.62
947.394	11338.62
947.624	11310.62
947.853	11336.62
948.083	11308.62
948.312	11155.62
948.542	11142.62
948.771	11065.62
949	11042.62
949.23	11075.62
949.459	11032.62
949.688	11082.62
949.917	10987.62
950.146	10970.62
950.375	11027.62
950.604	10891.62
950.833	10955.62
951.062	10923.62
951.291	10843.62
951.52	10827.62
951.749	10789.62
951.978	10697.62
952.206	10661.62
952.435	10610.62
952.664	10616.62
952.892	10644.62
953.121	10551.62
953.349	10592.62
953.578	10516.62
953.806	10508.62
954.035	10303.62
954.263	10312.62
954.491	10347.62
954.719	10252.62
954.948	10260.62
955.176	10141.62
955.404	10043.62
955.632	10047.62
955.86	10012.62
956.088	9977.62
956.316	9987.62
956.544	9877.62
956.772	9751.62
956.999	9750.62
957.227	9746.62
957.455	9605.62
957.683	9591.62
957.91	9547.62
958.138	9466.62
958.365	9450.62
958.593	9408.62
958.82	9297.62
959.048	9293.62
959.275	9280.62
959.502	9275.62
959.73	9226.62
959.957	9205.62
960.184	9220.62
960.411	9137.62
960.638	9224.62
960.865	9176.62
961.092	9128.62
961.319	9092.62
961.546	9091.62
961.773	9092.62
962	8985.62
962.227	9082.62
962.454	9016.62
962.68	8937.62
962.907	8946.62
963.134	8834.62
963.36	8737.62
963.587	8762.62
963.813	8624.62
964.04	8655.62
964.266	8529.62
964.493	8623.62
964.719	8543.62
964.945	8462.62
965.171	8331.62
965.398	8321.62
965.624	8372.62
965.85	8244.62
966.076	8151.62
966.302	8216.62
966.528	8182.62
966.754	8111.62
966.98	8136.62
967.206	8050.62
967.431	8028.62
967.657	8068.62
967.883	8006.62
968.109	7943.62
968.334	7906.62
968.56	7870.62
968.785	7869.62
969.011	7817.62
969.236	7804.62
969.462	7781.62
969.687	7738.62
969.912	7749.62
970.138	7726.62
970.363	7665.62
970.588	7637.62
970.813	7619.62
971.038	7595.62
971.263	7563.62
971.488	7547.62
971.713	7590.62
971.938	7484.62
972.163	7394.62
972.388	7348.62
972.613	7310.62
972.838	7294.62
973.062	7252.62
973.287	7203.62
973.512	7104.62
973.736	7098.62
973.961	7082.62
974.185	7029.62
974.41	7096.62
974.634	6955.62
974.858	6911.62
975.083	6905.62
975.307	6878.62
975.531	6815.62
975.755	6721.62
975.98	6718.62
976.204	6630.62
976.428	6559.62
976.652	6603.62
976.876	6543.62
977.1	6543.62
977.324	6456.62
977.547	6478.62
977.771	6486.62
977.995	6386.62
978.219	6331.62
978.442	6478.62
978.666	6366.62
978.89	6338.62
979.113	6321.62
979.337	6285.62
979.56	6163.62
979.783	6366.62
980.007	6163.62
980.23	6183.62
980.453	6137.62
980.677	6142.62
980.9	6073.62
981.123	5974.62
981.346	6042.62
981.569	5977.62
981.792	6040.62
982.015	5937.62
982.238	5857.62
982.461	5883.62
982.684	5769.62
982.907	5752.62
983.129	5732.62
983.352	5704.62
983.575	5701.62
983.797	5666.62
984.02	5583.62
984.242	5582.62
984.465	5562.62
984.687	5563.62
984.91	5525.62
985.132	5498.62
985.354	5462.62
985.577	5430.62
985.799	5426.62
986.021	5275.62
986.243	5305.62
986.465	5265.62
986.687	5350.62
986.909	5309.62
987.131	5239.62
987.353	5164.62
987.575	5202.62
987.797	5182.62
988.019	5132.62
988.241	5168.62
988.462	5072.62
988.684	5181.62
988.906	5104.62
989.127	5147.62
989.349	4994.62
989.57	5022.62
989.792	5041.62
990.013	5065.62
990.234	5064.62
990.456	5045.62
990.677	4976.62
990.898	4928.62
991.119	4914.62
991.341	4901.62
991.562	4781.62
991.783	4794.62
992.004	4733.62
992.225	4682.62
992.446	4675.62
992.667	4569.62
992.887	4656.62
993.108	4529.62
993.329	4664.62
993.55	4547.62
993.77	4450.62
993.991	4432.62
994.212	4491.62
994.432	4376.62
994.653	4423.62
994.873	4380.62
995.093	4205.62
995.314	4303.62
995.534	4325.62
995.754	4295.62
995.975	4354.62
996.195	4192.62
996.415	4219.62
996.635	4269.62
996.855	4216.62
997.075	4172.62
997.295	4165.62
997.515	4121.62
997.735	4158.62
997.955	4136.62
998.174	4089.62
998.394	4024.62
998.614	4083.62
998.834	4056.62
999.053	4105.62
999.273	4038.62
999.492	4080.62
999.712	3987.62
999.931	3971.62
1000.151	3972.62
1000.37	3929.62
1000.589	3976.62
1000.809	3869.62
1001.028	3968.62
1001.247	3865.62
1001.466	3729.62
1001.685	3838.62
1001.904	3758.62
1002.123	3753.62
1002.342	3732.62
1002.561	3645.62
1002.78	3651.62
1002.999	3718.62
1003.218	3628.62
1003.436	3633.62
1003.655	3616.62
1003.874	3579.62
1004.092	3528.62
1004.311	3592.62
1004.53	3504.62
1004.748	3609.62
1004.966	3480.62
1005.185	3534.62
1005.403	3481.62
1005.622	3479.62
1005.84	3530.62
1006.058	3392.62
1006.276	3487.62
1006.494	3954.62
1006.712	3440.62
1006.931	3496.62
1007.149	3357.62
1007.367	3347.62
1007.584	3400.62
1007.802	3446.62
1008.02	3337.62
1008.238	3468.62
1008.456	3428.62
1008.673	3297.62
1008.891	3414.62
1009.109	3407.62
1009.326	3412.62
1009.544	3498.62
1009.761	3440.62
1009.979	3465.62
1010.196	3453.62
1010.413	3640.62
1010.631	3701.62
1010.848	3669.62
1011.065	3720.62
1011.282	3688.62
1011.5	3635.62
1011.717	3729.62
1011.934	3617.62
1012.151	3668.62
1012.368	3589.62
1012.585	3529.62
1012.801	3600.62
1013.018	3568.62
1013.235	3533.62
1013.452	3563.62
1013.669	3600.62
1013.885	3566.62
1014.102	3540.62
1014.318	3533.62
1014.535	3454.62
1014.751	3489.62
1014.968	3460.62
1015.184	3477.62
1015.401	3362.62
1015.617	3439.62
1015.833	3310.62
1016.049	3342.62
1016.266	3289.62
1016.482	3289.62
1016.698	3219.62
1016.914	3239.62
1017.13	3157.62
1017.346	3180.62
1017.562	3200.62
1017.778	3155.62
1017.993	3114.62
1018.209	3155.62
1018.425	3161.62
1018.641	3105.62
1018.856	3057.62
1019.072	3121.62
1019.288	3149.62
1019.503	3112.62
1019.719	2976.62
1019.934	2971.62
1020.149	3099.62
1020.365	3003.62
1020.58	2905.62
1020.795	2943.62
1021.011	2863.62
1021.226	2810.62
1021.441	2832.62
1021.656	2755.62
1021.871	2608.62
1022.086	2616.62
1022.301	2568.62
1022.516	2520.62
1022.731	2542.62
1022.946	2480.62
1023.16	2436.62
1023.375	2380.62
1023.59	2347.62
1023.804	2318.62
1024.019	2384.62
1024.234	2254.62
1024.448	2226.62
1024.663	2130.62
1024.877	2117.62
1025.092	2127.62
1025.306	2113.62
1025.52	2008.62
1025.734	2083.62
1025.949	1940.62
1026.163	1906.62
1026.377	1814.62
1026.591	1857.62
1026.805	1767.62
1027.019	1728.62
1027.233	1697.62
1027.447	1637.62
1027.661	1711.62
1027.875	1647.62
1028.088	1629.62
1028.302	1522.62
1028.516	1491.62
1028.73	1482.62
1028.943	1425.62
1029.157	1329.62
1029.37	1264.62
1029.584	-4.38
1029.797	-2.38
1030.011	0.62
1030.224	2.62
