Data from QEP037381__366__16-37-09-923.txt Node

Date: Fri Dec 16 16:37:09 EST 2022
User: dcclab
Spectrometer: QEP03738
Trigger mode: 4
Integration Time (sec): 1.000000E1
Scans to average: 1
Electric dark correction enabled: true
Nonlinearity correction enabled: false
Boxcar width: 0
XAxis mode: Wavelengths
Number of Pixels in Spectrum: 1044
>>>>>Begin Spectral Data<<<<<
784.041	12.62
784.3	0.62
784.558	-1.38
784.817	-5.38
785.075	103928.62
785.334	17825.62
785.592	8372.62
785.851	5817.62
786.109	4337.62
786.368	3352.62
786.626	2697.62
786.884	2272.62
787.143	1896.62
787.401	1561.62
787.659	1415.62
787.917	1220.62
788.175	1122.62
788.433	993.62
788.691	888.62
788.949	848.62
789.207	811.62
789.465	699.62
789.723	673.62
789.98	644.62
790.238	646.62
790.496	632.62
790.753	630.62
791.011	659.62
791.268	590.62
791.526	578.62
791.783	583.62
792.041	571.62
792.298	490.62
792.556	552.62
792.813	531.62
793.07	532.62
793.327	496.62
793.584	583.62
793.841	516.62
794.099	529.62
794.356	580.62
794.613	490.62
794.869	527.62
795.126	501.62
795.383	477.62
795.64	500.62
795.897	466.62
796.153	507.62
796.41	502.62
796.667	494.62
796.923	489.62
797.18	508.62
797.436	522.62
797.693	493.62
797.949	555.62
798.206	570.62
798.462	507.62
798.718	564.62
798.974	565.62
799.231	595.62
799.487	614.62
799.743	637.62
799.999	653.62
800.255	670.62
800.511	647.62
800.767	704.62
801.023	720.62
801.279	788.62
801.534	850.62
801.79	954.62
802.046	1014.62
802.302	1263.62
802.557	1507.62
802.813	1936.62
803.068	2528.62
803.324	3554.62
803.579	4984.62
803.835	7016.62
804.09	9803.62
804.345	12953.62
804.601	16427.62
804.856	19902.62
805.111	23209.62
805.366	25697.62
805.621	27442.62
805.876	28809.62
806.131	29716.62
806.386	30325.62
806.641	31006.62
806.896	31623.62
807.151	32141.62
807.406	32877.62
807.661	33477.62
807.915	34397.62
808.17	34745.62
808.425	35160.62
808.679	35590.62
808.934	36144.62
809.188	36547.62
809.443	37041.62
809.697	37474.62
809.951	37868.62
810.206	38215.62
810.46	38562.62
810.714	39078.62
810.968	39389.62
811.223	39784.62
811.477	40198.62
811.731	40599.62
811.985	40801.62
812.239	41246.62
812.493	41484.62
812.747	41707.62
813	41852.62
813.254	41989.62
813.508	42320.62
813.762	42552.62
814.015	42941.62
814.269	43178.62
814.522	43745.62
814.776	44264.62
815.03	44964.62
815.283	45770.62
815.536	46465.62
815.79	47287.62
816.043	47954.62
816.296	48804.62
816.55	49454.62
816.803	50067.62
817.056	50828.62
817.309	51280.62
817.562	51958.62
817.815	52583.62
818.068	53119.62
818.321	53849.62
818.574	54543.62
818.827	55184.62
819.079	55979.62
819.332	56856.62
819.585	57695.62
819.838	58388.62
820.09	59012.62
820.343	59612.62
820.595	59860.62
820.848	60257.62
821.1	60641.62
821.353	60725.62
821.605	60900.62
821.857	60949.62
822.11	60715.62
822.362	60601.62
822.614	60491.62
822.866	60569.62
823.118	60515.62
823.37	60727.62
823.622	61054.62
823.874	61179.62
824.126	61354.62
824.378	61613.62
824.63	61857.62
824.882	62038.62
825.134	62139.62
825.385	62247.62
825.637	61950.62
825.888	62025.62
826.14	61814.62
826.392	61551.62
826.643	61356.62
826.895	61375.62
827.146	61007.62
827.397	60985.62
827.649	61043.62
827.9	60982.62
828.151	61040.62
828.402	61465.62
828.653	61564.62
828.905	61599.62
829.156	61877.62
829.407	61792.62
829.658	61762.62
829.909	61760.62
830.159	61727.62
830.41	61202.62
830.661	61111.62
830.912	60842.62
831.162	60714.62
831.413	60622.62
831.664	60610.62
831.914	60506.62
832.165	60528.62
832.415	60591.62
832.666	60552.62
832.916	60659.62
833.167	60506.62
833.417	60512.62
833.667	60465.62
833.917	60387.62
834.168	60152.62
834.418	59975.62
834.668	59843.62
834.918	59459.62
835.168	59208.62
835.418	59093.62
835.668	59074.62
835.918	59093.62
836.167	58935.62
836.417	58849.62
836.667	58733.62
836.917	58873.62
837.166	58475.62
837.416	58575.62
837.666	58636.62
837.915	58688.62
838.165	58454.62
838.414	58153.62
838.663	58124.62
838.913	58128.62
839.162	57999.62
839.411	57681.62
839.661	57547.62
839.91	57308.62
840.159	57272.62
840.408	57385.62
840.657	57241.62
840.906	57528.62
841.155	57353.62
841.404	57470.62
841.653	57325.62
841.902	57356.62
842.15	57625.62
842.399	57660.62
842.648	57359.62
842.897	57210.62
843.145	56893.62
843.394	56679.62
843.642	56374.62
843.891	56154.62
844.139	55991.62
844.388	55813.62
844.636	55582.62
844.884	55492.62
845.133	55477.62
845.381	55280.62
845.629	55289.62
845.877	55336.62
846.125	55303.62
846.373	55167.62
846.621	55006.62
846.869	54888.62
847.117	54603.62
847.365	54241.62
847.613	54215.62
847.861	53782.62
848.108	54003.62
848.356	53739.62
848.604	53730.62
848.851	53691.62
849.099	53683.62
849.346	54008.62
849.594	54145.62
849.841	54296.62
850.089	54408.62
850.336	54483.62
850.583	54347.62
850.831	54105.62
851.078	53929.62
851.325	53827.62
851.572	53959.62
851.819	53224.62
852.066	52538.62
852.313	51723.62
852.56	51451.62
852.807	51394.62
853.054	51233.62
853.301	50959.62
853.548	51228.62
853.794	51383.62
854.041	51460.62
854.288	51692.62
854.534	52052.62
854.781	52083.62
855.028	51853.62
855.274	51721.62
855.52	51411.62
855.767	51071.62
856.013	50801.62
856.26	51143.62
856.506	50491.62
856.752	50547.62
856.998	50534.62
857.244	50746.62
857.49	51059.62
857.736	50961.62
857.982	50987.62
858.228	51006.62
858.474	50610.62
858.72	50510.62
858.966	49973.62
859.212	49579.62
859.458	49275.62
859.703	48678.62
859.949	48171.62
860.195	47975.62
860.44	47615.62
860.686	47483.62
860.931	47466.62
861.177	47171.62
861.422	47113.62
861.667	47179.62
861.913	47095.62
862.158	47329.62
862.403	47392.62
862.648	47457.62
862.893	47563.62
863.138	47610.62
863.384	47436.62
863.629	47452.62
863.873	47468.62
864.118	47111.62
864.363	47101.62
864.608	46748.62
864.853	46552.62
865.098	46465.62
865.342	46242.62
865.587	46023.62
865.832	45983.62
866.076	45948.62
866.321	45776.62
866.565	45701.62
866.81	45490.62
867.054	45447.62
867.298	45075.62
867.543	45172.62
867.787	44917.62
868.031	45001.62
868.275	44854.62
868.519	44720.62
868.764	44618.62
869.008	44465.62
869.252	44443.62
869.496	44259.62
869.739	44241.62
869.983	43992.62
870.227	44039.62
870.471	43971.62
870.715	43975.62
870.958	44123.62
871.202	44101.62
871.446	44355.62
871.689	44154.62
871.933	44361.62
872.176	44291.62
872.42	44173.62
872.663	44050.62
872.906	43745.62
873.15	43719.62
873.393	43234.62
873.636	43109.62
873.879	42611.62
874.122	42398.62
874.366	41846.62
874.609	41744.62
874.852	41545.62
875.095	41361.62
875.337	41062.62
875.58	41060.62
875.823	40897.62
876.066	40885.62
876.309	40891.62
876.551	40685.62
876.794	40473.62
877.037	40361.62
877.279	40205.62
877.522	40354.62
877.764	40469.62
878.007	40317.62
878.249	40449.62
878.491	40261.62
878.734	40203.62
878.976	40094.62
879.218	39875.62
879.46	39636.62
879.702	39449.62
879.945	39252.62
880.187	38934.62
880.429	38765.62
880.671	38585.62
880.912	38363.62
881.154	38329.62
881.396	38214.62
881.638	38202.62
881.88	38240.62
882.121	38155.62
882.363	38015.62
882.605	37850.62
882.846	37744.62
883.088	37622.62
883.329	37404.62
883.571	37297.62
883.812	37278.62
884.053	37366.62
884.295	37716.62
884.536	37847.62
884.777	37467.62
885.018	37537.62
885.259	37448.62
885.5	37330.62
885.742	37426.62
885.982	37475.62
886.223	37354.62
886.464	37179.62
886.705	36908.62
886.946	36701.62
887.187	36373.62
887.428	36173.62
887.668	35832.62
887.909	35686.62
888.15	35258.62
888.39	35093.62
888.631	34962.62
888.871	34670.62
889.111	34545.62
889.352	34290.62
889.592	34031.62
889.833	33682.62
890.073	33442.62
890.313	33541.62
890.553	33135.62
890.793	32992.62
891.033	33132.62
891.273	32745.62
891.513	32660.62
891.753	32617.62
891.993	32464.62
892.233	32570.62
892.473	32742.62
892.713	32672.62
892.952	32743.62
893.192	32752.62
893.432	32634.62
893.671	32596.62
893.911	32370.62
894.15	32247.62
894.39	32028.62
894.629	31878.62
894.869	31731.62
895.108	31563.62
895.347	31426.62
895.587	31362.62
895.826	31331.62
896.065	31035.62
896.304	31081.62
896.543	31133.62
896.782	30923.62
897.021	30840.62
897.26	30687.62
897.499	30688.62
897.738	30694.62
897.977	30413.62
898.216	30043.62
898.454	29931.62
898.693	29708.62
898.932	29668.62
899.17	29425.62
899.409	29431.62
899.647	29422.62
899.886	29320.62
900.124	29366.62
900.363	29223.62
900.601	29315.62
900.839	29252.62
901.078	29399.62
901.316	29357.62
901.554	29237.62
901.792	29462.62
902.03	29351.62
902.268	29395.62
902.506	29161.62
902.744	29089.62
902.982	29019.62
903.22	28533.62
903.458	28292.62
903.695	28059.62
903.933	27868.62
904.171	27380.62
904.409	27109.62
904.646	26731.62
904.884	26319.62
905.121	26231.62
905.359	25897.62
905.596	25686.62
905.833	25508.62
906.071	25434.62
906.308	25279.62
906.545	25273.62
906.783	25163.62
907.02	25098.62
907.257	25000.62
907.494	25048.62
907.731	24964.62
907.968	24810.62
908.205	24574.62
908.442	24442.62
908.679	24350.62
908.915	24177.62
909.152	24028.62
909.389	23818.62
909.626	23659.62
909.862	23514.62
910.099	23384.62
910.335	23441.62
910.572	23196.62
910.808	23178.62
911.045	23112.62
911.281	23072.62
911.518	23012.62
911.754	22760.62
911.99	22791.62
912.226	22463.62
912.463	22330.62
912.699	22153.62
912.935	22009.62
913.171	21862.62
913.407	21537.62
913.643	21499.62
913.879	21321.62
914.114	21113.62
914.35	21017.62
914.586	20741.62
914.822	20638.62
915.057	20588.62
915.293	20356.62
915.529	20203.62
915.764	20174.62
916	20169.62
916.235	20141.62
916.471	20051.62
916.706	19977.62
916.941	20024.62
917.177	19869.62
917.412	20000.62
917.647	19900.62
917.882	19776.62
918.117	19825.62
918.352	19686.62
918.588	19717.62
918.823	19503.62
919.057	19305.62
919.292	19040.62
919.527	18893.62
919.762	18753.62
919.997	18591.62
920.232	18358.62
920.466	18203.62
920.701	18073.62
920.935	17995.62
921.17	17867.62
921.405	17765.62
921.639	17742.62
921.873	17669.62
922.108	17605.62
922.342	17459.62
922.576	17458.62
922.811	17345.62
923.045	17331.62
923.279	17346.62
923.513	17000.62
923.747	17081.62
923.981	16878.62
924.215	16813.62
924.449	16795.62
924.683	16653.62
924.917	16490.62
925.151	16481.62
925.385	16474.62
925.618	16309.62
925.852	16409.62
926.086	16215.62
926.319	16284.62
926.553	16255.62
926.786	16181.62
927.02	16137.62
927.253	16197.62
927.486	16145.62
927.72	16086.62
927.953	16096.62
928.186	15978.62
928.42	15931.62
928.653	15782.62
928.886	15800.62
929.119	15757.62
929.352	15621.62
929.585	15587.62
929.818	15470.62
930.051	15328.62
930.284	15205.62
930.516	14952.62
930.749	14934.62
930.982	14923.62
931.215	14728.62
931.447	14735.62
931.68	14605.62
931.912	14631.62
932.145	14513.62
932.377	14509.62
932.61	14681.62
932.842	14479.62
933.074	14617.62
933.307	14490.62
933.539	14582.62
933.771	14532.62
934.003	14482.62
934.236	14552.62
934.468	14524.62
934.7	14373.62
934.932	14418.62
935.164	14279.62
935.395	14165.62
935.627	14260.62
935.859	14232.62
936.091	14001.62
936.323	14140.62
936.554	14054.62
936.786	13983.62
937.017	13813.62
937.249	13888.62
937.481	13789.62
937.712	13771.62
937.943	13789.62
938.175	13787.62
938.406	13684.62
938.637	13791.62
938.869	13561.62
939.1	13605.62
939.331	13589.62
939.562	13572.62
939.793	13432.62
940.024	13336.62
940.255	13355.62
940.486	13279.62
940.717	13224.62
940.948	13210.62
941.179	13051.62
941.409	12939.62
941.64	13011.62
941.871	12995.62
942.102	12965.62
942.332	12988.62
942.563	13110.62
942.793	12984.62
943.024	12929.62
943.254	12966.62
943.484	12964.62
943.715	12962.62
943.945	12990.62
944.175	12902.62
944.405	12779.62
944.636	12813.62
944.866	12840.62
945.096	12823.62
945.326	12664.62
945.556	12673.62
945.786	12648.62
946.016	12499.62
946.245	12395.62
946.475	12397.62
946.705	12219.62
946.935	12250.62
947.164	12121.62
947.394	12059.62
947.624	12009.62
947.853	11986.62
948.083	11849.62
948.312	11918.62
948.542	11780.62
948.771	11732.62
949	11724.62
949.23	11684.62
949.459	11659.62
949.688	11730.62
949.917	11633.62
950.146	11671.62
950.375	11697.62
950.604	11558.62
950.833	11629.62
951.062	11603.62
951.291	11467.62
951.52	11466.62
951.749	11470.62
951.978	11350.62
952.206	11294.62
952.435	11319.62
952.664	11354.62
952.892	11236.62
953.121	11201.62
953.349	11257.62
953.578	11189.62
953.806	11004.62
954.035	10918.62
954.263	10992.62
954.491	10862.62
954.719	10840.62
954.948	10805.62
955.176	10686.62
955.404	10591.62
955.632	10623.62
955.86	10616.62
956.088	10556.62
956.316	10533.62
956.544	10480.62
956.772	10334.62
956.999	10266.62
957.227	10278.62
957.455	10093.62
957.683	10122.62
957.91	9959.62
958.138	10023.62
958.365	9923.62
958.593	9875.62
958.82	9821.62
959.048	9906.62
959.275	9856.62
959.502	9790.62
959.73	9756.62
959.957	9763.62
960.184	9701.62
960.411	9668.62
960.638	9724.62
960.865	9643.62
961.092	9604.62
961.319	9511.62
961.546	9648.62
961.773	9615.62
962	9558.62
962.227	9596.62
962.454	9522.62
962.68	9402.62
962.907	9478.62
963.134	9350.62
963.36	9318.62
963.587	9295.62
963.813	9102.62
964.04	9113.62
964.266	9037.62
964.493	9024.62
964.719	9022.62
964.945	8937.62
965.171	8839.62
965.398	8830.62
965.624	8772.62
965.85	8761.62
966.076	8712.62
966.302	8656.62
966.528	8640.62
966.754	8601.62
966.98	8565.62
967.206	8480.62
967.431	8430.62
967.657	8513.62
967.883	8441.62
968.109	8461.62
968.334	8339.62
968.56	8295.62
968.785	8234.62
969.011	8239.62
969.236	8308.62
969.462	8228.62
969.687	8172.62
969.912	8193.62
970.138	8195.62
970.363	8049.62
970.588	8073.62
970.813	8045.62
971.038	7983.62
971.263	7945.62
971.488	7917.62
971.713	7903.62
971.938	7938.62
972.163	7755.62
972.388	7733.62
972.613	7766.62
972.838	7670.62
973.062	7681.62
973.287	7663.62
973.512	7518.62
973.736	7542.62
973.961	7480.62
974.185	7501.62
974.41	7453.62
974.634	7308.62
974.858	7254.62
975.083	7297.62
975.307	7248.62
975.531	7207.62
975.755	7078.62
975.98	7085.62
976.204	6988.62
976.428	6919.62
976.652	6924.62
976.876	6872.62
977.1	6883.62
977.324	6816.62
977.547	6880.62
977.771	6855.62
977.995	6798.62
978.219	6733.62
978.442	6817.62
978.666	6750.62
978.89	6703.62
979.113	6637.62
979.337	6656.62
979.56	6558.62
979.783	6692.62
980.007	6503.62
980.23	6525.62
980.453	6470.62
980.677	6467.62
980.9	6390.62
981.123	6320.62
981.346	6359.62
981.569	6344.62
981.792	6363.62
982.015	6216.62
982.238	6173.62
982.461	6251.62
982.684	6137.62
982.907	6045.62
983.129	5964.62
983.352	6041.62
983.575	5944.62
983.797	5950.62
984.02	5847.62
984.242	5858.62
984.465	5883.62
984.687	5825.62
984.91	5833.62
985.132	5779.62
985.354	5783.62
985.577	5757.62
985.799	5661.62
986.021	5565.62
986.243	5579.62
986.465	5582.62
986.687	5589.62
986.909	5586.62
987.131	5509.62
987.353	5475.62
987.575	5469.62
987.797	5459.62
988.019	5341.62
988.241	5401.62
988.462	5304.62
988.684	5342.62
988.906	5411.62
989.127	5383.62
989.349	5255.62
989.57	5249.62
989.792	5256.62
990.013	5323.62
990.234	5258.62
990.456	5299.62
990.677	5194.62
990.898	5097.62
991.119	5101.62
991.341	5113.62
991.562	5057.62
991.783	5020.62
992.004	4974.62
992.225	4872.62
992.446	4991.62
992.667	4783.62
992.887	4864.62
993.108	4749.62
993.329	4869.62
993.55	4743.62
993.77	4730.62
993.991	4671.62
994.212	4636.62
994.432	4649.62
994.653	4639.62
994.873	4598.62
995.093	4424.62
995.314	4515.62
995.534	4544.62
995.754	4504.62
995.975	4511.62
996.195	4396.62
996.415	4450.62
996.635	4397.62
996.855	4429.62
997.075	4380.62
997.295	4342.62
997.515	4363.62
997.735	4346.62
997.955	4285.62
998.174	4276.62
998.394	4220.62
998.614	4258.62
998.834	4238.62
999.053	4337.62
999.273	4208.62
999.492	4293.62
999.712	4198.62
999.931	4153.62
1000.151	4140.62
1000.37	4099.62
1000.589	4163.62
1000.809	4027.62
1001.028	4116.62
1001.247	4022.62
1001.466	3873.62
1001.685	4005.62
1001.904	3912.62
1002.123	3911.62
1002.342	3904.62
1002.561	3832.62
1002.78	3866.62
1002.999	3864.62
1003.218	3756.62
1003.436	3771.62
1003.655	3807.62
1003.874	3695.62
1004.092	3747.62
1004.311	3756.62
1004.53	3680.62
1004.748	3759.62
1004.966	3625.62
1005.185	3655.62
1005.403	3647.62
1005.622	3646.62
1005.84	3652.62
1006.058	3556.62
1006.276	3573.62
1006.494	4089.62
1006.712	3563.62
1006.931	3585.62
1007.149	3478.62
1007.367	3524.62
1007.584	3531.62
1007.802	3551.62
1008.02	3511.62
1008.238	3579.62
1008.456	3566.62
1008.673	3410.62
1008.891	3528.62
1009.109	3491.62
1009.326	3562.62
1009.544	3621.62
1009.761	3511.62
1009.979	3615.62
1010.196	3694.62
1010.413	3736.62
1010.631	3751.62
1010.848	3803.62
1011.065	3820.62
1011.282	3780.62
1011.5	3725.62
1011.717	3778.62
1011.934	3704.62
1012.151	3704.62
1012.368	3691.62
1012.585	3651.62
1012.801	3690.62
1013.018	3654.62
1013.235	3623.62
1013.452	3658.62
1013.669	3648.62
1013.885	3638.62
1014.102	3670.62
1014.318	3610.62
1014.535	3573.62
1014.751	3564.62
1014.968	3564.62
1015.184	3568.62
1015.401	3454.62
1015.617	3495.62
1015.833	3403.62
1016.049	3434.62
1016.266	3354.62
1016.482	3351.62
1016.698	3243.62
1016.914	3285.62
1017.13	3221.62
1017.346	3221.62
1017.562	3287.62
1017.778	3198.62
1017.993	3180.62
1018.209	3214.62
1018.425	3177.62
1018.641	3176.62
1018.856	3165.62
1019.072	3150.62
1019.288	3221.62
1019.503	3108.62
1019.719	3067.62
1019.934	3076.62
1020.149	3140.62
1020.365	3036.62
1020.58	2955.62
1020.795	3034.62
1021.011	2917.62
1021.226	2855.62
1021.441	2886.62
1021.656	2799.62
1021.871	2703.62
1022.086	2635.62
1022.301	2651.62
1022.516	2604.62
1022.731	2604.62
1022.946	2519.62
1023.16	2498.62
1023.375	2462.62
1023.59	2382.62
1023.804	2366.62
1024.019	2416.62
1024.234	2268.62
1024.448	2302.62
1024.663	2204.62
1024.877	2256.62
1025.092	2209.62
1025.306	2185.62
1025.52	2070.62
1025.734	2121.62
1025.949	2002.62
1026.163	1953.62
1026.377	1876.62
1026.591	1912.62
1026.805	1811.62
1027.019	1796.62
1027.233	1735.62
1027.447	1680.62
1027.661	1744.62
1027.875	1677.62
1028.088	1669.62
1028.302	1558.62
1028.516	1536.62
1028.73	1520.62
1028.943	1472.62
1029.157	1342.62
1029.37	1300.62
1029.584	-2.38
1029.797	-3.38
1030.011	2.62
1030.224	-3.38
