Data from QEP037381__135__14-01-48-345.txt Node

Date: Fri Apr 28 14:01:48 EDT 2023
User: dcclab
Spectrometer: QEP03738
Trigger mode: 4
Integration Time (sec): 1.000000E1
Scans to average: 1
Electric dark correction enabled: true
Nonlinearity correction enabled: false
Boxcar width: 0
XAxis mode: Wavelengths
Number of Pixels in Spectrum: 1044
>>>>>Begin Spectral Data<<<<<
784.041	12.12
784.3	3.12
784.558	-4.88
784.817	-3.88
785.075	67031.12
785.334	13824.12
785.592	7253.12
785.851	5141.12
786.109	3889.12
786.368	3077.12
786.626	2484.12
786.884	2113.12
787.143	1754.12
787.401	1436.12
787.659	1321.12
787.917	1128.12
788.175	1050.12
788.433	910.12
788.691	823.12
788.949	782.12
789.207	741.12
789.465	647.12
789.723	630.12
789.98	565.12
790.238	620.12
790.496	585.12
790.753	565.12
791.011	618.12
791.268	543.12
791.526	519.12
791.783	560.12
792.041	517.12
792.298	451.12
792.556	525.12
792.813	487.12
793.07	462.12
793.327	467.12
793.584	536.12
793.841	462.12
794.099	486.12
794.356	541.12
794.613	444.12
794.869	495.12
795.126	453.12
795.383	432.12
795.64	448.12
795.897	426.12
796.153	474.12
796.41	451.12
796.667	442.12
796.923	447.12
797.18	467.12
797.436	490.12
797.693	449.12
797.949	504.12
798.206	539.12
798.462	443.12
798.718	505.12
798.974	495.12
799.231	539.12
799.487	544.12
799.743	537.12
799.999	565.12
800.255	569.12
800.511	584.12
800.767	630.12
801.023	625.12
801.279	683.12
801.534	726.12
801.79	824.12
802.046	908.12
802.302	1078.12
802.557	1336.12
802.813	1742.12
803.068	2287.12
803.324	3334.12
803.579	4682.12
803.835	6557.12
804.09	8916.12
804.345	11319.12
804.601	13782.12
804.856	16024.12
805.111	17723.12
805.366	18897.12
805.621	19749.12
805.876	20396.12
806.131	20770.12
806.386	21285.12
806.641	21763.12
806.896	21991.12
807.151	22612.12
807.406	22858.12
807.661	23313.12
807.915	23600.12
808.17	24162.12
808.425	24357.12
808.679	24823.12
808.934	25154.12
809.188	25419.12
809.443	25776.12
809.697	26260.12
809.951	26307.12
810.206	26643.12
810.46	26906.12
810.714	27064.12
810.968	27285.12
811.223	27504.12
811.477	27781.12
811.731	27946.12
811.985	28115.12
812.239	28365.12
812.493	28566.12
812.747	28685.12
813	28766.12
813.254	28986.12
813.508	29210.12
813.762	29359.12
814.015	29455.12
814.269	29576.12
814.522	29951.12
814.776	30380.12
815.03	30848.12
815.283	31195.12
815.536	31738.12
815.79	32134.12
816.043	32671.12
816.296	33108.12
816.55	33563.12
816.803	34023.12
817.056	34505.12
817.309	34905.12
817.562	35269.12
817.815	35717.12
818.068	36177.12
818.321	36750.12
818.574	37181.12
818.827	37696.12
819.079	38186.12
819.332	39005.12
819.585	39445.12
819.838	40115.12
820.09	40307.12
820.343	40593.12
820.595	40716.12
820.848	41290.12
821.1	41393.12
821.353	41370.12
821.605	41366.12
821.857	41265.12
822.11	41074.12
822.362	41045.12
822.614	41218.12
822.866	41161.12
823.118	41193.12
823.37	41467.12
823.622	41604.12
823.874	41556.12
824.126	41864.12
824.378	41918.12
824.63	42196.12
824.882	42223.12
825.134	42129.12
825.385	42165.12
825.637	42073.12
825.888	41953.12
826.14	41926.12
826.392	41872.12
826.643	41497.12
826.895	41474.12
827.146	41400.12
827.397	41222.12
827.649	41355.12
827.9	41503.12
828.151	41511.12
828.402	41467.12
828.653	41660.12
828.905	41714.12
829.156	41945.12
829.407	41877.12
829.658	41861.12
829.909	41881.12
830.159	41845.12
830.41	41622.12
830.661	41483.12
830.912	41340.12
831.162	41124.12
831.413	41030.12
831.664	41049.12
831.914	41062.12
832.165	40941.12
832.415	41152.12
832.666	41033.12
832.916	41114.12
833.167	41005.12
833.417	40856.12
833.667	40718.12
833.917	40826.12
834.168	40748.12
834.418	40598.12
834.668	40473.12
834.918	40146.12
835.168	40096.12
835.418	39932.12
835.668	39776.12
835.918	39842.12
836.167	39811.12
836.417	39515.12
836.667	39644.12
836.917	39489.12
837.166	39584.12
837.416	39511.12
837.666	39540.12
837.915	39452.12
838.165	39428.12
838.414	39254.12
838.663	39188.12
838.913	39264.12
839.162	39111.12
839.411	39143.12
839.661	38970.12
839.91	38888.12
840.159	38705.12
840.408	38931.12
840.657	38911.12
840.906	38893.12
841.155	38892.12
841.404	38894.12
841.653	39052.12
841.902	39008.12
842.15	39067.12
842.399	39050.12
842.648	38915.12
842.897	38776.12
843.145	38470.12
843.394	38283.12
843.642	38312.12
843.891	37980.12
844.139	37899.12
844.388	37678.12
844.636	37429.12
844.884	37373.12
845.133	37431.12
845.381	37480.12
845.629	37428.12
845.877	37475.12
846.125	37428.12
846.373	37317.12
846.621	37219.12
846.869	37233.12
847.117	36967.12
847.365	36933.12
847.613	36626.12
847.861	36644.12
848.108	36525.12
848.356	36514.12
848.604	36401.12
848.851	36584.12
849.099	36582.12
849.346	36610.12
849.594	36941.12
849.841	37147.12
850.089	37176.12
850.336	37021.12
850.583	37265.12
850.831	37062.12
851.078	36929.12
851.325	36759.12
851.572	36770.12
851.819	36271.12
852.066	35647.12
852.313	35205.12
852.56	34885.12
852.807	34741.12
853.054	34628.12
853.301	34649.12
853.548	34813.12
853.794	35018.12
854.041	34952.12
854.288	35127.12
854.534	35407.12
854.781	35358.12
855.028	35203.12
855.274	35261.12
855.52	35071.12
855.767	34749.12
856.013	34726.12
856.26	34853.12
856.506	34487.12
856.752	34431.12
856.998	34476.12
857.244	34533.12
857.49	34678.12
857.736	34795.12
857.982	34704.12
858.228	34593.12
858.474	34358.12
858.72	34238.12
858.966	33790.12
859.212	33512.12
859.458	33222.12
859.703	32911.12
859.949	32593.12
860.195	32610.12
860.44	32355.12
860.686	32231.12
860.931	32077.12
861.177	31872.12
861.422	31816.12
861.667	31762.12
861.913	31848.12
862.158	31968.12
862.403	32309.12
862.648	32187.12
862.893	32378.12
863.138	32025.12
863.384	32032.12
863.629	31904.12
863.873	31916.12
864.118	31833.12
864.363	31621.12
864.608	31465.12
864.853	31353.12
865.098	31214.12
865.342	31146.12
865.587	30933.12
865.832	31020.12
866.076	30933.12
866.321	30763.12
866.565	30766.12
866.81	30850.12
867.054	30654.12
867.298	30512.12
867.543	30420.12
867.787	30494.12
868.031	30293.12
868.275	30424.12
868.519	30174.12
868.764	30237.12
869.008	30233.12
869.252	30302.12
869.496	30130.12
869.739	30091.12
869.983	30045.12
870.227	30104.12
870.471	29986.12
870.715	30295.12
870.958	30200.12
871.202	30275.12
871.446	30231.12
871.689	30211.12
871.933	30250.12
872.176	30145.12
872.42	30168.12
872.663	30154.12
872.906	29878.12
873.15	29701.12
873.393	29541.12
873.636	29433.12
873.879	29174.12
874.122	28885.12
874.366	28523.12
874.609	28501.12
874.852	28293.12
875.095	28214.12
875.337	28063.12
875.58	27933.12
875.823	27940.12
876.066	27968.12
876.309	27868.12
876.551	27626.12
876.794	27688.12
877.037	27543.12
877.279	27482.12
877.522	27539.12
877.764	27482.12
878.007	27367.12
878.249	27444.12
878.491	27473.12
878.734	27284.12
878.976	27320.12
879.218	27031.12
879.46	26906.12
879.702	26869.12
879.945	26667.12
880.187	26368.12
880.429	26370.12
880.671	26091.12
880.912	26024.12
881.154	25908.12
881.396	25915.12
881.638	25918.12
881.88	25780.12
882.121	25805.12
882.363	25684.12
882.605	25751.12
882.846	25459.12
883.088	25599.12
883.329	25466.12
883.571	25436.12
883.812	25664.12
884.053	25757.12
884.295	26210.12
884.536	26283.12
884.777	26179.12
885.018	26042.12
885.259	25913.12
885.5	25920.12
885.742	26032.12
885.982	25841.12
886.223	25781.12
886.464	25513.12
886.705	25232.12
886.946	25118.12
887.187	24741.12
887.428	24585.12
887.668	24236.12
887.909	24020.12
888.15	23850.12
888.39	23684.12
888.631	23563.12
888.871	23381.12
889.111	23186.12
889.352	23048.12
889.592	22919.12
889.833	22734.12
890.073	22702.12
890.313	22548.12
890.553	22254.12
890.793	22154.12
891.033	22121.12
891.273	22091.12
891.513	21983.12
891.753	21971.12
891.993	21918.12
892.233	21915.12
892.473	22081.12
892.713	21980.12
892.952	22086.12
893.192	22038.12
893.432	21867.12
893.671	21890.12
893.911	21830.12
894.15	21731.12
894.39	21536.12
894.629	21401.12
894.869	21288.12
895.108	21127.12
895.347	21054.12
895.587	20950.12
895.826	20905.12
896.065	20908.12
896.304	20902.12
896.543	20888.12
896.782	20666.12
897.021	20779.12
897.26	20645.12
897.499	20761.12
897.738	20583.12
897.977	20473.12
898.216	20330.12
898.454	20205.12
898.693	19971.12
898.932	19979.12
899.17	19912.12
899.409	19902.12
899.647	19821.12
899.886	19804.12
900.124	19886.12
900.363	19820.12
900.601	19934.12
900.839	19905.12
901.078	19976.12
901.316	19999.12
901.554	20031.12
901.792	20120.12
902.03	20107.12
902.268	19987.12
902.506	19994.12
902.744	19838.12
902.982	19691.12
903.22	19415.12
903.458	19132.12
903.695	18976.12
903.933	18749.12
904.171	18498.12
904.409	18155.12
904.646	18054.12
904.884	17774.12
905.121	17654.12
905.359	17387.12
905.596	17266.12
905.833	17102.12
906.071	17085.12
906.308	17034.12
906.545	17012.12
906.783	16911.12
907.02	16947.12
907.257	16857.12
907.494	16795.12
907.731	16713.12
907.968	16664.12
908.205	16608.12
908.442	16483.12
908.679	16449.12
908.915	16221.12
909.152	16232.12
909.389	15971.12
909.626	15961.12
909.862	15874.12
910.099	15713.12
910.335	15653.12
910.572	15627.12
910.808	15435.12
911.045	15466.12
911.281	15430.12
911.518	15478.12
911.754	15157.12
911.99	15202.12
912.226	15103.12
912.463	14911.12
912.699	14815.12
912.935	14853.12
913.171	14579.12
913.407	14502.12
913.643	14427.12
913.879	14295.12
914.114	14145.12
914.35	14040.12
914.586	13932.12
914.822	13836.12
915.057	13810.12
915.293	13589.12
915.529	13543.12
915.764	13653.12
916	13588.12
916.235	13467.12
916.471	13527.12
916.706	13377.12
916.941	13431.12
917.177	13335.12
917.412	13418.12
917.647	13339.12
917.882	13382.12
918.117	13330.12
918.352	13371.12
918.588	13214.12
918.823	13121.12
919.057	12973.12
919.292	12785.12
919.527	12771.12
919.762	12518.12
919.997	12462.12
920.232	12317.12
920.466	12232.12
920.701	12035.12
920.935	12004.12
921.17	11923.12
921.405	11813.12
921.639	11949.12
921.873	11880.12
922.108	11764.12
922.342	11753.12
922.576	11675.12
922.811	11580.12
923.045	11708.12
923.279	11571.12
923.513	11433.12
923.747	11436.12
923.981	11414.12
924.215	11275.12
924.449	11216.12
924.683	11140.12
924.917	11154.12
925.151	11036.12
925.385	11084.12
925.618	10889.12
925.852	10940.12
926.086	10815.12
926.319	10970.12
926.553	10897.12
926.786	10907.12
927.02	10860.12
927.253	10873.12
927.486	10860.12
927.72	10746.12
927.953	10785.12
928.186	10744.12
928.42	10743.12
928.653	10624.12
928.886	10662.12
929.119	10535.12
929.352	10473.12
929.585	10402.12
929.818	10262.12
930.051	10266.12
930.284	10245.12
930.516	10079.12
930.749	10017.12
930.982	10004.12
931.215	9978.12
931.447	9796.12
931.68	9860.12
931.912	9819.12
932.145	9802.12
932.377	9855.12
932.61	9880.12
932.842	9748.12
933.074	9811.12
933.307	9788.12
933.539	9867.12
933.771	9784.12
934.003	9819.12
934.236	9754.12
934.468	9796.12
934.7	9693.12
934.932	9685.12
935.164	9639.12
935.395	9509.12
935.627	9612.12
935.859	9557.12
936.091	9484.12
936.323	9491.12
936.554	9473.12
936.786	9429.12
937.017	9334.12
937.249	9302.12
937.481	9260.12
937.712	9301.12
937.943	9224.12
938.175	9185.12
938.406	9180.12
938.637	9311.12
938.869	9109.12
939.1	9184.12
939.331	9138.12
939.562	9091.12
939.793	9000.12
940.024	9038.12
940.255	9074.12
940.486	8987.12
940.717	8905.12
940.948	8826.12
941.179	8800.12
941.409	8842.12
941.64	8778.12
941.871	8848.12
942.102	8802.12
942.332	8771.12
942.563	8803.12
942.793	8772.12
943.024	8723.12
943.254	8779.12
943.484	8716.12
943.715	8758.12
943.945	8738.12
944.175	8622.12
944.405	8673.12
944.636	8604.12
944.866	8741.12
945.096	8627.12
945.326	8544.12
945.556	8566.12
945.786	8514.12
946.016	8463.12
946.245	8317.12
946.475	8267.12
946.705	8307.12
946.935	8291.12
947.164	8272.12
947.394	8138.12
947.624	8117.12
947.853	8201.12
948.083	8086.12
948.312	8071.12
948.542	7920.12
948.771	7920.12
949	7899.12
949.23	7934.12
949.459	7958.12
949.688	7931.12
949.917	7973.12
950.146	7932.12
950.375	7927.12
950.604	7835.12
950.833	7950.12
951.062	7940.12
951.291	7800.12
951.52	7742.12
951.749	7839.12
951.978	7783.12
952.206	7722.12
952.435	7655.12
952.664	7684.12
952.892	7696.12
953.121	7639.12
953.349	7636.12
953.578	7556.12
953.806	7494.12
954.035	7462.12
954.263	7474.12
954.491	7429.12
954.719	7355.12
954.948	7343.12
955.176	7325.12
955.404	7175.12
955.632	7271.12
955.86	7186.12
956.088	7146.12
956.316	7175.12
956.544	7216.12
956.772	7117.12
956.999	6994.12
957.227	7057.12
957.455	6958.12
957.683	6912.12
957.91	6896.12
958.138	6835.12
958.365	6854.12
958.593	6792.12
958.82	6715.12
959.048	6770.12
959.275	6778.12
959.502	6655.12
959.73	6723.12
959.957	6691.12
960.184	6702.12
960.411	6592.12
960.638	6691.12
960.865	6631.12
961.092	6690.12
961.319	6514.12
961.546	6657.12
961.773	6630.12
962	6562.12
962.227	6567.12
962.454	6560.12
962.68	6468.12
962.907	6508.12
963.134	6379.12
963.36	6404.12
963.587	6378.12
963.813	6280.12
964.04	6302.12
964.266	6153.12
964.493	6203.12
964.719	6210.12
964.945	6150.12
965.171	6061.12
965.398	6108.12
965.624	6106.12
965.85	5930.12
966.076	5955.12
966.302	5954.12
966.528	5923.12
966.754	5920.12
966.98	5897.12
967.206	5878.12
967.431	5770.12
967.657	5865.12
967.883	5827.12
968.109	5818.12
968.334	5739.12
968.56	5730.12
968.785	5769.12
969.011	5650.12
969.236	5720.12
969.462	5622.12
969.687	5663.12
969.912	5699.12
970.138	5668.12
970.363	5566.12
970.588	5578.12
970.813	5530.12
971.038	5526.12
971.263	5497.12
971.488	5558.12
971.713	5537.12
971.938	5498.12
972.163	5310.12
972.388	5374.12
972.613	5324.12
972.838	5285.12
973.062	5305.12
973.287	5250.12
973.512	5174.12
973.736	5219.12
973.961	5162.12
974.185	5144.12
974.41	5171.12
974.634	5083.12
974.858	5027.12
975.083	5038.12
975.307	5050.12
975.531	4938.12
975.755	4953.12
975.98	4939.12
976.204	4853.12
976.428	4794.12
976.652	4824.12
976.876	4748.12
977.1	4810.12
977.324	4733.12
977.547	4738.12
977.771	4734.12
977.995	4694.12
978.219	4682.12
978.442	4762.12
978.666	4671.12
978.89	4667.12
979.113	4633.12
979.337	4584.12
979.56	4550.12
979.783	4677.12
980.007	4474.12
980.23	4523.12
980.453	4522.12
980.677	4531.12
980.9	4493.12
981.123	4382.12
981.346	4462.12
981.569	4442.12
981.792	4418.12
982.015	4386.12
982.238	4310.12
982.461	4314.12
982.684	4269.12
982.907	4199.12
983.129	4183.12
983.352	4233.12
983.575	4195.12
983.797	4207.12
984.02	4081.12
984.242	4095.12
984.465	4057.12
984.687	4085.12
984.91	4117.12
985.132	4042.12
985.354	4101.12
985.577	4032.12
985.799	3977.12
986.021	3942.12
986.243	3902.12
986.465	3927.12
986.687	4006.12
986.909	3982.12
987.131	3898.12
987.353	3868.12
987.575	3886.12
987.797	3877.12
988.019	3827.12
988.241	3802.12
988.462	3816.12
988.684	3826.12
988.906	3824.12
989.127	3874.12
989.349	3719.12
989.57	3766.12
989.792	3764.12
990.013	3765.12
990.234	3763.12
990.456	3768.12
990.677	3750.12
990.898	3641.12
991.119	3650.12
991.341	3628.12
991.562	3630.12
991.783	3585.12
992.004	3552.12
992.225	3520.12
992.446	3554.12
992.667	3403.12
992.887	3519.12
993.108	3395.12
993.329	3488.12
993.55	3405.12
993.77	3368.12
993.991	3331.12
994.212	3386.12
994.432	3350.12
994.653	3316.12
994.873	3296.12
995.093	3203.12
995.314	3221.12
995.534	3247.12
995.754	3296.12
995.975	3276.12
996.195	3208.12
996.415	3214.12
996.635	3149.12
996.855	3232.12
997.075	3182.12
997.295	3156.12
997.515	3103.12
997.735	3182.12
997.955	3132.12
998.174	3167.12
998.394	3081.12
998.614	3096.12
998.834	3113.12
999.053	3116.12
999.273	3136.12
999.492	3178.12
999.712	3057.12
999.931	3032.12
1000.151	3050.12
1000.37	3005.12
1000.589	3060.12
1000.809	2984.12
1001.028	3035.12
1001.247	3005.12
1001.466	2854.12
1001.685	2973.12
1001.904	2877.12
1002.123	2887.12
1002.342	2896.12
1002.561	2855.12
1002.78	2834.12
1002.999	2882.12
1003.218	2803.12
1003.436	2796.12
1003.655	2774.12
1003.874	2742.12
1004.092	2753.12
1004.311	2791.12
1004.53	2729.12
1004.748	2808.12
1004.966	2719.12
1005.185	2753.12
1005.403	2749.12
1005.622	2701.12
1005.84	2792.12
1006.058	2674.12
1006.276	2701.12
1006.494	3061.12
1006.712	2673.12
1006.931	2730.12
1007.149	2618.12
1007.367	2671.12
1007.584	2707.12
1007.802	2742.12
1008.02	2673.12
1008.238	2770.12
1008.456	2754.12
1008.673	2614.12
1008.891	2727.12
1009.109	2683.12
1009.326	2755.12
1009.544	2831.12
1009.761	2760.12
1009.979	2832.12
1010.196	2864.12
1010.413	2974.12
1010.631	3033.12
1010.848	3045.12
1011.065	3088.12
1011.282	3032.12
1011.5	2958.12
1011.717	3052.12
1011.934	2956.12
1012.151	3012.12
1012.368	2996.12
1012.585	2916.12
1012.801	2991.12
1013.018	2944.12
1013.235	2965.12
1013.452	2948.12
1013.669	2944.12
1013.885	2939.12
1014.102	2988.12
1014.318	2905.12
1014.535	2918.12
1014.751	2933.12
1014.968	2877.12
1015.184	2903.12
1015.401	2784.12
1015.617	2862.12
1015.833	2757.12
1016.049	2743.12
1016.266	2766.12
1016.482	2736.12
1016.698	2682.12
1016.914	2708.12
1017.13	2663.12
1017.346	2644.12
1017.562	2734.12
1017.778	2612.12
1017.993	2614.12
1018.209	2661.12
1018.425	2600.12
1018.641	2615.12
1018.856	2580.12
1019.072	2567.12
1019.288	2679.12
1019.503	2588.12
1019.719	2482.12
1019.934	2503.12
1020.149	2598.12
1020.365	2518.12
1020.58	2440.12
1020.795	2503.12
1021.011	2337.12
1021.226	2304.12
1021.441	2339.12
1021.656	2274.12
1021.871	2130.12
1022.086	2125.12
1022.301	2105.12
1022.516	2072.12
1022.731	2161.12
1022.946	2018.12
1023.16	2001.12
1023.375	1976.12
1023.59	1946.12
1023.804	1875.12
1024.019	1982.12
1024.234	1814.12
1024.448	1860.12
1024.663	1766.12
1024.877	1752.12
1025.092	1773.12
1025.306	1727.12
1025.52	1648.12
1025.734	1702.12
1025.949	1621.12
1026.163	1575.12
1026.377	1481.12
1026.591	1534.12
1026.805	1456.12
1027.019	1432.12
1027.233	1386.12
1027.447	1329.12
1027.661	1408.12
1027.875	1347.12
1028.088	1338.12
1028.302	1252.12
1028.516	1241.12
1028.73	1209.12
1028.943	1179.12
1029.157	1105.12
1029.37	1030.12
1029.584	-0.88
1029.797	-2.88
1030.011	-0.88
1030.224	-1.88
