Data from QEP037381__132__14-01-18-345.txt Node

Date: Fri Apr 28 14:01:18 EDT 2023
User: dcclab
Spectrometer: QEP03738
Trigger mode: 4
Integration Time (sec): 1.000000E1
Scans to average: 1
Electric dark correction enabled: true
Nonlinearity correction enabled: false
Boxcar width: 0
XAxis mode: Wavelengths
Number of Pixels in Spectrum: 1044
>>>>>Begin Spectral Data<<<<<
784.041	11.75
784.3	-3.25
784.558	-1.25
784.817	-2.25
785.075	62215.75
785.334	13317.75
785.592	7189.75
785.851	5105.75
786.109	3939.75
786.368	3040.75
786.626	2490.75
786.884	2061.75
787.143	1729.75
787.401	1447.75
787.659	1332.75
787.917	1145.75
788.175	1054.75
788.433	946.75
788.691	827.75
788.949	763.75
789.207	736.75
789.465	648.75
789.723	628.75
789.98	602.75
790.238	623.75
790.496	595.75
790.753	564.75
791.011	606.75
791.268	555.75
791.526	543.75
791.783	546.75
792.041	528.75
792.298	459.75
792.556	531.75
792.813	502.75
793.07	472.75
793.327	480.75
793.584	554.75
793.841	474.75
794.099	494.75
794.356	547.75
794.613	437.75
794.869	494.75
795.126	456.75
795.383	437.75
795.64	472.75
795.897	434.75
796.153	477.75
796.41	474.75
796.667	458.75
796.923	480.75
797.18	470.75
797.436	496.75
797.693	455.75
797.949	520.75
798.206	552.75
798.462	457.75
798.718	516.75
798.974	517.75
799.231	559.75
799.487	546.75
799.743	580.75
799.999	587.75
800.255	599.75
800.511	594.75
800.767	639.75
801.023	653.75
801.279	701.75
801.534	774.75
801.79	882.75
802.046	937.75
802.302	1160.75
802.557	1444.75
802.813	1866.75
803.068	2472.75
803.324	3578.75
803.579	5131.75
803.835	7068.75
804.09	9809.75
804.345	12444.75
804.601	15316.75
804.856	17846.75
805.111	19730.75
805.366	21108.75
805.621	22144.75
805.876	22839.75
806.131	23266.75
806.386	23812.75
806.641	24179.75
806.896	24673.75
807.151	25191.75
807.406	25442.75
807.661	26030.75
807.915	26614.75
808.17	26930.75
808.425	27316.75
808.679	27658.75
808.934	28069.75
809.188	28497.75
809.443	28858.75
809.697	29328.75
809.951	29513.75
810.206	29812.75
810.46	30118.75
810.714	30442.75
810.968	30548.75
811.223	30884.75
811.477	31153.75
811.731	31414.75
811.985	31684.75
812.239	31749.75
812.493	32132.75
812.747	32274.75
813	32258.75
813.254	32527.75
813.508	32791.75
813.762	32969.75
814.015	33095.75
814.269	33530.75
814.522	33817.75
814.776	34164.75
815.03	34719.75
815.283	35148.75
815.536	35787.75
815.79	36252.75
816.043	36839.75
816.296	37247.75
816.55	37816.75
816.803	38309.75
817.056	38983.75
817.309	39276.75
817.562	39865.75
817.815	40367.75
818.068	40785.75
818.321	41484.75
818.574	42105.75
818.827	42730.75
819.079	43319.75
819.332	44046.75
819.585	44637.75
819.838	45362.75
820.09	45666.75
820.343	46119.75
820.595	46250.75
820.848	46742.75
821.1	46789.75
821.353	46862.75
821.605	47002.75
821.857	47019.75
822.11	46800.75
822.362	46632.75
822.614	46607.75
822.866	46813.75
823.118	46686.75
823.37	47061.75
823.622	47223.75
823.874	47389.75
824.126	47625.75
824.378	47917.75
824.63	48003.75
824.882	48217.75
825.134	48136.75
825.385	48007.75
825.637	47981.75
825.888	48018.75
826.14	47828.75
826.392	47525.75
826.643	47541.75
826.895	47317.75
827.146	47104.75
827.397	47054.75
827.649	47292.75
827.9	47136.75
828.151	47233.75
828.402	47486.75
828.653	47695.75
828.905	47709.75
829.156	47921.75
829.407	47762.75
829.658	47941.75
829.909	47919.75
830.159	47672.75
830.41	47568.75
830.661	47356.75
830.912	46979.75
831.162	47043.75
831.413	46971.75
831.664	47133.75
831.914	47023.75
832.165	46981.75
832.415	47022.75
832.666	47028.75
832.916	47293.75
833.167	47044.75
833.417	46976.75
833.667	46945.75
833.917	46839.75
834.168	46763.75
834.418	46599.75
834.668	46409.75
834.918	46181.75
835.168	46111.75
835.418	45868.75
835.668	45778.75
835.918	45689.75
836.167	45643.75
836.417	45685.75
836.667	45554.75
836.917	45437.75
837.166	45514.75
837.416	45577.75
837.666	45396.75
837.915	45357.75
838.165	45429.75
838.414	45264.75
838.663	45185.75
838.913	45183.75
839.162	45084.75
839.411	45066.75
839.661	44909.75
839.91	44779.75
840.159	44674.75
840.408	44755.75
840.657	44839.75
840.906	44857.75
841.155	45043.75
841.404	44906.75
841.653	45012.75
841.902	44983.75
842.15	45106.75
842.399	45055.75
842.648	44919.75
842.897	44870.75
843.145	44506.75
843.394	44350.75
843.642	44079.75
843.891	43946.75
844.139	43886.75
844.388	43739.75
844.636	43397.75
844.884	43362.75
845.133	43392.75
845.381	43279.75
845.629	43348.75
845.877	43331.75
846.125	43251.75
846.373	43301.75
846.621	43148.75
846.869	43015.75
847.117	42915.75
847.365	42537.75
847.613	42486.75
847.861	42502.75
848.108	42301.75
848.356	42302.75
848.604	42403.75
848.851	42262.75
849.099	42385.75
849.346	42500.75
849.594	42693.75
849.841	42896.75
850.089	43121.75
850.336	43132.75
850.583	43218.75
850.831	43043.75
851.078	42832.75
851.325	42755.75
851.572	42606.75
851.819	42195.75
852.066	41275.75
852.313	40855.75
852.56	40643.75
852.807	40513.75
853.054	40368.75
853.301	40341.75
853.548	40442.75
853.794	40691.75
854.041	40797.75
854.288	40886.75
854.534	41200.75
854.781	41146.75
855.028	40970.75
855.274	40939.75
855.52	40885.75
855.767	40459.75
856.013	40502.75
856.26	40518.75
856.506	40199.75
856.752	40259.75
856.998	40249.75
857.244	40211.75
857.49	40428.75
857.736	40439.75
857.982	40419.75
858.228	40511.75
858.474	40255.75
858.72	40071.75
858.966	39614.75
859.212	39270.75
859.458	38877.75
859.703	38596.75
859.949	38227.75
860.195	37879.75
860.44	37878.75
860.686	37683.75
860.931	37622.75
861.177	37378.75
861.422	37385.75
861.667	37357.75
861.913	37428.75
862.158	37565.75
862.403	37656.75
862.648	37712.75
862.893	37785.75
863.138	37781.75
863.384	37611.75
863.629	37655.75
863.873	37527.75
864.118	37444.75
864.363	37167.75
864.608	36937.75
864.853	36859.75
865.098	36817.75
865.342	36695.75
865.587	36370.75
865.832	36438.75
866.076	36439.75
866.321	36338.75
866.565	36141.75
866.81	36028.75
867.054	36042.75
867.298	35890.75
867.543	35921.75
867.787	35816.75
868.031	35836.75
868.275	35678.75
868.519	35587.75
868.764	35773.75
869.008	35720.75
869.252	35561.75
869.496	35486.75
869.739	35505.75
869.983	35186.75
870.227	35430.75
870.471	35313.75
870.715	35537.75
870.958	35565.75
871.202	35500.75
871.446	35526.75
871.689	35605.75
871.933	35570.75
872.176	35553.75
872.42	35366.75
872.663	35250.75
872.906	35141.75
873.15	35018.75
873.393	34683.75
873.636	34637.75
873.879	34286.75
874.122	34014.75
874.366	33738.75
874.609	33500.75
874.852	33439.75
875.095	33251.75
875.337	33210.75
875.58	33016.75
875.823	33070.75
876.066	32889.75
876.309	32922.75
876.551	32698.75
876.794	32743.75
877.037	32674.75
877.279	32521.75
877.522	32435.75
877.764	32523.75
878.007	32481.75
878.249	32500.75
878.491	32323.75
878.734	32341.75
878.976	32310.75
879.218	32179.75
879.46	31958.75
879.702	31668.75
879.945	31441.75
880.187	31320.75
880.429	31230.75
880.671	30960.75
880.912	30920.75
881.154	30888.75
881.396	30679.75
881.638	30757.75
881.88	30815.75
882.121	30643.75
882.363	30656.75
882.605	30588.75
882.846	30433.75
883.088	30308.75
883.329	30391.75
883.571	30288.75
883.812	30347.75
884.053	30511.75
884.295	30802.75
884.536	30891.75
884.777	30759.75
885.018	30697.75
885.259	30647.75
885.5	30632.75
885.742	30802.75
885.982	30530.75
886.223	30292.75
886.464	30198.75
886.705	29959.75
886.946	29686.75
887.187	29382.75
887.428	29262.75
887.668	29041.75
887.909	28794.75
888.15	28558.75
888.39	28297.75
888.631	28089.75
888.871	27810.75
889.111	27811.75
889.352	27625.75
889.592	27375.75
889.833	27141.75
890.073	27047.75
890.313	27060.75
890.553	26619.75
890.793	26541.75
891.033	26556.75
891.273	26399.75
891.513	26395.75
891.753	26343.75
891.993	26293.75
892.233	26256.75
892.473	26435.75
892.713	26466.75
892.952	26391.75
893.192	26367.75
893.432	26337.75
893.671	26174.75
893.911	26127.75
894.15	26046.75
894.39	25746.75
894.629	25562.75
894.869	25445.75
895.108	25230.75
895.347	25219.75
895.587	25164.75
895.826	25092.75
896.065	25095.75
896.304	24948.75
896.543	24938.75
896.782	24849.75
897.021	24802.75
897.26	24794.75
897.499	24809.75
897.738	24687.75
897.977	24501.75
898.216	24412.75
898.454	24144.75
898.693	24008.75
898.932	23981.75
899.17	23842.75
899.409	23746.75
899.647	23786.75
899.886	23822.75
900.124	23701.75
900.363	23737.75
900.601	23859.75
900.839	23858.75
901.078	23850.75
901.316	23921.75
901.554	24013.75
901.792	24052.75
902.03	23970.75
902.268	23872.75
902.506	23909.75
902.744	23560.75
902.982	23479.75
903.22	23195.75
903.458	22993.75
903.695	22796.75
903.933	22557.75
904.171	22147.75
904.409	21818.75
904.646	21695.75
904.884	21345.75
905.121	21156.75
905.359	21033.75
905.596	20891.75
905.833	20741.75
906.071	20632.75
906.308	20590.75
906.545	20533.75
906.783	20393.75
907.02	20328.75
907.257	20258.75
907.494	20326.75
907.731	20301.75
907.968	20161.75
908.205	19974.75
908.442	19947.75
908.679	19843.75
908.915	19734.75
909.152	19622.75
909.389	19301.75
909.626	19194.75
909.862	19162.75
910.099	19097.75
910.335	18988.75
910.572	18843.75
910.808	18882.75
911.045	18819.75
911.281	18712.75
911.518	18633.75
911.754	18518.75
911.99	18497.75
912.226	18227.75
912.463	18112.75
912.699	18029.75
912.935	17842.75
913.171	17762.75
913.407	17605.75
913.643	17519.75
913.879	17392.75
914.114	17198.75
914.35	17007.75
914.586	16846.75
914.822	16748.75
915.057	16739.75
915.293	16451.75
915.529	16455.75
915.764	16600.75
916	16452.75
916.235	16521.75
916.471	16397.75
916.706	16412.75
916.941	16261.75
917.177	16323.75
917.412	16269.75
917.647	16324.75
917.882	16236.75
918.117	16146.75
918.352	16092.75
918.588	16046.75
918.823	15791.75
919.057	15873.75
919.292	15503.75
919.527	15571.75
919.762	15236.75
919.997	15190.75
920.232	14986.75
920.466	14966.75
920.701	14655.75
920.935	14741.75
921.17	14656.75
921.405	14517.75
921.639	14534.75
921.873	14380.75
922.108	14418.75
922.342	14310.75
922.576	14201.75
922.811	14258.75
923.045	14180.75
923.279	14132.75
923.513	13933.75
923.747	14011.75
923.981	13873.75
924.215	13777.75
924.449	13744.75
924.683	13641.75
924.917	13556.75
925.151	13422.75
925.385	13504.75
925.618	13463.75
925.852	13425.75
926.086	13323.75
926.319	13378.75
926.553	13345.75
926.786	13347.75
927.02	13280.75
927.253	13308.75
927.486	13305.75
927.72	13235.75
927.953	13221.75
928.186	13135.75
928.42	13095.75
928.653	12981.75
928.886	12900.75
929.119	12903.75
929.352	12822.75
929.585	12724.75
929.818	12686.75
930.051	12567.75
930.284	12455.75
930.516	12321.75
930.749	12291.75
930.982	12337.75
931.215	12249.75
931.447	12098.75
931.68	12057.75
931.912	11992.75
932.145	12143.75
932.377	12003.75
932.61	12083.75
932.842	12033.75
933.074	12078.75
933.307	11990.75
933.539	12086.75
933.771	12024.75
934.003	11965.75
934.236	12024.75
934.468	11971.75
934.7	11974.75
934.932	11917.75
935.164	11836.75
935.395	11731.75
935.627	11770.75
935.859	11714.75
936.091	11570.75
936.323	11730.75
936.554	11612.75
936.786	11518.75
937.017	11443.75
937.249	11460.75
937.481	11310.75
937.712	11445.75
937.943	11351.75
938.175	11274.75
938.406	11378.75
938.637	11335.75
938.869	11235.75
939.1	11293.75
939.331	11209.75
939.562	11164.75
939.793	11120.75
940.024	11206.75
940.255	11055.75
940.486	10978.75
940.717	10909.75
940.948	10916.75
941.179	10876.75
941.409	10898.75
941.64	10866.75
941.871	10883.75
942.102	10825.75
942.332	10843.75
942.563	10879.75
942.793	10843.75
943.024	10790.75
943.254	10755.75
943.484	10755.75
943.715	10789.75
943.945	10772.75
944.175	10703.75
944.405	10656.75
944.636	10661.75
944.866	10690.75
945.096	10699.75
945.326	10527.75
945.556	10580.75
945.786	10537.75
946.016	10443.75
946.245	10297.75
946.475	10281.75
946.705	10193.75
946.935	10190.75
947.164	10068.75
947.394	10025.75
947.624	10003.75
947.853	10022.75
948.083	10005.75
948.312	9903.75
948.542	9874.75
948.771	9858.75
949	9812.75
949.23	9779.75
949.459	9819.75
949.688	9828.75
949.917	9797.75
950.146	9785.75
950.375	9811.75
950.604	9698.75
950.833	9750.75
951.062	9735.75
951.291	9670.75
951.52	9636.75
951.749	9700.75
951.978	9564.75
952.206	9497.75
952.435	9564.75
952.664	9512.75
952.892	9511.75
953.121	9481.75
953.349	9403.75
953.578	9387.75
953.806	9256.75
954.035	9248.75
954.263	9235.75
954.491	9151.75
954.719	9112.75
954.948	9072.75
955.176	9003.75
955.404	8879.75
955.632	8903.75
955.86	8951.75
956.088	8943.75
956.316	8920.75
956.544	8827.75
956.772	8754.75
956.999	8701.75
957.227	8723.75
957.455	8555.75
957.683	8538.75
957.91	8523.75
958.138	8511.75
958.365	8506.75
958.593	8439.75
958.82	8346.75
959.048	8391.75
959.275	8350.75
959.502	8274.75
959.73	8272.75
959.957	8310.75
960.184	8300.75
960.411	8182.75
960.638	8212.75
960.865	8207.75
961.092	8219.75
961.319	8089.75
961.546	8221.75
961.773	8219.75
962	8120.75
962.227	8186.75
962.454	8108.75
962.68	8038.75
962.907	8066.75
963.134	7949.75
963.36	7895.75
963.587	7947.75
963.813	7792.75
964.04	7733.75
964.266	7690.75
964.493	7780.75
964.719	7636.75
964.945	7597.75
965.171	7501.75
965.398	7544.75
965.624	7438.75
965.85	7376.75
966.076	7371.75
966.302	7370.75
966.528	7343.75
966.754	7348.75
966.98	7281.75
967.206	7295.75
967.431	7163.75
967.657	7289.75
967.883	7185.75
968.109	7179.75
968.334	7145.75
968.56	7117.75
968.785	7063.75
969.011	7038.75
969.236	7071.75
969.462	7008.75
969.687	7015.75
969.912	7007.75
970.138	6982.75
970.363	6921.75
970.588	6873.75
970.813	6858.75
971.038	6827.75
971.263	6814.75
971.488	6764.75
971.713	6802.75
971.938	6766.75
972.163	6623.75
972.388	6597.75
972.613	6621.75
972.838	6620.75
973.062	6522.75
973.287	6580.75
973.512	6407.75
973.736	6450.75
973.961	6390.75
974.185	6409.75
974.41	6390.75
974.634	6274.75
974.858	6245.75
975.083	6267.75
975.307	6233.75
975.531	6154.75
975.755	6076.75
975.98	6092.75
976.204	6031.75
976.428	5979.75
976.652	5952.75
976.876	5885.75
977.1	5912.75
977.324	5900.75
977.547	5906.75
977.771	5877.75
977.995	5802.75
978.219	5756.75
978.442	5883.75
978.666	5785.75
978.89	5749.75
979.113	5762.75
979.337	5802.75
979.56	5668.75
979.783	5769.75
980.007	5582.75
980.23	5602.75
980.453	5543.75
980.677	5584.75
980.9	5535.75
981.123	5457.75
981.346	5542.75
981.569	5466.75
981.792	5502.75
982.015	5452.75
982.238	5333.75
982.461	5292.75
982.684	5244.75
982.907	5230.75
983.129	5141.75
983.352	5172.75
983.575	5164.75
983.797	5138.75
984.02	5059.75
984.242	5053.75
984.465	5029.75
984.687	5070.75
984.91	5076.75
985.132	5016.75
985.354	4988.75
985.577	4993.75
985.799	4943.75
986.021	4848.75
986.243	4827.75
986.465	4797.75
986.687	4877.75
986.909	4907.75
987.131	4762.75
987.353	4758.75
987.575	4806.75
987.797	4750.75
988.019	4696.75
988.241	4694.75
988.462	4638.75
988.684	4716.75
988.906	4728.75
989.127	4729.75
989.349	4601.75
989.57	4623.75
989.792	4670.75
990.013	4634.75
990.234	4589.75
990.456	4647.75
990.677	4576.75
990.898	4505.75
991.119	4450.75
991.341	4469.75
991.562	4392.75
991.783	4450.75
992.004	4314.75
992.225	4323.75
992.446	4344.75
992.667	4238.75
992.887	4267.75
993.108	4185.75
993.329	4244.75
993.55	4226.75
993.77	4131.75
993.991	4098.75
994.212	4107.75
994.432	4078.75
994.653	4067.75
994.873	4035.75
995.093	3907.75
995.314	3938.75
995.534	3984.75
995.754	4006.75
995.975	4013.75
996.195	3855.75
996.415	3943.75
996.635	3921.75
996.855	3971.75
997.075	3855.75
997.295	3882.75
997.515	3799.75
997.735	3834.75
997.955	3815.75
998.174	3830.75
998.394	3756.75
998.614	3809.75
998.834	3795.75
999.053	3820.75
999.273	3778.75
999.492	3753.75
999.712	3735.75
999.931	3666.75
1000.151	3723.75
1000.37	3667.75
1000.589	3659.75
1000.809	3572.75
1001.028	3671.75
1001.247	3609.75
1001.466	3469.75
1001.685	3621.75
1001.904	3529.75
1002.123	3482.75
1002.342	3496.75
1002.561	3404.75
1002.78	3371.75
1002.999	3444.75
1003.218	3378.75
1003.436	3365.75
1003.655	3380.75
1003.874	3333.75
1004.092	3303.75
1004.311	3340.75
1004.53	3291.75
1004.748	3353.75
1004.966	3269.75
1005.185	3301.75
1005.403	3313.75
1005.622	3226.75
1005.84	3307.75
1006.058	3190.75
1006.276	3231.75
1006.494	3559.75
1006.712	3221.75
1006.931	3268.75
1007.149	3175.75
1007.367	3123.75
1007.584	3201.75
1007.802	3231.75
1008.02	3169.75
1008.238	3265.75
1008.456	3238.75
1008.673	3133.75
1008.891	3210.75
1009.109	3168.75
1009.326	3251.75
1009.544	3324.75
1009.761	3264.75
1009.979	3328.75
1010.196	3385.75
1010.413	3480.75
1010.631	3569.75
1010.848	3627.75
1011.065	3611.75
1011.282	3553.75
1011.5	3475.75
1011.717	3594.75
1011.934	3539.75
1012.151	3534.75
1012.368	3497.75
1012.585	3429.75
1012.801	3536.75
1013.018	3483.75
1013.235	3444.75
1013.452	3483.75
1013.669	3489.75
1013.885	3438.75
1014.102	3487.75
1014.318	3417.75
1014.535	3400.75
1014.751	3371.75
1014.968	3373.75
1015.184	3402.75
1015.401	3270.75
1015.617	3325.75
1015.833	3240.75
1016.049	3226.75
1016.266	3206.75
1016.482	3228.75
1016.698	3146.75
1016.914	3142.75
1017.13	3097.75
1017.346	3085.75
1017.562	3112.75
1017.778	3059.75
1017.993	3045.75
1018.209	3101.75
1018.425	3043.75
1018.641	3061.75
1018.856	3014.75
1019.072	3033.75
1019.288	3087.75
1019.503	3036.75
1019.719	2920.75
1019.934	2952.75
1020.149	2973.75
1020.365	2901.75
1020.58	2887.75
1020.795	2825.75
1021.011	2783.75
1021.226	2702.75
1021.441	2719.75
1021.656	2608.75
1021.871	2523.75
1022.086	2523.75
1022.301	2464.75
1022.516	2429.75
1022.731	2488.75
1022.946	2381.75
1023.16	2334.75
1023.375	2273.75
1023.59	2241.75
1023.804	2188.75
1024.019	2284.75
1024.234	2148.75
1024.448	2162.75
1024.663	2039.75
1024.877	2058.75
1025.092	2050.75
1025.306	2011.75
1025.52	1914.75
1025.734	1970.75
1025.949	1863.75
1026.163	1794.75
1026.377	1744.75
1026.591	1779.75
1026.805	1698.75
1027.019	1631.75
1027.233	1619.75
1027.447	1551.75
1027.661	1650.75
1027.875	1580.75
1028.088	1550.75
1028.302	1455.75
1028.516	1456.75
1028.73	1399.75
1028.943	1347.75
1029.157	1301.75
1029.37	1201.75
1029.584	-2.25
1029.797	-3.25
1030.011	-0.25
1030.224	0.75
