Data from QEP037381__125__14-00-08-345.txt Node

Date: Fri Apr 28 14:00:08 EDT 2023
User: dcclab
Spectrometer: QEP03738
Trigger mode: 4
Integration Time (sec): 1.000000E1
Scans to average: 1
Electric dark correction enabled: true
Nonlinearity correction enabled: false
Boxcar width: 0
XAxis mode: Wavelengths
Number of Pixels in Spectrum: 1044
>>>>>Begin Spectral Data<<<<<
784.041	10.75
784.3	0.75
784.558	-4.25
784.817	-3.25
785.075	66996.75
785.334	13950.75
785.592	7382.75
785.851	5298.75
786.109	3980.75
786.368	3154.75
786.626	2577.75
786.884	2138.75
787.143	1816.75
787.401	1470.75
787.659	1352.75
787.917	1127.75
788.175	1074.75
788.433	932.75
788.691	842.75
788.949	790.75
789.207	749.75
789.465	658.75
789.723	636.75
789.98	576.75
790.238	627.75
790.496	607.75
790.753	554.75
791.011	605.75
791.268	537.75
791.526	523.75
791.783	562.75
792.041	539.75
792.298	459.75
792.556	520.75
792.813	510.75
793.07	483.75
793.327	464.75
793.584	557.75
793.841	466.75
794.099	504.75
794.356	554.75
794.613	440.75
794.869	477.75
795.126	449.75
795.383	432.75
795.64	473.75
795.897	403.75
796.153	472.75
796.41	456.75
796.667	451.75
796.923	458.75
797.18	442.75
797.436	490.75
797.693	450.75
797.949	500.75
798.206	534.75
798.462	448.75
798.718	513.75
798.974	492.75
799.231	529.75
799.487	544.75
799.743	553.75
799.999	582.75
800.255	567.75
800.511	566.75
800.767	632.75
801.023	622.75
801.279	682.75
801.534	723.75
801.79	815.75
802.046	915.75
802.302	1117.75
802.557	1367.75
802.813	1737.75
803.068	2387.75
803.324	3400.75
803.579	4802.75
803.835	6761.75
804.09	9159.75
804.345	11750.75
804.601	14290.75
804.856	16633.75
805.111	18406.75
805.366	19653.75
805.621	20583.75
805.876	21272.75
806.131	21688.75
806.386	22132.75
806.641	22502.75
806.896	22815.75
807.151	23302.75
807.406	23743.75
807.661	24296.75
807.915	24753.75
808.17	24995.75
808.425	25266.75
808.679	25647.75
808.934	25984.75
809.188	26266.75
809.443	26638.75
809.697	26857.75
809.951	27012.75
810.206	27492.75
810.46	27583.75
810.714	27820.75
810.968	28150.75
811.223	28367.75
811.477	28483.75
811.731	28752.75
811.985	28829.75
812.239	29168.75
812.493	29244.75
812.747	29503.75
813	29471.75
813.254	29699.75
813.508	29844.75
813.762	29889.75
814.015	30127.75
814.269	30477.75
814.522	30503.75
814.776	30936.75
815.03	31442.75
815.283	31804.75
815.536	32260.75
815.79	32725.75
816.043	33385.75
816.296	33588.75
816.55	34139.75
816.803	34496.75
817.056	35110.75
817.309	35476.75
817.562	35936.75
817.815	36314.75
818.068	36613.75
818.321	36974.75
818.574	37648.75
818.827	38130.75
819.079	38685.75
819.332	39350.75
819.585	39826.75
819.838	40362.75
820.09	40706.75
820.343	41036.75
820.595	41245.75
820.848	41493.75
821.1	41663.75
821.353	41667.75
821.605	41645.75
821.857	41779.75
822.11	41395.75
822.362	41420.75
822.614	41409.75
822.866	41246.75
823.118	41458.75
823.37	41560.75
823.622	41726.75
823.874	41874.75
824.126	42008.75
824.378	41942.75
824.63	42186.75
824.882	42243.75
825.134	42244.75
825.385	42348.75
825.637	42174.75
825.888	42173.75
826.14	42000.75
826.392	41879.75
826.643	41624.75
826.895	41454.75
827.146	41322.75
827.397	41301.75
827.649	41243.75
827.9	41207.75
828.151	41362.75
828.402	41482.75
828.653	41466.75
828.905	41790.75
829.156	41772.75
829.407	41730.75
829.658	41743.75
829.909	41744.75
830.159	41768.75
830.41	41636.75
830.661	41218.75
830.912	40991.75
831.162	40850.75
831.413	40877.75
831.664	40845.75
831.914	40717.75
832.165	40789.75
832.415	40681.75
832.666	40561.75
832.916	40773.75
833.167	40665.75
833.417	40511.75
833.667	40441.75
833.917	40363.75
834.168	40358.75
834.418	40187.75
834.668	39959.75
834.918	39783.75
835.168	39767.75
835.418	39581.75
835.668	39343.75
835.918	39433.75
836.167	39256.75
836.417	39111.75
836.667	39096.75
836.917	39122.75
837.166	39018.75
837.416	38969.75
837.666	38931.75
837.915	38924.75
838.165	38842.75
838.414	38622.75
838.663	38590.75
838.913	38578.75
839.162	38429.75
839.411	38580.75
839.661	38168.75
839.91	38243.75
840.159	38109.75
840.408	38058.75
840.657	38151.75
840.906	38147.75
841.155	38241.75
841.404	38139.75
841.653	38181.75
841.902	38341.75
842.15	38338.75
842.399	38220.75
842.648	38160.75
842.897	38111.75
843.145	37794.75
843.394	37641.75
843.642	37415.75
843.891	37222.75
844.139	37051.75
844.388	36732.75
844.636	36470.75
844.884	36535.75
845.133	36580.75
845.381	36590.75
845.629	36460.75
845.877	36538.75
846.125	36527.75
846.373	36421.75
846.621	36163.75
846.869	36167.75
847.117	35904.75
847.365	35714.75
847.613	35505.75
847.861	35487.75
848.108	35487.75
848.356	35427.75
848.604	35280.75
848.851	35312.75
849.099	35407.75
849.346	35510.75
849.594	35522.75
849.841	35874.75
850.089	35896.75
850.336	35935.75
850.583	35934.75
850.831	35731.75
851.078	35470.75
851.325	35524.75
851.572	35463.75
851.819	34912.75
852.066	34316.75
852.313	33876.75
852.56	33647.75
852.807	33417.75
853.054	33382.75
853.301	33525.75
853.548	33472.75
853.794	33684.75
854.041	33756.75
854.288	33849.75
854.534	34156.75
854.781	34080.75
855.028	33793.75
855.274	33848.75
855.52	33700.75
855.767	33575.75
856.013	33426.75
856.26	33592.75
856.506	33193.75
856.752	33205.75
856.998	33053.75
857.244	33164.75
857.49	33347.75
857.736	33308.75
857.982	33269.75
858.228	33216.75
858.474	32957.75
858.72	32810.75
858.966	32533.75
859.212	32081.75
859.458	31791.75
859.703	31467.75
859.949	31280.75
860.195	31112.75
860.44	30997.75
860.686	30675.75
860.931	30783.75
861.177	30582.75
861.422	30427.75
861.667	30201.75
861.913	30421.75
862.158	30475.75
862.403	30518.75
862.648	30565.75
862.893	30643.75
863.138	30510.75
863.384	30401.75
863.629	30310.75
863.873	30278.75
864.118	30114.75
864.363	29999.75
864.608	29869.75
864.853	29709.75
865.098	29539.75
865.342	29349.75
865.587	29294.75
865.832	29317.75
866.076	29193.75
866.321	29172.75
866.565	29061.75
866.81	28921.75
867.054	28903.75
867.298	28822.75
867.543	28749.75
867.787	28692.75
868.031	28630.75
868.275	28520.75
868.519	28562.75
868.764	28464.75
869.008	28324.75
869.252	28372.75
869.496	28309.75
869.739	28270.75
869.983	28228.75
870.227	28212.75
870.471	28222.75
870.715	28384.75
870.958	28305.75
871.202	28349.75
871.446	28311.75
871.689	28273.75
871.933	28233.75
872.176	28211.75
872.42	28156.75
872.663	28072.75
872.906	28096.75
873.15	28046.75
873.393	27727.75
873.636	27613.75
873.879	27295.75
874.122	27107.75
874.366	26666.75
874.609	26532.75
874.852	26513.75
875.095	26272.75
875.337	26242.75
875.58	26053.75
875.823	25956.75
876.066	25954.75
876.309	25855.75
876.551	25780.75
876.794	25553.75
877.037	25555.75
877.279	25439.75
877.522	25463.75
877.764	25523.75
878.007	25489.75
878.249	25442.75
878.491	25324.75
878.734	25262.75
878.976	25154.75
879.218	25082.75
879.46	24878.75
879.702	24709.75
879.945	24572.75
880.187	24417.75
880.429	24273.75
880.671	24066.75
880.912	24051.75
881.154	23917.75
881.396	23779.75
881.638	23941.75
881.88	23827.75
882.121	23730.75
882.363	23760.75
882.605	23724.75
882.846	23559.75
883.088	23675.75
883.329	23455.75
883.571	23442.75
883.812	23733.75
884.053	23970.75
884.295	24207.75
884.536	24333.75
884.777	24231.75
885.018	24032.75
885.259	24010.75
885.5	23878.75
885.742	23998.75
885.982	23732.75
886.223	23632.75
886.464	23429.75
886.705	23198.75
886.946	23034.75
887.187	22750.75
887.428	22534.75
887.668	22342.75
887.909	21966.75
888.15	21822.75
888.39	21756.75
888.631	21554.75
888.871	21391.75
889.111	21276.75
889.352	21068.75
889.592	20846.75
889.833	20745.75
890.073	20593.75
890.313	20530.75
890.553	20298.75
890.793	20247.75
891.033	20142.75
891.273	20031.75
891.513	19948.75
891.753	19973.75
891.993	19932.75
892.233	19952.75
892.473	20070.75
892.713	20001.75
892.952	19954.75
893.192	19948.75
893.432	19933.75
893.671	19817.75
893.911	19701.75
894.15	19712.75
894.39	19355.75
894.629	19352.75
894.869	19314.75
895.108	19126.75
895.347	19070.75
895.587	18951.75
895.826	18899.75
896.065	18841.75
896.304	18828.75
896.543	18914.75
896.782	18746.75
897.021	18648.75
897.26	18626.75
897.499	18627.75
897.738	18576.75
897.977	18384.75
898.216	18268.75
898.454	18123.75
898.693	17950.75
898.932	17959.75
899.17	17797.75
899.409	17812.75
899.647	17815.75
899.886	17658.75
900.124	17778.75
900.363	17756.75
900.601	17764.75
900.839	17825.75
901.078	17787.75
901.316	17813.75
901.554	17843.75
901.792	17909.75
902.03	17892.75
902.268	17802.75
902.506	17802.75
902.744	17573.75
902.982	17499.75
903.22	17225.75
903.458	17045.75
903.695	16976.75
903.933	16622.75
904.171	16398.75
904.409	16178.75
904.646	16102.75
904.884	15833.75
905.121	15724.75
905.359	15519.75
905.596	15440.75
905.833	15268.75
906.071	15233.75
906.308	15248.75
906.545	15184.75
906.783	15099.75
907.02	15077.75
907.257	15064.75
907.494	14965.75
907.731	14891.75
907.968	14840.75
908.205	14778.75
908.442	14767.75
908.679	14668.75
908.915	14481.75
909.152	14361.75
909.389	14249.75
909.626	14236.75
909.862	14090.75
910.099	14058.75
910.335	14053.75
910.572	13932.75
910.808	13816.75
911.045	13837.75
911.281	13617.75
911.518	13698.75
911.754	13617.75
911.99	13555.75
912.226	13417.75
912.463	13278.75
912.699	13169.75
912.935	13066.75
913.171	13000.75
913.407	12915.75
913.643	12791.75
913.879	12737.75
914.114	12635.75
914.35	12481.75
914.586	12373.75
914.822	12263.75
915.057	12243.75
915.293	12042.75
915.529	11978.75
915.764	12046.75
916	11956.75
916.235	11969.75
916.471	11904.75
916.706	11842.75
916.941	11864.75
917.177	11846.75
917.412	11807.75
917.647	11800.75
917.882	11677.75
918.117	11830.75
918.352	11684.75
918.588	11626.75
918.823	11438.75
919.057	11415.75
919.292	11259.75
919.527	11281.75
919.762	11084.75
919.997	11026.75
920.232	10911.75
920.466	10813.75
920.701	10600.75
920.935	10593.75
921.17	10512.75
921.405	10530.75
921.639	10503.75
921.873	10357.75
922.108	10422.75
922.342	10375.75
922.576	10257.75
922.811	10241.75
923.045	10294.75
923.279	10249.75
923.513	10070.75
923.747	10095.75
923.981	9926.75
924.215	9916.75
924.449	9919.75
924.683	9766.75
924.917	9734.75
925.151	9789.75
925.385	9768.75
925.618	9685.75
925.852	9581.75
926.086	9561.75
926.319	9607.75
926.553	9565.75
926.786	9535.75
927.02	9524.75
927.253	9562.75
927.486	9581.75
927.72	9388.75
927.953	9505.75
928.186	9418.75
928.42	9431.75
928.653	9248.75
928.886	9242.75
929.119	9257.75
929.352	9202.75
929.585	9125.75
929.818	9034.75
930.051	8923.75
930.284	8927.75
930.516	8828.75
930.749	8720.75
930.982	8747.75
931.215	8663.75
931.447	8632.75
931.68	8612.75
931.912	8515.75
932.145	8588.75
932.377	8576.75
932.61	8710.75
932.842	8469.75
933.074	8539.75
933.307	8458.75
933.539	8579.75
933.771	8554.75
934.003	8519.75
934.236	8588.75
934.468	8518.75
934.7	8469.75
934.932	8449.75
935.164	8305.75
935.395	8395.75
935.627	8309.75
935.859	8338.75
936.091	8241.75
936.323	8291.75
936.554	8323.75
936.786	8181.75
937.017	8078.75
937.249	8163.75
937.481	8076.75
937.712	8109.75
937.943	8112.75
938.175	8042.75
938.406	7971.75
938.637	8055.75
938.869	7917.75
939.1	7955.75
939.331	7912.75
939.562	7912.75
939.793	7876.75
940.024	7866.75
940.255	7811.75
940.486	7768.75
940.717	7727.75
940.948	7744.75
941.179	7713.75
941.409	7660.75
941.64	7660.75
941.871	7666.75
942.102	7590.75
942.332	7628.75
942.563	7707.75
942.793	7643.75
943.024	7505.75
943.254	7532.75
943.484	7617.75
943.715	7592.75
943.945	7596.75
944.175	7529.75
944.405	7485.75
944.636	7528.75
944.866	7483.75
945.096	7529.75
945.326	7382.75
945.556	7468.75
945.786	7373.75
946.016	7377.75
946.245	7283.75
946.475	7235.75
946.705	7173.75
946.935	7213.75
947.164	7112.75
947.394	7016.75
947.624	7012.75
947.853	7036.75
948.083	6996.75
948.312	6960.75
948.542	6886.75
948.771	6890.75
949	6880.75
949.23	6862.75
949.459	6799.75
949.688	6927.75
949.917	6834.75
950.146	6871.75
950.375	6878.75
950.604	6797.75
950.833	6824.75
951.062	6867.75
951.291	6814.75
951.52	6717.75
951.749	6736.75
951.978	6703.75
952.206	6664.75
952.435	6628.75
952.664	6697.75
952.892	6645.75
953.121	6558.75
953.349	6572.75
953.578	6521.75
953.806	6514.75
954.035	6432.75
954.263	6457.75
954.491	6292.75
954.719	6406.75
954.948	6316.75
955.176	6299.75
955.404	6203.75
955.632	6283.75
955.86	6247.75
956.088	6161.75
956.316	6176.75
956.544	6150.75
956.772	6124.75
956.999	6112.75
957.227	6150.75
957.455	5994.75
957.683	5986.75
957.91	5962.75
958.138	5939.75
958.365	5885.75
958.593	5841.75
958.82	5756.75
959.048	5834.75
959.275	5755.75
959.502	5839.75
959.73	5738.75
959.957	5768.75
960.184	5782.75
960.411	5748.75
960.638	5716.75
960.865	5757.75
961.092	5716.75
961.319	5625.75
961.546	5716.75
961.773	5759.75
962	5664.75
962.227	5699.75
962.454	5605.75
962.68	5548.75
962.907	5553.75
963.134	5560.75
963.36	5474.75
963.587	5512.75
963.813	5387.75
964.04	5450.75
964.266	5346.75
964.493	5392.75
964.719	5346.75
964.945	5352.75
965.171	5205.75
965.398	5266.75
965.624	5233.75
965.85	5122.75
966.076	5153.75
966.302	5149.75
966.528	5102.75
966.754	5125.75
966.98	5070.75
967.206	5071.75
967.431	5003.75
967.657	5068.75
967.883	5081.75
968.109	5064.75
968.334	4954.75
968.56	4943.75
968.785	4964.75
969.011	4865.75
969.236	4900.75
969.462	4836.75
969.687	4856.75
969.912	4855.75
970.138	4875.75
970.363	4796.75
970.588	4780.75
970.813	4754.75
971.038	4741.75
971.263	4721.75
971.488	4766.75
971.713	4702.75
971.938	4662.75
972.163	4572.75
972.388	4622.75
972.613	4557.75
972.838	4577.75
973.062	4586.75
973.287	4556.75
973.512	4442.75
973.736	4488.75
973.961	4469.75
974.185	4401.75
974.41	4430.75
974.634	4312.75
974.858	4293.75
975.083	4336.75
975.307	4317.75
975.531	4297.75
975.755	4181.75
975.98	4222.75
976.204	4095.75
976.428	4098.75
976.652	4117.75
976.876	4100.75
977.1	4162.75
977.324	4075.75
977.547	4108.75
977.771	4110.75
977.995	4056.75
978.219	3966.75
978.442	4087.75
978.666	4037.75
978.89	4005.75
979.113	4011.75
979.337	3983.75
979.56	3951.75
979.783	3990.75
980.007	3871.75
980.23	3910.75
980.453	3845.75
980.677	3912.75
980.9	3837.75
981.123	3779.75
981.346	3822.75
981.569	3813.75
981.792	3782.75
982.015	3765.75
982.238	3680.75
982.461	3714.75
982.684	3660.75
982.907	3605.75
983.129	3624.75
983.352	3639.75
983.575	3625.75
983.797	3580.75
984.02	3530.75
984.242	3542.75
984.465	3568.75
984.687	3529.75
984.91	3529.75
985.132	3481.75
985.354	3524.75
985.577	3497.75
985.799	3408.75
986.021	3330.75
986.243	3367.75
986.465	3358.75
986.687	3419.75
986.909	3444.75
987.131	3359.75
987.353	3341.75
987.575	3354.75
987.797	3321.75
988.019	3254.75
988.241	3335.75
988.462	3246.75
988.684	3315.75
988.906	3327.75
989.127	3322.75
989.349	3197.75
989.57	3243.75
989.792	3295.75
990.013	3289.75
990.234	3247.75
990.456	3273.75
990.677	3225.75
990.898	3169.75
991.119	3166.75
991.341	3132.75
991.562	3082.75
991.783	3110.75
992.004	3034.75
992.225	3044.75
992.446	3067.75
992.667	2968.75
992.887	3027.75
993.108	2912.75
993.329	3037.75
993.55	2990.75
993.77	2920.75
993.991	2897.75
994.212	2921.75
994.432	2893.75
994.653	2928.75
994.873	2865.75
995.093	2743.75
995.314	2775.75
995.534	2871.75
995.754	2871.75
995.975	2861.75
996.195	2726.75
996.415	2833.75
996.635	2773.75
996.855	2780.75
997.075	2745.75
997.295	2729.75
997.515	2700.75
997.735	2781.75
997.955	2728.75
998.174	2697.75
998.394	2678.75
998.614	2730.75
998.834	2684.75
999.053	2771.75
999.273	2700.75
999.492	2757.75
999.712	2644.75
999.931	2623.75
1000.151	2685.75
1000.37	2646.75
1000.589	2655.75
1000.809	2585.75
1001.028	2663.75
1001.247	2575.75
1001.466	2479.75
1001.685	2602.75
1001.904	2542.75
1002.123	2521.75
1002.342	2515.75
1002.561	2443.75
1002.78	2498.75
1002.999	2537.75
1003.218	2446.75
1003.436	2456.75
1003.655	2499.75
1003.874	2432.75
1004.092	2414.75
1004.311	2454.75
1004.53	2393.75
1004.748	2451.75
1004.966	2365.75
1005.185	2458.75
1005.403	2466.75
1005.622	2417.75
1005.84	2475.75
1006.058	2359.75
1006.276	2382.75
1006.494	2761.75
1006.712	2359.75
1006.931	2448.75
1007.149	2302.75
1007.367	2362.75
1007.584	2364.75
1007.802	2385.75
1008.02	2357.75
1008.238	2453.75
1008.456	2419.75
1008.673	2300.75
1008.891	2387.75
1009.109	2378.75
1009.326	2424.75
1009.544	2519.75
1009.761	2437.75
1009.979	2547.75
1010.196	2527.75
1010.413	2651.75
1010.631	2711.75
1010.848	2739.75
1011.065	2792.75
1011.282	2685.75
1011.5	2610.75
1011.717	2726.75
1011.934	2641.75
1012.151	2663.75
1012.368	2649.75
1012.585	2584.75
1012.801	2638.75
1013.018	2596.75
1013.235	2603.75
1013.452	2594.75
1013.669	2610.75
1013.885	2617.75
1014.102	2617.75
1014.318	2626.75
1014.535	2523.75
1014.751	2572.75
1014.968	2566.75
1015.184	2606.75
1015.401	2466.75
1015.617	2509.75
1015.833	2446.75
1016.049	2425.75
1016.266	2388.75
1016.482	2372.75
1016.698	2312.75
1016.914	2384.75
1017.13	2348.75
1017.346	2307.75
1017.562	2359.75
1017.778	2290.75
1017.993	2247.75
1018.209	2323.75
1018.425	2281.75
1018.641	2282.75
1018.856	2238.75
1019.072	2296.75
1019.288	2299.75
1019.503	2243.75
1019.719	2129.75
1019.934	2151.75
1020.149	2247.75
1020.365	2172.75
1020.58	2100.75
1020.795	2114.75
1021.011	2052.75
1021.226	2020.75
1021.441	2019.75
1021.656	1932.75
1021.871	1887.75
1022.086	1820.75
1022.301	1811.75
1022.516	1786.75
1022.731	1852.75
1022.946	1759.75
1023.16	1743.75
1023.375	1678.75
1023.59	1635.75
1023.804	1622.75
1024.019	1703.75
1024.234	1601.75
1024.448	1577.75
1024.663	1510.75
1024.877	1516.75
1025.092	1514.75
1025.306	1516.75
1025.52	1374.75
1025.734	1473.75
1025.949	1378.75
1026.163	1359.75
1026.377	1287.75
1026.591	1346.75
1026.805	1266.75
1027.019	1243.75
1027.233	1210.75
1027.447	1147.75
1027.661	1250.75
1027.875	1184.75
1028.088	1159.75
1028.302	1059.75
1028.516	1060.75
1028.73	1040.75
1028.943	1044.75
1029.157	966.75
1029.37	894.75
1029.584	-1.25
1029.797	-4.25
1030.011	-0.25
1030.224	1.75
