Data from QEP037381__57__13-30-41-036.txt Node

Date: Wed Dec 21 13:30:41 EST 2022
User: dcclab
Spectrometer: QEP03738
Trigger mode: 4
Integration Time (sec): 1.000000E1
Scans to average: 1
Electric dark correction enabled: true
Nonlinearity correction enabled: false
Boxcar width: 0
XAxis mode: Wavelengths
Number of Pixels in Spectrum: 1044
>>>>>Begin Spectral Data<<<<<
784.041	13.12
784.3	-1.88
784.558	-1.88
784.817	-1.88
785.075	97538.12
785.334	16450.12
785.592	7599.12
785.851	5193.12
786.109	3923.12
786.368	3055.12
786.626	2464.12
786.884	2068.12
787.143	1736.12
787.401	1456.12
787.659	1281.12
787.917	1092.12
788.175	1001.12
788.433	891.12
788.691	800.12
788.949	755.12
789.207	738.12
789.465	624.12
789.723	601.12
789.98	540.12
790.238	591.12
790.496	544.12
790.753	523.12
791.011	570.12
791.268	517.12
791.526	470.12
791.783	507.12
792.041	485.12
792.298	404.12
792.556	477.12
792.813	450.12
793.07	435.12
793.327	427.12
793.584	494.12
793.841	414.12
794.099	428.12
794.356	500.12
794.613	396.12
794.869	441.12
795.126	393.12
795.383	381.12
795.64	398.12
795.897	368.12
796.153	409.12
796.41	398.12
796.667	388.12
796.923	391.12
797.18	399.12
797.436	421.12
797.693	372.12
797.949	429.12
798.206	448.12
798.462	366.12
798.718	444.12
798.974	396.12
799.231	459.12
799.487	419.12
799.743	449.12
799.999	460.12
800.255	453.12
800.511	419.12
800.767	464.12
801.023	435.12
801.279	480.12
801.534	494.12
801.79	525.12
802.046	526.12
802.302	626.12
802.557	687.12
802.813	784.12
803.068	917.12
803.324	1212.12
803.579	1588.12
803.835	2112.12
804.09	2879.12
804.345	3674.12
804.601	4597.12
804.856	5543.12
805.111	6416.12
805.366	7070.12
805.621	7540.12
805.876	7935.12
806.131	8110.12
806.386	8292.12
806.641	8439.12
806.896	8588.12
807.151	8818.12
807.406	8854.12
807.661	9006.12
807.915	9280.12
808.17	9407.12
808.425	9522.12
808.679	9562.12
808.934	9722.12
809.188	9743.12
809.443	9902.12
809.697	9950.12
809.951	10056.12
810.206	10191.12
810.46	10297.12
810.714	10374.12
810.968	10485.12
811.223	10581.12
811.477	10675.12
811.731	10720.12
811.985	10785.12
812.239	10817.12
812.493	10765.12
812.747	10927.12
813	10874.12
813.254	11037.12
813.508	11070.12
813.762	11113.12
814.015	11185.12
814.269	11214.12
814.522	11422.12
814.776	11487.12
815.03	11672.12
815.283	11852.12
815.536	12038.12
815.79	12202.12
816.043	12375.12
816.296	12543.12
816.55	12659.12
816.803	12828.12
817.056	13043.12
817.309	13183.12
817.562	13356.12
817.815	13398.12
818.068	13504.12
818.321	13630.12
818.574	13858.12
818.827	14074.12
819.079	14265.12
819.332	14585.12
819.585	14702.12
819.838	14990.12
820.09	14872.12
820.343	15055.12
820.595	15073.12
820.848	15172.12
821.1	15357.12
821.353	15220.12
821.605	15221.12
821.857	15258.12
822.11	15015.12
822.362	15097.12
822.614	15055.12
822.866	15059.12
823.118	15055.12
823.37	15296.12
823.622	15238.12
823.874	15388.12
824.126	15458.12
824.378	15366.12
824.63	15327.12
824.882	15455.12
825.134	15394.12
825.385	15393.12
825.637	15319.12
825.888	15243.12
826.14	15321.12
826.392	15182.12
826.643	15142.12
826.895	15087.12
827.146	14963.12
827.397	15056.12
827.649	15066.12
827.9	14994.12
828.151	15072.12
828.402	15063.12
828.653	15164.12
828.905	15208.12
829.156	15274.12
829.407	15210.12
829.658	15341.12
829.909	15411.12
830.159	15484.12
830.41	15450.12
830.661	15293.12
830.912	15166.12
831.162	15166.12
831.413	15242.12
831.664	15320.12
831.914	15113.12
832.165	15078.12
832.415	14987.12
832.666	15124.12
832.916	15202.12
833.167	15079.12
833.417	15238.12
833.667	15059.12
833.917	14998.12
834.168	15064.12
834.418	14986.12
834.668	15025.12
834.918	14925.12
835.168	14850.12
835.418	14739.12
835.668	14780.12
835.918	14685.12
836.167	14669.12
836.417	14661.12
836.667	14569.12
836.917	14649.12
837.166	14578.12
837.416	14638.12
837.666	14639.12
837.915	14659.12
838.165	14629.12
838.414	14625.12
838.663	14601.12
838.913	14705.12
839.162	14631.12
839.411	14696.12
839.661	14585.12
839.91	14631.12
840.159	14613.12
840.408	14647.12
840.657	14601.12
840.906	14741.12
841.155	14684.12
841.404	14632.12
841.653	14717.12
841.902	14699.12
842.15	14810.12
842.399	14805.12
842.648	14908.12
842.897	14732.12
843.145	14580.12
843.394	14516.12
843.642	14478.12
843.891	14474.12
844.139	14301.12
844.388	14230.12
844.636	14160.12
844.884	14141.12
845.133	14100.12
845.381	14259.12
845.629	14270.12
845.877	14261.12
846.125	14249.12
846.373	14251.12
846.621	14174.12
846.869	14130.12
847.117	14029.12
847.365	13934.12
847.613	13899.12
847.861	13856.12
848.108	13945.12
848.356	13890.12
848.604	13911.12
848.851	13943.12
849.099	13957.12
849.346	13934.12
849.594	14082.12
849.841	14157.12
850.089	14200.12
850.336	14098.12
850.583	14319.12
850.831	14299.12
851.078	14149.12
851.325	14043.12
851.572	14170.12
851.819	14121.12
852.066	13698.12
852.313	13567.12
852.56	13391.12
852.807	13374.12
853.054	13393.12
853.301	13348.12
853.548	13387.12
853.794	13570.12
854.041	13516.12
854.288	13594.12
854.534	13739.12
854.781	13789.12
855.028	13634.12
855.274	13846.12
855.52	13712.12
855.767	13717.12
856.013	13798.12
856.26	14086.12
856.506	13541.12
856.752	13539.12
856.998	13543.12
857.244	13543.12
857.49	13710.12
857.736	13783.12
857.982	13730.12
858.228	13747.12
858.474	13550.12
858.72	13410.12
858.966	13180.12
859.212	13148.12
859.458	13001.12
859.703	12843.12
859.949	12696.12
860.195	12648.12
860.44	12649.12
860.686	12590.12
860.931	12720.12
861.177	12447.12
861.422	12334.12
861.667	12322.12
861.913	12306.12
862.158	12250.12
862.403	12366.12
862.648	12394.12
862.893	12398.12
863.138	12399.12
863.384	12349.12
863.629	12348.12
863.873	12352.12
864.118	12289.12
864.363	12180.12
864.608	12188.12
864.853	12181.12
865.098	12159.12
865.342	12160.12
865.587	11985.12
865.832	12061.12
866.076	11959.12
866.321	12033.12
866.565	12066.12
866.81	11850.12
867.054	11968.12
867.298	11875.12
867.543	11849.12
867.787	11905.12
868.031	11918.12
868.275	11883.12
868.519	11859.12
868.764	11894.12
869.008	11834.12
869.252	11859.12
869.496	11966.12
869.739	11932.12
869.983	12034.12
870.227	11996.12
870.471	12030.12
870.715	12154.12
870.958	12261.12
871.202	12246.12
871.446	12242.12
871.689	12189.12
871.933	12232.12
872.176	12222.12
872.42	12115.12
872.663	12134.12
872.906	12237.12
873.15	12202.12
873.393	12157.12
873.636	12263.12
873.879	12149.12
874.122	12036.12
874.366	11789.12
874.609	11728.12
874.852	11497.12
875.095	11381.12
875.337	11338.12
875.58	11248.12
875.823	11310.12
876.066	11207.12
876.309	11266.12
876.551	11126.12
876.794	11002.12
877.037	11054.12
877.279	10960.12
877.522	10940.12
877.764	10965.12
878.007	10959.12
878.249	10937.12
878.491	10869.12
878.734	10868.12
878.976	10844.12
879.218	10735.12
879.46	10695.12
879.702	10635.12
879.945	10515.12
880.187	10315.12
880.429	10389.12
880.671	10306.12
880.912	10343.12
881.154	10243.12
881.396	10184.12
881.638	10262.12
881.88	10217.12
882.121	10253.12
882.363	10201.12
882.605	10328.12
882.846	10314.12
883.088	10340.12
883.329	10345.12
883.571	10473.12
883.812	10726.12
884.053	11111.12
884.295	11479.12
884.536	11835.12
884.777	11798.12
885.018	11547.12
885.259	11549.12
885.5	11389.12
885.742	11539.12
885.982	11329.12
886.223	11108.12
886.464	10963.12
886.705	10843.12
886.946	10667.12
887.187	10232.12
887.428	10195.12
887.668	9968.12
887.909	9690.12
888.15	9568.12
888.39	9533.12
888.631	9503.12
888.871	9333.12
889.111	9264.12
889.352	9137.12
889.592	9086.12
889.833	9053.12
890.073	8957.12
890.313	8975.12
890.553	8843.12
890.793	8768.12
891.033	8689.12
891.273	8667.12
891.513	8663.12
891.753	8726.12
891.993	8650.12
892.233	8682.12
892.473	8809.12
892.713	8749.12
892.952	8639.12
893.192	8701.12
893.432	8693.12
893.671	8764.12
893.911	8716.12
894.15	8617.12
894.39	8570.12
894.629	8512.12
894.869	8471.12
895.108	8477.12
895.347	8483.12
895.587	8446.12
895.826	8405.12
896.065	8378.12
896.304	8397.12
896.543	8375.12
896.782	8295.12
897.021	8289.12
897.26	8285.12
897.499	8387.12
897.738	8375.12
897.977	8281.12
898.216	8211.12
898.454	8199.12
898.693	8157.12
898.932	8206.12
899.17	8120.12
899.409	8181.12
899.647	8076.12
899.886	8144.12
900.124	8125.12
900.363	8128.12
900.601	8219.12
900.839	8311.12
901.078	8375.12
901.316	8443.12
901.554	8483.12
901.792	8674.12
902.03	8694.12
902.268	8698.12
902.506	8733.12
902.744	8571.12
902.982	8527.12
903.22	8336.12
903.458	8146.12
903.695	7977.12
903.933	7812.12
904.171	7629.12
904.409	7503.12
904.646	7400.12
904.884	7262.12
905.121	7248.12
905.359	7126.12
905.596	7025.12
905.833	6958.12
906.071	6907.12
906.308	6933.12
906.545	6853.12
906.783	6750.12
907.02	6830.12
907.257	6749.12
907.494	6736.12
907.731	6724.12
907.968	6781.12
908.205	6673.12
908.442	6619.12
908.679	6622.12
908.915	6578.12
909.152	6598.12
909.389	6429.12
909.626	6395.12
909.862	6339.12
910.099	6323.12
910.335	6309.12
910.572	6236.12
910.808	6255.12
911.045	6249.12
911.281	6152.12
911.518	6197.12
911.754	6106.12
911.99	6102.12
912.226	6021.12
912.463	5950.12
912.699	5938.12
912.935	5905.12
913.171	5922.12
913.407	5866.12
913.643	5841.12
913.879	5778.12
914.114	5687.12
914.35	5615.12
914.586	5632.12
914.822	5594.12
915.057	5647.12
915.293	5519.12
915.529	5495.12
915.764	5566.12
916	5491.12
916.235	5448.12
916.471	5465.12
916.706	5366.12
916.941	5421.12
917.177	5404.12
917.412	5414.12
917.647	5447.12
917.882	5377.12
918.117	5421.12
918.352	5412.12
918.588	5453.12
918.823	5361.12
919.057	5304.12
919.292	5158.12
919.527	5268.12
919.762	5132.12
919.997	5143.12
920.232	5028.12
920.466	5060.12
920.701	4910.12
920.935	4968.12
921.17	4932.12
921.405	4870.12
921.639	4905.12
921.873	4895.12
922.108	4812.12
922.342	4840.12
922.576	4807.12
922.811	4799.12
923.045	4802.12
923.279	4793.12
923.513	4642.12
923.747	4755.12
923.981	4697.12
924.215	4678.12
924.449	4620.12
924.683	4610.12
924.917	4578.12
925.151	4565.12
925.385	4638.12
925.618	4566.12
925.852	4590.12
926.086	4445.12
926.319	4572.12
926.553	4538.12
926.786	4538.12
927.02	4484.12
927.253	4572.12
927.486	4511.12
927.72	4494.12
927.953	4505.12
928.186	4483.12
928.42	4490.12
928.653	4423.12
928.886	4421.12
929.119	4447.12
929.352	4437.12
929.585	4417.12
929.818	4318.12
930.051	4344.12
930.284	4323.12
930.516	4222.12
930.749	4253.12
930.982	4235.12
931.215	4222.12
931.447	4121.12
931.68	4173.12
931.912	4128.12
932.145	4152.12
932.377	4147.12
932.61	4264.12
932.842	4060.12
933.074	4178.12
933.307	4121.12
933.539	4182.12
933.771	4176.12
934.003	4119.12
934.236	4182.12
934.468	4177.12
934.7	4119.12
934.932	4143.12
935.164	4089.12
935.395	4062.12
935.627	4083.12
935.859	4091.12
936.091	4007.12
936.323	4093.12
936.554	4087.12
936.786	4013.12
937.017	3970.12
937.249	4019.12
937.481	3928.12
937.712	3999.12
937.943	3916.12
938.175	3940.12
938.406	3931.12
938.637	4015.12
938.869	3894.12
939.1	3951.12
939.331	3873.12
939.562	3911.12
939.793	3926.12
940.024	3921.12
940.255	3885.12
940.486	3910.12
940.717	3826.12
940.948	3817.12
941.179	3787.12
941.409	3780.12
941.64	3770.12
941.871	3774.12
942.102	3772.12
942.332	3792.12
942.563	3791.12
942.793	3802.12
943.024	3771.12
943.254	3769.12
943.484	3845.12
943.715	3819.12
943.945	3741.12
944.175	3722.12
944.405	3725.12
944.636	3743.12
944.866	3797.12
945.096	3740.12
945.326	3680.12
945.556	3737.12
945.786	3763.12
946.016	3668.12
946.245	3622.12
946.475	3599.12
946.705	3643.12
946.935	3633.12
947.164	3608.12
947.394	3535.12
947.624	3598.12
947.853	3557.12
948.083	3538.12
948.312	3509.12
948.542	3468.12
948.771	3433.12
949	3419.12
949.23	3448.12
949.459	3454.12
949.688	3521.12
949.917	3424.12
950.146	3472.12
950.375	3535.12
950.604	3411.12
950.833	3493.12
951.062	3486.12
951.291	3417.12
951.52	3389.12
951.749	3419.12
951.978	3366.12
952.206	3384.12
952.435	3414.12
952.664	3411.12
952.892	3416.12
953.121	3351.12
953.349	3394.12
953.578	3352.12
953.806	3280.12
954.035	3253.12
954.263	3302.12
954.491	3247.12
954.719	3300.12
954.948	3219.12
955.176	3241.12
955.404	3151.12
955.632	3206.12
955.86	3221.12
956.088	3179.12
956.316	3201.12
956.544	3221.12
956.772	3152.12
956.999	3095.12
957.227	3184.12
957.455	3099.12
957.683	3089.12
957.91	3079.12
958.138	3052.12
958.365	3042.12
958.593	3016.12
958.82	2950.12
959.048	3043.12
959.275	2982.12
959.502	2996.12
959.73	2997.12
959.957	3009.12
960.184	3041.12
960.411	2962.12
960.638	3017.12
960.865	2948.12
961.092	3019.12
961.319	2873.12
961.546	2991.12
961.773	2994.12
962	2951.12
962.227	2983.12
962.454	2937.12
962.68	2948.12
962.907	2943.12
963.134	2854.12
963.36	2914.12
963.587	2914.12
963.813	2787.12
964.04	2854.12
964.266	2803.12
964.493	2871.12
964.719	2841.12
964.945	2858.12
965.171	2711.12
965.398	2806.12
965.624	2814.12
965.85	2739.12
966.076	2699.12
966.302	2762.12
966.528	2692.12
966.754	2720.12
966.98	2745.12
967.206	2734.12
967.431	2643.12
967.657	2740.12
967.883	2718.12
968.109	2710.12
968.334	2648.12
968.56	2631.12
968.785	2619.12
969.011	2605.12
969.236	2640.12
969.462	2589.12
969.687	2604.12
969.912	2631.12
970.138	2670.12
970.363	2561.12
970.588	2566.12
970.813	2560.12
971.038	2522.12
971.263	2576.12
971.488	2570.12
971.713	2556.12
971.938	2598.12
972.163	2481.12
972.388	2481.12
972.613	2487.12
972.838	2521.12
973.062	2445.12
973.287	2446.12
973.512	2399.12
973.736	2432.12
973.961	2437.12
974.185	2415.12
974.41	2436.12
974.634	2327.12
974.858	2368.12
975.083	2422.12
975.307	2389.12
975.531	2339.12
975.755	2317.12
975.98	2300.12
976.204	2220.12
976.428	2215.12
976.652	2256.12
976.876	2218.12
977.1	2263.12
977.324	2209.12
977.547	2251.12
977.771	2261.12
977.995	2230.12
978.219	2188.12
978.442	2315.12
978.666	2224.12
978.89	2219.12
979.113	2179.12
979.337	2190.12
979.56	2174.12
979.783	2263.12
980.007	2148.12
980.23	2199.12
980.453	2112.12
980.677	2169.12
980.9	2149.12
981.123	2073.12
981.346	2140.12
981.569	2135.12
981.792	2165.12
982.015	2092.12
982.238	2078.12
982.461	2110.12
982.684	2048.12
982.907	2011.12
983.129	2031.12
983.352	2069.12
983.575	2060.12
983.797	2059.12
984.02	1977.12
984.242	1983.12
984.465	2025.12
984.687	2046.12
984.91	2064.12
985.132	2034.12
985.354	2042.12
985.577	1980.12
985.799	1961.12
986.021	1908.12
986.243	1959.12
986.465	1971.12
986.687	2027.12
986.909	2014.12
987.131	1981.12
987.353	1957.12
987.575	1958.12
987.797	1888.12
988.019	1856.12
988.241	1916.12
988.462	1883.12
988.684	1935.12
988.906	1935.12
989.127	1974.12
989.349	1849.12
989.57	1871.12
989.792	1947.12
990.013	1961.12
990.234	1944.12
990.456	1962.12
990.677	1947.12
990.898	1864.12
991.119	1889.12
991.341	1918.12
991.562	1846.12
991.783	1868.12
992.004	1812.12
992.225	1797.12
992.446	1868.12
992.667	1786.12
992.887	1842.12
993.108	1755.12
993.329	1855.12
993.55	1786.12
993.77	1736.12
993.991	1783.12
994.212	1795.12
994.432	1769.12
994.653	1783.12
994.873	1769.12
995.093	1683.12
995.314	1694.12
995.534	1777.12
995.754	1785.12
995.975	1833.12
996.195	1711.12
996.415	1756.12
996.635	1755.12
996.855	1751.12
997.075	1708.12
997.295	1764.12
997.515	1728.12
997.735	1780.12
997.955	1764.12
998.174	1742.12
998.394	1718.12
998.614	1765.12
998.834	1698.12
999.053	1786.12
999.273	1740.12
999.492	1797.12
999.712	1716.12
999.931	1674.12
1000.151	1721.12
1000.37	1704.12
1000.589	1757.12
1000.809	1658.12
1001.028	1749.12
1001.247	1687.12
1001.466	1595.12
1001.685	1708.12
1001.904	1709.12
1002.123	1612.12
1002.342	1660.12
1002.561	1633.12
1002.78	1615.12
1002.999	1700.12
1003.218	1630.12
1003.436	1612.12
1003.655	1668.12
1003.874	1607.12
1004.092	1616.12
1004.311	1624.12
1004.53	1613.12
1004.748	1654.12
1004.966	1586.12
1005.185	1664.12
1005.403	1653.12
1005.622	1634.12
1005.84	1721.12
1006.058	1612.12
1006.276	1637.12
1006.494	2098.12
1006.712	1657.12
1006.931	1715.12
1007.149	1603.12
1007.367	1626.12
1007.584	1704.12
1007.802	1742.12
1008.02	1687.12
1008.238	1765.12
1008.456	1831.12
1008.673	1682.12
1008.891	1863.12
1009.109	1805.12
1009.326	1908.12
1009.544	2000.12
1009.761	1936.12
1009.979	2081.12
1010.196	2177.12
1010.413	2297.12
1010.631	2421.12
1010.848	2537.12
1011.065	2578.12
1011.282	2524.12
1011.5	2435.12
1011.717	2551.12
1011.934	2495.12
1012.151	2520.12
1012.368	2492.12
1012.585	2450.12
1012.801	2473.12
1013.018	2467.12
1013.235	2469.12
1013.452	2484.12
1013.669	2497.12
1013.885	2499.12
1014.102	2541.12
1014.318	2552.12
1014.535	2518.12
1014.751	2475.12
1014.968	2511.12
1015.184	2502.12
1015.401	2375.12
1015.617	2427.12
1015.833	2366.12
1016.049	2374.12
1016.266	2333.12
1016.482	2332.12
1016.698	2243.12
1016.914	2274.12
1017.13	2211.12
1017.346	2206.12
1017.562	2257.12
1017.778	2181.12
1017.993	2132.12
1018.209	2190.12
1018.425	2176.12
1018.641	2188.12
1018.856	2107.12
1019.072	2160.12
1019.288	2202.12
1019.503	2165.12
1019.719	2088.12
1019.934	2073.12
1020.149	2134.12
1020.365	2035.12
1020.58	1998.12
1020.795	2046.12
1021.011	1907.12
1021.226	1858.12
1021.441	1887.12
1021.656	1767.12
1021.871	1668.12
1022.086	1665.12
1022.301	1616.12
1022.516	1596.12
1022.731	1669.12
1022.946	1556.12
1023.16	1511.12
1023.375	1499.12
1023.59	1459.12
1023.804	1394.12
1024.019	1476.12
1024.234	1327.12
1024.448	1368.12
1024.663	1298.12
1024.877	1274.12
1025.092	1274.12
1025.306	1259.12
1025.52	1159.12
1025.734	1231.12
1025.949	1141.12
1026.163	1108.12
1026.377	1036.12
1026.591	1096.12
1026.805	1002.12
1027.019	997.12
1027.233	971.12
1027.447	906.12
1027.661	967.12
1027.875	928.12
1028.088	943.12
1028.302	866.12
1028.516	852.12
1028.73	853.12
1028.943	815.12
1029.157	745.12
1029.37	713.12
1029.584	-2.88
1029.797	-3.88
1030.011	-1.88
1030.224	1.12
