Data from QEP037381__42__13-28-11-045.txt Node

Date: Wed Dec 21 13:28:11 EST 2022
User: dcclab
Spectrometer: QEP03738
Trigger mode: 4
Integration Time (sec): 1.000000E1
Scans to average: 1
Electric dark correction enabled: true
Nonlinearity correction enabled: false
Boxcar width: 0
XAxis mode: Wavelengths
Number of Pixels in Spectrum: 1044
>>>>>Begin Spectral Data<<<<<
784.041	10
784.3	1
784.558	-2
784.817	-8
785.075	87492
785.334	15316
785.592	7227
785.851	4957
786.109	3778
786.368	2927
786.626	2367
786.884	1987
787.143	1658
787.401	1371
787.659	1242
787.917	1060
788.175	979
788.433	869
788.691	791
788.949	728
789.207	713
789.465	600
789.723	598
789.98	555
790.238	585
790.496	542
790.753	538
791.011	560
791.268	505
791.526	496
791.783	523
792.041	495
792.298	421
792.556	485
792.813	450
793.07	436
793.327	428
793.584	504
793.841	437
794.099	466
794.356	498
794.613	405
794.869	441
795.126	407
795.383	382
795.64	415
795.897	353
796.153	439
796.41	399
796.667	380
796.923	404
797.18	385
797.436	435
797.693	380
797.949	440
798.206	456
798.462	388
798.718	428
798.974	413
799.231	448
799.487	445
799.743	441
799.999	474
800.255	469
800.511	439
800.767	481
801.023	473
801.279	490
801.534	503
801.79	551
802.046	572
802.302	683
802.557	712
802.813	869
803.068	1031
803.324	1381
803.579	1811
803.835	2395
804.09	3306
804.345	4233
804.601	5248
804.856	6336
805.111	7286
805.366	8012
805.621	8586
805.876	9013
806.131	9223
806.386	9436
806.641	9592
806.896	9755
807.151	10009
807.406	10036
807.661	10240
807.915	10364
808.17	10574
808.425	10676
808.679	10735
808.934	10971
809.188	10992
809.443	11204
809.697	11332
809.951	11343
810.206	11382
810.46	11550
810.714	11745
810.968	11832
811.223	11786
811.477	12017
811.731	12125
811.985	12059
812.239	12105
812.493	12191
812.747	12326
813	12184
813.254	12280
813.508	12347
813.762	12463
814.015	12434
814.269	12552
814.522	12757
814.776	12829
815.03	13046
815.283	13167
815.536	13380
815.79	13619
816.043	13783
816.296	14067
816.55	14125
816.803	14349
817.056	14575
817.309	14711
817.562	14802
817.815	14952
818.068	15045
818.321	15192
818.574	15426
818.827	15681
819.079	15817
819.332	16097
819.585	16238
819.838	16566
820.09	16517
820.343	16652
820.595	16697
820.848	16813
821.1	16875
821.353	16887
821.605	16878
821.857	16908
822.11	16700
822.362	16611
822.614	16674
822.866	16768
823.118	16681
823.37	16831
823.622	16852
823.874	16919
824.126	17123
824.378	16946
824.63	17026
824.882	17060
825.134	17018
825.385	17025
825.637	16917
825.888	16823
826.14	16789
826.392	16817
826.643	16746
826.895	16660
827.146	16558
827.397	16533
827.649	16563
827.9	16490
828.151	16498
828.402	16648
828.653	16724
828.905	16741
829.156	16780
829.407	16699
829.658	16788
829.909	16995
830.159	17093
830.41	16964
830.661	16811
830.912	16657
831.162	16619
831.413	16599
831.664	16572
831.914	16581
832.165	16552
832.415	16435
832.666	16644
832.916	16579
833.167	16544
833.417	16587
833.667	16473
833.917	16527
834.168	16555
834.418	16401
834.668	16451
834.918	16233
835.168	16241
835.418	16154
835.668	16109
835.918	16095
836.167	16060
836.417	15924
836.667	16006
836.917	16013
837.166	15980
837.416	16127
837.666	16119
837.915	15977
838.165	15957
838.414	15933
838.663	15889
838.913	15920
839.162	15889
839.411	15974
839.661	15891
839.91	15964
840.159	15944
840.408	15928
840.657	15967
840.906	15986
841.155	15953
841.404	15989
841.653	15922
841.902	16017
842.15	16068
842.399	16102
842.648	16046
842.897	16011
843.145	15973
843.394	15770
843.642	15737
843.891	15600
844.139	15535
844.388	15445
844.636	15295
844.884	15336
845.133	15345
845.381	15413
845.629	15486
845.877	15323
846.125	15358
846.373	15345
846.621	15211
846.869	15161
847.117	15200
847.365	15098
847.613	15055
847.861	15000
848.108	15058
848.356	15043
848.604	15015
848.851	14999
849.099	14942
849.346	15038
849.594	15159
849.841	15225
850.089	15279
850.336	15354
850.583	15365
850.831	15331
851.078	15208
851.325	15168
851.572	15204
851.819	15091
852.066	14750
852.313	14492
852.56	14349
852.807	14364
853.054	14363
853.301	14282
853.548	14330
853.794	14510
854.041	14602
854.288	14560
854.534	14751
854.781	14698
855.028	14712
855.274	14722
855.52	14768
855.767	14695
856.013	14836
856.26	15078
856.506	14619
856.752	14513
856.998	14550
857.244	14617
857.49	14752
857.736	14697
857.982	14710
858.228	14646
858.474	14525
858.72	14325
858.966	14227
859.212	14004
859.458	13880
859.703	13746
859.949	13609
860.195	13539
860.44	13590
860.686	13472
860.931	13620
861.177	13398
861.422	13400
861.667	13157
861.913	13167
862.158	13212
862.403	13115
862.648	13255
862.893	13303
863.138	13172
863.384	13186
863.629	13192
863.873	13231
864.118	13146
864.363	13004
864.608	13063
864.853	13003
865.098	12911
865.342	12840
865.587	12746
865.832	12896
866.076	12800
866.321	12690
866.565	12743
866.81	12642
867.054	12611
867.298	12695
867.543	12602
867.787	12627
868.031	12642
868.275	12574
868.519	12531
868.764	12679
869.008	12615
869.252	12648
869.496	12532
869.739	12577
869.983	12735
870.227	12703
870.471	12691
870.715	12716
870.958	12870
871.202	12936
871.446	12973
871.689	12880
871.933	12888
872.176	12797
872.42	12796
872.663	12810
872.906	12907
873.15	12825
873.393	12910
873.636	12915
873.879	12808
874.122	12660
874.366	12417
874.609	12239
874.852	12146
875.095	12098
875.337	11917
875.58	11908
875.823	11828
876.066	11811
876.309	11808
876.551	11694
876.794	11603
877.037	11584
877.279	11512
877.522	11542
877.764	11514
878.007	11473
878.249	11469
878.491	11519
878.734	11444
878.976	11354
879.218	11237
879.46	11254
879.702	11173
879.945	11130
880.187	10940
880.429	10944
880.671	10833
880.912	10796
881.154	10764
881.396	10690
881.638	10809
881.88	10709
882.121	10712
882.363	10702
882.605	10785
882.846	10697
883.088	10771
883.329	10835
883.571	10907
883.812	11152
884.053	11640
884.295	11941
884.536	12209
884.777	12056
885.018	12005
885.259	11829
885.5	11714
885.742	11995
885.982	11639
886.223	11387
886.464	11391
886.705	11110
886.946	10927
887.187	10650
887.428	10544
887.668	10219
887.909	10149
888.15	9956
888.39	9902
888.631	9823
888.871	9757
889.111	9653
889.352	9602
889.592	9439
889.833	9341
890.073	9306
890.313	9334
890.553	9156
890.793	9126
891.033	9099
891.273	9039
891.513	9051
891.753	9008
891.993	8977
892.233	9009
892.473	9091
892.713	9079
892.952	8986
893.192	9053
893.432	9027
893.671	8991
893.911	8921
894.15	8985
894.39	8813
894.629	8802
894.869	8787
895.108	8693
895.347	8693
895.587	8652
895.826	8651
896.065	8648
896.304	8646
896.543	8640
896.782	8557
897.021	8606
897.26	8571
897.499	8607
897.738	8572
897.977	8508
898.216	8442
898.454	8393
898.693	8365
898.932	8384
899.17	8308
899.409	8221
899.647	8286
899.886	8337
900.124	8301
900.363	8297
900.601	8334
900.839	8390
901.078	8452
901.316	8496
901.554	8601
901.792	8728
902.03	8666
902.268	8731
902.506	8667
902.744	8617
902.982	8549
903.22	8396
903.458	8181
903.695	8053
903.933	7850
904.171	7712
904.409	7593
904.646	7447
904.884	7355
905.121	7358
905.359	7205
905.596	7149
905.833	7066
906.071	7005
906.308	7029
906.545	6974
906.783	6912
907.02	6899
907.257	6863
907.494	6899
907.731	6865
907.968	6853
908.205	6780
908.442	6781
908.679	6717
908.915	6705
909.152	6629
909.389	6474
909.626	6491
909.862	6412
910.099	6449
910.335	6405
910.572	6338
910.808	6333
911.045	6312
911.281	6226
911.518	6316
911.754	6198
911.99	6205
912.226	6179
912.463	6056
912.699	6049
912.935	6062
913.171	5917
913.407	5887
913.643	5941
913.879	5902
914.114	5754
914.35	5726
914.586	5683
914.822	5620
915.057	5666
915.293	5519
915.529	5515
915.764	5552
916	5522
916.235	5527
916.471	5522
916.706	5488
916.941	5445
917.177	5499
917.412	5522
917.647	5511
917.882	5377
918.117	5462
918.352	5453
918.588	5373
918.823	5367
919.057	5259
919.292	5160
919.527	5211
919.762	5162
919.997	5175
920.232	5052
920.466	5063
920.701	4936
920.935	4990
921.17	4935
921.405	4837
921.639	4924
921.873	4844
922.108	4880
922.342	4827
922.576	4804
922.811	4722
923.045	4779
923.279	4793
923.513	4601
923.747	4752
923.981	4709
924.215	4633
924.449	4617
924.683	4538
924.917	4543
925.151	4584
925.385	4612
925.618	4521
925.852	4558
926.086	4439
926.319	4481
926.553	4475
926.786	4518
927.02	4462
927.253	4481
927.486	4504
927.72	4393
927.953	4439
928.186	4452
928.42	4425
928.653	4332
928.886	4377
929.119	4386
929.352	4306
929.585	4350
929.818	4299
930.051	4224
930.284	4248
930.516	4123
930.749	4120
930.982	4186
931.215	4125
931.447	4090
931.68	4081
931.912	4057
932.145	4059
932.377	4096
932.61	4182
932.842	3980
933.074	4055
933.307	4012
933.539	4120
933.771	4118
934.003	4027
934.236	4096
934.468	4119
934.7	4038
934.932	4050
935.164	3932
935.395	4008
935.627	3983
935.859	3989
936.091	3919
936.323	3990
936.554	3961
936.786	3939
937.017	3858
937.249	3913
937.481	3759
937.712	3901
937.943	3877
938.175	3879
938.406	3801
938.637	3886
938.869	3800
939.1	3887
939.331	3784
939.562	3835
939.793	3818
940.024	3810
940.255	3837
940.486	3732
940.717	3766
940.948	3723
941.179	3671
941.409	3678
941.64	3680
941.871	3718
942.102	3635
942.332	3673
942.563	3762
942.793	3687
943.024	3676
943.254	3644
943.484	3719
943.715	3685
943.945	3685
944.175	3628
944.405	3589
944.636	3573
944.866	3636
945.096	3642
945.326	3581
945.556	3616
945.786	3624
946.016	3568
946.245	3533
946.475	3478
946.705	3491
946.935	3485
947.164	3490
947.394	3441
947.624	3458
947.853	3465
948.083	3396
948.312	3367
948.542	3338
948.771	3328
949	3312
949.23	3337
949.459	3379
949.688	3457
949.917	3324
950.146	3321
950.375	3412
950.604	3243
950.833	3359
951.062	3371
951.291	3334
951.52	3281
951.749	3282
951.978	3237
952.206	3233
952.435	3245
952.664	3286
952.892	3286
953.121	3247
953.349	3254
953.578	3247
953.806	3202
954.035	3134
954.263	3159
954.491	3111
954.719	3154
954.948	3136
955.176	3107
955.404	2998
955.632	3116
955.86	3088
956.088	3047
956.316	3063
956.544	3075
956.772	2990
956.999	2990
957.227	3094
957.455	2974
957.683	3014
957.91	2929
958.138	2941
958.365	2898
958.593	2907
958.82	2845
959.048	2919
959.275	2871
959.502	2862
959.73	2838
959.957	2853
960.184	2858
960.411	2805
960.638	2913
960.865	2858
961.092	2879
961.319	2746
961.546	2834
961.773	2840
962	2818
962.227	2878
962.454	2764
962.68	2777
962.907	2810
963.134	2753
963.36	2788
963.587	2772
963.813	2669
964.04	2724
964.266	2668
964.493	2768
964.719	2739
964.945	2719
965.171	2628
965.398	2640
965.624	2639
965.85	2571
966.076	2612
966.302	2634
966.528	2564
966.754	2601
966.98	2617
967.206	2603
967.431	2500
967.657	2591
967.883	2572
968.109	2575
968.334	2502
968.56	2509
968.785	2496
969.011	2472
969.236	2528
969.462	2442
969.687	2499
969.912	2506
970.138	2571
970.363	2453
970.588	2473
970.813	2440
971.038	2411
971.263	2472
971.488	2447
971.713	2452
971.938	2456
972.163	2343
972.388	2355
972.613	2400
972.838	2369
973.062	2322
973.287	2365
973.512	2276
973.736	2325
973.961	2331
974.185	2279
974.41	2312
974.634	2219
974.858	2256
975.083	2260
975.307	2297
975.531	2231
975.755	2183
975.98	2222
976.204	2102
976.428	2107
976.652	2113
976.876	2124
977.1	2153
977.324	2129
977.547	2156
977.771	2168
977.995	2082
978.219	2074
978.442	2167
978.666	2066
978.89	2104
979.113	2134
979.337	2083
979.56	2045
979.783	2109
980.007	2015
980.23	2037
980.453	2010
980.677	2060
980.9	2018
981.123	1945
981.346	2043
981.569	2015
981.792	2027
982.015	2014
982.238	1947
982.461	1978
982.684	1930
982.907	1910
983.129	1911
983.352	1950
983.575	1920
983.797	1920
984.02	1874
984.242	1894
984.465	1871
984.687	1915
984.91	1926
985.132	1902
985.354	1923
985.577	1914
985.799	1887
986.021	1829
986.243	1807
986.465	1851
986.687	1870
986.909	1935
987.131	1876
987.353	1806
987.575	1840
987.797	1832
988.019	1753
988.241	1812
988.462	1784
988.684	1805
988.906	1844
989.127	1854
989.349	1755
989.57	1801
989.792	1834
990.013	1843
990.234	1840
990.456	1844
990.677	1832
990.898	1752
991.119	1774
991.341	1794
991.562	1736
991.783	1768
992.004	1701
992.225	1681
992.446	1743
992.667	1648
992.887	1722
993.108	1637
993.329	1770
993.55	1721
993.77	1628
993.991	1634
994.212	1688
994.432	1689
994.653	1666
994.873	1646
995.093	1571
995.314	1601
995.534	1691
995.754	1650
995.975	1693
996.195	1565
996.415	1639
996.635	1599
996.855	1655
997.075	1620
997.295	1614
997.515	1599
997.735	1677
997.955	1646
998.174	1613
998.394	1609
998.614	1642
998.834	1586
999.053	1658
999.273	1621
999.492	1686
999.712	1609
999.931	1565
1000.151	1602
1000.37	1572
1000.589	1668
1000.809	1536
1001.028	1657
1001.247	1594
1001.466	1490
1001.685	1630
1001.904	1566
1002.123	1557
1002.342	1557
1002.561	1500
1002.78	1537
1002.999	1582
1003.218	1531
1003.436	1514
1003.655	1558
1003.874	1507
1004.092	1524
1004.311	1549
1004.53	1524
1004.748	1606
1004.966	1560
1005.185	1571
1005.403	1545
1005.622	1523
1005.84	1596
1006.058	1525
1006.276	1541
1006.494	2018
1006.712	1542
1006.931	1600
1007.149	1531
1007.367	1518
1007.584	1535
1007.802	1613
1008.02	1546
1008.238	1638
1008.456	1643
1008.673	1532
1008.891	1662
1009.109	1632
1009.326	1684
1009.544	1793
1009.761	1726
1009.979	1833
1010.196	1892
1010.413	2026
1010.631	2075
1010.848	2170
1011.065	2182
1011.282	2144
1011.5	2061
1011.717	2160
1011.934	2104
1012.151	2108
1012.368	2088
1012.585	2060
1012.801	2125
1013.018	2076
1013.235	2061
1013.452	2081
1013.669	2085
1013.885	2106
1014.102	2138
1014.318	2127
1014.535	2081
1014.751	2107
1014.968	2109
1015.184	2101
1015.401	1993
1015.617	2021
1015.833	1973
1016.049	1977
1016.266	1954
1016.482	1948
1016.698	1841
1016.914	1935
1017.13	1861
1017.346	1831
1017.562	1909
1017.778	1815
1017.993	1791
1018.209	1830
1018.425	1814
1018.641	1782
1018.856	1777
1019.072	1795
1019.288	1842
1019.503	1782
1019.719	1688
1019.934	1738
1020.149	1814
1020.365	1699
1020.58	1632
1020.795	1724
1021.011	1608
1021.226	1583
1021.441	1582
1021.656	1490
1021.871	1422
1022.086	1406
1022.301	1414
1022.516	1393
1022.731	1429
1022.946	1322
1023.16	1290
1023.375	1270
1023.59	1268
1023.804	1185
1024.019	1294
1024.234	1164
1024.448	1179
1024.663	1094
1024.877	1111
1025.092	1133
1025.306	1140
1025.52	1002
1025.734	1093
1025.949	1034
1026.163	990
1026.377	929
1026.591	985
1026.805	890
1027.019	882
1027.233	839
1027.447	790
1027.661	905
1027.875	829
1028.088	836
1028.302	774
1028.516	760
1028.73	748
1028.943	733
1029.157	688
1029.37	653
1029.584	2
1029.797	-1
1030.011	-2
1030.224	0
