Data from QEP037381__30__13-26-11-049.txt Node

Date: Wed Dec 21 13:26:11 EST 2022
User: dcclab
Spectrometer: QEP03738
Trigger mode: 4
Integration Time (sec): 1.000000E1
Scans to average: 1
Electric dark correction enabled: true
Nonlinearity correction enabled: false
Boxcar width: 0
XAxis mode: Wavelengths
Number of Pixels in Spectrum: 1044
>>>>>Begin Spectral Data<<<<<
784.041	13.38
784.3	0.38
784.558	-2.62
784.817	-3.62
785.075	90688.38
785.334	15650.38
785.592	7309.38
785.851	5101.38
786.109	3838.38
786.368	3012.38
786.626	2411.38
786.884	1999.38
787.143	1716.38
787.401	1396.38
787.659	1264.38
787.917	1085.38
788.175	1014.38
788.433	870.38
788.691	794.38
788.949	758.38
789.207	727.38
789.465	605.38
789.723	602.38
789.98	546.38
790.238	573.38
790.496	553.38
790.753	523.38
791.011	588.38
791.268	490.38
791.526	507.38
791.783	527.38
792.041	499.38
792.298	401.38
792.556	478.38
792.813	456.38
793.07	435.38
793.327	416.38
793.584	503.38
793.841	412.38
794.099	459.38
794.356	507.38
794.613	413.38
794.869	445.38
795.126	418.38
795.383	381.38
795.64	421.38
795.897	360.38
796.153	425.38
796.41	418.38
796.667	399.38
796.923	396.38
797.18	385.38
797.436	436.38
797.693	382.38
797.949	427.38
798.206	461.38
798.462	360.38
798.718	424.38
798.974	410.38
799.231	450.38
799.487	440.38
799.743	438.38
799.999	470.38
800.255	459.38
800.511	431.38
800.767	463.38
801.023	441.38
801.279	485.38
801.534	511.38
801.79	550.38
802.046	560.38
802.302	650.38
802.557	698.38
802.813	846.38
803.068	978.38
803.324	1300.38
803.579	1702.38
803.835	2278.38
804.09	3081.38
804.345	3961.38
804.601	4989.38
804.856	5980.38
805.111	6875.38
805.366	7597.38
805.621	8162.38
805.876	8423.38
806.131	8651.38
806.386	8807.38
806.641	8941.38
806.896	9158.38
807.151	9320.38
807.406	9378.38
807.661	9537.38
807.915	9755.38
808.17	9896.38
808.425	10054.38
808.679	10106.38
808.934	10166.38
809.188	10274.38
809.443	10399.38
809.697	10489.38
809.951	10566.38
810.206	10694.38
810.46	10771.38
810.714	10859.38
810.968	11029.38
811.223	11025.38
811.477	11205.38
811.731	11239.38
811.985	11285.38
812.239	11332.38
812.493	11344.38
812.747	11414.38
813	11298.38
813.254	11457.38
813.508	11582.38
813.762	11593.38
814.015	11518.38
814.269	11701.38
814.522	11771.38
814.776	11897.38
815.03	12114.38
815.283	12266.38
815.536	12344.38
815.79	12552.38
816.043	12802.38
816.296	12970.38
816.55	13086.38
816.803	13230.38
817.056	13493.38
817.309	13582.38
817.562	13697.38
817.815	13868.38
818.068	13948.38
818.321	14060.38
818.574	14211.38
818.827	14293.38
819.079	14552.38
819.332	14904.38
819.585	14993.38
819.838	15284.38
820.09	15305.38
820.343	15347.38
820.595	15322.38
820.848	15476.38
821.1	15509.38
821.353	15551.38
821.605	15388.38
821.857	15383.38
822.11	15266.38
822.362	15288.38
822.614	15294.38
822.866	15306.38
823.118	15275.38
823.37	15427.38
823.622	15450.38
823.874	15554.38
824.126	15577.38
824.378	15613.38
824.63	15590.38
824.882	15607.38
825.134	15576.38
825.385	15576.38
825.637	15477.38
825.888	15462.38
826.14	15455.38
826.392	15374.38
826.643	15210.38
826.895	15223.38
827.146	15116.38
827.397	15075.38
827.649	15144.38
827.9	15006.38
828.151	15023.38
828.402	15137.38
828.653	15163.38
828.905	15202.38
829.156	15323.38
829.407	15289.38
829.658	15373.38
829.909	15447.38
830.159	15545.38
830.41	15450.38
830.661	15271.38
830.912	15219.38
831.162	15110.38
831.413	15058.38
831.664	15106.38
831.914	15047.38
832.165	15038.38
832.415	14988.38
832.666	14992.38
832.916	15102.38
833.167	15058.38
833.417	15009.38
833.667	14898.38
833.917	14932.38
834.168	14900.38
834.418	14861.38
834.668	14832.38
834.918	14649.38
835.168	14699.38
835.418	14594.38
835.668	14612.38
835.918	14552.38
836.167	14454.38
836.417	14378.38
836.667	14468.38
836.917	14382.38
837.166	14432.38
837.416	14487.38
837.666	14489.38
837.915	14458.38
838.165	14396.38
838.414	14352.38
838.663	14331.38
838.913	14474.38
839.162	14356.38
839.411	14452.38
839.661	14290.38
839.91	14325.38
840.159	14317.38
840.408	14302.38
840.657	14356.38
840.906	14334.38
841.155	14314.38
841.404	14297.38
841.653	14286.38
841.902	14348.38
842.15	14442.38
842.399	14455.38
842.648	14456.38
842.897	14330.38
843.145	14282.38
843.394	14106.38
843.642	14098.38
843.891	13971.38
844.139	13896.38
844.388	13723.38
844.636	13739.38
844.884	13723.38
845.133	13682.38
845.381	13730.38
845.629	13841.38
845.877	13708.38
846.125	13674.38
846.373	13660.38
846.621	13597.38
846.869	13484.38
847.117	13463.38
847.365	13404.38
847.613	13366.38
847.861	13405.38
848.108	13362.38
848.356	13388.38
848.604	13294.38
848.851	13378.38
849.099	13435.38
849.346	13384.38
849.594	13411.38
849.841	13538.38
850.089	13565.38
850.336	13588.38
850.583	13527.38
850.831	13503.38
851.078	13428.38
851.325	13346.38
851.572	13528.38
851.819	13347.38
852.066	13071.38
852.313	12809.38
852.56	12709.38
852.807	12676.38
853.054	12643.38
853.301	12689.38
853.548	12750.38
853.794	12871.38
854.041	12892.38
854.288	12870.38
854.534	13123.38
854.781	13067.38
855.028	12969.38
855.274	13038.38
855.52	12925.38
855.767	12960.38
856.013	13195.38
856.26	13281.38
856.506	12887.38
856.752	12870.38
856.998	12769.38
857.244	12893.38
857.49	12942.38
857.736	12975.38
857.982	12937.38
858.228	12856.38
858.474	12642.38
858.72	12665.38
858.966	12473.38
859.212	12368.38
859.458	12242.38
859.703	12071.38
859.949	11925.38
860.195	11846.38
860.44	11826.38
860.686	11854.38
860.931	11846.38
861.177	11762.38
861.422	11625.38
861.667	11506.38
861.913	11497.38
862.158	11485.38
862.403	11509.38
862.648	11552.38
862.893	11570.38
863.138	11510.38
863.384	11493.38
863.629	11525.38
863.873	11473.38
864.118	11448.38
864.363	11344.38
864.608	11384.38
864.853	11324.38
865.098	11214.38
865.342	11217.38
865.587	11142.38
865.832	11207.38
866.076	11183.38
866.321	11113.38
866.565	11162.38
866.81	11015.38
867.054	10999.38
867.298	11043.38
867.543	10906.38
867.787	11007.38
868.031	10905.38
868.275	10952.38
868.519	10881.38
868.764	10912.38
869.008	10792.38
869.252	10922.38
869.496	10882.38
869.739	10814.38
869.983	10903.38
870.227	10962.38
870.471	10931.38
870.715	10993.38
870.958	11041.38
871.202	11038.38
871.446	11063.38
871.689	11093.38
871.933	11089.38
872.176	11057.38
872.42	11021.38
872.663	11029.38
872.906	11067.38
873.15	11040.38
873.393	11111.38
873.636	11182.38
873.879	11075.38
874.122	10909.38
874.366	10649.38
874.609	10536.38
874.852	10341.38
875.095	10308.38
875.337	10267.38
875.58	10160.38
875.823	10081.38
876.066	10169.38
876.309	10086.38
876.551	9978.38
876.794	9982.38
877.037	9911.38
877.279	9869.38
877.522	9863.38
877.764	9928.38
878.007	9799.38
878.249	9841.38
878.491	9742.38
878.734	9734.38
878.976	9719.38
879.218	9660.38
879.46	9567.38
879.702	9512.38
879.945	9397.38
880.187	9328.38
880.429	9287.38
880.671	9289.38
880.912	9214.38
881.154	9149.38
881.396	9120.38
881.638	9160.38
881.88	9127.38
882.121	9070.38
882.363	9123.38
882.605	9200.38
882.846	9126.38
883.088	9149.38
883.329	9199.38
883.571	9296.38
883.812	9504.38
884.053	9834.38
884.295	10187.38
884.536	10486.38
884.777	10337.38
885.018	10213.38
885.259	10132.38
885.5	9966.38
885.742	10179.38
885.982	9987.38
886.223	9775.38
886.464	9659.38
886.705	9501.38
886.946	9378.38
887.187	9028.38
887.428	8975.38
887.668	8772.38
887.909	8573.38
888.15	8434.38
888.39	8396.38
888.631	8323.38
888.871	8177.38
889.111	8188.38
889.352	8075.38
889.592	7989.38
889.833	7864.38
890.073	7928.38
890.313	7837.38
890.553	7711.38
890.793	7694.38
891.033	7605.38
891.273	7624.38
891.513	7571.38
891.753	7635.38
891.993	7562.38
892.233	7590.38
892.473	7693.38
892.713	7614.38
892.952	7632.38
893.192	7582.38
893.432	7550.38
893.671	7581.38
893.911	7532.38
894.15	7510.38
894.39	7432.38
894.629	7405.38
894.869	7414.38
895.108	7355.38
895.347	7255.38
895.587	7257.38
895.826	7243.38
896.065	7228.38
896.304	7253.38
896.543	7250.38
896.782	7162.38
897.021	7169.38
897.26	7143.38
897.499	7221.38
897.738	7166.38
897.977	7145.38
898.216	7091.38
898.454	6969.38
898.693	6968.38
898.932	6987.38
899.17	7002.38
899.409	6849.38
899.647	6912.38
899.886	6848.38
900.124	6867.38
900.363	6900.38
900.601	6983.38
900.839	6974.38
901.078	7053.38
901.316	7143.38
901.554	7183.38
901.792	7213.38
902.03	7225.38
902.268	7232.38
902.506	7236.38
902.744	7137.38
902.982	7172.38
903.22	7029.38
903.458	6823.38
903.695	6772.38
903.933	6581.38
904.171	6435.38
904.409	6328.38
904.646	6256.38
904.884	6113.38
905.121	6100.38
905.359	6024.38
905.596	5973.38
905.833	5879.38
906.071	5896.38
906.308	5840.38
906.545	5862.38
906.783	5796.38
907.02	5827.38
907.257	5757.38
907.494	5767.38
907.731	5788.38
907.968	5723.38
908.205	5661.38
908.442	5653.38
908.679	5634.38
908.915	5590.38
909.152	5548.38
909.389	5419.38
909.626	5481.38
909.862	5396.38
910.099	5379.38
910.335	5370.38
910.572	5257.38
910.808	5339.38
911.045	5315.38
911.281	5232.38
911.518	5276.38
911.754	5222.38
911.99	5181.38
912.226	5149.38
912.463	5082.38
912.699	5071.38
912.935	4992.38
913.171	5020.38
913.407	4928.38
913.643	4998.38
913.879	4881.38
914.114	4865.38
914.35	4803.38
914.586	4713.38
914.822	4682.38
915.057	4786.38
915.293	4632.38
915.529	4613.38
915.764	4663.38
916	4639.38
916.235	4617.38
916.471	4649.38
916.706	4568.38
916.941	4567.38
917.177	4536.38
917.412	4571.38
917.647	4583.38
917.882	4497.38
918.117	4539.38
918.352	4553.38
918.588	4529.38
918.823	4473.38
919.057	4449.38
919.292	4345.38
919.527	4360.38
919.762	4321.38
919.997	4336.38
920.232	4226.38
920.466	4271.38
920.701	4156.38
920.935	4152.38
921.17	4097.38
921.405	4083.38
921.639	4105.38
921.873	4072.38
922.108	4089.38
922.342	4109.38
922.576	4008.38
922.811	3980.38
923.045	4042.38
923.279	4015.38
923.513	3925.38
923.747	3981.38
923.981	3927.38
924.215	3882.38
924.449	3928.38
924.683	3801.38
924.917	3852.38
925.151	3806.38
925.385	3872.38
925.618	3755.38
925.852	3790.38
926.086	3725.38
926.319	3763.38
926.553	3787.38
926.786	3776.38
927.02	3714.38
927.253	3771.38
927.486	3772.38
927.72	3718.38
927.953	3788.38
928.186	3689.38
928.42	3722.38
928.653	3652.38
928.886	3643.38
929.119	3684.38
929.352	3657.38
929.585	3608.38
929.818	3580.38
930.051	3639.38
930.284	3554.38
930.516	3480.38
930.749	3451.38
930.982	3504.38
931.215	3473.38
931.447	3384.38
931.68	3406.38
931.912	3401.38
932.145	3430.38
932.377	3401.38
932.61	3535.38
932.842	3323.38
933.074	3447.38
933.307	3380.38
933.539	3460.38
933.771	3474.38
934.003	3356.38
934.236	3441.38
934.468	3506.38
934.7	3374.38
934.932	3385.38
935.164	3348.38
935.395	3319.38
935.627	3368.38
935.859	3357.38
936.091	3275.38
936.323	3347.38
936.554	3370.38
936.786	3295.38
937.017	3255.38
937.249	3284.38
937.481	3223.38
937.712	3276.38
937.943	3231.38
938.175	3212.38
938.406	3210.38
938.637	3297.38
938.869	3177.38
939.1	3242.38
939.331	3176.38
939.562	3223.38
939.793	3234.38
940.024	3238.38
940.255	3197.38
940.486	3177.38
940.717	3131.38
940.948	3106.38
941.179	3076.38
941.409	3089.38
941.64	3072.38
941.871	3143.38
942.102	3107.38
942.332	3097.38
942.563	3125.38
942.793	3126.38
943.024	3019.38
943.254	3087.38
943.484	3122.38
943.715	3092.38
943.945	3093.38
944.175	3020.38
944.405	3016.38
944.636	3002.38
944.866	3054.38
945.096	3089.38
945.326	2946.38
945.556	3024.38
945.786	3064.38
946.016	3016.38
946.245	2938.38
946.475	2970.38
946.705	2937.38
946.935	2921.38
947.164	2915.38
947.394	2893.38
947.624	2895.38
947.853	2951.38
948.083	2906.38
948.312	2841.38
948.542	2810.38
948.771	2777.38
949	2793.38
949.23	2832.38
949.459	2833.38
949.688	2874.38
949.917	2798.38
950.146	2824.38
950.375	2845.38
950.604	2762.38
950.833	2832.38
951.062	2844.38
951.291	2782.38
951.52	2759.38
951.749	2748.38
951.978	2716.38
952.206	2748.38
952.435	2700.38
952.664	2761.38
952.892	2746.38
953.121	2723.38
953.349	2743.38
953.578	2730.38
953.806	2723.38
954.035	2672.38
954.263	2681.38
954.491	2610.38
954.719	2687.38
954.948	2641.38
955.176	2585.38
955.404	2581.38
955.632	2624.38
955.86	2588.38
956.088	2591.38
956.316	2612.38
956.544	2601.38
956.772	2548.38
956.999	2567.38
957.227	2615.38
957.455	2500.38
957.683	2523.38
957.91	2491.38
958.138	2467.38
958.365	2476.38
958.593	2489.38
958.82	2446.38
959.048	2488.38
959.275	2449.38
959.502	2426.38
959.73	2391.38
959.957	2467.38
960.184	2439.38
960.411	2391.38
960.638	2452.38
960.865	2452.38
961.092	2419.38
961.319	2378.38
961.546	2436.38
961.773	2425.38
962	2394.38
962.227	2440.38
962.454	2409.38
962.68	2373.38
962.907	2399.38
963.134	2326.38
963.36	2355.38
963.587	2378.38
963.813	2295.38
964.04	2339.38
964.266	2286.38
964.493	2361.38
964.719	2328.38
964.945	2325.38
965.171	2206.38
965.398	2274.38
965.624	2308.38
965.85	2194.38
966.076	2209.38
966.302	2259.38
966.528	2198.38
966.754	2252.38
966.98	2214.38
967.206	2225.38
967.431	2116.38
967.657	2224.38
967.883	2213.38
968.109	2182.38
968.334	2154.38
968.56	2135.38
968.785	2140.38
969.011	2115.38
969.236	2187.38
969.462	2118.38
969.687	2109.38
969.912	2159.38
970.138	2151.38
970.363	2099.38
970.588	2137.38
970.813	2087.38
971.038	2058.38
971.263	2069.38
971.488	2083.38
971.713	2125.38
971.938	2116.38
972.163	1995.38
972.388	2030.38
972.613	2017.38
972.838	2032.38
973.062	2017.38
973.287	2024.38
973.512	1949.38
973.736	1989.38
973.961	2001.38
974.185	1926.38
974.41	1999.38
974.634	1929.38
974.858	1921.38
975.083	1964.38
975.307	1978.38
975.531	1902.38
975.755	1831.38
975.98	1875.38
976.204	1811.38
976.428	1823.38
976.652	1801.38
976.876	1834.38
977.1	1840.38
977.324	1780.38
977.547	1844.38
977.771	1864.38
977.995	1823.38
978.219	1732.38
978.442	1887.38
978.666	1785.38
978.89	1802.38
979.113	1816.38
979.337	1818.38
979.56	1747.38
979.783	1845.38
980.007	1753.38
980.23	1804.38
980.453	1729.38
980.677	1784.38
980.9	1746.38
981.123	1664.38
981.346	1773.38
981.569	1739.38
981.792	1758.38
982.015	1732.38
982.238	1687.38
982.461	1721.38
982.684	1675.38
982.907	1662.38
983.129	1654.38
983.352	1693.38
983.575	1677.38
983.797	1687.38
984.02	1638.38
984.242	1645.38
984.465	1643.38
984.687	1672.38
984.91	1697.38
985.132	1664.38
985.354	1689.38
985.577	1657.38
985.799	1646.38
986.021	1575.38
986.243	1612.38
986.465	1604.38
986.687	1658.38
986.909	1664.38
987.131	1631.38
987.353	1591.38
987.575	1618.38
987.797	1567.38
988.019	1534.38
988.241	1607.38
988.462	1559.38
988.684	1603.38
988.906	1617.38
989.127	1659.38
989.349	1556.38
989.57	1571.38
989.792	1629.38
990.013	1606.38
990.234	1603.38
990.456	1649.38
990.677	1634.38
990.898	1547.38
991.119	1560.38
991.341	1594.38
991.562	1520.38
991.783	1568.38
992.004	1504.38
992.225	1467.38
992.446	1541.38
992.667	1461.38
992.887	1536.38
993.108	1434.38
993.329	1553.38
993.55	1497.38
993.77	1438.38
993.991	1451.38
994.212	1511.38
994.432	1470.38
994.653	1493.38
994.873	1470.38
995.093	1375.38
995.314	1433.38
995.534	1495.38
995.754	1500.38
995.975	1532.38
996.195	1385.38
996.415	1468.38
996.635	1455.38
996.855	1495.38
997.075	1425.38
997.295	1424.38
997.515	1420.38
997.735	1457.38
997.955	1452.38
998.174	1455.38
998.394	1404.38
998.614	1470.38
998.834	1394.38
999.053	1479.38
999.273	1445.38
999.492	1467.38
999.712	1426.38
999.931	1377.38
1000.151	1448.38
1000.37	1420.38
1000.589	1463.38
1000.809	1396.38
1001.028	1507.38
1001.247	1438.38
1001.466	1376.38
1001.685	1464.38
1001.904	1417.38
1002.123	1405.38
1002.342	1425.38
1002.561	1359.38
1002.78	1408.38
1002.999	1434.38
1003.218	1370.38
1003.436	1384.38
1003.655	1457.38
1003.874	1348.38
1004.092	1384.38
1004.311	1426.38
1004.53	1367.38
1004.748	1477.38
1004.966	1370.38
1005.185	1410.38
1005.403	1426.38
1005.622	1404.38
1005.84	1462.38
1006.058	1351.38
1006.276	1410.38
1006.494	1890.38
1006.712	1410.38
1006.931	1451.38
1007.149	1386.38
1007.367	1369.38
1007.584	1410.38
1007.802	1450.38
1008.02	1406.38
1008.238	1503.38
1008.456	1482.38
1008.673	1392.38
1008.891	1494.38
1009.109	1502.38
1009.326	1539.38
1009.544	1645.38
1009.761	1583.38
1009.979	1655.38
1010.196	1677.38
1010.413	1860.38
1010.631	1922.38
1010.848	1969.38
1011.065	1984.38
1011.282	1934.38
1011.5	1880.38
1011.717	1944.38
1011.934	1911.38
1012.151	1945.38
1012.368	1904.38
1012.585	1847.38
1012.801	1935.38
1013.018	1884.38
1013.235	1832.38
1013.452	1897.38
1013.669	1875.38
1013.885	1833.38
1014.102	1931.38
1014.318	1910.38
1014.535	1856.38
1014.751	1919.38
1014.968	1877.38
1015.184	1879.38
1015.401	1793.38
1015.617	1834.38
1015.833	1771.38
1016.049	1768.38
1016.266	1752.38
1016.482	1754.38
1016.698	1666.38
1016.914	1704.38
1017.13	1666.38
1017.346	1655.38
1017.562	1724.38
1017.778	1635.38
1017.993	1644.38
1018.209	1669.38
1018.425	1665.38
1018.641	1621.38
1018.856	1571.38
1019.072	1616.38
1019.288	1655.38
1019.503	1625.38
1019.719	1506.38
1019.934	1507.38
1020.149	1635.38
1020.365	1564.38
1020.58	1478.38
1020.795	1527.38
1021.011	1418.38
1021.226	1389.38
1021.441	1391.38
1021.656	1327.38
1021.871	1280.38
1022.086	1264.38
1022.301	1249.38
1022.516	1232.38
1022.731	1298.38
1022.946	1200.38
1023.16	1164.38
1023.375	1131.38
1023.59	1102.38
1023.804	1071.38
1024.019	1189.38
1024.234	1020.38
1024.448	1085.38
1024.663	971.38
1024.877	997.38
1025.092	1021.38
1025.306	1031.38
1025.52	903.38
1025.734	1004.38
1025.949	886.38
1026.163	895.38
1026.377	819.38
1026.591	896.38
1026.805	805.38
1027.019	792.38
1027.233	750.38
1027.447	713.38
1027.661	811.38
1027.875	776.38
1028.088	748.38
1028.302	684.38
1028.516	688.38
1028.73	673.38
1028.943	672.38
1029.157	614.38
1029.37	596.38
1029.584	-1.62
1029.797	-0.62
1030.011	-1.62
1030.224	-3.62
