Data from QEP037381__6__13-22-11-062.txt Node

Date: Wed Dec 21 13:22:11 EST 2022
User: dcclab
Spectrometer: QEP03738
Trigger mode: 4
Integration Time (sec): 1.000000E1
Scans to average: 1
Electric dark correction enabled: true
Nonlinearity correction enabled: false
Boxcar width: 0
XAxis mode: Wavelengths
Number of Pixels in Spectrum: 1044
>>>>>Begin Spectral Data<<<<<
784.041	10.88
784.3	0.88
784.558	-2.12
784.817	-5.12
785.075	91497.88
785.334	15555.88
785.592	7274.88
785.851	4941.88
786.109	3768.88
786.368	2908.88
786.626	2396.88
786.884	1981.88
787.143	1668.88
787.401	1383.88
787.659	1246.88
787.917	1086.88
788.175	993.88
788.433	859.88
788.691	797.88
788.949	741.88
789.207	710.88
789.465	617.88
789.723	594.88
789.98	555.88
790.238	577.88
790.496	555.88
790.753	530.88
791.011	583.88
791.268	525.88
791.526	518.88
791.783	516.88
792.041	509.88
792.298	416.88
792.556	502.88
792.813	469.88
793.07	431.88
793.327	425.88
793.584	510.88
793.841	445.88
794.099	466.88
794.356	506.88
794.613	413.88
794.869	455.88
795.126	408.88
795.383	400.88
795.64	422.88
795.897	380.88
796.153	439.88
796.41	403.88
796.667	401.88
796.923	396.88
797.18	417.88
797.436	446.88
797.693	407.88
797.949	442.88
798.206	483.88
798.462	397.88
798.718	447.88
798.974	427.88
799.231	480.88
799.487	459.88
799.743	461.88
799.999	506.88
800.255	486.88
800.511	460.88
800.767	506.88
801.023	498.88
801.279	521.88
801.534	537.88
801.79	583.88
802.046	613.88
802.302	743.88
802.557	816.88
802.813	945.88
803.068	1163.88
803.324	1595.88
803.579	2114.88
803.835	2912.88
804.09	4011.88
804.345	5244.88
804.601	6639.88
804.856	8048.88
805.111	9401.88
805.366	10306.88
805.621	10961.88
805.876	11492.88
806.131	11724.88
806.386	11956.88
806.641	12124.88
806.896	12358.88
807.151	12677.88
807.406	12809.88
807.661	13017.88
807.915	13268.88
808.17	13411.88
808.425	13520.88
808.679	13626.88
808.934	13829.88
809.188	13896.88
809.443	14093.88
809.697	14255.88
809.951	14292.88
810.206	14356.88
810.46	14573.88
810.714	14721.88
810.968	14887.88
811.223	14883.88
811.477	15044.88
811.731	15080.88
811.985	15121.88
812.239	15224.88
812.493	15351.88
812.747	15349.88
813	15259.88
813.254	15431.88
813.508	15533.88
813.762	15499.88
814.015	15590.88
814.269	15735.88
814.522	15836.88
814.776	16099.88
815.03	16344.88
815.283	16519.88
815.536	16610.88
815.79	17028.88
816.043	17114.88
816.296	17374.88
816.55	17597.88
816.803	17730.88
817.056	18024.88
817.309	18192.88
817.562	18344.88
817.815	18632.88
818.068	18648.88
818.321	18788.88
818.574	18994.88
818.827	19292.88
819.079	19475.88
819.332	19901.88
819.585	20089.88
819.838	20352.88
820.09	20414.88
820.343	20472.88
820.595	20535.88
820.848	20695.88
821.1	20746.88
821.353	20770.88
821.605	20672.88
821.857	20756.88
822.11	20644.88
822.362	20590.88
822.614	20533.88
822.866	20446.88
823.118	20416.88
823.37	20604.88
823.622	20659.88
823.874	20680.88
824.126	20816.88
824.378	20780.88
824.63	20845.88
824.882	21000.88
825.134	20851.88
825.385	20924.88
825.637	20739.88
825.888	20672.88
826.14	20590.88
826.392	20517.88
826.643	20421.88
826.895	20483.88
827.146	20282.88
827.397	20141.88
827.649	20288.88
827.9	20147.88
828.151	20163.88
828.402	20124.88
828.653	20391.88
828.905	20382.88
829.156	20384.88
829.407	20289.88
829.658	20329.88
829.909	20422.88
830.159	20452.88
830.41	20316.88
830.661	20090.88
830.912	20009.88
831.162	19814.88
831.413	19939.88
831.664	19982.88
831.914	19936.88
832.165	19827.88
832.415	19918.88
832.666	19858.88
832.916	19906.88
833.167	19930.88
833.417	19897.88
833.667	19737.88
833.917	19670.88
834.168	19645.88
834.418	19680.88
834.668	19585.88
834.918	19370.88
835.168	19355.88
835.418	19249.88
835.668	19204.88
835.918	19304.88
836.167	19067.88
836.417	19028.88
836.667	19211.88
836.917	18985.88
837.166	18973.88
837.416	18952.88
837.666	19083.88
837.915	18878.88
838.165	18874.88
838.414	18794.88
838.663	18774.88
838.913	18733.88
839.162	18649.88
839.411	18778.88
839.661	18584.88
839.91	18539.88
840.159	18460.88
840.408	18583.88
840.657	18588.88
840.906	18593.88
841.155	18546.88
841.404	18527.88
841.653	18510.88
841.902	18521.88
842.15	18590.88
842.399	18524.88
842.648	18573.88
842.897	18489.88
843.145	18268.88
843.394	18179.88
843.642	18130.88
843.891	18035.88
844.139	17961.88
844.388	17884.88
844.636	17719.88
844.884	17668.88
845.133	17617.88
845.381	17718.88
845.629	17716.88
845.877	17609.88
846.125	17686.88
846.373	17595.88
846.621	17584.88
846.869	17465.88
847.117	17413.88
847.365	17192.88
847.613	17188.88
847.861	17111.88
848.108	17111.88
848.356	17154.88
848.604	17074.88
848.851	17099.88
849.099	17055.88
849.346	17094.88
849.594	17263.88
849.841	17283.88
850.089	17248.88
850.336	17375.88
850.583	17366.88
850.831	17182.88
851.078	17174.88
851.325	16979.88
851.572	17125.88
851.819	16884.88
852.066	16693.88
852.313	16309.88
852.56	16227.88
852.807	16243.88
853.054	16103.88
853.301	16180.88
853.548	16164.88
853.794	16285.88
854.041	16299.88
854.288	16389.88
854.534	16521.88
854.781	16432.88
855.028	16398.88
855.274	16356.88
855.52	16325.88
855.767	16260.88
856.013	16308.88
856.26	16518.88
856.506	16019.88
856.752	15944.88
856.998	15957.88
857.244	16046.88
857.49	16117.88
857.736	16141.88
857.982	16220.88
858.228	16080.88
858.474	15947.88
858.72	15861.88
858.966	15690.88
859.212	15605.88
859.458	15332.88
859.703	15261.88
859.949	15039.88
860.195	14974.88
860.44	14974.88
860.686	14828.88
860.931	14854.88
861.177	14618.88
861.422	14637.88
861.667	14605.88
861.913	14630.88
862.158	14510.88
862.403	14690.88
862.648	14700.88
862.893	14755.88
863.138	14653.88
863.384	14628.88
863.629	14621.88
863.873	14656.88
864.118	14528.88
864.363	14509.88
864.608	14457.88
864.853	14363.88
865.098	14327.88
865.342	14241.88
865.587	14216.88
865.832	14176.88
866.076	14112.88
866.321	14045.88
866.565	14048.88
866.81	13854.88
867.054	13860.88
867.298	13889.88
867.543	13824.88
867.787	13786.88
868.031	13761.88
868.275	13766.88
868.519	13728.88
868.764	13836.88
869.008	13659.88
869.252	13688.88
869.496	13632.88
869.739	13595.88
869.983	13619.88
870.227	13579.88
870.471	13493.88
870.715	13745.88
870.958	13778.88
871.202	13680.88
871.446	13718.88
871.689	13693.88
871.933	13678.88
872.176	13709.88
872.42	13610.88
872.663	13556.88
872.906	13626.88
873.15	13540.88
873.393	13493.88
873.636	13525.88
873.879	13294.88
874.122	13214.88
874.366	12990.88
874.609	12856.88
874.852	12799.88
875.095	12759.88
875.337	12656.88
875.58	12580.88
875.823	12570.88
876.066	12491.88
876.309	12535.88
876.551	12362.88
876.794	12217.88
877.037	12384.88
877.279	12191.88
877.522	12289.88
877.764	12266.88
878.007	12217.88
878.249	12222.88
878.491	12187.88
878.734	12236.88
878.976	12111.88
879.218	12087.88
879.46	12003.88
879.702	11887.88
879.945	11792.88
880.187	11720.88
880.429	11665.88
880.671	11540.88
880.912	11526.88
881.154	11483.88
881.396	11462.88
881.638	11440.88
881.88	11491.88
882.121	11364.88
882.363	11405.88
882.605	11381.88
882.846	11339.88
883.088	11274.88
883.329	11410.88
883.571	11344.88
883.812	11422.88
884.053	11656.88
884.295	11920.88
884.536	12047.88
884.777	12033.88
885.018	11877.88
885.259	11745.88
885.5	11654.88
885.742	11971.88
885.982	11637.88
886.223	11554.88
886.464	11480.88
886.705	11291.88
886.946	11318.88
887.187	10999.88
887.428	10954.88
887.668	10758.88
887.909	10653.88
888.15	10536.88
888.39	10441.88
888.631	10408.88
888.871	10295.88
889.111	10236.88
889.352	10121.88
889.592	10062.88
889.833	10019.88
890.073	9900.88
890.313	9931.88
890.553	9756.88
890.793	9674.88
891.033	9699.88
891.273	9537.88
891.513	9534.88
891.753	9655.88
891.993	9535.88
892.233	9578.88
892.473	9667.88
892.713	9599.88
892.952	9509.88
893.192	9524.88
893.432	9528.88
893.671	9599.88
893.911	9522.88
894.15	9453.88
894.39	9385.88
894.629	9273.88
894.869	9266.88
895.108	9282.88
895.347	9112.88
895.587	9128.88
895.826	9098.88
896.065	9086.88
896.304	9134.88
896.543	9102.88
896.782	8921.88
897.021	9017.88
897.26	8988.88
897.499	8989.88
897.738	8941.88
897.977	8840.88
898.216	8786.88
898.454	8737.88
898.693	8562.88
898.932	8574.88
899.17	8610.88
899.409	8593.88
899.647	8518.88
899.886	8407.88
900.124	8564.88
900.363	8543.88
900.601	8575.88
900.839	8554.88
901.078	8593.88
901.316	8573.88
901.554	8663.88
901.792	8679.88
902.03	8688.88
902.268	8679.88
902.506	8675.88
902.744	8609.88
902.982	8619.88
903.22	8448.88
903.458	8235.88
903.695	8196.88
903.933	8109.88
904.171	7930.88
904.409	7828.88
904.646	7800.88
904.884	7622.88
905.121	7688.88
905.359	7529.88
905.596	7486.88
905.833	7332.88
906.071	7200.88
906.308	7335.88
906.545	7319.88
906.783	7270.88
907.02	7246.88
907.257	7203.88
907.494	7250.88
907.731	7210.88
907.968	7196.88
908.205	7058.88
908.442	7047.88
908.679	7043.88
908.915	7053.88
909.152	6991.88
909.389	6777.88
909.626	6845.88
909.862	6753.88
910.099	6767.88
910.335	6769.88
910.572	6647.88
910.808	6688.88
911.045	6593.88
911.281	6622.88
911.518	6641.88
911.754	6534.88
911.99	6490.88
912.226	6478.88
912.463	6374.88
912.699	6342.88
912.935	6282.88
913.171	6264.88
913.407	6190.88
913.643	6159.88
913.879	6158.88
914.114	6086.88
914.35	5963.88
914.586	5963.88
914.822	5887.88
915.057	5952.88
915.293	5789.88
915.529	5752.88
915.764	5853.88
916	5823.88
916.235	5767.88
916.471	5748.88
916.706	5691.88
916.941	5692.88
917.177	5690.88
917.412	5797.88
917.647	5701.88
917.882	5599.88
918.117	5717.88
918.352	5647.88
918.588	5764.88
918.823	5515.88
919.057	5506.88
919.292	5391.88
919.527	5497.88
919.762	5371.88
919.997	5412.88
920.232	5304.88
920.466	5273.88
920.701	5142.88
920.935	5214.88
921.17	5158.88
921.405	5090.88
921.639	5104.88
921.873	4991.88
922.108	5089.88
922.342	5036.88
922.576	4987.88
922.811	5025.88
923.045	5012.88
923.279	5007.88
923.513	4904.88
923.747	4924.88
923.981	4913.88
924.215	4806.88
924.449	4785.88
924.683	4760.88
924.917	4727.88
925.151	4740.88
925.385	4768.88
925.618	4712.88
925.852	4680.88
926.086	4638.88
926.319	4694.88
926.553	4671.88
926.786	4697.88
927.02	4649.88
927.253	4699.88
927.486	4656.88
927.72	4605.88
927.953	4623.88
928.186	4588.88
928.42	4653.88
928.653	4597.88
928.886	4538.88
929.119	4562.88
929.352	4511.88
929.585	4526.88
929.818	4442.88
930.051	4453.88
930.284	4430.88
930.516	4302.88
930.749	4234.88
930.982	4352.88
931.215	4329.88
931.447	4225.88
931.68	4230.88
931.912	4196.88
932.145	4165.88
932.377	4230.88
932.61	4315.88
932.842	4114.88
933.074	4167.88
933.307	4120.88
933.539	4238.88
933.771	4201.88
934.003	4190.88
934.236	4248.88
934.468	4237.88
934.7	4139.88
934.932	4200.88
935.164	4100.88
935.395	4131.88
935.627	4128.88
935.859	4115.88
936.091	4042.88
936.323	4125.88
936.554	4065.88
936.786	4074.88
937.017	3983.88
937.249	4019.88
937.481	3920.88
937.712	4031.88
937.943	3968.88
938.175	3924.88
938.406	3966.88
938.637	3995.88
938.869	3909.88
939.1	3948.88
939.331	3949.88
939.562	3944.88
939.793	3880.88
940.024	3922.88
940.255	3889.88
940.486	3832.88
940.717	3817.88
940.948	3773.88
941.179	3734.88
941.409	3747.88
941.64	3799.88
941.871	3753.88
942.102	3790.88
942.332	3753.88
942.563	3767.88
942.793	3786.88
943.024	3748.88
943.254	3774.88
943.484	3802.88
943.715	3797.88
943.945	3800.88
944.175	3693.88
944.405	3659.88
944.636	3695.88
944.866	3721.88
945.096	3708.88
945.326	3652.88
945.556	3707.88
945.786	3732.88
946.016	3639.88
946.245	3569.88
946.475	3578.88
946.705	3576.88
946.935	3585.88
947.164	3573.88
947.394	3519.88
947.624	3496.88
947.853	3500.88
948.083	3465.88
948.312	3494.88
948.542	3374.88
948.771	3396.88
949	3413.88
949.23	3399.88
949.459	3406.88
949.688	3497.88
949.917	3398.88
950.146	3418.88
950.375	3455.88
950.604	3401.88
950.833	3451.88
951.062	3450.88
951.291	3378.88
951.52	3346.88
951.749	3355.88
951.978	3315.88
952.206	3364.88
952.435	3293.88
952.664	3343.88
952.892	3347.88
953.121	3339.88
953.349	3343.88
953.578	3267.88
953.806	3281.88
954.035	3218.88
954.263	3290.88
954.491	3175.88
954.719	3253.88
954.948	3211.88
955.176	3192.88
955.404	3123.88
955.632	3154.88
955.86	3172.88
956.088	3127.88
956.316	3198.88
956.544	3147.88
956.772	3088.88
956.999	3046.88
957.227	3131.88
957.455	3015.88
957.683	3068.88
957.91	3029.88
958.138	2966.88
958.365	2938.88
958.593	2967.88
958.82	2935.88
959.048	2966.88
959.275	2930.88
959.502	2915.88
959.73	2900.88
959.957	2956.88
960.184	2947.88
960.411	2898.88
960.638	2922.88
960.865	2911.88
961.092	2941.88
961.319	2858.88
961.546	2901.88
961.773	2892.88
962	2872.88
962.227	2916.88
962.454	2890.88
962.68	2876.88
962.907	2893.88
963.134	2812.88
963.36	2849.88
963.587	2864.88
963.813	2762.88
964.04	2806.88
964.266	2723.88
964.493	2819.88
964.719	2750.88
964.945	2802.88
965.171	2685.88
965.398	2713.88
965.624	2712.88
965.85	2639.88
966.076	2692.88
966.302	2677.88
966.528	2635.88
966.754	2674.88
966.98	2676.88
967.206	2640.88
967.431	2575.88
967.657	2659.88
967.883	2641.88
968.109	2630.88
968.334	2559.88
968.56	2534.88
968.785	2577.88
969.011	2487.88
969.236	2563.88
969.462	2500.88
969.687	2522.88
969.912	2549.88
970.138	2574.88
970.363	2514.88
970.588	2524.88
970.813	2471.88
971.038	2484.88
971.263	2495.88
971.488	2447.88
971.713	2499.88
971.938	2463.88
972.163	2392.88
972.388	2431.88
972.613	2383.88
972.838	2417.88
973.062	2386.88
973.287	2379.88
973.512	2322.88
973.736	2373.88
973.961	2320.88
974.185	2329.88
974.41	2379.88
974.634	2286.88
974.858	2284.88
975.083	2299.88
975.307	2273.88
975.531	2272.88
975.755	2226.88
975.98	2202.88
976.204	2153.88
976.428	2161.88
976.652	2170.88
976.876	2147.88
977.1	2160.88
977.324	2104.88
977.547	2167.88
977.771	2192.88
977.995	2155.88
978.219	2103.88
978.442	2189.88
978.666	2156.88
978.89	2139.88
979.113	2152.88
979.337	2080.88
979.56	2086.88
979.783	2173.88
980.007	2081.88
980.23	2090.88
980.453	2046.88
980.677	2082.88
980.9	2084.88
981.123	1968.88
981.346	2055.88
981.569	2025.88
981.792	2034.88
982.015	2008.88
982.238	1967.88
982.461	2009.88
982.684	1985.88
982.907	1940.88
983.129	1943.88
983.352	2006.88
983.575	1960.88
983.797	1965.88
984.02	1904.88
984.242	1930.88
984.465	1920.88
984.687	1969.88
984.91	1978.88
985.132	1942.88
985.354	1963.88
985.577	1886.88
985.799	1900.88
986.021	1816.88
986.243	1814.88
986.465	1855.88
986.687	1901.88
986.909	1938.88
987.131	1850.88
987.353	1846.88
987.575	1860.88
987.797	1839.88
988.019	1794.88
988.241	1830.88
988.462	1778.88
988.684	1856.88
988.906	1846.88
989.127	1881.88
989.349	1754.88
989.57	1797.88
989.792	1835.88
990.013	1816.88
990.234	1849.88
990.456	1884.88
990.677	1848.88
990.898	1770.88
991.119	1774.88
991.341	1783.88
991.562	1757.88
991.783	1772.88
992.004	1707.88
992.225	1683.88
992.446	1774.88
992.667	1650.88
992.887	1758.88
993.108	1624.88
993.329	1782.88
993.55	1725.88
993.77	1654.88
993.991	1663.88
994.212	1679.88
994.432	1664.88
994.653	1676.88
994.873	1674.88
995.093	1552.88
995.314	1564.88
995.534	1665.88
995.754	1680.88
995.975	1690.88
996.195	1588.88
996.415	1647.88
996.635	1602.88
996.855	1633.88
997.075	1586.88
997.295	1594.88
997.515	1591.88
997.735	1642.88
997.955	1606.88
998.174	1592.88
998.394	1537.88
998.614	1616.88
998.834	1575.88
999.053	1648.88
999.273	1601.88
999.492	1663.88
999.712	1583.88
999.931	1558.88
1000.151	1586.88
1000.37	1582.88
1000.589	1615.88
1000.809	1549.88
1001.028	1646.88
1001.247	1583.88
1001.466	1496.88
1001.685	1624.88
1001.904	1556.88
1002.123	1552.88
1002.342	1580.88
1002.561	1495.88
1002.78	1528.88
1002.999	1563.88
1003.218	1492.88
1003.436	1528.88
1003.655	1560.88
1003.874	1480.88
1004.092	1497.88
1004.311	1568.88
1004.53	1488.88
1004.748	1576.88
1004.966	1483.88
1005.185	1533.88
1005.403	1501.88
1005.622	1518.88
1005.84	1575.88
1006.058	1488.88
1006.276	1513.88
1006.494	2007.88
1006.712	1508.88
1006.931	1580.88
1007.149	1487.88
1007.367	1505.88
1007.584	1512.88
1007.802	1532.88
1008.02	1513.88
1008.238	1609.88
1008.456	1582.88
1008.673	1475.88
1008.891	1559.88
1009.109	1527.88
1009.326	1596.88
1009.544	1688.88
1009.761	1584.88
1009.979	1686.88
1010.196	1668.88
1010.413	1790.88
1010.631	1830.88
1010.848	1880.88
1011.065	1889.88
1011.282	1845.88
1011.5	1775.88
1011.717	1875.88
1011.934	1840.88
1012.151	1844.88
1012.368	1810.88
1012.585	1758.88
1012.801	1815.88
1013.018	1790.88
1013.235	1754.88
1013.452	1765.88
1013.669	1787.88
1013.885	1810.88
1014.102	1824.88
1014.318	1800.88
1014.535	1761.88
1014.751	1792.88
1014.968	1756.88
1015.184	1791.88
1015.401	1701.88
1015.617	1693.88
1015.833	1655.88
1016.049	1674.88
1016.266	1651.88
1016.482	1642.88
1016.698	1592.88
1016.914	1641.88
1017.13	1596.88
1017.346	1554.88
1017.562	1624.88
1017.778	1565.88
1017.993	1504.88
1018.209	1575.88
1018.425	1550.88
1018.641	1536.88
1018.856	1508.88
1019.072	1549.88
1019.288	1563.88
1019.503	1504.88
1019.719	1443.88
1019.934	1435.88
1020.149	1519.88
1020.365	1466.88
1020.58	1414.88
1020.795	1457.88
1021.011	1372.88
1021.226	1380.88
1021.441	1383.88
1021.656	1309.88
1021.871	1217.88
1022.086	1239.88
1022.301	1210.88
1022.516	1232.88
1022.731	1275.88
1022.946	1183.88
1023.16	1156.88
1023.375	1119.88
1023.59	1112.88
1023.804	1091.88
1024.019	1170.88
1024.234	1023.88
1024.448	1079.88
1024.663	1012.88
1024.877	1008.88
1025.092	1024.88
1025.306	1028.88
1025.52	924.88
1025.734	1018.88
1025.949	945.88
1026.163	901.88
1026.377	837.88
1026.591	890.88
1026.805	821.88
1027.019	813.88
1027.233	771.88
1027.447	728.88
1027.661	833.88
1027.875	778.88
1028.088	768.88
1028.302	713.88
1028.516	701.88
1028.73	700.88
1028.943	690.88
1029.157	639.88
1029.37	604.88
1029.584	-0.12
1029.797	-3.12
1030.011	-0.12
1030.224	-1.12
