Data from QEP037381__53__13-30-01-037.txt Node

Date: Wed Dec 21 13:30:01 EST 2022
User: dcclab
Spectrometer: QEP03738
Trigger mode: 4
Integration Time (sec): 1.000000E1
Scans to average: 1
Electric dark correction enabled: true
Nonlinearity correction enabled: false
Boxcar width: 0
XAxis mode: Wavelengths
Number of Pixels in Spectrum: 1044
>>>>>Begin Spectral Data<<<<<
784.041	11.5
784.3	3.5
784.558	-3.5
784.817	-1.5
785.075	89330.5
785.334	15974.5
785.592	7642.5
785.851	5292.5
786.109	4007.5
786.368	3138.5
786.626	2555.5
786.884	2109.5
787.143	1773.5
787.401	1466.5
787.659	1314.5
787.917	1131.5
788.175	1039.5
788.433	907.5
788.691	825.5
788.949	754.5
789.207	718.5
789.465	617.5
789.723	608.5
789.98	565.5
790.238	588.5
790.496	554.5
790.753	534.5
791.011	590.5
791.268	514.5
791.526	498.5
791.783	517.5
792.041	504.5
792.298	418.5
792.556	482.5
792.813	458.5
793.07	442.5
793.327	417.5
793.584	499.5
793.841	433.5
794.099	442.5
794.356	497.5
794.613	411.5
794.869	440.5
795.126	403.5
795.383	381.5
795.64	406.5
795.897	361.5
796.153	421.5
796.41	396.5
796.667	387.5
796.923	392.5
797.18	398.5
797.436	430.5
797.693	365.5
797.949	428.5
798.206	468.5
798.462	377.5
798.718	433.5
798.974	404.5
799.231	435.5
799.487	432.5
799.743	431.5
799.999	459.5
800.255	453.5
800.511	422.5
800.767	481.5
801.023	446.5
801.279	475.5
801.534	491.5
801.79	525.5
802.046	544.5
802.302	651.5
802.557	679.5
802.813	829.5
803.068	965.5
803.324	1262.5
803.579	1677.5
803.835	2163.5
804.09	2940.5
804.345	3749.5
804.601	4676.5
804.856	5655.5
805.111	6439.5
805.366	7063.5
805.621	7545.5
805.876	7887.5
806.131	8070.5
806.386	8293.5
806.641	8397.5
806.896	8476.5
807.151	8675.5
807.406	8849.5
807.661	8939.5
807.915	9111.5
808.17	9269.5
808.425	9378.5
808.679	9362.5
808.934	9551.5
809.188	9559.5
809.443	9746.5
809.697	9835.5
809.951	9890.5
810.206	10009.5
810.46	10129.5
810.714	10188.5
810.968	10410.5
811.223	10316.5
811.477	10549.5
811.731	10601.5
811.985	10594.5
812.239	10555.5
812.493	10625.5
812.747	10639.5
813	10653.5
813.254	10733.5
813.508	10865.5
813.762	10874.5
814.015	10915.5
814.269	10916.5
814.522	11123.5
814.776	11256.5
815.03	11268.5
815.283	11494.5
815.536	11647.5
815.79	11926.5
816.043	12063.5
816.296	12225.5
816.55	12340.5
816.803	12472.5
817.056	12718.5
817.309	12767.5
817.562	12901.5
817.815	13086.5
818.068	13086.5
818.321	13166.5
818.574	13331.5
818.827	13505.5
819.079	13686.5
819.332	14074.5
819.585	14229.5
819.838	14443.5
820.09	14327.5
820.343	14465.5
820.595	14441.5
820.848	14603.5
821.1	14641.5
821.353	14733.5
821.605	14706.5
821.857	14563.5
822.11	14447.5
822.362	14488.5
822.614	14463.5
822.866	14503.5
823.118	14498.5
823.37	14570.5
823.622	14710.5
823.874	14733.5
824.126	14805.5
824.378	14731.5
824.63	14726.5
824.882	14847.5
825.134	14734.5
825.385	14787.5
825.637	14597.5
825.888	14678.5
826.14	14678.5
826.392	14616.5
826.643	14516.5
826.895	14424.5
827.146	14321.5
827.397	14343.5
827.649	14403.5
827.9	14229.5
828.151	14404.5
828.402	14375.5
828.653	14409.5
828.905	14476.5
829.156	14563.5
829.407	14508.5
829.658	14583.5
829.909	14750.5
830.159	14891.5
830.41	14779.5
830.661	14641.5
830.912	14436.5
831.162	14534.5
831.413	14525.5
831.664	14563.5
831.914	14468.5
832.165	14384.5
832.415	14402.5
832.666	14376.5
832.916	14496.5
833.167	14328.5
833.417	14489.5
833.667	14359.5
833.917	14304.5
834.168	14394.5
834.418	14288.5
834.668	14194.5
834.918	14152.5
835.168	14260.5
835.418	13953.5
835.668	14000.5
835.918	14001.5
836.167	13844.5
836.417	13864.5
836.667	13926.5
836.917	13995.5
837.166	13950.5
837.416	14021.5
837.666	14037.5
837.915	14014.5
838.165	14027.5
838.414	13938.5
838.663	13920.5
838.913	14037.5
839.162	13953.5
839.411	14037.5
839.661	13998.5
839.91	14003.5
840.159	13997.5
840.408	14050.5
840.657	14055.5
840.906	14029.5
841.155	14145.5
841.404	13988.5
841.653	14038.5
841.902	14089.5
842.15	14144.5
842.399	14173.5
842.648	14194.5
842.897	14187.5
843.145	14010.5
843.394	13894.5
843.642	13890.5
843.891	13742.5
844.139	13647.5
844.388	13542.5
844.636	13469.5
844.884	13528.5
845.133	13478.5
845.381	13543.5
845.629	13574.5
845.877	13522.5
846.125	13586.5
846.373	13472.5
846.621	13513.5
846.869	13395.5
847.117	13354.5
847.365	13235.5
847.613	13226.5
847.861	13249.5
848.108	13338.5
848.356	13296.5
848.604	13154.5
848.851	13241.5
849.099	13199.5
849.346	13274.5
849.594	13397.5
849.841	13451.5
850.089	13504.5
850.336	13524.5
850.583	13526.5
850.831	13492.5
851.078	13390.5
851.325	13414.5
851.572	13520.5
851.819	13382.5
852.066	13066.5
852.313	12799.5
852.56	12749.5
852.807	12727.5
853.054	12673.5
853.301	12748.5
853.548	12752.5
853.794	12893.5
854.041	12883.5
854.288	12865.5
854.534	13145.5
854.781	13106.5
855.028	13053.5
855.274	13205.5
855.52	13165.5
855.767	13108.5
856.013	13426.5
856.26	13618.5
856.506	13098.5
856.752	13058.5
856.998	13058.5
857.244	13092.5
857.49	13234.5
857.736	13279.5
857.982	13173.5
858.228	13047.5
858.474	12928.5
858.72	12768.5
858.966	12658.5
859.212	12556.5
859.458	12380.5
859.703	12224.5
859.949	12053.5
860.195	12054.5
860.44	12117.5
860.686	12076.5
860.931	12205.5
861.177	11930.5
861.422	11840.5
861.667	11744.5
861.913	11622.5
862.158	11599.5
862.403	11639.5
862.648	11757.5
862.893	11719.5
863.138	11702.5
863.384	11661.5
863.629	11612.5
863.873	11661.5
864.118	11533.5
864.363	11599.5
864.608	11582.5
864.853	11501.5
865.098	11410.5
865.342	11320.5
865.587	11312.5
865.832	11426.5
866.076	11324.5
866.321	11264.5
866.565	11272.5
866.81	11260.5
867.054	11252.5
867.298	11147.5
867.543	11158.5
867.787	11230.5
868.031	11193.5
868.275	11230.5
868.519	11228.5
868.764	11239.5
869.008	11213.5
869.252	11281.5
869.496	11262.5
869.739	11230.5
869.983	11338.5
870.227	11383.5
870.471	11433.5
870.715	11515.5
870.958	11585.5
871.202	11648.5
871.446	11713.5
871.689	11723.5
871.933	11724.5
872.176	11618.5
872.42	11666.5
872.663	11606.5
872.906	11650.5
873.15	11781.5
873.393	11777.5
873.636	11954.5
873.879	11746.5
874.122	11530.5
874.366	11342.5
874.609	11172.5
874.852	11044.5
875.095	10943.5
875.337	10772.5
875.58	10711.5
875.823	10718.5
876.066	10631.5
876.309	10697.5
876.551	10510.5
876.794	10466.5
877.037	10496.5
877.279	10341.5
877.522	10381.5
877.764	10347.5
878.007	10287.5
878.249	10331.5
878.491	10075.5
878.734	10283.5
878.976	10116.5
879.218	10037.5
879.46	10060.5
879.702	9952.5
879.945	9862.5
880.187	9751.5
880.429	9664.5
880.671	9601.5
880.912	9670.5
881.154	9570.5
881.396	9463.5
881.638	9557.5
881.88	9552.5
882.121	9571.5
882.363	9606.5
882.605	9687.5
882.846	9691.5
883.088	9745.5
883.329	9813.5
883.571	9881.5
883.812	10359.5
884.053	10859.5
884.295	11374.5
884.536	11678.5
884.777	11584.5
885.018	11329.5
885.259	11271.5
885.5	11095.5
885.742	11174.5
885.982	10959.5
886.223	10806.5
886.464	10585.5
886.705	10348.5
886.946	10110.5
887.187	9790.5
887.428	9619.5
887.668	9356.5
887.909	9178.5
888.15	8955.5
888.39	8919.5
888.631	8834.5
888.871	8704.5
889.111	8656.5
889.352	8531.5
889.592	8435.5
889.833	8374.5
890.073	8263.5
890.313	8335.5
890.553	8128.5
890.793	8117.5
891.033	8042.5
891.273	8052.5
891.513	8022.5
891.753	8069.5
891.993	8024.5
892.233	8043.5
892.473	8195.5
892.713	8055.5
892.952	8037.5
893.192	8156.5
893.432	8027.5
893.671	8047.5
893.911	8092.5
894.15	7994.5
894.39	7869.5
894.629	7859.5
894.869	7860.5
895.108	7813.5
895.347	7793.5
895.587	7850.5
895.826	7814.5
896.065	7715.5
896.304	7815.5
896.543	7803.5
896.782	7661.5
897.021	7758.5
897.26	7758.5
897.499	7828.5
897.738	7807.5
897.977	7738.5
898.216	7659.5
898.454	7603.5
898.693	7579.5
898.932	7621.5
899.17	7588.5
899.409	7567.5
899.647	7555.5
899.886	7533.5
900.124	7609.5
900.363	7630.5
900.601	7702.5
900.839	7774.5
901.078	7820.5
901.316	7956.5
901.554	8063.5
901.792	8160.5
902.03	8193.5
902.268	8205.5
902.506	8200.5
902.744	8181.5
902.982	8055.5
903.22	7815.5
903.458	7611.5
903.695	7459.5
903.933	7327.5
904.171	7132.5
904.409	6951.5
904.646	6879.5
904.884	6730.5
905.121	6704.5
905.359	6613.5
905.596	6550.5
905.833	6419.5
906.071	6357.5
906.308	6438.5
906.545	6278.5
906.783	6284.5
907.02	6339.5
907.257	6249.5
907.494	6272.5
907.731	6313.5
907.968	6240.5
908.205	6108.5
908.442	6093.5
908.679	6070.5
908.915	6088.5
909.152	6035.5
909.389	5901.5
909.626	5866.5
909.862	5828.5
910.099	5828.5
910.335	5804.5
910.572	5748.5
910.808	5771.5
911.045	5698.5
911.281	5664.5
911.518	5700.5
911.754	5642.5
911.99	5619.5
912.226	5577.5
912.463	5513.5
912.699	5491.5
912.935	5504.5
913.171	5411.5
913.407	5365.5
913.643	5400.5
913.879	5337.5
914.114	5205.5
914.35	5243.5
914.586	5191.5
914.822	5132.5
915.057	5164.5
915.293	5063.5
915.529	5014.5
915.764	5143.5
916	5078.5
916.235	5002.5
916.471	5025.5
916.706	5007.5
916.941	5001.5
917.177	4934.5
917.412	5027.5
917.647	5031.5
917.882	4960.5
918.117	4958.5
918.352	4952.5
918.588	4973.5
918.823	4896.5
919.057	4871.5
919.292	4713.5
919.527	4858.5
919.762	4731.5
919.997	4720.5
920.232	4632.5
920.466	4625.5
920.701	4546.5
920.935	4542.5
921.17	4534.5
921.405	4439.5
921.639	4529.5
921.873	4453.5
922.108	4469.5
922.342	4456.5
922.576	4401.5
922.811	4400.5
923.045	4411.5
923.279	4407.5
923.513	4308.5
923.747	4377.5
923.981	4351.5
924.215	4272.5
924.449	4252.5
924.683	4242.5
924.917	4217.5
925.151	4195.5
925.385	4239.5
925.618	4212.5
925.852	4192.5
926.086	4073.5
926.319	4171.5
926.553	4205.5
926.786	4206.5
927.02	4156.5
927.253	4194.5
927.486	4185.5
927.72	4100.5
927.953	4135.5
928.186	4077.5
928.42	4113.5
928.653	4037.5
928.886	4039.5
929.119	4064.5
929.352	3994.5
929.585	4055.5
929.818	4014.5
930.051	3977.5
930.284	3963.5
930.516	3859.5
930.749	3885.5
930.982	3912.5
931.215	3837.5
931.447	3793.5
931.68	3784.5
931.912	3770.5
932.145	3790.5
932.377	3858.5
932.61	3922.5
932.842	3787.5
933.074	3818.5
933.307	3757.5
933.539	3840.5
933.771	3819.5
934.003	3774.5
934.236	3844.5
934.468	3900.5
934.7	3777.5
934.932	3750.5
935.164	3767.5
935.395	3744.5
935.627	3759.5
935.859	3730.5
936.091	3639.5
936.323	3718.5
936.554	3762.5
936.786	3677.5
937.017	3642.5
937.249	3682.5
937.481	3608.5
937.712	3689.5
937.943	3646.5
938.175	3629.5
938.406	3630.5
938.637	3683.5
938.869	3581.5
939.1	3628.5
939.331	3597.5
939.562	3574.5
939.793	3596.5
940.024	3620.5
940.255	3572.5
940.486	3564.5
940.717	3531.5
940.948	3502.5
941.179	3477.5
941.409	3496.5
941.64	3498.5
941.871	3492.5
942.102	3487.5
942.332	3481.5
942.563	3502.5
942.793	3501.5
943.024	3416.5
943.254	3467.5
943.484	3523.5
943.715	3538.5
943.945	3498.5
944.175	3421.5
944.405	3423.5
944.636	3402.5
944.866	3438.5
945.096	3462.5
945.326	3388.5
945.556	3430.5
945.786	3460.5
946.016	3397.5
946.245	3352.5
946.475	3315.5
946.705	3337.5
946.935	3333.5
947.164	3305.5
947.394	3300.5
947.624	3239.5
947.853	3294.5
948.083	3276.5
948.312	3246.5
948.542	3180.5
948.771	3159.5
949	3183.5
949.23	3168.5
949.459	3158.5
949.688	3221.5
949.917	3204.5
950.146	3187.5
950.375	3240.5
950.604	3126.5
950.833	3215.5
951.062	3179.5
951.291	3144.5
951.52	3131.5
951.749	3129.5
951.978	3112.5
952.206	3106.5
952.435	3080.5
952.664	3144.5
952.892	3122.5
953.121	3083.5
953.349	3112.5
953.578	3088.5
953.806	3046.5
954.035	2997.5
954.263	3034.5
954.491	3022.5
954.719	3022.5
954.948	2973.5
955.176	2982.5
955.404	2882.5
955.632	2953.5
955.86	2930.5
956.088	2922.5
956.316	2967.5
956.544	2946.5
956.772	2887.5
956.999	2885.5
957.227	2929.5
957.455	2847.5
957.683	2891.5
957.91	2798.5
958.138	2826.5
958.365	2799.5
958.593	2847.5
958.82	2716.5
959.048	2817.5
959.275	2770.5
959.502	2760.5
959.73	2733.5
959.957	2787.5
960.184	2799.5
960.411	2725.5
960.638	2798.5
960.865	2772.5
961.092	2751.5
961.319	2686.5
961.546	2730.5
961.773	2775.5
962	2741.5
962.227	2769.5
962.454	2719.5
962.68	2698.5
962.907	2704.5
963.134	2649.5
963.36	2691.5
963.587	2694.5
963.813	2640.5
964.04	2635.5
964.266	2581.5
964.493	2635.5
964.719	2616.5
964.945	2640.5
965.171	2518.5
965.398	2568.5
965.624	2596.5
965.85	2493.5
966.076	2528.5
966.302	2567.5
966.528	2520.5
966.754	2549.5
966.98	2514.5
967.206	2497.5
967.431	2457.5
967.657	2508.5
967.883	2480.5
968.109	2478.5
968.334	2434.5
968.56	2421.5
968.785	2468.5
969.011	2396.5
969.236	2419.5
969.462	2390.5
969.687	2413.5
969.912	2418.5
970.138	2432.5
970.363	2406.5
970.588	2396.5
970.813	2360.5
971.038	2360.5
971.263	2335.5
971.488	2365.5
971.713	2398.5
971.938	2386.5
972.163	2289.5
972.388	2306.5
972.613	2321.5
972.838	2301.5
973.062	2280.5
973.287	2258.5
973.512	2206.5
973.736	2273.5
973.961	2243.5
974.185	2208.5
974.41	2261.5
974.634	2148.5
974.858	2165.5
975.083	2185.5
975.307	2195.5
975.531	2145.5
975.755	2083.5
975.98	2154.5
976.204	2047.5
976.428	2049.5
976.652	2082.5
976.876	2064.5
977.1	2097.5
977.324	2056.5
977.547	2110.5
977.771	2090.5
977.995	2083.5
978.219	1996.5
978.442	2154.5
978.666	2092.5
978.89	2055.5
979.113	2057.5
979.337	2022.5
979.56	2007.5
979.783	2113.5
980.007	1987.5
980.23	1981.5
980.453	1974.5
980.677	2018.5
980.9	1995.5
981.123	1928.5
981.346	2041.5
981.569	1982.5
981.792	2008.5
982.015	1948.5
982.238	1918.5
982.461	1961.5
982.684	1895.5
982.907	1883.5
983.129	1876.5
983.352	1932.5
983.575	1911.5
983.797	1939.5
984.02	1869.5
984.242	1848.5
984.465	1877.5
984.687	1915.5
984.91	1912.5
985.132	1877.5
985.354	1899.5
985.577	1853.5
985.799	1862.5
986.021	1786.5
986.243	1794.5
986.465	1812.5
986.687	1879.5
986.909	1918.5
987.131	1819.5
987.353	1812.5
987.575	1842.5
987.797	1797.5
988.019	1734.5
988.241	1821.5
988.462	1773.5
988.684	1807.5
988.906	1860.5
989.127	1864.5
989.349	1735.5
989.57	1791.5
989.792	1800.5
990.013	1855.5
990.234	1815.5
990.456	1851.5
990.677	1828.5
990.898	1760.5
991.119	1767.5
991.341	1805.5
991.562	1731.5
991.783	1753.5
992.004	1697.5
992.225	1691.5
992.446	1774.5
992.667	1657.5
992.887	1724.5
993.108	1643.5
993.329	1775.5
993.55	1722.5
993.77	1626.5
993.991	1671.5
994.212	1720.5
994.432	1651.5
994.653	1688.5
994.873	1682.5
995.093	1566.5
995.314	1602.5
995.534	1692.5
995.754	1730.5
995.975	1754.5
996.195	1587.5
996.415	1670.5
996.635	1656.5
996.855	1687.5
997.075	1650.5
997.295	1662.5
997.515	1610.5
997.735	1683.5
997.955	1685.5
998.174	1644.5
998.394	1663.5
998.614	1685.5
998.834	1666.5
999.053	1697.5
999.273	1651.5
999.492	1702.5
999.712	1632.5
999.931	1601.5
1000.151	1635.5
1000.37	1620.5
1000.589	1672.5
1000.809	1593.5
1001.028	1690.5
1001.247	1618.5
1001.466	1507.5
1001.685	1666.5
1001.904	1577.5
1002.123	1572.5
1002.342	1585.5
1002.561	1535.5
1002.78	1547.5
1002.999	1570.5
1003.218	1561.5
1003.436	1531.5
1003.655	1584.5
1003.874	1532.5
1004.092	1551.5
1004.311	1595.5
1004.53	1526.5
1004.748	1614.5
1004.966	1554.5
1005.185	1575.5
1005.403	1614.5
1005.622	1590.5
1005.84	1659.5
1006.058	1587.5
1006.276	1557.5
1006.494	2053.5
1006.712	1605.5
1006.931	1641.5
1007.149	1582.5
1007.367	1579.5
1007.584	1661.5
1007.802	1707.5
1008.02	1616.5
1008.238	1779.5
1008.456	1796.5
1008.673	1702.5
1008.891	1808.5
1009.109	1815.5
1009.326	1902.5
1009.544	2016.5
1009.761	1977.5
1009.979	2157.5
1010.196	2239.5
1010.413	2419.5
1010.631	2562.5
1010.848	2679.5
1011.065	2694.5
1011.282	2676.5
1011.5	2595.5
1011.717	2721.5
1011.934	2612.5
1012.151	2653.5
1012.368	2611.5
1012.585	2555.5
1012.801	2626.5
1013.018	2586.5
1013.235	2609.5
1013.452	2643.5
1013.669	2657.5
1013.885	2674.5
1014.102	2729.5
1014.318	2714.5
1014.535	2653.5
1014.751	2705.5
1014.968	2648.5
1015.184	2630.5
1015.401	2598.5
1015.617	2572.5
1015.833	2514.5
1016.049	2471.5
1016.266	2489.5
1016.482	2462.5
1016.698	2390.5
1016.914	2441.5
1017.13	2346.5
1017.346	2304.5
1017.562	2375.5
1017.778	2307.5
1017.993	2233.5
1018.209	2334.5
1018.425	2310.5
1018.641	2251.5
1018.856	2225.5
1019.072	2244.5
1019.288	2316.5
1019.503	2273.5
1019.719	2145.5
1019.934	2181.5
1020.149	2173.5
1020.365	2114.5
1020.58	2050.5
1020.795	2040.5
1021.011	1955.5
1021.226	1898.5
1021.441	1914.5
1021.656	1832.5
1021.871	1742.5
1022.086	1727.5
1022.301	1700.5
1022.516	1669.5
1022.731	1717.5
1022.946	1579.5
1023.16	1566.5
1023.375	1500.5
1023.59	1493.5
1023.804	1443.5
1024.019	1489.5
1024.234	1358.5
1024.448	1352.5
1024.663	1295.5
1024.877	1270.5
1025.092	1267.5
1025.306	1275.5
1025.52	1181.5
1025.734	1222.5
1025.949	1134.5
1026.163	1108.5
1026.377	1029.5
1026.591	1073.5
1026.805	981.5
1027.019	989.5
1027.233	935.5
1027.447	873.5
1027.661	978.5
1027.875	916.5
1028.088	909.5
1028.302	824.5
1028.516	817.5
1028.73	808.5
1028.943	812.5
1029.157	756.5
1029.37	698.5
1029.584	-6.5
1029.797	0.5
1030.011	-0.5
1030.224	-3.5
