Data from QEP037381__34__13-26-51-047.txt Node

Date: Wed Dec 21 13:26:51 EST 2022
User: dcclab
Spectrometer: QEP03738
Trigger mode: 4
Integration Time (sec): 1.000000E1
Scans to average: 1
Electric dark correction enabled: true
Nonlinearity correction enabled: false
Boxcar width: 0
XAxis mode: Wavelengths
Number of Pixels in Spectrum: 1044
>>>>>Begin Spectral Data<<<<<
784.041	11.75
784.3	2.75
784.558	-2.25
784.817	-6.25
785.075	90769.75
785.334	15587.75
785.592	7239.75
785.851	4995.75
786.109	3730.75
786.368	2950.75
786.626	2394.75
786.884	1980.75
787.143	1660.75
787.401	1376.75
787.659	1240.75
787.917	1059.75
788.175	983.75
788.433	868.75
788.691	790.75
788.949	748.75
789.207	697.75
789.465	602.75
789.723	573.75
789.98	543.75
790.238	571.75
790.496	550.75
790.753	524.75
791.011	582.75
791.268	500.75
791.526	493.75
791.783	516.75
792.041	492.75
792.298	417.75
792.556	484.75
792.813	446.75
793.07	421.75
793.327	420.75
793.584	504.75
793.841	420.75
794.099	451.75
794.356	489.75
794.613	407.75
794.869	445.75
795.126	397.75
795.383	383.75
795.64	399.75
795.897	364.75
796.153	421.75
796.41	392.75
796.667	393.75
796.923	404.75
797.18	407.75
797.436	439.75
797.693	393.75
797.949	438.75
798.206	463.75
798.462	381.75
798.718	429.75
798.974	412.75
799.231	449.75
799.487	432.75
799.743	445.75
799.999	469.75
800.255	454.75
800.511	446.75
800.767	483.75
801.023	473.75
801.279	498.75
801.534	509.75
801.79	560.75
802.046	530.75
802.302	650.75
802.557	717.75
802.813	896.75
803.068	1002.75
803.324	1332.75
803.579	1775.75
803.835	2399.75
804.09	3248.75
804.345	4216.75
804.601	5253.75
804.856	6284.75
805.111	7283.75
805.366	8030.75
805.621	8591.75
805.876	9045.75
806.131	9295.75
806.386	9505.75
806.641	9646.75
806.896	9803.75
807.151	10008.75
807.406	10170.75
807.661	10281.75
807.915	10474.75
808.17	10677.75
808.425	10865.75
808.679	10799.75
808.934	10981.75
809.188	11043.75
809.443	11237.75
809.697	11337.75
809.951	11352.75
810.206	11504.75
810.46	11685.75
810.714	11705.75
810.968	11920.75
811.223	11913.75
811.477	12088.75
811.731	12182.75
811.985	12137.75
812.239	12252.75
812.493	12223.75
812.747	12287.75
813	12355.75
813.254	12447.75
813.508	12542.75
813.762	12540.75
814.015	12563.75
814.269	12616.75
814.522	12844.75
814.776	12899.75
815.03	13089.75
815.283	13315.75
815.536	13529.75
815.79	13664.75
816.043	13917.75
816.296	14071.75
816.55	14213.75
816.803	14469.75
817.056	14653.75
817.309	14744.75
817.562	14900.75
817.815	15031.75
818.068	15144.75
818.321	15318.75
818.574	15488.75
818.827	15771.75
819.079	15863.75
819.332	16261.75
819.585	16429.75
819.838	16540.75
820.09	16575.75
820.343	16738.75
820.595	16800.75
820.848	16934.75
821.1	16994.75
821.353	16957.75
821.605	16964.75
821.857	16946.75
822.11	16798.75
822.362	16715.75
822.614	16684.75
822.866	16791.75
823.118	16762.75
823.37	16855.75
823.622	16932.75
823.874	16951.75
824.126	17058.75
824.378	17007.75
824.63	17101.75
824.882	17136.75
825.134	17054.75
825.385	17116.75
825.637	16991.75
825.888	16837.75
826.14	16884.75
826.392	16908.75
826.643	16697.75
826.895	16652.75
827.146	16652.75
827.397	16592.75
827.649	16726.75
827.9	16532.75
828.151	16608.75
828.402	16601.75
828.653	16628.75
828.905	16777.75
829.156	16827.75
829.407	16727.75
829.658	16937.75
829.909	17062.75
830.159	17020.75
830.41	17013.75
830.661	16802.75
830.912	16734.75
831.162	16631.75
831.413	16636.75
831.664	16648.75
831.914	16570.75
832.165	16580.75
832.415	16439.75
832.666	16559.75
832.916	16650.75
833.167	16590.75
833.417	16583.75
833.667	16565.75
833.917	16421.75
834.168	16566.75
834.418	16510.75
834.668	16368.75
834.918	16234.75
835.168	16238.75
835.418	16116.75
835.668	16079.75
835.918	16144.75
836.167	16049.75
836.417	15942.75
836.667	16031.75
836.917	15987.75
837.166	15999.75
837.416	16018.75
837.666	16083.75
837.915	15993.75
838.165	16003.75
838.414	15873.75
838.663	15981.75
838.913	16081.75
839.162	16004.75
839.411	16101.75
839.661	15961.75
839.91	15966.75
840.159	15890.75
840.408	15910.75
840.657	15961.75
840.906	15919.75
841.155	15968.75
841.404	15869.75
841.653	16068.75
841.902	15927.75
842.15	16146.75
842.399	16150.75
842.648	16129.75
842.897	16078.75
843.145	15851.75
843.394	15796.75
843.642	15607.75
843.891	15657.75
844.139	15554.75
844.388	15371.75
844.636	15293.75
844.884	15227.75
845.133	15320.75
845.381	15320.75
845.629	15431.75
845.877	15340.75
846.125	15338.75
846.373	15318.75
846.621	15234.75
846.869	15215.75
847.117	15204.75
847.365	15022.75
847.613	15042.75
847.861	15034.75
848.108	15095.75
848.356	14999.75
848.604	14960.75
848.851	14947.75
849.099	15067.75
849.346	15063.75
849.594	15068.75
849.841	15174.75
850.089	15265.75
850.336	15368.75
850.583	15367.75
850.831	15347.75
851.078	15187.75
851.325	15218.75
851.572	15276.75
851.819	15128.75
852.066	14740.75
852.313	14553.75
852.56	14349.75
852.807	14377.75
853.054	14367.75
853.301	14336.75
853.548	14406.75
853.794	14468.75
854.041	14500.75
854.288	14586.75
854.534	14808.75
854.781	14774.75
855.028	14679.75
855.274	14760.75
855.52	14687.75
855.767	14723.75
856.013	14824.75
856.26	14944.75
856.506	14638.75
856.752	14562.75
856.998	14587.75
857.244	14531.75
857.49	14683.75
857.736	14691.75
857.982	14701.75
858.228	14654.75
858.474	14412.75
858.72	14276.75
858.966	14228.75
859.212	14077.75
859.458	13851.75
859.703	13670.75
859.949	13514.75
860.195	13536.75
860.44	13483.75
860.686	13503.75
860.931	13479.75
861.177	13382.75
861.422	13201.75
861.667	13145.75
861.913	13035.75
862.158	13087.75
862.403	13173.75
862.648	13140.75
862.893	13282.75
863.138	13270.75
863.384	13199.75
863.629	13130.75
863.873	13162.75
864.118	13177.75
864.363	13032.75
864.608	13048.75
864.853	12989.75
865.098	12891.75
865.342	12891.75
865.587	12782.75
865.832	12880.75
866.076	12858.75
866.321	12702.75
866.565	12737.75
866.81	12628.75
867.054	12764.75
867.298	12608.75
867.543	12609.75
867.787	12620.75
868.031	12570.75
868.275	12551.75
868.519	12606.75
868.764	12613.75
869.008	12635.75
869.252	12560.75
869.496	12525.75
869.739	12660.75
869.983	12628.75
870.227	12722.75
870.471	12694.75
870.715	12805.75
870.958	12827.75
871.202	12917.75
871.446	12888.75
871.689	12915.75
871.933	12891.75
872.176	12823.75
872.42	12838.75
872.663	12857.75
872.906	12926.75
873.15	12866.75
873.393	12856.75
873.636	12854.75
873.879	12717.75
874.122	12696.75
874.366	12403.75
874.609	12190.75
874.852	12025.75
875.095	12053.75
875.337	11864.75
875.58	11774.75
875.823	11790.75
876.066	11751.75
876.309	11780.75
876.551	11655.75
876.794	11570.75
877.037	11618.75
877.279	11529.75
877.522	11444.75
877.764	11440.75
878.007	11454.75
878.249	11379.75
878.491	11337.75
878.734	11351.75
878.976	11368.75
879.218	11263.75
879.46	11168.75
879.702	11115.75
879.945	11025.75
880.187	10940.75
880.429	10815.75
880.671	10830.75
880.912	10732.75
881.154	10712.75
881.396	10690.75
881.638	10685.75
881.88	10739.75
882.121	10699.75
882.363	10738.75
882.605	10743.75
882.846	10774.75
883.088	10783.75
883.329	10791.75
883.571	10928.75
883.812	11140.75
884.053	11511.75
884.295	12073.75
884.536	12262.75
884.777	12110.75
885.018	12025.75
885.259	11888.75
885.5	11798.75
885.742	12021.75
885.982	11760.75
886.223	11497.75
886.464	11348.75
886.705	11158.75
886.946	10999.75
887.187	10687.75
887.428	10594.75
887.668	10281.75
887.909	10021.75
888.15	9997.75
888.39	9908.75
888.631	9816.75
888.871	9708.75
889.111	9621.75
889.352	9514.75
889.592	9381.75
889.833	9368.75
890.073	9261.75
890.313	9340.75
890.553	9124.75
890.793	9103.75
891.033	9025.75
891.273	8956.75
891.513	9000.75
891.753	9064.75
891.993	8954.75
892.233	9005.75
892.473	9129.75
892.713	9048.75
892.952	8989.75
893.192	9058.75
893.432	9009.75
893.671	9040.75
893.911	8983.75
894.15	8880.75
894.39	8741.75
894.629	8764.75
894.869	8778.75
895.108	8737.75
895.347	8692.75
895.587	8721.75
895.826	8686.75
896.065	8598.75
896.304	8707.75
896.543	8649.75
896.782	8574.75
897.021	8613.75
897.26	8507.75
897.499	8601.75
897.738	8620.75
897.977	8514.75
898.216	8430.75
898.454	8402.75
898.693	8344.75
898.932	8374.75
899.17	8365.75
899.409	8292.75
899.647	8255.75
899.886	8233.75
900.124	8332.75
900.363	8361.75
900.601	8435.75
900.839	8397.75
901.078	8457.75
901.316	8592.75
901.554	8671.75
901.792	8751.75
902.03	8828.75
902.268	8816.75
902.506	8844.75
902.744	8655.75
902.982	8630.75
903.22	8438.75
903.458	8301.75
903.695	8089.75
903.933	7931.75
904.171	7736.75
904.409	7653.75
904.646	7582.75
904.884	7404.75
905.121	7364.75
905.359	7239.75
905.596	7189.75
905.833	7036.75
906.071	7054.75
906.308	7119.75
906.545	6958.75
906.783	6876.75
907.02	6969.75
907.257	6879.75
907.494	6919.75
907.731	6893.75
907.968	6839.75
908.205	6823.75
908.442	6742.75
908.679	6748.75
908.915	6639.75
909.152	6650.75
909.389	6542.75
909.626	6532.75
909.862	6438.75
910.099	6466.75
910.335	6483.75
910.572	6347.75
910.808	6375.75
911.045	6285.75
911.281	6308.75
911.518	6331.75
911.754	6246.75
911.99	6260.75
912.226	6165.75
912.463	6115.75
912.699	6096.75
912.935	6022.75
913.171	5959.75
913.407	5924.75
913.643	5982.75
913.879	5879.75
914.114	5827.75
914.35	5702.75
914.586	5718.75
914.822	5608.75
915.057	5701.75
915.293	5486.75
915.529	5534.75
915.764	5578.75
916	5604.75
916.235	5535.75
916.471	5538.75
916.706	5472.75
916.941	5455.75
917.177	5506.75
917.412	5482.75
917.647	5507.75
917.882	5430.75
918.117	5494.75
918.352	5473.75
918.588	5481.75
918.823	5370.75
919.057	5334.75
919.292	5216.75
919.527	5290.75
919.762	5183.75
919.997	5217.75
920.232	5077.75
920.466	5086.75
920.701	4950.75
920.935	4945.75
921.17	4946.75
921.405	4931.75
921.639	4931.75
921.873	4902.75
922.108	4922.75
922.342	4876.75
922.576	4812.75
922.811	4805.75
923.045	4780.75
923.279	4859.75
923.513	4682.75
923.747	4742.75
923.981	4742.75
924.215	4655.75
924.449	4682.75
924.683	4627.75
924.917	4602.75
925.151	4571.75
925.385	4628.75
925.618	4530.75
925.852	4593.75
926.086	4458.75
926.319	4567.75
926.553	4548.75
926.786	4543.75
927.02	4501.75
927.253	4544.75
927.486	4547.75
927.72	4439.75
927.953	4552.75
928.186	4489.75
928.42	4479.75
928.653	4371.75
928.886	4384.75
929.119	4381.75
929.352	4400.75
929.585	4373.75
929.818	4316.75
930.051	4319.75
930.284	4327.75
930.516	4162.75
930.749	4151.75
930.982	4216.75
931.215	4205.75
931.447	4116.75
931.68	4122.75
931.912	4107.75
932.145	4116.75
932.377	4146.75
932.61	4247.75
932.842	4066.75
933.074	4124.75
933.307	4036.75
933.539	4175.75
933.771	4162.75
934.003	4077.75
934.236	4146.75
934.468	4181.75
934.7	4086.75
934.932	4127.75
935.164	4040.75
935.395	4048.75
935.627	4015.75
935.859	4062.75
936.091	4020.75
936.323	3992.75
936.554	3996.75
936.786	4019.75
937.017	3928.75
937.249	3987.75
937.481	3895.75
937.712	3943.75
937.943	3911.75
938.175	3910.75
938.406	3889.75
938.637	3942.75
938.869	3836.75
939.1	3897.75
939.331	3846.75
939.562	3864.75
939.793	3837.75
940.024	3869.75
940.255	3864.75
940.486	3785.75
940.717	3789.75
940.948	3778.75
941.179	3714.75
941.409	3736.75
941.64	3717.75
941.871	3750.75
942.102	3732.75
942.332	3722.75
942.563	3740.75
942.793	3714.75
943.024	3663.75
943.254	3726.75
943.484	3750.75
943.715	3810.75
943.945	3754.75
944.175	3661.75
944.405	3645.75
944.636	3657.75
944.866	3664.75
945.096	3719.75
945.326	3604.75
945.556	3681.75
945.786	3706.75
946.016	3602.75
946.245	3585.75
946.475	3531.75
946.705	3531.75
946.935	3571.75
947.164	3562.75
947.394	3510.75
947.624	3541.75
947.853	3530.75
948.083	3465.75
948.312	3438.75
948.542	3392.75
948.771	3399.75
949	3390.75
949.23	3356.75
949.459	3426.75
949.688	3442.75
949.917	3436.75
950.146	3384.75
950.375	3452.75
950.604	3314.75
950.833	3434.75
951.062	3421.75
951.291	3392.75
951.52	3290.75
951.749	3312.75
951.978	3300.75
952.206	3327.75
952.435	3315.75
952.664	3328.75
952.892	3307.75
953.121	3302.75
953.349	3336.75
953.578	3284.75
953.806	3259.75
954.035	3202.75
954.263	3238.75
954.491	3185.75
954.719	3236.75
954.948	3193.75
955.176	3163.75
955.404	3082.75
955.632	3140.75
955.86	3151.75
956.088	3117.75
956.316	3121.75
956.544	3147.75
956.772	3070.75
956.999	3005.75
957.227	3091.75
957.455	3021.75
957.683	3018.75
957.91	2983.75
958.138	2965.75
958.365	2958.75
958.593	2961.75
958.82	2918.75
959.048	2981.75
959.275	2948.75
959.502	2896.75
959.73	2907.75
959.957	2924.75
960.184	2948.75
960.411	2902.75
960.638	2935.75
960.865	2894.75
961.092	2897.75
961.319	2838.75
961.546	2932.75
961.773	2941.75
962	2848.75
962.227	2910.75
962.454	2858.75
962.68	2849.75
962.907	2864.75
963.134	2827.75
963.36	2794.75
963.587	2871.75
963.813	2757.75
964.04	2772.75
964.266	2726.75
964.493	2794.75
964.719	2752.75
964.945	2751.75
965.171	2679.75
965.398	2688.75
965.624	2720.75
965.85	2636.75
966.076	2647.75
966.302	2675.75
966.528	2626.75
966.754	2660.75
966.98	2687.75
967.206	2626.75
967.431	2558.75
967.657	2650.75
967.883	2615.75
968.109	2590.75
968.334	2537.75
968.56	2551.75
968.785	2554.75
969.011	2532.75
969.236	2561.75
969.462	2506.75
969.687	2527.75
969.912	2542.75
970.138	2586.75
970.363	2503.75
970.588	2491.75
970.813	2457.75
971.038	2452.75
971.263	2480.75
971.488	2500.75
971.713	2522.75
971.938	2511.75
972.163	2382.75
972.388	2410.75
972.613	2398.75
972.838	2405.75
973.062	2393.75
973.287	2356.75
973.512	2322.75
973.736	2383.75
973.961	2335.75
974.185	2352.75
974.41	2384.75
974.634	2256.75
974.858	2278.75
975.083	2332.75
975.307	2317.75
975.531	2240.75
975.755	2168.75
975.98	2226.75
976.204	2159.75
976.428	2138.75
976.652	2120.75
976.876	2158.75
977.1	2166.75
977.324	2123.75
977.547	2189.75
977.771	2180.75
977.995	2141.75
978.219	2106.75
978.442	2184.75
978.666	2140.75
978.89	2151.75
979.113	2121.75
979.337	2101.75
979.56	2085.75
979.783	2174.75
980.007	2097.75
980.23	2097.75
980.453	2041.75
980.677	2080.75
980.9	2079.75
981.123	2016.75
981.346	2077.75
981.569	2067.75
981.792	2074.75
982.015	2033.75
982.238	1991.75
982.461	2017.75
982.684	1982.75
982.907	1969.75
983.129	1949.75
983.352	2008.75
983.575	1958.75
983.797	1970.75
984.02	1936.75
984.242	1913.75
984.465	1915.75
984.687	1980.75
984.91	1981.75
985.132	1952.75
985.354	1956.75
985.577	1945.75
985.799	1909.75
986.021	1834.75
986.243	1872.75
986.465	1895.75
986.687	1906.75
986.909	1950.75
987.131	1864.75
987.353	1837.75
987.575	1904.75
987.797	1850.75
988.019	1791.75
988.241	1845.75
988.462	1787.75
988.684	1868.75
988.906	1861.75
989.127	1901.75
989.349	1793.75
989.57	1803.75
989.792	1883.75
990.013	1857.75
990.234	1866.75
990.456	1890.75
990.677	1878.75
990.898	1810.75
991.119	1796.75
991.341	1848.75
991.562	1773.75
991.783	1801.75
992.004	1729.75
992.225	1720.75
992.446	1789.75
992.667	1694.75
992.887	1762.75
993.108	1622.75
993.329	1773.75
993.55	1743.75
993.77	1677.75
993.991	1683.75
994.212	1697.75
994.432	1687.75
994.653	1698.75
994.873	1691.75
995.093	1589.75
995.314	1621.75
995.534	1712.75
995.754	1699.75
995.975	1729.75
996.195	1614.75
996.415	1704.75
996.635	1667.75
996.855	1679.75
997.075	1633.75
997.295	1676.75
997.515	1650.75
997.735	1703.75
997.955	1657.75
998.174	1660.75
998.394	1645.75
998.614	1633.75
998.834	1636.75
999.053	1698.75
999.273	1668.75
999.492	1729.75
999.712	1632.75
999.931	1593.75
1000.151	1649.75
1000.37	1623.75
1000.589	1658.75
1000.809	1600.75
1001.028	1712.75
1001.247	1638.75
1001.466	1510.75
1001.685	1657.75
1001.904	1596.75
1002.123	1582.75
1002.342	1586.75
1002.561	1531.75
1002.78	1554.75
1002.999	1622.75
1003.218	1583.75
1003.436	1524.75
1003.655	1596.75
1003.874	1520.75
1004.092	1581.75
1004.311	1549.75
1004.53	1569.75
1004.748	1649.75
1004.966	1548.75
1005.185	1596.75
1005.403	1592.75
1005.622	1566.75
1005.84	1658.75
1006.058	1522.75
1006.276	1560.75
1006.494	2062.75
1006.712	1563.75
1006.931	1627.75
1007.149	1547.75
1007.367	1531.75
1007.584	1590.75
1007.802	1636.75
1008.02	1605.75
1008.238	1690.75
1008.456	1682.75
1008.673	1585.75
1008.891	1696.75
1009.109	1685.75
1009.326	1731.75
1009.544	1861.75
1009.761	1781.75
1009.979	1906.75
1010.196	1932.75
1010.413	2046.75
1010.631	2163.75
1010.848	2245.75
1011.065	2262.75
1011.282	2212.75
1011.5	2144.75
1011.717	2234.75
1011.934	2178.75
1012.151	2196.75
1012.368	2153.75
1012.585	2153.75
1012.801	2194.75
1013.018	2184.75
1013.235	2133.75
1013.452	2130.75
1013.669	2179.75
1013.885	2153.75
1014.102	2219.75
1014.318	2192.75
1014.535	2199.75
1014.751	2191.75
1014.968	2173.75
1015.184	2191.75
1015.401	2101.75
1015.617	2120.75
1015.833	2042.75
1016.049	2059.75
1016.266	1993.75
1016.482	2025.75
1016.698	1936.75
1016.914	1977.75
1017.13	1928.75
1017.346	1924.75
1017.562	1983.75
1017.778	1930.75
1017.993	1892.75
1018.209	1912.75
1018.425	1917.75
1018.641	1866.75
1018.856	1846.75
1019.072	1882.75
1019.288	1923.75
1019.503	1855.75
1019.719	1790.75
1019.934	1785.75
1020.149	1849.75
1020.365	1773.75
1020.58	1726.75
1020.795	1755.75
1021.011	1660.75
1021.226	1637.75
1021.441	1644.75
1021.656	1545.75
1021.871	1486.75
1022.086	1455.75
1022.301	1412.75
1022.516	1412.75
1022.731	1494.75
1022.946	1387.75
1023.16	1350.75
1023.375	1318.75
1023.59	1268.75
1023.804	1227.75
1024.019	1322.75
1024.234	1185.75
1024.448	1214.75
1024.663	1141.75
1024.877	1141.75
1025.092	1153.75
1025.306	1153.75
1025.52	1053.75
1025.734	1134.75
1025.949	1064.75
1026.163	995.75
1026.377	940.75
1026.591	996.75
1026.805	917.75
1027.019	904.75
1027.233	860.75
1027.447	827.75
1027.661	899.75
1027.875	858.75
1028.088	848.75
1028.302	784.75
1028.516	775.75
1028.73	781.75
1028.943	756.75
1029.157	688.75
1029.37	660.75
1029.584	-2.25
1029.797	-0.25
1030.011	0.75
1030.224	-4.25
