Data from QEP037381__72__13-33-11-028.txt Node

Date: Wed Dec 21 13:33:11 EST 2022
User: dcclab
Spectrometer: QEP03738
Trigger mode: 4
Integration Time (sec): 1.000000E1
Scans to average: 1
Electric dark correction enabled: true
Nonlinearity correction enabled: false
Boxcar width: 0
XAxis mode: Wavelengths
Number of Pixels in Spectrum: 1044
>>>>>Begin Spectral Data<<<<<
784.041	12.38
784.3	-1.62
784.558	-2.62
784.817	-2.62
785.075	90418.38
785.334	15583.38
785.592	7257.38
785.851	5012.38
786.109	3853.38
786.368	2952.38
786.626	2415.38
786.884	2003.38
787.143	1689.38
787.401	1373.38
787.659	1261.38
787.917	1084.38
788.175	985.38
788.433	883.38
788.691	786.38
788.949	724.38
789.207	705.38
789.465	601.38
789.723	588.38
789.98	536.38
790.238	572.38
790.496	548.38
790.753	515.38
791.011	564.38
791.268	494.38
791.526	491.38
791.783	494.38
792.041	474.38
792.298	403.38
792.556	461.38
792.813	439.38
793.07	424.38
793.327	406.38
793.584	482.38
793.841	389.38
794.099	439.38
794.356	493.38
794.613	410.38
794.869	432.38
795.126	408.38
795.383	367.38
795.64	402.38
795.897	361.38
796.153	415.38
796.41	402.38
796.667	389.38
796.923	376.38
797.18	391.38
797.436	409.38
797.693	358.38
797.949	415.38
798.206	444.38
798.462	346.38
798.718	426.38
798.974	381.38
799.231	430.38
799.487	425.38
799.743	430.38
799.999	449.38
800.255	437.38
800.511	425.38
800.767	442.38
801.023	413.38
801.279	445.38
801.534	454.38
801.79	494.38
802.046	477.38
802.302	561.38
802.557	614.38
802.813	706.38
803.068	786.38
803.324	1005.38
803.579	1295.38
803.835	1707.38
804.09	2325.38
804.345	2918.38
804.601	3608.38
804.856	4347.38
805.111	5015.38
805.366	5439.38
805.621	5813.38
805.876	6046.38
806.131	6171.38
806.386	6249.38
806.641	6369.38
806.896	6482.38
807.151	6708.38
807.406	6766.38
807.661	6780.38
807.915	6908.38
808.17	7026.38
808.425	7120.38
808.679	7175.38
808.934	7303.38
809.188	7320.38
809.443	7415.38
809.697	7580.38
809.951	7542.38
810.206	7655.38
810.46	7772.38
810.714	7778.38
810.968	7865.38
811.223	7927.38
811.477	8021.38
811.731	8051.38
811.985	8132.38
812.239	8011.38
812.493	8125.38
812.747	8238.38
813	8150.38
813.254	8281.38
813.508	8337.38
813.762	8268.38
814.015	8309.38
814.269	8419.38
814.522	8564.38
814.776	8624.38
815.03	8686.38
815.283	8850.38
815.536	9002.38
815.79	9141.38
816.043	9220.38
816.296	9383.38
816.55	9492.38
816.803	9562.38
817.056	9758.38
817.309	9852.38
817.562	9990.38
817.815	10078.38
818.068	10129.38
818.321	10208.38
818.574	10290.38
818.827	10439.38
819.079	10678.38
819.332	10914.38
819.585	11001.38
819.838	11101.38
820.09	11080.38
820.343	11196.38
820.595	11175.38
820.848	11300.38
821.1	11377.38
821.353	11377.38
821.605	11334.38
821.857	11317.38
822.11	11189.38
822.362	11233.38
822.614	11196.38
822.866	11180.38
823.118	11194.38
823.37	11328.38
823.622	11406.38
823.874	11434.38
824.126	11479.38
824.378	11387.38
824.63	11470.38
824.882	11520.38
825.134	11491.38
825.385	11544.38
825.637	11461.38
825.888	11280.38
826.14	11412.38
826.392	11375.38
826.643	11138.38
826.895	11202.38
827.146	11156.38
827.397	11139.38
827.649	11214.38
827.9	11200.38
828.151	11136.38
828.402	11178.38
828.653	11159.38
828.905	11267.38
829.156	11309.38
829.407	11250.38
829.658	11277.38
829.909	11430.38
830.159	11525.38
830.41	11489.38
830.661	11418.38
830.912	11237.38
831.162	11243.38
831.413	11251.38
831.664	11281.38
831.914	11292.38
832.165	11217.38
832.415	11294.38
832.666	11252.38
832.916	11247.38
833.167	11232.38
833.417	11332.38
833.667	11206.38
833.917	11149.38
834.168	11202.38
834.418	11132.38
834.668	11182.38
834.918	11079.38
835.168	11036.38
835.418	10913.38
835.668	10975.38
835.918	10869.38
836.167	10882.38
836.417	10872.38
836.667	10894.38
836.917	10927.38
837.166	10877.38
837.416	10938.38
837.666	10971.38
837.915	10833.38
838.165	10915.38
838.414	10816.38
838.663	10808.38
838.913	10918.38
839.162	10797.38
839.411	10932.38
839.661	10828.38
839.91	10853.38
840.159	10864.38
840.408	10955.38
840.657	10975.38
840.906	10949.38
841.155	10936.38
841.404	10919.38
841.653	10970.38
841.902	10937.38
842.15	11018.38
842.399	10991.38
842.648	11056.38
842.897	11008.38
843.145	10862.38
843.394	10857.38
843.642	10760.38
843.891	10738.38
844.139	10582.38
844.388	10556.38
844.636	10435.38
844.884	10519.38
845.133	10533.38
845.381	10512.38
845.629	10508.38
845.877	10558.38
846.125	10579.38
846.373	10551.38
846.621	10511.38
846.869	10536.38
847.117	10469.38
847.365	10288.38
847.613	10319.38
847.861	10346.38
848.108	10394.38
848.356	10314.38
848.604	10299.38
848.851	10310.38
849.099	10341.38
849.346	10395.38
849.594	10406.38
849.841	10507.38
850.089	10638.38
850.336	10684.38
850.583	10786.38
850.831	10665.38
851.078	10626.38
851.325	10563.38
851.572	10567.38
851.819	10589.38
852.066	10286.38
852.313	10036.38
852.56	9965.38
852.807	9988.38
853.054	9848.38
853.301	9922.38
853.548	9964.38
853.794	10151.38
854.041	10163.38
854.288	10125.38
854.534	10332.38
854.781	10246.38
855.028	10283.38
855.274	10266.38
855.52	10276.38
855.767	10240.38
856.013	10356.38
856.26	10566.38
856.506	10139.38
856.752	10120.38
856.998	10136.38
857.244	10147.38
857.49	10253.38
857.736	10268.38
857.982	10304.38
858.228	10166.38
858.474	10080.38
858.72	10004.38
858.966	9899.38
859.212	9771.38
859.458	9656.38
859.703	9629.38
859.949	9452.38
860.195	9459.38
860.44	9441.38
860.686	9479.38
860.931	9462.38
861.177	9419.38
861.422	9334.38
861.667	9191.38
861.913	9218.38
862.158	9124.38
862.403	9218.38
862.648	9285.38
862.893	9261.38
863.138	9274.38
863.384	9158.38
863.629	9244.38
863.873	9272.38
864.118	9223.38
864.363	9121.38
864.608	9126.38
864.853	9135.38
865.098	9013.38
865.342	9013.38
865.587	8985.38
865.832	8963.38
866.076	9014.38
866.321	8905.38
866.565	8952.38
866.81	8914.38
867.054	8868.38
867.298	8932.38
867.543	8885.38
867.787	8864.38
868.031	8872.38
868.275	8916.38
868.519	8848.38
868.764	8844.38
869.008	8903.38
869.252	9057.38
869.496	8879.38
869.739	8942.38
869.983	8997.38
870.227	9040.38
870.471	9038.38
870.715	9166.38
870.958	9134.38
871.202	9153.38
871.446	9214.38
871.689	9191.38
871.933	9168.38
872.176	9194.38
872.42	9129.38
872.663	9133.38
872.906	9125.38
873.15	9170.38
873.393	9189.38
873.636	9386.38
873.879	9220.38
874.122	9098.38
874.366	8885.38
874.609	8817.38
874.852	8703.38
875.095	8613.38
875.337	8529.38
875.58	8467.38
875.823	8530.38
876.066	8524.38
876.309	8499.38
876.551	8436.38
876.794	8299.38
877.037	8338.38
877.279	8250.38
877.522	8292.38
877.764	8315.38
878.007	8179.38
878.249	8218.38
878.491	8091.38
878.734	8145.38
878.976	8137.38
879.218	8064.38
879.46	8039.38
879.702	7976.38
879.945	7892.38
880.187	7776.38
880.429	7788.38
880.671	7764.38
880.912	7718.38
881.154	7736.38
881.396	7645.38
881.638	7711.38
881.88	7674.38
882.121	7681.38
882.363	7717.38
882.605	7745.38
882.846	7805.38
883.088	7791.38
883.329	7831.38
883.571	7931.38
883.812	8138.38
884.053	8582.38
884.295	8868.38
884.536	9182.38
884.777	9070.38
885.018	8953.38
885.259	8863.38
885.5	8777.38
885.742	8905.38
885.982	8673.38
886.223	8480.38
886.464	8394.38
886.705	8203.38
886.946	8115.38
887.187	7879.38
887.428	7703.38
887.668	7547.38
887.909	7312.38
888.15	7211.38
888.39	7218.38
888.631	7198.38
888.871	7072.38
889.111	6978.38
889.352	6953.38
889.592	6841.38
889.833	6811.38
890.073	6745.38
890.313	6751.38
890.553	6611.38
890.793	6647.38
891.033	6594.38
891.273	6541.38
891.513	6535.38
891.753	6613.38
891.993	6529.38
892.233	6571.38
892.473	6699.38
892.713	6607.38
892.952	6526.38
893.192	6572.38
893.432	6649.38
893.671	6636.38
893.911	6578.38
894.15	6592.38
894.39	6444.38
894.629	6451.38
894.869	6473.38
895.108	6384.38
895.347	6396.38
895.587	6409.38
895.826	6334.38
896.065	6335.38
896.304	6410.38
896.543	6372.38
896.782	6261.38
897.021	6344.38
897.26	6375.38
897.499	6411.38
897.738	6405.38
897.977	6420.38
898.216	6354.38
898.454	6311.38
898.693	6293.38
898.932	6293.38
899.17	6220.38
899.409	6228.38
899.647	6194.38
899.886	6234.38
900.124	6283.38
900.363	6314.38
900.601	6393.38
900.839	6380.38
901.078	6526.38
901.316	6532.38
901.554	6661.38
901.792	6718.38
902.03	6788.38
902.268	6723.38
902.506	6745.38
902.744	6649.38
902.982	6713.38
903.22	6420.38
903.458	6327.38
903.695	6163.38
903.933	6061.38
904.171	5858.38
904.409	5729.38
904.646	5720.38
904.884	5577.38
905.121	5541.38
905.359	5468.38
905.596	5357.38
905.833	5301.38
906.071	5260.38
906.308	5288.38
906.545	5289.38
906.783	5152.38
907.02	5222.38
907.257	5127.38
907.494	5177.38
907.731	5193.38
907.968	5162.38
908.205	5109.38
908.442	5119.38
908.679	5036.38
908.915	5009.38
909.152	4960.38
909.389	4840.38
909.626	4870.38
909.862	4823.38
910.099	4827.38
910.335	4882.38
910.572	4732.38
910.808	4754.38
911.045	4738.38
911.281	4699.38
911.518	4732.38
911.754	4652.38
911.99	4689.38
912.226	4613.38
912.463	4615.38
912.699	4554.38
912.935	4512.38
913.171	4498.38
913.407	4409.38
913.643	4492.38
913.879	4437.38
914.114	4392.38
914.35	4328.38
914.586	4299.38
914.822	4266.38
915.057	4313.38
915.293	4127.38
915.529	4119.38
915.764	4234.38
916	4268.38
916.235	4188.38
916.471	4188.38
916.706	4105.38
916.941	4125.38
917.177	4115.38
917.412	4159.38
917.647	4180.38
917.882	4154.38
918.117	4138.38
918.352	4143.38
918.588	4143.38
918.823	4045.38
919.057	4024.38
919.292	3906.38
919.527	3997.38
919.762	3955.38
919.997	3937.38
920.232	3824.38
920.466	3911.38
920.701	3751.38
920.935	3829.38
921.17	3779.38
921.405	3751.38
921.639	3783.38
921.873	3700.38
922.108	3737.38
922.342	3752.38
922.576	3650.38
922.811	3686.38
923.045	3684.38
923.279	3709.38
923.513	3561.38
923.747	3634.38
923.981	3639.38
924.215	3594.38
924.449	3595.38
924.683	3514.38
924.917	3546.38
925.151	3567.38
925.385	3605.38
925.618	3532.38
925.852	3526.38
926.086	3437.38
926.319	3514.38
926.553	3483.38
926.786	3537.38
927.02	3502.38
927.253	3522.38
927.486	3507.38
927.72	3448.38
927.953	3481.38
928.186	3474.38
928.42	3508.38
928.653	3477.38
928.886	3399.38
929.119	3383.38
929.352	3368.38
929.585	3367.38
929.818	3348.38
930.051	3355.38
930.284	3370.38
930.516	3229.38
930.749	3250.38
930.982	3315.38
931.215	3280.38
931.447	3207.38
931.68	3285.38
931.912	3198.38
932.145	3194.38
932.377	3224.38
932.61	3340.38
932.842	3173.38
933.074	3225.38
933.307	3198.38
933.539	3299.38
933.771	3243.38
934.003	3190.38
934.236	3301.38
934.468	3341.38
934.7	3171.38
934.932	3237.38
935.164	3181.38
935.395	3154.38
935.627	3205.38
935.859	3201.38
936.091	3168.38
936.323	3163.38
936.554	3238.38
936.786	3125.38
937.017	3064.38
937.249	3157.38
937.481	3095.38
937.712	3153.38
937.943	3110.38
938.175	3106.38
938.406	3094.38
938.637	3174.38
938.869	3087.38
939.1	3098.38
939.331	3057.38
939.562	3103.38
939.793	3071.38
940.024	3094.38
940.255	3131.38
940.486	3039.38
940.717	3052.38
940.948	3048.38
941.179	2959.38
941.409	2974.38
941.64	2947.38
941.871	3009.38
942.102	2982.38
942.332	2994.38
942.563	2989.38
942.793	2970.38
943.024	2949.38
943.254	2965.38
943.484	3017.38
943.715	3031.38
943.945	3030.38
944.175	2952.38
944.405	2908.38
944.636	2928.38
944.866	2966.38
945.096	2979.38
945.326	2880.38
945.556	2975.38
945.786	2968.38
946.016	2949.38
946.245	2864.38
946.475	2840.38
946.705	2869.38
946.935	2876.38
947.164	2842.38
947.394	2838.38
947.624	2817.38
947.853	2851.38
948.083	2789.38
948.312	2800.38
948.542	2724.38
948.771	2728.38
949	2719.38
949.23	2771.38
949.459	2731.38
949.688	2831.38
949.917	2729.38
950.146	2748.38
950.375	2829.38
950.604	2724.38
950.833	2809.38
951.062	2804.38
951.291	2748.38
951.52	2702.38
951.749	2752.38
951.978	2712.38
952.206	2689.38
952.435	2697.38
952.664	2739.38
952.892	2727.38
953.121	2682.38
953.349	2683.38
953.578	2653.38
953.806	2650.38
954.035	2586.38
954.263	2625.38
954.491	2599.38
954.719	2639.38
954.948	2624.38
955.176	2590.38
955.404	2491.38
955.632	2581.38
955.86	2586.38
956.088	2536.38
956.316	2599.38
956.544	2608.38
956.772	2536.38
956.999	2490.38
957.227	2564.38
957.455	2462.38
957.683	2482.38
957.91	2444.38
958.138	2443.38
958.365	2417.38
958.593	2431.38
958.82	2374.38
959.048	2483.38
959.275	2430.38
959.502	2443.38
959.73	2389.38
959.957	2434.38
960.184	2458.38
960.411	2402.38
960.638	2479.38
960.865	2399.38
961.092	2404.38
961.319	2349.38
961.546	2409.38
961.773	2411.38
962	2367.38
962.227	2434.38
962.454	2376.38
962.68	2387.38
962.907	2386.38
963.134	2342.38
963.36	2349.38
963.587	2373.38
963.813	2303.38
964.04	2334.38
964.266	2268.38
964.493	2321.38
964.719	2300.38
964.945	2315.38
965.171	2218.38
965.398	2274.38
965.624	2290.38
965.85	2226.38
966.076	2202.38
966.302	2286.38
966.528	2179.38
966.754	2234.38
966.98	2234.38
967.206	2190.38
967.431	2143.38
967.657	2214.38
967.883	2223.38
968.109	2201.38
968.334	2142.38
968.56	2147.38
968.785	2157.38
969.011	2124.38
969.236	2173.38
969.462	2129.38
969.687	2164.38
969.912	2166.38
970.138	2165.38
970.363	2126.38
970.588	2127.38
970.813	2108.38
971.038	2083.38
971.263	2104.38
971.488	2120.38
971.713	2134.38
971.938	2102.38
972.163	2035.38
972.388	2045.38
972.613	2026.38
972.838	2050.38
973.062	2057.38
973.287	2029.38
973.512	1958.38
973.736	2035.38
973.961	2016.38
974.185	1987.38
974.41	2005.38
974.634	1927.38
974.858	1968.38
975.083	1989.38
975.307	2010.38
975.531	1948.38
975.755	1888.38
975.98	1896.38
976.204	1854.38
976.428	1844.38
976.652	1841.38
976.876	1833.38
977.1	1856.38
977.324	1848.38
977.547	1893.38
977.771	1892.38
977.995	1884.38
978.219	1801.38
978.442	1909.38
978.666	1852.38
978.89	1839.38
979.113	1840.38
979.337	1867.38
979.56	1796.38
979.783	1890.38
980.007	1766.38
980.23	1821.38
980.453	1771.38
980.677	1816.38
980.9	1819.38
981.123	1690.38
981.346	1791.38
981.569	1758.38
981.792	1816.38
982.015	1787.38
982.238	1725.38
982.461	1779.38
982.684	1745.38
982.907	1695.38
983.129	1717.38
983.352	1746.38
983.575	1714.38
983.797	1725.38
984.02	1677.38
984.242	1706.38
984.465	1688.38
984.687	1725.38
984.91	1721.38
985.132	1721.38
985.354	1735.38
985.577	1715.38
985.799	1701.38
986.021	1617.38
986.243	1639.38
986.465	1639.38
986.687	1724.38
986.909	1741.38
987.131	1695.38
987.353	1648.38
987.575	1672.38
987.797	1641.38
988.019	1585.38
988.241	1655.38
988.462	1614.38
988.684	1674.38
988.906	1688.38
989.127	1715.38
989.349	1576.38
989.57	1632.38
989.792	1668.38
990.013	1683.38
990.234	1657.38
990.456	1709.38
990.677	1690.38
990.898	1625.38
991.119	1618.38
991.341	1632.38
991.562	1596.38
991.783	1633.38
992.004	1542.38
992.225	1537.38
992.446	1599.38
992.667	1504.38
992.887	1638.38
993.108	1492.38
993.329	1650.38
993.55	1617.38
993.77	1507.38
993.991	1544.38
994.212	1550.38
994.432	1538.38
994.653	1573.38
994.873	1560.38
995.093	1427.38
995.314	1510.38
995.534	1566.38
995.754	1569.38
995.975	1598.38
996.195	1488.38
996.415	1557.38
996.635	1548.38
996.855	1546.38
997.075	1536.38
997.295	1552.38
997.515	1566.38
997.735	1607.38
997.955	1542.38
998.174	1552.38
998.394	1529.38
998.614	1590.38
998.834	1522.38
999.053	1620.38
999.273	1536.38
999.492	1606.38
999.712	1517.38
999.931	1527.38
1000.151	1540.38
1000.37	1533.38
1000.589	1555.38
1000.809	1492.38
1001.028	1589.38
1001.247	1539.38
1001.466	1436.38
1001.685	1552.38
1001.904	1485.38
1002.123	1508.38
1002.342	1507.38
1002.561	1457.38
1002.78	1491.38
1002.999	1558.38
1003.218	1491.38
1003.436	1460.38
1003.655	1518.38
1003.874	1446.38
1004.092	1479.38
1004.311	1521.38
1004.53	1464.38
1004.748	1538.38
1004.966	1494.38
1005.185	1500.38
1005.403	1526.38
1005.622	1492.38
1005.84	1592.38
1006.058	1479.38
1006.276	1509.38
1006.494	1997.38
1006.712	1534.38
1006.931	1590.38
1007.149	1501.38
1007.367	1532.38
1007.584	1554.38
1007.802	1613.38
1008.02	1557.38
1008.238	1691.38
1008.456	1695.38
1008.673	1605.38
1008.891	1731.38
1009.109	1731.38
1009.326	1812.38
1009.544	1920.38
1009.761	1902.38
1009.979	2055.38
1010.196	2152.38
1010.413	2301.38
1010.631	2430.38
1010.848	2538.38
1011.065	2546.38
1011.282	2513.38
1011.5	2439.38
1011.717	2547.38
1011.934	2460.38
1012.151	2521.38
1012.368	2515.38
1012.585	2450.38
1012.801	2511.38
1013.018	2506.38
1013.235	2465.38
1013.452	2459.38
1013.669	2563.38
1013.885	2559.38
1014.102	2577.38
1014.318	2548.38
1014.535	2540.38
1014.751	2563.38
1014.968	2575.38
1015.184	2553.38
1015.401	2441.38
1015.617	2461.38
1015.833	2387.38
1016.049	2388.38
1016.266	2367.38
1016.482	2378.38
1016.698	2243.38
1016.914	2281.38
1017.13	2290.38
1017.346	2226.38
1017.562	2303.38
1017.778	2214.38
1017.993	2192.38
1018.209	2227.38
1018.425	2229.38
1018.641	2216.38
1018.856	2174.38
1019.072	2179.38
1019.288	2239.38
1019.503	2239.38
1019.719	2101.38
1019.934	2122.38
1020.149	2184.38
1020.365	2109.38
1020.58	2032.38
1020.795	2039.38
1021.011	1931.38
1021.226	1904.38
1021.441	1907.38
1021.656	1771.38
1021.871	1701.38
1022.086	1683.38
1022.301	1667.38
1022.516	1660.38
1022.731	1674.38
1022.946	1566.38
1023.16	1554.38
1023.375	1503.38
1023.59	1457.38
1023.804	1431.38
1024.019	1516.38
1024.234	1348.38
1024.448	1375.38
1024.663	1294.38
1024.877	1269.38
1025.092	1297.38
1025.306	1296.38
1025.52	1187.38
1025.734	1223.38
1025.949	1157.38
1026.163	1150.38
1026.377	1044.38
1026.591	1097.38
1026.805	1018.38
1027.019	982.38
1027.233	972.38
1027.447	928.38
1027.661	1017.38
1027.875	935.38
1028.088	941.38
1028.302	864.38
1028.516	860.38
1028.73	855.38
1028.943	825.38
1029.157	748.38
1029.37	742.38
1029.584	-1.62
1029.797	-2.62
1030.011	-0.62
1030.224	-0.62
