Data from QEP037381__8__13-22-31-060.txt Node

Date: Wed Dec 21 13:22:31 EST 2022
User: dcclab
Spectrometer: QEP03738
Trigger mode: 4
Integration Time (sec): 1.000000E1
Scans to average: 1
Electric dark correction enabled: true
Nonlinearity correction enabled: false
Boxcar width: 0
XAxis mode: Wavelengths
Number of Pixels in Spectrum: 1044
>>>>>Begin Spectral Data<<<<<
784.041	13.12
784.3	-0.88
784.558	-3.88
784.817	-3.88
785.075	88021.12
785.334	15296.12
785.592	7247.12
785.851	5014.12
786.109	3774.12
786.368	2971.12
786.626	2419.12
786.884	1991.12
787.143	1678.12
787.401	1349.12
787.659	1241.12
787.917	1063.12
788.175	1003.12
788.433	883.12
788.691	788.12
788.949	749.12
789.207	710.12
789.465	622.12
789.723	587.12
789.98	535.12
790.238	586.12
790.496	567.12
790.753	522.12
791.011	578.12
791.268	520.12
791.526	497.12
791.783	517.12
792.041	497.12
792.298	433.12
792.556	490.12
792.813	469.12
793.07	465.12
793.327	427.12
793.584	515.12
793.841	436.12
794.099	449.12
794.356	515.12
794.613	417.12
794.869	457.12
795.126	421.12
795.383	402.12
795.64	415.12
795.897	378.12
796.153	433.12
796.41	414.12
796.667	401.12
796.923	428.12
797.18	405.12
797.436	453.12
797.693	414.12
797.949	458.12
798.206	476.12
798.462	407.12
798.718	470.12
798.974	427.12
799.231	461.12
799.487	466.12
799.743	462.12
799.999	485.12
800.255	492.12
800.511	475.12
800.767	494.12
801.023	499.12
801.279	536.12
801.534	564.12
801.79	589.12
802.046	621.12
802.302	734.12
802.557	824.12
802.813	995.12
803.068	1208.12
803.324	1650.12
803.579	2208.12
803.835	3114.12
804.09	4220.12
804.345	5541.12
804.601	7038.12
804.856	8631.12
805.111	9931.12
805.366	10974.12
805.621	11736.12
805.876	12230.12
806.131	12598.12
806.386	12741.12
806.641	12969.12
806.896	13260.12
807.151	13421.12
807.406	13733.12
807.661	13839.12
807.915	14047.12
808.17	14251.12
808.425	14428.12
808.679	14582.12
808.934	14706.12
809.188	14820.12
809.443	15050.12
809.697	15149.12
809.951	15133.12
810.206	15397.12
810.46	15418.12
810.714	15508.12
810.968	15773.12
811.223	15851.12
811.477	15912.12
811.731	16079.12
811.985	16221.12
812.239	16171.12
812.493	16279.12
812.747	16279.12
813	16324.12
813.254	16456.12
813.508	16510.12
813.762	16409.12
814.015	16658.12
814.269	16739.12
814.522	16882.12
814.776	17047.12
815.03	17295.12
815.283	17529.12
815.536	17812.12
815.79	18063.12
816.043	18324.12
816.296	18556.12
816.55	18679.12
816.803	18939.12
817.056	19247.12
817.309	19466.12
817.562	19597.12
817.815	19744.12
818.068	19832.12
818.321	20013.12
818.574	20189.12
818.827	20499.12
819.079	20752.12
819.332	21168.12
819.585	21380.12
819.838	21693.12
820.09	21638.12
820.343	21871.12
820.595	21896.12
820.848	22132.12
821.1	22055.12
821.353	22086.12
821.605	22020.12
821.857	22169.12
822.11	21975.12
822.362	21908.12
822.614	21818.12
822.866	21792.12
823.118	21838.12
823.37	21976.12
823.622	22030.12
823.874	21960.12
824.126	22083.12
824.378	22128.12
824.63	22155.12
824.882	22151.12
825.134	22142.12
825.385	22134.12
825.637	22042.12
825.888	21915.12
826.14	21963.12
826.392	21775.12
826.643	21562.12
826.895	21707.12
827.146	21607.12
827.397	21500.12
827.649	21515.12
827.9	21413.12
828.151	21435.12
828.402	21427.12
828.653	21487.12
828.905	21622.12
829.156	21734.12
829.407	21610.12
829.658	21638.12
829.909	21596.12
830.159	21591.12
830.41	21531.12
830.661	21391.12
830.912	21111.12
831.162	21102.12
831.413	21087.12
831.664	21121.12
831.914	21076.12
832.165	21042.12
832.415	21045.12
832.666	21105.12
832.916	20990.12
833.167	20987.12
833.417	21004.12
833.667	20959.12
833.917	20904.12
834.168	20688.12
834.418	20689.12
834.668	20658.12
834.918	20552.12
835.168	20465.12
835.418	20235.12
835.668	20318.12
835.918	20260.12
836.167	20268.12
836.417	20222.12
836.667	20155.12
836.917	20004.12
837.166	20017.12
837.416	20087.12
837.666	20083.12
837.915	19987.12
838.165	19885.12
838.414	19850.12
838.663	19777.12
838.913	19714.12
839.162	19678.12
839.411	19753.12
839.661	19496.12
839.91	19651.12
840.159	19586.12
840.408	19584.12
840.657	19596.12
840.906	19568.12
841.155	19458.12
841.404	19389.12
841.653	19435.12
841.902	19446.12
842.15	19599.12
842.399	19496.12
842.648	19468.12
842.897	19403.12
843.145	19242.12
843.394	19105.12
843.642	19093.12
843.891	18976.12
844.139	18862.12
844.388	18735.12
844.636	18616.12
844.884	18744.12
845.133	18547.12
845.381	18546.12
845.629	18565.12
845.877	18541.12
846.125	18498.12
846.373	18505.12
846.621	18371.12
846.869	18352.12
847.117	18254.12
847.365	18173.12
847.613	17998.12
847.861	18051.12
848.108	18003.12
848.356	17985.12
848.604	17894.12
848.851	18023.12
849.099	17911.12
849.346	17972.12
849.594	18057.12
849.841	17995.12
850.089	18031.12
850.336	18101.12
850.583	18198.12
850.831	18034.12
851.078	17905.12
851.325	17856.12
851.572	17860.12
851.819	17649.12
852.066	17316.12
852.313	17201.12
852.56	17072.12
852.807	16947.12
853.054	16860.12
853.301	16866.12
853.548	16962.12
853.794	17082.12
854.041	17042.12
854.288	17084.12
854.534	17358.12
854.781	17179.12
855.028	17184.12
855.274	17133.12
855.52	17017.12
855.767	16944.12
856.013	16956.12
856.26	17253.12
856.506	16746.12
856.752	16826.12
856.998	16786.12
857.244	16769.12
857.49	16823.12
857.736	16877.12
857.982	16843.12
858.228	16845.12
858.474	16701.12
858.72	16660.12
858.966	16426.12
859.212	16309.12
859.458	16077.12
859.703	15859.12
859.949	15748.12
860.195	15645.12
860.44	15544.12
860.686	15453.12
860.931	15511.12
861.177	15411.12
861.422	15203.12
861.667	15158.12
861.913	15162.12
862.158	15252.12
862.403	15224.12
862.648	15448.12
862.893	15295.12
863.138	15336.12
863.384	15226.12
863.629	15348.12
863.873	15188.12
864.118	15171.12
864.363	15078.12
864.608	14968.12
864.853	14936.12
865.098	14863.12
865.342	14827.12
865.587	14802.12
865.832	14740.12
866.076	14703.12
866.321	14677.12
866.565	14523.12
866.81	14413.12
867.054	14478.12
867.298	14372.12
867.543	14338.12
867.787	14358.12
868.031	14292.12
868.275	14304.12
868.519	14282.12
868.764	14248.12
869.008	14244.12
869.252	14220.12
869.496	14111.12
869.739	14105.12
869.983	14112.12
870.227	14171.12
870.471	14049.12
870.715	14155.12
870.958	14240.12
871.202	14166.12
871.446	14282.12
871.689	14177.12
871.933	14263.12
872.176	14223.12
872.42	14084.12
872.663	14076.12
872.906	14053.12
873.15	13966.12
873.393	13926.12
873.636	13988.12
873.879	13825.12
874.122	13622.12
874.366	13372.12
874.609	13408.12
874.852	13164.12
875.095	13203.12
875.337	13136.12
875.58	12923.12
875.823	12992.12
876.066	13024.12
876.309	12940.12
876.551	12759.12
876.794	12671.12
877.037	12770.12
877.279	12648.12
877.522	12648.12
877.764	12719.12
878.007	12610.12
878.249	12681.12
878.491	12600.12
878.734	12612.12
878.976	12597.12
879.218	12506.12
879.46	12448.12
879.702	12294.12
879.945	12186.12
880.187	12086.12
880.429	11991.12
880.671	11935.12
880.912	11947.12
881.154	11891.12
881.396	11747.12
881.638	11825.12
881.88	11853.12
882.121	11783.12
882.363	11761.12
882.605	11741.12
882.846	11695.12
883.088	11716.12
883.329	11679.12
883.571	11684.12
883.812	11873.12
884.053	12045.12
884.295	12254.12
884.536	12364.12
884.777	12307.12
885.018	12216.12
885.259	12139.12
885.5	12114.12
885.742	12301.12
885.982	12012.12
886.223	11856.12
886.464	11794.12
886.705	11617.12
886.946	11659.12
887.187	11364.12
887.428	11267.12
887.668	11102.12
887.909	10938.12
888.15	10785.12
888.39	10819.12
888.631	10723.12
888.871	10567.12
889.111	10508.12
889.352	10397.12
889.592	10318.12
889.833	10277.12
890.073	10170.12
890.313	10216.12
890.553	10004.12
890.793	9972.12
891.033	9900.12
891.273	9803.12
891.513	9815.12
891.753	9848.12
891.993	9829.12
892.233	9817.12
892.473	9869.12
892.713	9884.12
892.952	9841.12
893.192	9843.12
893.432	9841.12
893.671	9821.12
893.911	9738.12
894.15	9678.12
894.39	9545.12
894.629	9530.12
894.869	9584.12
895.108	9442.12
895.347	9355.12
895.587	9372.12
895.826	9350.12
896.065	9326.12
896.304	9321.12
896.543	9329.12
896.782	9163.12
897.021	9168.12
897.26	9224.12
897.499	9138.12
897.738	9201.12
897.977	9075.12
898.216	9029.12
898.454	8951.12
898.693	8846.12
898.932	8823.12
899.17	8762.12
899.409	8743.12
899.647	8745.12
899.886	8653.12
900.124	8751.12
900.363	8736.12
900.601	8684.12
900.839	8699.12
901.078	8782.12
901.316	8801.12
901.554	8899.12
901.792	8885.12
902.03	8858.12
902.268	8825.12
902.506	8910.12
902.744	8724.12
902.982	8713.12
903.22	8594.12
903.458	8492.12
903.695	8357.12
903.933	8287.12
904.171	8106.12
904.409	8035.12
904.646	7899.12
904.884	7819.12
905.121	7807.12
905.359	7718.12
905.596	7540.12
905.833	7523.12
906.071	7498.12
906.308	7516.12
906.545	7448.12
906.783	7429.12
907.02	7373.12
907.257	7385.12
907.494	7368.12
907.731	7437.12
907.968	7304.12
908.205	7274.12
908.442	7243.12
908.679	7205.12
908.915	7120.12
909.152	7096.12
909.389	6967.12
909.626	6989.12
909.862	6886.12
910.099	6903.12
910.335	6880.12
910.572	6740.12
910.808	6817.12
911.045	6823.12
911.281	6736.12
911.518	6742.12
911.754	6673.12
911.99	6643.12
912.226	6590.12
912.463	6495.12
912.699	6477.12
912.935	6431.12
913.171	6403.12
913.407	6318.12
913.643	6357.12
913.879	6303.12
914.114	6190.12
914.35	6162.12
914.586	6064.12
914.822	6002.12
915.057	5992.12
915.293	5871.12
915.529	5922.12
915.764	5919.12
916	5930.12
916.235	5863.12
916.471	5897.12
916.706	5762.12
916.941	5857.12
917.177	5777.12
917.412	5817.12
917.647	5875.12
917.882	5809.12
918.117	5800.12
918.352	5787.12
918.588	5797.12
918.823	5714.12
919.057	5615.12
919.292	5548.12
919.527	5593.12
919.762	5469.12
919.997	5444.12
920.232	5332.12
920.466	5342.12
920.701	5211.12
920.935	5262.12
921.17	5202.12
921.405	5195.12
921.639	5220.12
921.873	5164.12
922.108	5105.12
922.342	5141.12
922.576	5021.12
922.811	5069.12
923.045	5076.12
923.279	5090.12
923.513	4975.12
923.747	4981.12
923.981	4984.12
924.215	4912.12
924.449	4888.12
924.683	4813.12
924.917	4851.12
925.151	4793.12
925.385	4834.12
925.618	4760.12
925.852	4771.12
926.086	4684.12
926.319	4768.12
926.553	4744.12
926.786	4745.12
927.02	4685.12
927.253	4794.12
927.486	4687.12
927.72	4664.12
927.953	4705.12
928.186	4674.12
928.42	4679.12
928.653	4628.12
928.886	4573.12
929.119	4576.12
929.352	4574.12
929.585	4543.12
929.818	4472.12
930.051	4459.12
930.284	4452.12
930.516	4336.12
930.749	4350.12
930.982	4338.12
931.215	4316.12
931.447	4260.12
931.68	4255.12
931.912	4237.12
932.145	4259.12
932.377	4310.12
932.61	4382.12
932.842	4198.12
933.074	4237.12
933.307	4161.12
933.539	4273.12
933.771	4287.12
934.003	4252.12
934.236	4286.12
934.468	4307.12
934.7	4176.12
934.932	4172.12
935.164	4149.12
935.395	4126.12
935.627	4151.12
935.859	4177.12
936.091	4102.12
936.323	4189.12
936.554	4109.12
936.786	4062.12
937.017	4038.12
937.249	4062.12
937.481	3976.12
937.712	4069.12
937.943	4042.12
938.175	4018.12
938.406	4012.12
938.637	4039.12
938.869	3961.12
939.1	4000.12
939.331	3957.12
939.562	3932.12
939.793	3952.12
940.024	3964.12
940.255	3954.12
940.486	3878.12
940.717	3869.12
940.948	3867.12
941.179	3841.12
941.409	3845.12
941.64	3803.12
941.871	3817.12
942.102	3794.12
942.332	3820.12
942.563	3830.12
942.793	3799.12
943.024	3735.12
943.254	3776.12
943.484	3796.12
943.715	3877.12
943.945	3781.12
944.175	3745.12
944.405	3699.12
944.636	3744.12
944.866	3765.12
945.096	3769.12
945.326	3715.12
945.556	3751.12
945.786	3687.12
946.016	3681.12
946.245	3611.12
946.475	3606.12
946.705	3638.12
946.935	3616.12
947.164	3583.12
947.394	3533.12
947.624	3527.12
947.853	3555.12
948.083	3520.12
948.312	3491.12
948.542	3456.12
948.771	3417.12
949	3447.12
949.23	3475.12
949.459	3430.12
949.688	3501.12
949.917	3469.12
950.146	3492.12
950.375	3521.12
950.604	3405.12
950.833	3495.12
951.062	3462.12
951.291	3378.12
951.52	3341.12
951.749	3375.12
951.978	3333.12
952.206	3330.12
952.435	3339.12
952.664	3350.12
952.892	3345.12
953.121	3348.12
953.349	3367.12
953.578	3278.12
953.806	3278.12
954.035	3228.12
954.263	3266.12
954.491	3202.12
954.719	3232.12
954.948	3236.12
955.176	3166.12
955.404	3194.12
955.632	3164.12
955.86	3146.12
956.088	3146.12
956.316	3194.12
956.544	3158.12
956.772	3104.12
956.999	3094.12
957.227	3167.12
957.455	3076.12
957.683	3067.12
957.91	3012.12
958.138	2972.12
958.365	3012.12
958.593	2966.12
958.82	2903.12
959.048	2994.12
959.275	2953.12
959.502	2952.12
959.73	2918.12
959.957	2959.12
960.184	2980.12
960.411	2889.12
960.638	2994.12
960.865	2931.12
961.092	2942.12
961.319	2844.12
961.546	2968.12
961.773	2931.12
962	2935.12
962.227	2935.12
962.454	2892.12
962.68	2867.12
962.907	2878.12
963.134	2842.12
963.36	2864.12
963.587	2872.12
963.813	2762.12
964.04	2820.12
964.266	2753.12
964.493	2851.12
964.719	2805.12
964.945	2790.12
965.171	2678.12
965.398	2732.12
965.624	2728.12
965.85	2670.12
966.076	2653.12
966.302	2715.12
966.528	2657.12
966.754	2707.12
966.98	2667.12
967.206	2630.12
967.431	2602.12
967.657	2672.12
967.883	2623.12
968.109	2635.12
968.334	2568.12
968.56	2545.12
968.785	2576.12
969.011	2507.12
969.236	2621.12
969.462	2513.12
969.687	2531.12
969.912	2559.12
970.138	2571.12
970.363	2474.12
970.588	2552.12
970.813	2478.12
971.038	2457.12
971.263	2518.12
971.488	2500.12
971.713	2525.12
971.938	2482.12
972.163	2375.12
972.388	2414.12
972.613	2397.12
972.838	2429.12
973.062	2385.12
973.287	2379.12
973.512	2348.12
973.736	2349.12
973.961	2341.12
974.185	2352.12
974.41	2349.12
974.634	2264.12
974.858	2245.12
975.083	2297.12
975.307	2301.12
975.531	2246.12
975.755	2183.12
975.98	2224.12
976.204	2137.12
976.428	2149.12
976.652	2184.12
976.876	2148.12
977.1	2208.12
977.324	2141.12
977.547	2220.12
977.771	2175.12
977.995	2137.12
978.219	2109.12
978.442	2206.12
978.666	2161.12
978.89	2137.12
979.113	2136.12
979.337	2108.12
979.56	2110.12
979.783	2161.12
980.007	2061.12
980.23	2054.12
980.453	2050.12
980.677	2073.12
980.9	2086.12
981.123	1966.12
981.346	2069.12
981.569	2053.12
981.792	2049.12
982.015	2044.12
982.238	1975.12
982.461	1983.12
982.684	1963.12
982.907	1938.12
983.129	1915.12
983.352	1980.12
983.575	1957.12
983.797	1965.12
984.02	1916.12
984.242	1933.12
984.465	1939.12
984.687	1953.12
984.91	1966.12
985.132	1935.12
985.354	1933.12
985.577	1883.12
985.799	1892.12
986.021	1834.12
986.243	1838.12
986.465	1843.12
986.687	1909.12
986.909	1951.12
987.131	1879.12
987.353	1829.12
987.575	1876.12
987.797	1855.12
988.019	1781.12
988.241	1828.12
988.462	1806.12
988.684	1846.12
988.906	1823.12
989.127	1903.12
989.349	1787.12
989.57	1807.12
989.792	1835.12
990.013	1817.12
990.234	1829.12
990.456	1878.12
990.677	1814.12
990.898	1772.12
991.119	1768.12
991.341	1830.12
991.562	1753.12
991.783	1769.12
992.004	1723.12
992.225	1708.12
992.446	1756.12
992.667	1676.12
992.887	1742.12
993.108	1626.12
993.329	1772.12
993.55	1710.12
993.77	1657.12
993.991	1669.12
994.212	1686.12
994.432	1670.12
994.653	1676.12
994.873	1648.12
995.093	1544.12
995.314	1583.12
995.534	1676.12
995.754	1667.12
995.975	1711.12
996.195	1581.12
996.415	1645.12
996.635	1621.12
996.855	1636.12
997.075	1609.12
997.295	1581.12
997.515	1575.12
997.735	1631.12
997.955	1609.12
998.174	1582.12
998.394	1590.12
998.614	1625.12
998.834	1581.12
999.053	1643.12
999.273	1598.12
999.492	1643.12
999.712	1590.12
999.931	1538.12
1000.151	1582.12
1000.37	1589.12
1000.589	1624.12
1000.809	1523.12
1001.028	1647.12
1001.247	1591.12
1001.466	1510.12
1001.685	1627.12
1001.904	1564.12
1002.123	1533.12
1002.342	1547.12
1002.561	1497.12
1002.78	1516.12
1002.999	1588.12
1003.218	1524.12
1003.436	1514.12
1003.655	1554.12
1003.874	1486.12
1004.092	1505.12
1004.311	1555.12
1004.53	1523.12
1004.748	1589.12
1004.966	1480.12
1005.185	1541.12
1005.403	1547.12
1005.622	1539.12
1005.84	1600.12
1006.058	1478.12
1006.276	1522.12
1006.494	2000.12
1006.712	1519.12
1006.931	1544.12
1007.149	1466.12
1007.367	1481.12
1007.584	1521.12
1007.802	1555.12
1008.02	1500.12
1008.238	1605.12
1008.456	1589.12
1008.673	1461.12
1008.891	1563.12
1009.109	1514.12
1009.326	1572.12
1009.544	1652.12
1009.761	1577.12
1009.979	1670.12
1010.196	1691.12
1010.413	1777.12
1010.631	1808.12
1010.848	1858.12
1011.065	1871.12
1011.282	1823.12
1011.5	1756.12
1011.717	1880.12
1011.934	1772.12
1012.151	1842.12
1012.368	1787.12
1012.585	1786.12
1012.801	1818.12
1013.018	1756.12
1013.235	1742.12
1013.452	1722.12
1013.669	1763.12
1013.885	1751.12
1014.102	1794.12
1014.318	1752.12
1014.535	1706.12
1014.751	1738.12
1014.968	1736.12
1015.184	1784.12
1015.401	1675.12
1015.617	1721.12
1015.833	1647.12
1016.049	1647.12
1016.266	1650.12
1016.482	1639.12
1016.698	1543.12
1016.914	1627.12
1017.13	1571.12
1017.346	1555.12
1017.562	1627.12
1017.778	1528.12
1017.993	1510.12
1018.209	1577.12
1018.425	1527.12
1018.641	1513.12
1018.856	1485.12
1019.072	1522.12
1019.288	1575.12
1019.503	1507.12
1019.719	1431.12
1019.934	1439.12
1020.149	1506.12
1020.365	1458.12
1020.58	1398.12
1020.795	1427.12
1021.011	1377.12
1021.226	1346.12
1021.441	1397.12
1021.656	1290.12
1021.871	1196.12
1022.086	1236.12
1022.301	1229.12
1022.516	1192.12
1022.731	1242.12
1022.946	1184.12
1023.16	1146.12
1023.375	1126.12
1023.59	1114.12
1023.804	1095.12
1024.019	1173.12
1024.234	1036.12
1024.448	1066.12
1024.663	989.12
1024.877	1005.12
1025.092	1015.12
1025.306	1023.12
1025.52	923.12
1025.734	1019.12
1025.949	931.12
1026.163	904.12
1026.377	862.12
1026.591	889.12
1026.805	838.12
1027.019	813.12
1027.233	768.12
1027.447	728.12
1027.661	837.12
1027.875	765.12
1028.088	784.12
1028.302	718.12
1028.516	681.12
1028.73	684.12
1028.943	685.12
1029.157	635.12
1029.37	583.12
1029.584	0.12
1029.797	0.12
1030.011	-3.88
1030.224	-0.88
