Data from QEP037381__29__13-26-01-050.txt Node

Date: Wed Dec 21 13:26:01 EST 2022
User: dcclab
Spectrometer: QEP03738
Trigger mode: 4
Integration Time (sec): 1.000000E1
Scans to average: 1
Electric dark correction enabled: true
Nonlinearity correction enabled: false
Boxcar width: 0
XAxis mode: Wavelengths
Number of Pixels in Spectrum: 1044
>>>>>Begin Spectral Data<<<<<
784.041	15.62
784.3	-0.38
784.558	-4.38
784.817	-2.38
785.075	90584.62
785.334	15676.62
785.592	7312.62
785.851	5036.62
786.109	3862.62
786.368	3004.62
786.626	2421.62
786.884	1988.62
787.143	1690.62
787.401	1382.62
787.659	1251.62
787.917	1072.62
788.175	999.62
788.433	884.62
788.691	774.62
788.949	729.62
789.207	717.62
789.465	616.62
789.723	586.62
789.98	546.62
790.238	586.62
790.496	545.62
790.753	525.62
791.011	571.62
791.268	502.62
791.526	493.62
791.783	508.62
792.041	484.62
792.298	417.62
792.556	476.62
792.813	460.62
793.07	442.62
793.327	414.62
793.584	519.62
793.841	415.62
794.099	446.62
794.356	485.62
794.613	404.62
794.869	453.62
795.126	400.62
795.383	389.62
795.64	400.62
795.897	377.62
796.153	432.62
796.41	394.62
796.667	397.62
796.923	390.62
797.18	385.62
797.436	413.62
797.693	387.62
797.949	446.62
798.206	451.62
798.462	385.62
798.718	430.62
798.974	404.62
799.231	442.62
799.487	436.62
799.743	439.62
799.999	465.62
800.255	459.62
800.511	433.62
800.767	471.62
801.023	461.62
801.279	482.62
801.534	493.62
801.79	534.62
802.046	541.62
802.302	644.62
802.557	687.62
802.813	829.62
803.068	966.62
803.324	1307.62
803.579	1705.62
803.835	2290.62
804.09	3080.62
804.345	3930.62
804.601	5006.62
804.856	6017.62
805.111	6982.62
805.366	7641.62
805.621	8238.62
805.876	8632.62
806.131	8851.62
806.386	8959.62
806.641	9152.62
806.896	9296.62
807.151	9511.62
807.406	9659.62
807.661	9840.62
807.915	10015.62
808.17	10189.62
808.425	10228.62
808.679	10380.62
808.934	10534.62
809.188	10552.62
809.443	10610.62
809.697	10836.62
809.951	10824.62
810.206	10967.62
810.46	11048.62
810.714	11079.62
810.968	11224.62
811.223	11373.62
811.477	11420.62
811.731	11575.62
811.985	11548.62
812.239	11490.62
812.493	11637.62
812.747	11670.62
813	11717.62
813.254	11775.62
813.508	11904.62
813.762	11813.62
814.015	11902.62
814.269	11945.62
814.522	12033.62
814.776	12173.62
815.03	12340.62
815.283	12533.62
815.536	12707.62
815.79	12980.62
816.043	13145.62
816.296	13261.62
816.55	13512.62
816.803	13653.62
817.056	13833.62
817.309	13915.62
817.562	14051.62
817.815	14201.62
818.068	14183.62
818.321	14369.62
818.574	14576.62
818.827	14667.62
819.079	14852.62
819.332	15204.62
819.585	15396.62
819.838	15635.62
820.09	15522.62
820.343	15687.62
820.595	15725.62
820.848	15858.62
821.1	15924.62
821.353	15894.62
821.605	15817.62
821.857	15767.62
822.11	15715.62
822.362	15674.62
822.614	15663.62
822.866	15621.62
823.118	15681.62
823.37	15785.62
823.622	15800.62
823.874	15904.62
824.126	15889.62
824.378	15896.62
824.63	15876.62
824.882	15985.62
825.134	15896.62
825.385	15865.62
825.637	15710.62
825.888	15830.62
826.14	15739.62
826.392	15719.62
826.643	15618.62
826.895	15493.62
827.146	15393.62
827.397	15394.62
827.649	15427.62
827.9	15359.62
828.151	15401.62
828.402	15428.62
828.653	15574.62
828.905	15614.62
829.156	15633.62
829.407	15577.62
829.658	15590.62
829.909	15783.62
830.159	15835.62
830.41	15713.62
830.661	15569.62
830.912	15486.62
831.162	15414.62
831.413	15367.62
831.664	15477.62
831.914	15415.62
832.165	15376.62
832.415	15290.62
832.666	15294.62
832.916	15369.62
833.167	15336.62
833.417	15160.62
833.667	15206.62
833.917	15205.62
834.168	15165.62
834.418	15222.62
834.668	15068.62
834.918	15008.62
835.168	14969.62
835.418	14824.62
835.668	14788.62
835.918	14785.62
836.167	14679.62
836.417	14659.62
836.667	14719.62
836.917	14713.62
837.166	14646.62
837.416	14770.62
837.666	14686.62
837.915	14720.62
838.165	14685.62
838.414	14650.62
838.663	14600.62
838.913	14705.62
839.162	14617.62
839.411	14736.62
839.661	14596.62
839.91	14547.62
840.159	14469.62
840.408	14547.62
840.657	14574.62
840.906	14610.62
841.155	14529.62
841.404	14547.62
841.653	14658.62
841.902	14552.62
842.15	14640.62
842.399	14673.62
842.648	14661.62
842.897	14657.62
843.145	14445.62
843.394	14368.62
843.642	14325.62
843.891	14189.62
844.139	14166.62
844.388	14036.62
844.636	13893.62
844.884	13933.62
845.133	13958.62
845.381	13968.62
845.629	13974.62
845.877	13916.62
846.125	13942.62
846.373	13923.62
846.621	13816.62
846.869	13910.62
847.117	13701.62
847.365	13687.62
847.613	13619.62
847.861	13568.62
848.108	13562.62
848.356	13589.62
848.604	13508.62
848.851	13602.62
849.099	13578.62
849.346	13618.62
849.594	13605.62
849.841	13742.62
850.089	13712.62
850.336	13722.62
850.583	13823.62
850.831	13771.62
851.078	13560.62
851.325	13582.62
851.572	13688.62
851.819	13524.62
852.066	13268.62
852.313	12987.62
852.56	12847.62
852.807	12862.62
853.054	12800.62
853.301	12878.62
853.548	12873.62
853.794	13077.62
854.041	12992.62
854.288	13049.62
854.534	13242.62
854.781	13197.62
855.028	13119.62
855.274	13155.62
855.52	13141.62
855.767	13145.62
856.013	13286.62
856.26	13472.62
856.506	12972.62
856.752	13041.62
856.998	12944.62
857.244	12998.62
857.49	13086.62
857.736	13208.62
857.982	13211.62
858.228	13046.62
858.474	12826.62
858.72	12804.62
858.966	12583.62
859.212	12488.62
859.458	12325.62
859.703	12252.62
859.949	12113.62
860.195	12062.62
860.44	12073.62
860.686	12007.62
860.931	12030.62
861.177	11814.62
861.422	11715.62
861.667	11651.62
861.913	11619.62
862.158	11678.62
862.403	11644.62
862.648	11657.62
862.893	11695.62
863.138	11702.62
863.384	11633.62
863.629	11703.62
863.873	11593.62
864.118	11586.62
864.363	11480.62
864.608	11579.62
864.853	11424.62
865.098	11362.62
865.342	11309.62
865.587	11313.62
865.832	11306.62
866.076	11332.62
866.321	11220.62
866.565	11187.62
866.81	11192.62
867.054	11066.62
867.298	11109.62
867.543	11012.62
867.787	11038.62
868.031	11066.62
868.275	10996.62
868.519	10995.62
868.764	11033.62
869.008	10993.62
869.252	11016.62
869.496	10987.62
869.739	11012.62
869.983	11087.62
870.227	11138.62
870.471	11044.62
870.715	11244.62
870.958	11214.62
871.202	11233.62
871.446	11248.62
871.689	11195.62
871.933	11231.62
872.176	11251.62
872.42	11121.62
872.663	11131.62
872.906	11224.62
873.15	11166.62
873.393	11325.62
873.636	11277.62
873.879	11172.62
874.122	11085.62
874.366	10754.62
874.609	10700.62
874.852	10478.62
875.095	10431.62
875.337	10368.62
875.58	10278.62
875.823	10227.62
876.066	10200.62
876.309	10247.62
876.551	10140.62
876.794	10026.62
877.037	10081.62
877.279	9909.62
877.522	9995.62
877.764	9947.62
878.007	9951.62
878.249	9846.62
878.491	9806.62
878.734	9822.62
878.976	9768.62
879.218	9695.62
879.46	9619.62
879.702	9590.62
879.945	9501.62
880.187	9418.62
880.429	9352.62
880.671	9315.62
880.912	9222.62
881.154	9228.62
881.396	9196.62
881.638	9275.62
881.88	9237.62
882.121	9172.62
882.363	9248.62
882.605	9245.62
882.846	9234.62
883.088	9285.62
883.329	9289.62
883.571	9382.62
883.812	9660.62
884.053	9979.62
884.295	10356.62
884.536	10640.62
884.777	10493.62
885.018	10365.62
885.259	10359.62
885.5	10096.62
885.742	10358.62
885.982	10064.62
886.223	9918.62
886.464	9811.62
886.705	9610.62
886.946	9473.62
887.187	9179.62
887.428	8980.62
887.668	8823.62
887.909	8672.62
888.15	8503.62
888.39	8484.62
888.631	8391.62
888.871	8292.62
889.111	8263.62
889.352	8143.62
889.592	8108.62
889.833	7997.62
890.073	7944.62
890.313	7936.62
890.553	7764.62
890.793	7735.62
891.033	7671.62
891.273	7669.62
891.513	7692.62
891.753	7708.62
891.993	7649.62
892.233	7662.62
892.473	7713.62
892.713	7697.62
892.952	7578.62
893.192	7635.62
893.432	7652.62
893.671	7721.62
893.911	7649.62
894.15	7612.62
894.39	7438.62
894.629	7433.62
894.869	7459.62
895.108	7398.62
895.347	7273.62
895.587	7373.62
895.826	7245.62
896.065	7276.62
896.304	7347.62
896.543	7325.62
896.782	7222.62
897.021	7229.62
897.26	7188.62
897.499	7286.62
897.738	7273.62
897.977	7172.62
898.216	7127.62
898.454	7088.62
898.693	7044.62
898.932	7056.62
899.17	7003.62
899.409	6974.62
899.647	6962.62
899.886	6919.62
900.124	6978.62
900.363	6993.62
900.601	7003.62
900.839	7014.62
901.078	7111.62
901.316	7181.62
901.554	7236.62
901.792	7382.62
902.03	7324.62
902.268	7291.62
902.506	7378.62
902.744	7254.62
902.982	7260.62
903.22	7029.62
903.458	6965.62
903.695	6816.62
903.933	6654.62
904.171	6475.62
904.409	6399.62
904.646	6398.62
904.884	6215.62
905.121	6208.62
905.359	6060.62
905.596	6030.62
905.833	5947.62
906.071	5897.62
906.308	5953.62
906.545	5911.62
906.783	5800.62
907.02	5904.62
907.257	5825.62
907.494	5835.62
907.731	5840.62
907.968	5791.62
908.205	5740.62
908.442	5687.62
908.679	5638.62
908.915	5618.62
909.152	5580.62
909.389	5532.62
909.626	5446.62
909.862	5387.62
910.099	5414.62
910.335	5413.62
910.572	5363.62
910.808	5354.62
911.045	5259.62
911.281	5268.62
911.518	5342.62
911.754	5256.62
911.99	5208.62
912.226	5177.62
912.463	5139.62
912.699	5103.62
912.935	5043.62
913.171	5063.62
913.407	4936.62
913.643	4978.62
913.879	4932.62
914.114	4928.62
914.35	4833.62
914.586	4804.62
914.822	4701.62
915.057	4795.62
915.293	4653.62
915.529	4653.62
915.764	4708.62
916	4673.62
916.235	4618.62
916.471	4624.62
916.706	4621.62
916.941	4581.62
917.177	4573.62
917.412	4629.62
917.647	4601.62
917.882	4534.62
918.117	4596.62
918.352	4538.62
918.588	4595.62
918.823	4492.62
919.057	4462.62
919.292	4352.62
919.527	4411.62
919.762	4383.62
919.997	4348.62
920.232	4245.62
920.466	4277.62
920.701	4175.62
920.935	4177.62
921.17	4130.62
921.405	4049.62
921.639	4148.62
921.873	4109.62
922.108	4063.62
922.342	4069.62
922.576	4050.62
922.811	4031.62
923.045	4077.62
923.279	4090.62
923.513	3925.62
923.747	3986.62
923.981	3983.62
924.215	3864.62
924.449	3878.62
924.683	3864.62
924.917	3816.62
925.151	3825.62
925.385	3900.62
925.618	3849.62
925.852	3804.62
926.086	3719.62
926.319	3784.62
926.553	3820.62
926.786	3784.62
927.02	3813.62
927.253	3819.62
927.486	3815.62
927.72	3742.62
927.953	3769.62
928.186	3719.62
928.42	3756.62
928.653	3673.62
928.886	3696.62
929.119	3701.62
929.352	3705.62
929.585	3644.62
929.818	3559.62
930.051	3602.62
930.284	3575.62
930.516	3461.62
930.749	3512.62
930.982	3524.62
931.215	3505.62
931.447	3450.62
931.68	3450.62
931.912	3411.62
932.145	3420.62
932.377	3450.62
932.61	3529.62
932.842	3366.62
933.074	3438.62
933.307	3375.62
933.539	3443.62
933.771	3468.62
934.003	3415.62
934.236	3507.62
934.468	3494.62
934.7	3387.62
934.932	3419.62
935.164	3365.62
935.395	3375.62
935.627	3407.62
935.859	3367.62
936.091	3304.62
936.323	3386.62
936.554	3355.62
936.786	3290.62
937.017	3237.62
937.249	3292.62
937.481	3211.62
937.712	3264.62
937.943	3301.62
938.175	3246.62
938.406	3211.62
938.637	3328.62
938.869	3168.62
939.1	3245.62
939.331	3225.62
939.562	3214.62
939.793	3193.62
940.024	3239.62
940.255	3265.62
940.486	3179.62
940.717	3157.62
940.948	3155.62
941.179	3085.62
941.409	3109.62
941.64	3093.62
941.871	3125.62
942.102	3073.62
942.332	3102.62
942.563	3130.62
942.793	3080.62
943.024	3030.62
943.254	3105.62
943.484	3086.62
943.715	3114.62
943.945	3121.62
944.175	3049.62
944.405	3011.62
944.636	3066.62
944.866	3068.62
945.096	3105.62
945.326	3003.62
945.556	3064.62
945.786	3058.62
946.016	3003.62
946.245	2949.62
946.475	2974.62
946.705	2971.62
946.935	2966.62
947.164	2965.62
947.394	2925.62
947.624	2906.62
947.853	2971.62
948.083	2915.62
948.312	2884.62
948.542	2793.62
948.771	2859.62
949	2786.62
949.23	2838.62
949.459	2837.62
949.688	2895.62
949.917	2875.62
950.146	2840.62
950.375	2924.62
950.604	2745.62
950.833	2861.62
951.062	2820.62
951.291	2764.62
951.52	2763.62
951.749	2788.62
951.978	2727.62
952.206	2768.62
952.435	2752.62
952.664	2765.62
952.892	2783.62
953.121	2728.62
953.349	2734.62
953.578	2742.62
953.806	2715.62
954.035	2675.62
954.263	2688.62
954.491	2628.62
954.719	2656.62
954.948	2592.62
955.176	2618.62
955.404	2549.62
955.632	2618.62
955.86	2624.62
956.088	2577.62
956.316	2631.62
956.544	2629.62
956.772	2561.62
956.999	2538.62
957.227	2609.62
957.455	2495.62
957.683	2505.62
957.91	2495.62
958.138	2443.62
958.365	2476.62
958.593	2455.62
958.82	2406.62
959.048	2504.62
959.275	2460.62
959.502	2437.62
959.73	2411.62
959.957	2450.62
960.184	2472.62
960.411	2397.62
960.638	2447.62
960.865	2398.62
961.092	2461.62
961.319	2355.62
961.546	2446.62
961.773	2415.62
962	2382.62
962.227	2447.62
962.454	2394.62
962.68	2368.62
962.907	2366.62
963.134	2327.62
963.36	2359.62
963.587	2399.62
963.813	2291.62
964.04	2325.62
964.266	2279.62
964.493	2401.62
964.719	2342.62
964.945	2319.62
965.171	2279.62
965.398	2293.62
965.624	2266.62
965.85	2201.62
966.076	2212.62
966.302	2248.62
966.528	2227.62
966.754	2226.62
966.98	2232.62
967.206	2248.62
967.431	2152.62
967.657	2209.62
967.883	2212.62
968.109	2220.62
968.334	2139.62
968.56	2140.62
968.785	2144.62
969.011	2101.62
969.236	2170.62
969.462	2132.62
969.687	2116.62
969.912	2165.62
970.138	2169.62
970.363	2100.62
970.588	2102.62
970.813	2106.62
971.038	2052.62
971.263	2100.62
971.488	2113.62
971.713	2106.62
971.938	2122.62
972.163	2012.62
972.388	2045.62
972.613	1981.62
972.838	1992.62
973.062	2017.62
973.287	2025.62
973.512	1964.62
973.736	2006.62
973.961	1989.62
974.185	1966.62
974.41	1993.62
974.634	1899.62
974.858	1910.62
975.083	1954.62
975.307	1953.62
975.531	1888.62
975.755	1845.62
975.98	1889.62
976.204	1807.62
976.428	1813.62
976.652	1849.62
976.876	1794.62
977.1	1859.62
977.324	1790.62
977.547	1866.62
977.771	1872.62
977.995	1815.62
978.219	1746.62
978.442	1868.62
978.666	1809.62
978.89	1815.62
979.113	1826.62
979.337	1789.62
979.56	1779.62
979.783	1852.62
980.007	1750.62
980.23	1767.62
980.453	1721.62
980.677	1777.62
980.9	1763.62
981.123	1670.62
981.346	1773.62
981.569	1766.62
981.792	1747.62
982.015	1709.62
982.238	1698.62
982.461	1740.62
982.684	1705.62
982.907	1638.62
983.129	1642.62
983.352	1708.62
983.575	1692.62
983.797	1718.62
984.02	1603.62
984.242	1644.62
984.465	1633.62
984.687	1707.62
984.91	1662.62
985.132	1671.62
985.354	1660.62
985.577	1650.62
985.799	1661.62
986.021	1572.62
986.243	1600.62
986.465	1624.62
986.687	1674.62
986.909	1663.62
987.131	1617.62
987.353	1576.62
987.575	1611.62
987.797	1584.62
988.019	1513.62
988.241	1607.62
988.462	1550.62
988.684	1606.62
988.906	1639.62
989.127	1666.62
989.349	1519.62
989.57	1550.62
989.792	1605.62
990.013	1612.62
990.234	1609.62
990.456	1666.62
990.677	1620.62
990.898	1524.62
991.119	1558.62
991.341	1573.62
991.562	1523.62
991.783	1562.62
992.004	1539.62
992.225	1468.62
992.446	1556.62
992.667	1470.62
992.887	1543.62
993.108	1424.62
993.329	1550.62
993.55	1494.62
993.77	1463.62
993.991	1481.62
994.212	1509.62
994.432	1470.62
994.653	1487.62
994.873	1495.62
995.093	1395.62
995.314	1416.62
995.534	1496.62
995.754	1501.62
995.975	1489.62
996.195	1427.62
996.415	1497.62
996.635	1431.62
996.855	1463.62
997.075	1442.62
997.295	1429.62
997.515	1439.62
997.735	1501.62
997.955	1449.62
998.174	1443.62
998.394	1414.62
998.614	1464.62
998.834	1439.62
999.053	1499.62
999.273	1454.62
999.492	1477.62
999.712	1428.62
999.931	1423.62
1000.151	1423.62
1000.37	1428.62
1000.589	1458.62
1000.809	1400.62
1001.028	1506.62
1001.247	1428.62
1001.466	1323.62
1001.685	1460.62
1001.904	1430.62
1002.123	1398.62
1002.342	1388.62
1002.561	1369.62
1002.78	1378.62
1002.999	1455.62
1003.218	1382.62
1003.436	1373.62
1003.655	1425.62
1003.874	1369.62
1004.092	1392.62
1004.311	1422.62
1004.53	1376.62
1004.748	1454.62
1004.966	1372.62
1005.185	1437.62
1005.403	1387.62
1005.622	1389.62
1005.84	1455.62
1006.058	1359.62
1006.276	1402.62
1006.494	1875.62
1006.712	1429.62
1006.931	1484.62
1007.149	1382.62
1007.367	1370.62
1007.584	1431.62
1007.802	1464.62
1008.02	1399.62
1008.238	1522.62
1008.456	1514.62
1008.673	1404.62
1008.891	1536.62
1009.109	1515.62
1009.326	1546.62
1009.544	1669.62
1009.761	1585.62
1009.979	1716.62
1010.196	1753.62
1010.413	1852.62
1010.631	1944.62
1010.848	2000.62
1011.065	2022.62
1011.282	1985.62
1011.5	1930.62
1011.717	2003.62
1011.934	1970.62
1012.151	2011.62
1012.368	1977.62
1012.585	1923.62
1012.801	1939.62
1013.018	1979.62
1013.235	1938.62
1013.452	1947.62
1013.669	1986.62
1013.885	1953.62
1014.102	2011.62
1014.318	1979.62
1014.535	1916.62
1014.751	1955.62
1014.968	1943.62
1015.184	1957.62
1015.401	1877.62
1015.617	1910.62
1015.833	1809.62
1016.049	1822.62
1016.266	1818.62
1016.482	1804.62
1016.698	1721.62
1016.914	1762.62
1017.13	1714.62
1017.346	1706.62
1017.562	1755.62
1017.778	1674.62
1017.993	1649.62
1018.209	1708.62
1018.425	1680.62
1018.641	1647.62
1018.856	1642.62
1019.072	1630.62
1019.288	1732.62
1019.503	1638.62
1019.719	1577.62
1019.934	1578.62
1020.149	1660.62
1020.365	1586.62
1020.58	1518.62
1020.795	1557.62
1021.011	1479.62
1021.226	1459.62
1021.441	1451.62
1021.656	1383.62
1021.871	1284.62
1022.086	1299.62
1022.301	1272.62
1022.516	1272.62
1022.731	1305.62
1022.946	1209.62
1023.16	1203.62
1023.375	1155.62
1023.59	1163.62
1023.804	1097.62
1024.019	1191.62
1024.234	1049.62
1024.448	1080.62
1024.663	1007.62
1024.877	1013.62
1025.092	1010.62
1025.306	1012.62
1025.52	927.62
1025.734	1013.62
1025.949	928.62
1026.163	897.62
1026.377	851.62
1026.591	876.62
1026.805	830.62
1027.019	795.62
1027.233	773.62
1027.447	715.62
1027.661	802.62
1027.875	764.62
1028.088	751.62
1028.302	678.62
1028.516	670.62
1028.73	682.62
1028.943	668.62
1029.157	617.62
1029.37	580.62
1029.584	-2.38
1029.797	-1.38
1030.011	-2.38
1030.224	-2.38
