Data from QEP037381__5__13-22-01-061.txt Node

Date: Wed Dec 21 13:22:01 EST 2022
User: dcclab
Spectrometer: QEP03738
Trigger mode: 4
Integration Time (sec): 1.000000E1
Scans to average: 1
Electric dark correction enabled: true
Nonlinearity correction enabled: false
Boxcar width: 0
XAxis mode: Wavelengths
Number of Pixels in Spectrum: 1044
>>>>>Begin Spectral Data<<<<<
784.041	14.38
784.3	-2.62
784.558	0.38
784.817	-4.62
785.075	95617.38
785.334	16215.38
785.592	7458.38
785.851	5151.38
786.109	3868.38
786.368	3026.38
786.626	2438.38
786.884	2021.38
787.143	1693.38
787.401	1394.38
787.659	1272.38
787.917	1117.38
788.175	1006.38
788.433	891.38
788.691	818.38
788.949	746.38
789.207	710.38
789.465	624.38
789.723	604.38
789.98	564.38
790.238	586.38
790.496	564.38
790.753	552.38
791.011	591.38
791.268	524.38
791.526	508.38
791.783	527.38
792.041	507.38
792.298	428.38
792.556	500.38
792.813	466.38
793.07	446.38
793.327	439.38
793.584	531.38
793.841	422.38
794.099	453.38
794.356	519.38
794.613	424.38
794.869	450.38
795.126	417.38
795.383	409.38
795.64	443.38
795.897	376.38
796.153	444.38
796.41	429.38
796.667	401.38
796.923	425.38
797.18	424.38
797.436	448.38
797.693	412.38
797.949	447.38
798.206	482.38
798.462	398.38
798.718	461.38
798.974	437.38
799.231	483.38
799.487	474.38
799.743	476.38
799.999	500.38
800.255	491.38
800.511	466.38
800.767	532.38
801.023	503.38
801.279	540.38
801.534	572.38
801.79	630.38
802.046	638.38
802.302	769.38
802.557	878.38
802.813	1063.38
803.068	1280.38
803.324	1765.38
803.579	2434.38
803.835	3332.38
804.09	4551.38
804.345	6007.38
804.601	7549.38
804.856	9041.38
805.111	10470.38
805.366	11510.38
805.621	12315.38
805.876	12848.38
806.131	13128.38
806.386	13340.38
806.641	13550.38
806.896	13795.38
807.151	13990.38
807.406	14263.38
807.661	14551.38
807.915	14713.38
808.17	14982.38
808.425	15105.38
808.679	15214.38
808.934	15396.38
809.188	15599.38
809.443	15705.38
809.697	15922.38
809.951	15946.38
810.206	16121.38
810.46	16273.38
810.714	16322.38
810.968	16577.38
811.223	16644.38
811.477	16692.38
811.731	16837.38
811.985	16908.38
812.239	16981.38
812.493	17051.38
812.747	17151.38
813	17167.38
813.254	17277.38
813.508	17344.38
813.762	17402.38
814.015	17448.38
814.269	17588.38
814.522	17786.38
814.776	17924.38
815.03	18208.38
815.283	18401.38
815.536	18636.38
815.79	18993.38
816.043	19281.38
816.296	19541.38
816.55	19702.38
816.803	19934.38
817.056	20144.38
817.309	20361.38
817.562	20543.38
817.815	20704.38
818.068	20836.38
818.321	21109.38
818.574	21283.38
818.827	21577.38
819.079	21844.38
819.332	22223.38
819.585	22475.38
819.838	22765.38
820.09	22792.38
820.343	22972.38
820.595	23124.38
820.848	23207.38
821.1	23318.38
821.353	23286.38
821.605	23353.38
821.857	23231.38
822.11	23081.38
822.362	23084.38
822.614	23017.38
822.866	23079.38
823.118	23087.38
823.37	23052.38
823.622	23235.38
823.874	23294.38
824.126	23338.38
824.378	23387.38
824.63	23396.38
824.882	23579.38
825.134	23351.38
825.385	23438.38
825.637	23345.38
825.888	23323.38
826.14	23329.38
826.392	23130.38
826.643	23004.38
826.895	22909.38
827.146	22856.38
827.397	22708.38
827.649	22691.38
827.9	22668.38
828.151	22796.38
828.402	22811.38
828.653	22889.38
828.905	22989.38
829.156	23019.38
829.407	22933.38
829.658	22854.38
829.909	22927.38
830.159	22976.38
830.41	22840.38
830.661	22664.38
830.912	22542.38
831.162	22367.38
831.413	22372.38
831.664	22464.38
831.914	22441.38
832.165	22348.38
832.415	22248.38
832.666	22283.38
832.916	22260.38
833.167	22222.38
833.417	22316.38
833.667	22090.38
833.917	22089.38
834.168	22080.38
834.418	21955.38
834.668	21823.38
834.918	21815.38
835.168	21791.38
835.418	21612.38
835.668	21574.38
835.918	21492.38
836.167	21563.38
836.417	21465.38
836.667	21348.38
836.917	21452.38
837.166	21334.38
837.416	21406.38
837.666	21354.38
837.915	21367.38
838.165	21215.38
838.414	21116.38
838.663	21046.38
838.913	21052.38
839.162	20963.38
839.411	21053.38
839.661	20883.38
839.91	20912.38
840.159	20860.38
840.408	20916.38
840.657	20859.38
840.906	20810.38
841.155	20834.38
841.404	20755.38
841.653	20826.38
841.902	20685.38
842.15	20843.38
842.399	20934.38
842.648	20793.38
842.897	20719.38
843.145	20670.38
843.394	20441.38
843.642	20434.38
843.891	20313.38
844.139	20193.38
844.388	20057.38
844.636	19891.38
844.884	19935.38
845.133	19906.38
845.381	19849.38
845.629	19911.38
845.877	19843.38
846.125	19748.38
846.373	19763.38
846.621	19615.38
846.869	19627.38
847.117	19629.38
847.365	19471.38
847.613	19308.38
847.861	19257.38
848.108	19295.38
848.356	19296.38
848.604	19199.38
848.851	19137.38
849.099	19276.38
849.346	19140.38
849.594	19340.38
849.841	19366.38
850.089	19269.38
850.336	19400.38
850.583	19396.38
850.831	19292.38
851.078	19199.38
851.325	19073.38
851.572	19162.38
851.819	18909.38
852.066	18620.38
852.313	18375.38
852.56	18242.38
852.807	18201.38
853.054	18187.38
853.301	18155.38
853.548	18154.38
853.794	18281.38
854.041	18211.38
854.288	18252.38
854.534	18431.38
854.781	18520.38
855.028	18239.38
855.274	18310.38
855.52	18313.38
855.767	18126.38
856.013	18171.38
856.26	18432.38
856.506	18030.38
856.752	17863.38
856.998	17916.38
857.244	17962.38
857.49	18151.38
857.736	18148.38
857.982	18151.38
858.228	18071.38
858.474	17886.38
858.72	17747.38
858.966	17601.38
859.212	17425.38
859.458	17368.38
859.703	17142.38
859.949	16882.38
860.195	16848.38
860.44	16809.38
860.686	16693.38
860.931	16718.38
861.177	16497.38
861.422	16477.38
861.667	16438.38
861.913	16370.38
862.158	16403.38
862.403	16570.38
862.648	16546.38
862.893	16540.38
863.138	16545.38
863.384	16382.38
863.629	16417.38
863.873	16395.38
864.118	16427.38
864.363	16266.38
864.608	16236.38
864.853	16166.38
865.098	16121.38
865.342	15996.38
865.587	15977.38
865.832	15964.38
866.076	15920.38
866.321	15756.38
866.565	15745.38
866.81	15675.38
867.054	15604.38
867.298	15587.38
867.543	15568.38
867.787	15539.38
868.031	15483.38
868.275	15457.38
868.519	15413.38
868.764	15416.38
869.008	15362.38
869.252	15337.38
869.496	15342.38
869.739	15255.38
869.983	15368.38
870.227	15313.38
870.471	15233.38
870.715	15419.38
870.958	15766.38
871.202	15240.38
871.446	15333.38
871.689	15217.38
871.933	15346.38
872.176	15351.38
872.42	15272.38
872.663	15141.38
872.906	15163.38
873.15	15245.38
873.393	14980.38
873.636	15050.38
873.879	14881.38
874.122	14759.38
874.366	14536.38
874.609	14432.38
874.852	14254.38
875.095	14255.38
875.337	14162.38
875.58	14086.38
875.823	14104.38
876.066	13999.38
876.309	14032.38
876.551	13805.38
876.794	13800.38
877.037	13796.38
877.279	13691.38
877.522	13749.38
877.764	13734.38
878.007	13760.38
878.249	13686.38
878.491	13603.38
878.734	13687.38
878.976	13690.38
879.218	13520.38
879.46	13439.38
879.702	13418.38
879.945	13318.38
880.187	13157.38
880.429	13084.38
880.671	12986.38
880.912	13031.38
881.154	12935.38
881.396	12797.38
881.638	12865.38
881.88	12863.38
882.121	12768.38
882.363	12802.38
882.605	12822.38
882.846	12698.38
883.088	12740.38
883.329	12674.38
883.571	12705.38
883.812	12849.38
884.053	12988.38
884.295	13224.38
884.536	13354.38
884.777	13236.38
885.018	13167.38
885.259	13155.38
885.5	12990.38
885.742	13246.38
885.982	12898.38
886.223	12810.38
886.464	12750.38
886.705	12594.38
886.946	12509.38
887.187	12351.38
887.428	12217.38
887.668	12112.38
887.909	11912.38
888.15	11771.38
888.39	11761.38
888.631	11670.38
888.871	11568.38
889.111	11487.38
889.352	11394.38
889.592	11282.38
889.833	11138.38
890.073	11198.38
890.313	11179.38
890.553	10971.38
890.793	10956.38
891.033	10836.38
891.273	10761.38
891.513	10742.38
891.753	10769.38
891.993	10744.38
892.233	10856.38
892.473	10839.38
892.713	10763.38
892.952	10714.38
893.192	10754.38
893.432	10726.38
893.671	10731.38
893.911	10709.38
894.15	10653.38
894.39	10451.38
894.629	10505.38
894.869	10389.38
895.108	10379.38
895.347	10261.38
895.587	10324.38
895.826	10215.38
896.065	10144.38
896.304	10250.38
896.543	10288.38
896.782	10122.38
897.021	10081.38
897.26	10079.38
897.499	10016.38
897.738	10023.38
897.977	9899.38
898.216	9847.38
898.454	9734.38
898.693	9687.38
898.932	9635.38
899.17	9686.38
899.409	9531.38
899.647	9546.38
899.886	9520.38
900.124	9564.38
900.363	9519.38
900.601	9570.38
900.839	9575.38
901.078	9637.38
901.316	9617.38
901.554	9661.38
901.792	9738.38
902.03	9593.38
902.268	9640.38
902.506	9723.38
902.744	9592.38
902.982	9497.38
903.22	9390.38
903.458	9315.38
903.695	9181.38
903.933	9038.38
904.171	8879.38
904.409	8819.38
904.646	8747.38
904.884	8588.38
905.121	8562.38
905.359	8437.38
905.596	8362.38
905.833	8273.38
906.071	8217.38
906.308	8278.38
906.545	8236.38
906.783	8160.38
907.02	8169.38
907.257	8062.38
907.494	8039.38
907.731	8027.38
907.968	8120.38
908.205	7968.38
908.442	7941.38
908.679	7907.38
908.915	7837.38
909.152	7780.38
909.389	7670.38
909.626	7630.38
909.862	7615.38
910.099	7595.38
910.335	7594.38
910.572	7457.38
910.808	7507.38
911.045	7423.38
911.281	7390.38
911.518	7460.38
911.754	7321.38
911.99	7304.38
912.226	7288.38
912.463	7192.38
912.699	7181.38
912.935	7130.38
913.171	7095.38
913.407	6938.38
913.643	6968.38
913.879	6890.38
914.114	6800.38
914.35	6759.38
914.586	6730.38
914.822	6659.38
915.057	6629.38
915.293	6503.38
915.529	6490.38
915.764	6557.38
916	6550.38
916.235	6457.38
916.471	6458.38
916.706	6418.38
916.941	6386.38
917.177	6384.38
917.412	6398.38
917.647	6423.38
917.882	6306.38
918.117	6431.38
918.352	6324.38
918.588	6405.38
918.823	6219.38
919.057	6179.38
919.292	6046.38
919.527	6096.38
919.762	6038.38
919.997	6016.38
920.232	5906.38
920.466	5887.38
920.701	5797.38
920.935	5823.38
921.17	5763.38
921.405	5769.38
921.639	5730.38
921.873	5653.38
922.108	5666.38
922.342	5658.38
922.576	5607.38
922.811	5606.38
923.045	5598.38
923.279	5653.38
923.513	5487.38
923.747	5492.38
923.981	5495.38
924.215	5379.38
924.449	5354.38
924.683	5333.38
924.917	5264.38
925.151	5356.38
925.385	5366.38
925.618	5269.38
925.852	5276.38
926.086	5196.38
926.319	5246.38
926.553	5175.38
926.786	5215.38
927.02	5175.38
927.253	5249.38
927.486	5213.38
927.72	5134.38
927.953	5223.38
928.186	5130.38
928.42	5161.38
928.653	5057.38
928.886	5004.38
929.119	5041.38
929.352	5000.38
929.585	4986.38
929.818	4896.38
930.051	4938.38
930.284	4907.38
930.516	4769.38
930.749	4769.38
930.982	4825.38
931.215	4775.38
931.447	4626.38
931.68	4736.38
931.912	4699.38
932.145	4659.38
932.377	4697.38
932.61	4841.38
932.842	4601.38
933.074	4716.38
933.307	4631.38
933.539	4745.38
933.771	4690.38
934.003	4649.38
934.236	4750.38
934.468	4721.38
934.7	4601.38
934.932	4605.38
935.164	4537.38
935.395	4575.38
935.627	4612.38
935.859	4585.38
936.091	4525.38
936.323	4606.38
936.554	4574.38
936.786	4494.38
937.017	4400.38
937.249	4489.38
937.481	4374.38
937.712	4472.38
937.943	4424.38
938.175	4425.38
938.406	4394.38
938.637	4471.38
938.869	4360.38
939.1	4421.38
939.331	4327.38
939.562	4322.38
939.793	4350.38
940.024	4374.38
940.255	4344.38
940.486	4275.38
940.717	4257.38
940.948	4256.38
941.179	4216.38
941.409	4205.38
941.64	4229.38
941.871	4185.38
942.102	4217.38
942.332	4173.38
942.563	4219.38
942.793	4241.38
943.024	4164.38
943.254	4162.38
943.484	4221.38
943.715	4188.38
943.945	4171.38
944.175	4139.38
944.405	4079.38
944.636	4119.38
944.866	4124.38
945.096	4177.38
945.326	4037.38
945.556	4108.38
945.786	4130.38
946.016	4057.38
946.245	3981.38
946.475	3940.38
946.705	4019.38
946.935	3944.38
947.164	3950.38
947.394	3903.38
947.624	3888.38
947.853	3966.38
948.083	3873.38
948.312	3857.38
948.542	3767.38
948.771	3753.38
949	3763.38
949.23	3764.38
949.459	3825.38
949.688	3856.38
949.917	3797.38
950.146	3751.38
950.375	3842.38
950.604	3732.38
950.833	3804.38
951.062	3804.38
951.291	3783.38
951.52	3711.38
951.749	3728.38
951.978	3646.38
952.206	3717.38
952.435	3676.38
952.664	3712.38
952.892	3692.38
953.121	3658.38
953.349	3685.38
953.578	3685.38
953.806	3656.38
954.035	3579.38
954.263	3607.38
954.491	3530.38
954.719	3593.38
954.948	3535.38
955.176	3471.38
955.404	3465.38
955.632	3496.38
955.86	3487.38
956.088	3469.38
956.316	3528.38
956.544	3480.38
956.772	3439.38
956.999	3395.38
957.227	3518.38
957.455	3393.38
957.683	3353.38
957.91	3327.38
958.138	3279.38
958.365	3304.38
958.593	3271.38
958.82	3243.38
959.048	3335.38
959.275	3220.38
959.502	3251.38
959.73	3245.38
959.957	3245.38
960.184	3243.38
960.411	3202.38
960.638	3262.38
960.865	3208.38
961.092	3233.38
961.319	3150.38
961.546	3242.38
961.773	3258.38
962	3175.38
962.227	3190.38
962.454	3131.38
962.68	3148.38
962.907	3161.38
963.134	3124.38
963.36	3120.38
963.587	3117.38
963.813	3040.38
964.04	3068.38
964.266	3039.38
964.493	3071.38
964.719	3030.38
964.945	3036.38
965.171	2947.38
965.398	2964.38
965.624	2984.38
965.85	2910.38
966.076	2906.38
966.302	2968.38
966.528	2909.38
966.754	2950.38
966.98	2910.38
967.206	2904.38
967.431	2810.38
967.657	2923.38
967.883	2863.38
968.109	2922.38
968.334	2838.38
968.56	2806.38
968.785	2839.38
969.011	2777.38
969.236	2840.38
969.462	2785.38
969.687	2795.38
969.912	2829.38
970.138	2839.38
970.363	2729.38
970.588	2771.38
970.813	2723.38
971.038	2738.38
971.263	2706.38
971.488	2723.38
971.713	2770.38
971.938	2765.38
972.163	2624.38
972.388	2659.38
972.613	2631.38
972.838	2654.38
973.062	2636.38
973.287	2592.38
973.512	2552.38
973.736	2584.38
973.961	2601.38
974.185	2571.38
974.41	2572.38
974.634	2494.38
974.858	2516.38
975.083	2515.38
975.307	2559.38
975.531	2466.38
975.755	2403.38
975.98	2425.38
976.204	2420.38
976.428	2356.38
976.652	2379.38
976.876	2340.38
977.1	2400.38
977.324	2324.38
977.547	2387.38
977.771	2389.38
977.995	2369.38
978.219	2278.38
978.442	2432.38
978.666	2348.38
978.89	2354.38
979.113	2332.38
979.337	2302.38
979.56	2271.38
979.783	2395.38
980.007	2246.38
980.23	2299.38
980.453	2255.38
980.677	2303.38
980.9	2256.38
981.123	2151.38
981.346	2249.38
981.569	2262.38
981.792	2243.38
982.015	2200.38
982.238	2183.38
982.461	2156.38
982.684	2141.38
982.907	2141.38
983.129	2068.38
983.352	2134.38
983.575	2150.38
983.797	2143.38
984.02	2052.38
984.242	2115.38
984.465	2068.38
984.687	2134.38
984.91	2155.38
985.132	2112.38
985.354	2095.38
985.577	2090.38
985.799	2080.38
986.021	1971.38
986.243	2036.38
986.465	2021.38
986.687	2074.38
986.909	2050.38
987.131	2048.38
987.353	1981.38
987.575	2031.38
987.797	1972.38
988.019	1930.38
988.241	2002.38
988.462	1937.38
988.684	1986.38
988.906	1998.38
989.127	2035.38
989.349	1946.38
989.57	1947.38
989.792	1967.38
990.013	2022.38
990.234	1983.38
990.456	2020.38
990.677	1970.38
990.898	1948.38
991.119	1935.38
991.341	1951.38
991.562	1882.38
991.783	1924.38
992.004	1867.38
992.225	1839.38
992.446	1880.38
992.667	1812.38
992.887	1859.38
993.108	1760.38
993.329	1916.38
993.55	1809.38
993.77	1752.38
993.991	1784.38
994.212	1828.38
994.432	1785.38
994.653	1796.38
994.873	1790.38
995.093	1662.38
995.314	1715.38
995.534	1796.38
995.754	1805.38
995.975	1800.38
996.195	1699.38
996.415	1753.38
996.635	1742.38
996.855	1771.38
997.075	1734.38
997.295	1732.38
997.515	1686.38
997.735	1756.38
997.955	1710.38
998.174	1675.38
998.394	1646.38
998.614	1702.38
998.834	1679.38
999.053	1745.38
999.273	1702.38
999.492	1771.38
999.712	1696.38
999.931	1649.38
1000.151	1703.38
1000.37	1651.38
1000.589	1728.38
1000.809	1652.38
1001.028	1761.38
1001.247	1687.38
1001.466	1591.38
1001.685	1730.38
1001.904	1637.38
1002.123	1652.38
1002.342	1660.38
1002.561	1620.38
1002.78	1630.38
1002.999	1698.38
1003.218	1652.38
1003.436	1588.38
1003.655	1619.38
1003.874	1570.38
1004.092	1613.38
1004.311	1688.38
1004.53	1602.38
1004.748	1677.38
1004.966	1588.38
1005.185	1625.38
1005.403	1617.38
1005.622	1615.38
1005.84	1661.38
1006.058	1573.38
1006.276	1587.38
1006.494	2086.38
1006.712	1561.38
1006.931	1652.38
1007.149	1570.38
1007.367	1580.38
1007.584	1622.38
1007.802	1632.38
1008.02	1580.38
1008.238	1704.38
1008.456	1674.38
1008.673	1532.38
1008.891	1643.38
1009.109	1609.38
1009.326	1637.38
1009.544	1739.38
1009.761	1658.38
1009.979	1736.38
1010.196	1750.38
1010.413	1852.38
1010.631	1888.38
1010.848	1956.38
1011.065	1908.38
1011.282	1866.38
1011.5	1836.38
1011.717	1921.38
1011.934	1879.38
1012.151	1936.38
1012.368	1867.38
1012.585	1829.38
1012.801	1879.38
1013.018	1827.38
1013.235	1815.38
1013.452	1817.38
1013.669	1825.38
1013.885	1813.38
1014.102	1857.38
1014.318	1816.38
1014.535	1815.38
1014.751	1791.38
1014.968	1800.38
1015.184	1851.38
1015.401	1731.38
1015.617	1758.38
1015.833	1715.38
1016.049	1724.38
1016.266	1671.38
1016.482	1714.38
1016.698	1625.38
1016.914	1695.38
1017.13	1594.38
1017.346	1597.38
1017.562	1680.38
1017.778	1612.38
1017.993	1568.38
1018.209	1644.38
1018.425	1594.38
1018.641	1564.38
1018.856	1554.38
1019.072	1548.38
1019.288	1603.38
1019.503	1560.38
1019.719	1482.38
1019.934	1479.38
1020.149	1552.38
1020.365	1506.38
1020.58	1436.38
1020.795	1490.38
1021.011	1418.38
1021.226	1401.38
1021.441	1399.38
1021.656	1338.38
1021.871	1246.38
1022.086	1258.38
1022.301	1256.38
1022.516	1233.38
1022.731	1301.38
1022.946	1223.38
1023.16	1195.38
1023.375	1177.38
1023.59	1152.38
1023.804	1094.38
1024.019	1188.38
1024.234	1056.38
1024.448	1104.38
1024.663	1008.38
1024.877	1025.38
1025.092	1026.38
1025.306	1049.38
1025.52	974.38
1025.734	1018.38
1025.949	981.38
1026.163	923.38
1026.377	878.38
1026.591	926.38
1026.805	840.38
1027.019	848.38
1027.233	808.38
1027.447	754.38
1027.661	865.38
1027.875	774.38
1028.088	800.38
1028.302	729.38
1028.516	716.38
1028.73	716.38
1028.943	704.38
1029.157	682.38
1029.37	629.38
1029.584	-2.62
1029.797	-3.62
1030.011	-1.62
1030.224	0.38
