Data from QEP037381__54__13-30-11-038.txt Node

Date: Wed Dec 21 13:30:11 EST 2022
User: dcclab
Spectrometer: QEP03738
Trigger mode: 4
Integration Time (sec): 1.000000E1
Scans to average: 1
Electric dark correction enabled: true
Nonlinearity correction enabled: false
Boxcar width: 0
XAxis mode: Wavelengths
Number of Pixels in Spectrum: 1044
>>>>>Begin Spectral Data<<<<<
784.041	12.62
784.3	1.62
784.558	-3.38
784.817	-5.38
785.075	93615.62
785.334	15915.62
785.592	7353.62
785.851	5072.62
786.109	3818.62
786.368	2963.62
786.626	2444.62
786.884	2047.62
787.143	1711.62
787.401	1403.62
787.659	1260.62
787.917	1088.62
788.175	1008.62
788.433	895.62
788.691	796.62
788.949	736.62
789.207	704.62
789.465	616.62
789.723	600.62
789.98	556.62
790.238	584.62
790.496	553.62
790.753	523.62
791.011	560.62
791.268	498.62
791.526	484.62
791.783	519.62
792.041	485.62
792.298	412.62
792.556	471.62
792.813	455.62
793.07	439.62
793.327	431.62
793.584	503.62
793.841	426.62
794.099	441.62
794.356	494.62
794.613	408.62
794.869	447.62
795.126	399.62
795.383	387.62
795.64	411.62
795.897	367.62
796.153	410.62
796.41	397.62
796.667	378.62
796.923	396.62
797.18	390.62
797.436	419.62
797.693	391.62
797.949	435.62
798.206	469.62
798.462	378.62
798.718	422.62
798.974	408.62
799.231	446.62
799.487	423.62
799.743	433.62
799.999	461.62
800.255	430.62
800.511	426.62
800.767	474.62
801.023	453.62
801.279	479.62
801.534	490.62
801.79	527.62
802.046	539.62
802.302	626.62
802.557	674.62
802.813	809.62
803.068	940.62
803.324	1264.62
803.579	1640.62
803.835	2177.62
804.09	2903.62
804.345	3730.62
804.601	4641.62
804.856	5567.62
805.111	6412.62
805.366	7103.62
805.621	7429.62
805.876	7872.62
806.131	8011.62
806.386	8135.62
806.641	8284.62
806.896	8406.62
807.151	8568.62
807.406	8631.62
807.661	8821.62
807.915	9034.62
808.17	9183.62
808.425	9341.62
808.679	9346.62
808.934	9522.62
809.188	9558.62
809.443	9738.62
809.697	9795.62
809.951	9874.62
810.206	9904.62
810.46	10147.62
810.714	10185.62
810.968	10232.62
811.223	10257.62
811.477	10433.62
811.731	10516.62
811.985	10514.62
812.239	10541.62
812.493	10624.62
812.747	10725.62
813	10642.62
813.254	10725.62
813.508	10838.62
813.762	10872.62
814.015	10872.62
814.269	11060.62
814.522	11056.62
814.776	11233.62
815.03	11429.62
815.283	11646.62
815.536	11747.62
815.79	12032.62
816.043	12126.62
816.296	12292.62
816.55	12428.62
816.803	12528.62
817.056	12823.62
817.309	12801.62
817.562	13029.62
817.815	13212.62
818.068	13287.62
818.321	13449.62
818.574	13589.62
818.827	13736.62
819.079	13896.62
819.332	14346.62
819.585	14461.62
819.838	14573.62
820.09	14574.62
820.343	14677.62
820.595	14743.62
820.848	14930.62
821.1	14944.62
821.353	14946.62
821.605	14876.62
821.857	15018.62
822.11	14893.62
822.362	14821.62
822.614	14776.62
822.866	14853.62
823.118	14717.62
823.37	14930.62
823.622	14963.62
823.874	15026.62
824.126	15120.62
824.378	15085.62
824.63	15048.62
824.882	15172.62
825.134	15157.62
825.385	15155.62
825.637	15051.62
825.888	15043.62
826.14	15017.62
826.392	14913.62
826.643	14856.62
826.895	14948.62
827.146	14664.62
827.397	14690.62
827.649	14750.62
827.9	14663.62
828.151	14715.62
828.402	14764.62
828.653	14780.62
828.905	14909.62
829.156	14922.62
829.407	14928.62
829.658	14928.62
829.909	15158.62
830.159	15256.62
830.41	15058.62
830.661	14937.62
830.912	14901.62
831.162	14903.62
831.413	14813.62
831.664	14936.62
831.914	14913.62
832.165	14812.62
832.415	14857.62
832.666	14804.62
832.916	14852.62
833.167	14811.62
833.417	14861.62
833.667	14788.62
833.917	14742.62
834.168	14719.62
834.418	14751.62
834.668	14654.62
834.918	14579.62
835.168	14591.62
835.418	14523.62
835.668	14490.62
835.918	14391.62
836.167	14320.62
836.417	14301.62
836.667	14373.62
836.917	14394.62
837.166	14346.62
837.416	14467.62
837.666	14399.62
837.915	14418.62
838.165	14413.62
838.414	14306.62
838.663	14276.62
838.913	14353.62
839.162	14345.62
839.411	14403.62
839.661	14365.62
839.91	14226.62
840.159	14298.62
840.408	14282.62
840.657	14372.62
840.906	14383.62
841.155	14420.62
841.404	14408.62
841.653	14443.62
841.902	14386.62
842.15	14523.62
842.399	14607.62
842.648	14595.62
842.897	14588.62
843.145	14395.62
843.394	14314.62
843.642	14120.62
843.891	14237.62
844.139	14034.62
844.388	13937.62
844.636	13816.62
844.884	13831.62
845.133	13876.62
845.381	13953.62
845.629	13999.62
845.877	13912.62
846.125	13899.62
846.373	13914.62
846.621	13771.62
846.869	13925.62
847.117	13775.62
847.365	13616.62
847.613	13611.62
847.861	13580.62
848.108	13595.62
848.356	13638.62
848.604	13550.62
848.851	13651.62
849.099	13620.62
849.346	13626.62
849.594	13792.62
849.841	13862.62
850.089	13937.62
850.336	13947.62
850.583	14032.62
850.831	14036.62
851.078	13842.62
851.325	13812.62
851.572	14027.62
851.819	13811.62
852.066	13403.62
852.313	13177.62
852.56	13093.62
852.807	13085.62
853.054	13031.62
853.301	13159.62
853.548	13124.62
853.794	13205.62
854.041	13280.62
854.288	13363.62
854.534	13541.62
854.781	13554.62
855.028	13439.62
855.274	13548.62
855.52	13495.62
855.767	13417.62
856.013	13573.62
856.26	13795.62
856.506	13276.62
856.752	13365.62
856.998	13274.62
857.244	13369.62
857.49	13499.62
857.736	13494.62
857.982	13537.62
858.228	13354.62
858.474	13241.62
858.72	13123.62
858.966	12971.62
859.212	12890.62
859.458	12783.62
859.703	12617.62
859.949	12416.62
860.195	12426.62
860.44	12483.62
860.686	12406.62
860.931	12395.62
861.177	12319.62
861.422	12253.62
861.667	12097.62
861.913	12095.62
862.158	12116.62
862.403	12256.62
862.648	12231.62
862.893	12187.62
863.138	12150.62
863.384	12162.62
863.629	12172.62
863.873	12210.62
864.118	12154.62
864.363	12092.62
864.608	12047.62
864.853	12056.62
865.098	11941.62
865.342	11894.62
865.587	11817.62
865.832	11838.62
866.076	11908.62
866.321	11741.62
866.565	11841.62
866.81	11766.62
867.054	11757.62
867.298	11818.62
867.543	11701.62
867.787	11762.62
868.031	11702.62
868.275	11680.62
868.519	11668.62
868.764	11688.62
869.008	11734.62
869.252	11750.62
869.496	11707.62
869.739	11745.62
869.983	11800.62
870.227	11912.62
870.471	11834.62
870.715	11932.62
870.958	11922.62
871.202	11965.62
871.446	12083.62
871.689	11998.62
871.933	12031.62
872.176	12083.62
872.42	11939.62
872.663	11960.62
872.906	11968.62
873.15	12071.62
873.393	12031.62
873.636	12028.62
873.879	12002.62
874.122	11758.62
874.366	11645.62
874.609	11448.62
874.852	11323.62
875.095	11281.62
875.337	11175.62
875.58	11070.62
875.823	11105.62
876.066	11154.62
876.309	11178.62
876.551	10960.62
876.794	10951.62
877.037	10979.62
877.279	10854.62
877.522	10859.62
877.764	10869.62
878.007	10786.62
878.249	10795.62
878.491	10785.62
878.734	10764.62
878.976	10661.62
879.218	10588.62
879.46	10558.62
879.702	10470.62
879.945	10489.62
880.187	10241.62
880.429	10271.62
880.671	10160.62
880.912	10168.62
881.154	10194.62
881.396	10075.62
881.638	10153.62
881.88	10112.62
882.121	10151.62
882.363	10179.62
882.605	10228.62
882.846	10189.62
883.088	10247.62
883.329	10266.62
883.571	10342.62
883.812	10591.62
884.053	10949.62
884.295	11380.62
884.536	11642.62
884.777	11650.62
885.018	11496.62
885.259	11362.62
885.5	11185.62
885.742	11343.62
885.982	11101.62
886.223	11000.62
886.464	10868.62
886.705	10668.62
886.946	10509.62
887.187	10139.62
887.428	10155.62
887.668	9839.62
887.909	9551.62
888.15	9483.62
888.39	9485.62
888.631	9396.62
888.871	9340.62
889.111	9200.62
889.352	9146.62
889.592	9011.62
889.833	8933.62
890.073	8924.62
890.313	8918.62
890.553	8821.62
890.793	8686.62
891.033	8751.62
891.273	8668.62
891.513	8692.62
891.753	8722.62
891.993	8700.62
892.233	8625.62
892.473	8749.62
892.713	8748.62
892.952	8668.62
893.192	8745.62
893.432	8676.62
893.671	8740.62
893.911	8694.62
894.15	8635.62
894.39	8540.62
894.629	8465.62
894.869	8494.62
895.108	8470.62
895.347	8437.62
895.587	8415.62
895.826	8318.62
896.065	8337.62
896.304	8380.62
896.543	8401.62
896.782	8246.62
897.021	8384.62
897.26	8341.62
897.499	8381.62
897.738	8377.62
897.977	8349.62
898.216	8266.62
898.454	8234.62
898.693	8162.62
898.932	8167.62
899.17	8130.62
899.409	8207.62
899.647	8159.62
899.886	8158.62
900.124	8172.62
900.363	8154.62
900.601	8282.62
900.839	8371.62
901.078	8357.62
901.316	8412.62
901.554	8562.62
901.792	8681.62
902.03	8658.62
902.268	8713.62
902.506	8684.62
902.744	8590.62
902.982	8497.62
903.22	8286.62
903.458	8146.62
903.695	8012.62
903.933	7780.62
904.171	7668.62
904.409	7513.62
904.646	7434.62
904.884	7265.62
905.121	7228.62
905.359	7111.62
905.596	7021.62
905.833	6947.62
906.071	6965.62
906.308	6900.62
906.545	6899.62
906.783	6799.62
907.02	6837.62
907.257	6772.62
907.494	6799.62
907.731	6779.62
907.968	6791.62
908.205	6673.62
908.442	6682.62
908.679	6643.62
908.915	6546.62
909.152	6556.62
909.389	6411.62
909.626	6417.62
909.862	6410.62
910.099	6342.62
910.335	6383.62
910.572	6228.62
910.808	6309.62
911.045	6260.62
911.281	6204.62
911.518	6249.62
911.754	6132.62
911.99	6152.62
912.226	6097.62
912.463	6023.62
912.699	5977.62
912.935	5954.62
913.171	5930.62
913.407	5856.62
913.643	5898.62
913.879	5817.62
914.114	5806.62
914.35	5671.62
914.586	5661.62
914.822	5565.62
915.057	5684.62
915.293	5483.62
915.529	5505.62
915.764	5572.62
916	5521.62
916.235	5507.62
916.471	5528.62
916.706	5433.62
916.941	5485.62
917.177	5449.62
917.412	5480.62
917.647	5495.62
917.882	5428.62
918.117	5437.62
918.352	5456.62
918.588	5474.62
918.823	5298.62
919.057	5339.62
919.292	5203.62
919.527	5287.62
919.762	5154.62
919.997	5202.62
920.232	5079.62
920.466	5121.62
920.701	4994.62
920.935	4998.62
921.17	4946.62
921.405	4907.62
921.639	4993.62
921.873	4891.62
922.108	4902.62
922.342	4954.62
922.576	4856.62
922.811	4847.62
923.045	4899.62
923.279	4924.62
923.513	4728.62
923.747	4816.62
923.981	4737.62
924.215	4720.62
924.449	4672.62
924.683	4611.62
924.917	4631.62
925.151	4650.62
925.385	4693.62
925.618	4663.62
925.852	4636.62
926.086	4521.62
926.319	4622.62
926.553	4610.62
926.786	4602.62
927.02	4540.62
927.253	4610.62
927.486	4573.62
927.72	4506.62
927.953	4590.62
928.186	4569.62
928.42	4570.62
928.653	4485.62
928.886	4442.62
929.119	4497.62
929.352	4464.62
929.585	4433.62
929.818	4358.62
930.051	4410.62
930.284	4366.62
930.516	4261.62
930.749	4288.62
930.982	4341.62
931.215	4249.62
931.447	4178.62
931.68	4185.62
931.912	4162.62
932.145	4182.62
932.377	4236.62
932.61	4320.62
932.842	4174.62
933.074	4202.62
933.307	4133.62
933.539	4273.62
933.771	4241.62
934.003	4163.62
934.236	4269.62
934.468	4197.62
934.7	4177.62
934.932	4187.62
935.164	4190.62
935.395	4116.62
935.627	4199.62
935.859	4140.62
936.091	4053.62
936.323	4135.62
936.554	4152.62
936.786	4084.62
937.017	4078.62
937.249	4052.62
937.481	4006.62
937.712	4080.62
937.943	4047.62
938.175	4005.62
938.406	4000.62
938.637	4063.62
938.869	3961.62
939.1	4005.62
939.331	4013.62
939.562	4002.62
939.793	3935.62
940.024	4001.62
940.255	3972.62
940.486	3917.62
940.717	3953.62
940.948	3892.62
941.179	3902.62
941.409	3889.62
941.64	3864.62
941.871	3880.62
942.102	3814.62
942.332	3854.62
942.563	3874.62
942.793	3866.62
943.024	3843.62
943.254	3838.62
943.484	3904.62
943.715	3854.62
943.945	3856.62
944.175	3838.62
944.405	3803.62
944.636	3801.62
944.866	3787.62
945.096	3820.62
945.326	3774.62
945.556	3808.62
945.786	3791.62
946.016	3742.62
946.245	3718.62
946.475	3720.62
946.705	3691.62
946.935	3690.62
947.164	3671.62
947.394	3604.62
947.624	3609.62
947.853	3701.62
948.083	3642.62
948.312	3613.62
948.542	3535.62
948.771	3535.62
949	3567.62
949.23	3546.62
949.459	3555.62
949.688	3597.62
949.917	3549.62
950.146	3589.62
950.375	3568.62
950.604	3520.62
950.833	3595.62
951.062	3567.62
951.291	3512.62
951.52	3499.62
951.749	3486.62
951.978	3444.62
952.206	3491.62
952.435	3438.62
952.664	3486.62
952.892	3493.62
953.121	3476.62
953.349	3453.62
953.578	3431.62
953.806	3426.62
954.035	3343.62
954.263	3407.62
954.491	3362.62
954.719	3386.62
954.948	3323.62
955.176	3297.62
955.404	3230.62
955.632	3293.62
955.86	3295.62
956.088	3261.62
956.316	3303.62
956.544	3311.62
956.772	3216.62
956.999	3228.62
957.227	3289.62
957.455	3170.62
957.683	3190.62
957.91	3145.62
958.138	3149.62
958.365	3117.62
958.593	3109.62
958.82	3063.62
959.048	3138.62
959.275	3100.62
959.502	3114.62
959.73	3078.62
959.957	3087.62
960.184	3120.62
960.411	3053.62
960.638	3119.62
960.865	3083.62
961.092	3096.62
961.319	2980.62
961.546	3083.62
961.773	3073.62
962	3025.62
962.227	3082.62
962.454	3060.62
962.68	3001.62
962.907	2997.62
963.134	2962.62
963.36	2986.62
963.587	2996.62
963.813	2921.62
964.04	2946.62
964.266	2881.62
964.493	2963.62
964.719	2950.62
964.945	2939.62
965.171	2826.62
965.398	2891.62
965.624	2891.62
965.85	2835.62
966.076	2780.62
966.302	2842.62
966.528	2806.62
966.754	2848.62
966.98	2811.62
967.206	2817.62
967.431	2723.62
967.657	2803.62
967.883	2800.62
968.109	2784.62
968.334	2738.62
968.56	2722.62
968.785	2741.62
969.011	2709.62
969.236	2746.62
969.462	2667.62
969.687	2715.62
969.912	2741.62
970.138	2757.62
970.363	2645.62
970.588	2714.62
970.813	2655.62
971.038	2653.62
971.263	2663.62
971.488	2695.62
971.713	2682.62
971.938	2612.62
972.163	2567.62
972.388	2604.62
972.613	2569.62
972.838	2553.62
973.062	2541.62
973.287	2561.62
973.512	2482.62
973.736	2514.62
973.961	2513.62
974.185	2482.62
974.41	2526.62
974.634	2421.62
974.858	2454.62
975.083	2483.62
975.307	2514.62
975.531	2427.62
975.755	2372.62
975.98	2398.62
976.204	2328.62
976.428	2325.62
976.652	2347.62
976.876	2296.62
977.1	2369.62
977.324	2308.62
977.547	2353.62
977.771	2357.62
977.995	2343.62
978.219	2297.62
978.442	2348.62
978.666	2327.62
978.89	2287.62
979.113	2290.62
979.337	2281.62
979.56	2252.62
979.783	2342.62
980.007	2216.62
980.23	2225.62
980.453	2236.62
980.677	2249.62
980.9	2238.62
981.123	2159.62
981.346	2253.62
981.569	2243.62
981.792	2210.62
982.015	2151.62
982.238	2191.62
982.461	2171.62
982.684	2158.62
982.907	2094.62
983.129	2116.62
983.352	2161.62
983.575	2116.62
983.797	2122.62
984.02	2082.62
984.242	2122.62
984.465	2109.62
984.687	2124.62
984.91	2136.62
985.132	2082.62
985.354	2108.62
985.577	2076.62
985.799	2067.62
986.021	1981.62
986.243	2025.62
986.465	2006.62
986.687	2072.62
986.909	2077.62
987.131	2074.62
987.353	2012.62
987.575	2080.62
987.797	2020.62
988.019	1936.62
988.241	1984.62
988.462	1961.62
988.684	2039.62
988.906	2027.62
989.127	2053.62
989.349	1924.62
989.57	1983.62
989.792	2030.62
990.013	2027.62
990.234	2016.62
990.456	2053.62
990.677	2035.62
990.898	1953.62
991.119	1959.62
991.341	1975.62
991.562	1929.62
991.783	1967.62
992.004	1905.62
992.225	1859.62
992.446	1912.62
992.667	1831.62
992.887	1890.62
993.108	1803.62
993.329	1954.62
993.55	1870.62
993.77	1821.62
993.991	1793.62
994.212	1859.62
994.432	1852.62
994.653	1854.62
994.873	1866.62
995.093	1716.62
995.314	1811.62
995.534	1845.62
995.754	1856.62
995.975	1865.62
996.195	1774.62
996.415	1827.62
996.635	1804.62
996.855	1820.62
997.075	1787.62
997.295	1812.62
997.515	1778.62
997.735	1848.62
997.955	1831.62
998.174	1811.62
998.394	1797.62
998.614	1833.62
998.834	1786.62
999.053	1864.62
999.273	1798.62
999.492	1858.62
999.712	1792.62
999.931	1753.62
1000.151	1795.62
1000.37	1725.62
1000.589	1812.62
1000.809	1693.62
1001.028	1801.62
1001.247	1781.62
1001.466	1661.62
1001.685	1787.62
1001.904	1752.62
1002.123	1701.62
1002.342	1728.62
1002.561	1685.62
1002.78	1737.62
1002.999	1779.62
1003.218	1708.62
1003.436	1694.62
1003.655	1718.62
1003.874	1668.62
1004.092	1660.62
1004.311	1736.62
1004.53	1676.62
1004.748	1761.62
1004.966	1647.62
1005.185	1748.62
1005.403	1694.62
1005.622	1727.62
1005.84	1770.62
1006.058	1666.62
1006.276	1706.62
1006.494	2198.62
1006.712	1723.62
1006.931	1793.62
1007.149	1682.62
1007.367	1696.62
1007.584	1734.62
1007.802	1789.62
1008.02	1773.62
1008.238	1885.62
1008.456	1908.62
1008.673	1749.62
1008.891	1886.62
1009.109	1834.62
1009.326	1944.62
1009.544	2101.62
1009.761	2054.62
1009.979	2164.62
1010.196	2244.62
1010.413	2433.62
1010.631	2516.62
1010.848	2600.62
1011.065	2669.62
1011.282	2615.62
1011.5	2548.62
1011.717	2653.62
1011.934	2570.62
1012.151	2589.62
1012.368	2558.62
1012.585	2527.62
1012.801	2576.62
1013.018	2550.62
1013.235	2549.62
1013.452	2582.62
1013.669	2568.62
1013.885	2600.62
1014.102	2650.62
1014.318	2618.62
1014.535	2562.62
1014.751	2607.62
1014.968	2601.62
1015.184	2581.62
1015.401	2463.62
1015.617	2505.62
1015.833	2484.62
1016.049	2474.62
1016.266	2389.62
1016.482	2431.62
1016.698	2329.62
1016.914	2384.62
1017.13	2279.62
1017.346	2271.62
1017.562	2343.62
1017.778	2275.62
1017.993	2229.62
1018.209	2322.62
1018.425	2257.62
1018.641	2263.62
1018.856	2229.62
1019.072	2249.62
1019.288	2302.62
1019.503	2243.62
1019.719	2129.62
1019.934	2160.62
1020.149	2205.62
1020.365	2095.62
1020.58	2068.62
1020.795	2071.62
1021.011	2011.62
1021.226	1941.62
1021.441	1960.62
1021.656	1829.62
1021.871	1775.62
1022.086	1748.62
1022.301	1715.62
1022.516	1685.62
1022.731	1712.62
1022.946	1628.62
1023.16	1563.62
1023.375	1563.62
1023.59	1502.62
1023.804	1475.62
1024.019	1551.62
1024.234	1385.62
1024.448	1419.62
1024.663	1323.62
1024.877	1349.62
1025.092	1330.62
1025.306	1336.62
1025.52	1238.62
1025.734	1301.62
1025.949	1213.62
1026.163	1170.62
1026.377	1084.62
1026.591	1139.62
1026.805	1029.62
1027.019	1054.62
1027.233	985.62
1027.447	945.62
1027.661	1037.62
1027.875	987.62
1028.088	985.62
1028.302	904.62
1028.516	898.62
1028.73	880.62
1028.943	873.62
1029.157	804.62
1029.37	748.62
1029.584	-1.38
1029.797	-0.38
1030.011	-1.38
1030.224	-2.38
