Data from QEP037381__71__13-33-01-029.txt Node

Date: Wed Dec 21 13:33:01 EST 2022
User: dcclab
Spectrometer: QEP03738
Trigger mode: 4
Integration Time (sec): 1.000000E1
Scans to average: 1
Electric dark correction enabled: true
Nonlinearity correction enabled: false
Boxcar width: 0
XAxis mode: Wavelengths
Number of Pixels in Spectrum: 1044
>>>>>Begin Spectral Data<<<<<
784.041	11.62
784.3	0.62
784.558	-0.38
784.817	-3.38
785.075	98032.62
785.334	16576.62
785.592	7671.62
785.851	5260.62
786.109	3938.62
786.368	3069.62
786.626	2508.62
786.884	2056.62
787.143	1726.62
787.401	1428.62
787.659	1294.62
787.917	1106.62
788.175	1022.62
788.433	886.62
788.691	804.62
788.949	750.62
789.207	733.62
789.465	612.62
789.723	596.62
789.98	538.62
790.238	575.62
790.496	535.62
790.753	528.62
791.011	567.62
791.268	484.62
791.526	490.62
791.783	501.62
792.041	487.62
792.298	402.62
792.556	470.62
792.813	456.62
793.07	427.62
793.327	417.62
793.584	503.62
793.841	423.62
794.099	427.62
794.356	499.62
794.613	398.62
794.869	445.62
795.126	405.62
795.383	392.62
795.64	407.62
795.897	359.62
796.153	410.62
796.41	388.62
796.667	388.62
796.923	389.62
797.18	387.62
797.436	435.62
797.693	380.62
797.949	437.62
798.206	444.62
798.462	371.62
798.718	438.62
798.974	386.62
799.231	441.62
799.487	418.62
799.743	418.62
799.999	448.62
800.255	427.62
800.511	414.62
800.767	459.62
801.023	435.62
801.279	447.62
801.534	478.62
801.79	503.62
802.046	492.62
802.302	590.62
802.557	626.62
802.813	723.62
803.068	808.62
803.324	1111.62
803.579	1404.62
803.835	1841.62
804.09	2492.62
804.345	3170.62
804.601	3939.62
804.856	4747.62
805.111	5430.62
805.366	5894.62
805.621	6348.62
805.876	6580.62
806.131	6695.62
806.386	6781.62
806.641	6947.62
806.896	7046.62
807.151	7175.62
807.406	7196.62
807.661	7390.62
807.915	7505.62
808.17	7660.62
808.425	7755.62
808.679	7749.62
808.934	7895.62
809.188	7910.62
809.443	8081.62
809.697	8250.62
809.951	8227.62
810.206	8282.62
810.46	8391.62
810.714	8484.62
810.968	8607.62
811.223	8568.62
811.477	8699.62
811.731	8797.62
811.985	8845.62
812.239	8792.62
812.493	8807.62
812.747	8924.62
813	8903.62
813.254	8986.62
813.508	9042.62
813.762	9033.62
814.015	9092.62
814.269	9165.62
814.522	9270.62
814.776	9371.62
815.03	9461.62
815.283	9642.62
815.536	9807.62
815.79	9908.62
816.043	10129.62
816.296	10214.62
816.55	10318.62
816.803	10440.62
817.056	10601.62
817.309	10643.62
817.562	10790.62
817.815	10986.62
818.068	10953.62
818.321	10981.62
818.574	11118.62
818.827	11369.62
819.079	11530.62
819.332	11825.62
819.585	11958.62
819.838	12141.62
820.09	12078.62
820.343	12194.62
820.595	12130.62
820.848	12298.62
821.1	12408.62
821.353	12351.62
821.605	12351.62
821.857	12299.62
822.11	12216.62
822.362	12277.62
822.614	12182.62
822.866	12226.62
823.118	12197.62
823.37	12380.62
823.622	12390.62
823.874	12402.62
824.126	12538.62
824.378	12389.62
824.63	12482.62
824.882	12514.62
825.134	12572.62
825.385	12563.62
825.637	12320.62
825.888	12428.62
826.14	12406.62
826.392	12308.62
826.643	12323.62
826.895	12208.62
827.146	12138.62
827.397	12102.62
827.649	12262.62
827.9	12166.62
828.151	12166.62
828.402	12262.62
828.653	12285.62
828.905	12308.62
829.156	12347.62
829.407	12383.62
829.658	12387.62
829.909	12535.62
830.159	12585.62
830.41	12578.62
830.661	12407.62
830.912	12305.62
831.162	12325.62
831.413	12316.62
831.664	12388.62
831.914	12372.62
832.165	12297.62
832.415	12273.62
832.666	12224.62
832.916	12363.62
833.167	12221.62
833.417	12309.62
833.667	12210.62
833.917	12156.62
834.168	12319.62
834.418	12176.62
834.668	12201.62
834.918	12143.62
835.168	12102.62
835.418	11996.62
835.668	11989.62
835.918	11937.62
836.167	11928.62
836.417	11860.62
836.667	11896.62
836.917	11905.62
837.166	11933.62
837.416	11987.62
837.666	11978.62
837.915	11951.62
838.165	11981.62
838.414	11875.62
838.663	11908.62
838.913	11963.62
839.162	11848.62
839.411	12058.62
839.661	11916.62
839.91	12008.62
840.159	11867.62
840.408	11916.62
840.657	11985.62
840.906	12000.62
841.155	11992.62
841.404	11983.62
841.653	12056.62
841.902	12020.62
842.15	12085.62
842.399	12098.62
842.648	12101.62
842.897	12040.62
843.145	11892.62
843.394	11814.62
843.642	11800.62
843.891	11797.62
844.139	11631.62
844.388	11540.62
844.636	11510.62
844.884	11515.62
845.133	11566.62
845.381	11586.62
845.629	11605.62
845.877	11637.62
846.125	11671.62
846.373	11530.62
846.621	11558.62
846.869	11507.62
847.117	11468.62
847.365	11377.62
847.613	11372.62
847.861	11378.62
848.108	11414.62
848.356	11358.62
848.604	11345.62
848.851	11498.62
849.099	11485.62
849.346	11422.62
849.594	11558.62
849.841	11587.62
850.089	11635.62
850.336	11678.62
850.583	11728.62
850.831	11742.62
851.078	11668.62
851.325	11605.62
851.572	11695.62
851.819	11619.62
852.066	11214.62
852.313	11112.62
852.56	10937.62
852.807	10942.62
853.054	10951.62
853.301	10938.62
853.548	10980.62
853.794	11139.62
854.041	11154.62
854.288	11172.62
854.534	11385.62
854.781	11347.62
855.028	11289.62
855.274	11393.62
855.52	11295.62
855.767	11287.62
856.013	11349.62
856.26	11616.62
856.506	11155.62
856.752	11241.62
856.998	11154.62
857.244	11201.62
857.49	11366.62
857.736	11422.62
857.982	11338.62
858.228	11209.62
858.474	11133.62
858.72	10996.62
858.966	10886.62
859.212	10777.62
859.458	10711.62
859.703	10572.62
859.949	10437.62
860.195	10531.62
860.44	10495.62
860.686	10401.62
860.931	10460.62
861.177	10349.62
861.422	10260.62
861.667	10164.62
861.913	10119.62
862.158	10123.62
862.403	10206.62
862.648	10249.62
862.893	10212.62
863.138	10217.62
863.384	10115.62
863.629	10240.62
863.873	10184.62
864.118	10220.62
864.363	10124.62
864.608	10119.62
864.853	10065.62
865.098	10013.62
865.342	10000.62
865.587	9894.62
865.832	9924.62
866.076	9951.62
866.321	9847.62
866.565	9856.62
866.81	9785.62
867.054	9881.62
867.298	9852.62
867.543	9791.62
867.787	9909.62
868.031	9814.62
868.275	9756.62
868.519	9803.62
868.764	9837.62
869.008	9806.62
869.252	9890.62
869.496	9902.62
869.739	9894.62
869.983	9988.62
870.227	10003.62
870.471	9975.62
870.715	10140.62
870.958	10148.62
871.202	10100.62
871.446	10219.62
871.689	10236.62
871.933	10241.62
872.176	10144.62
872.42	10153.62
872.663	10042.62
872.906	10206.62
873.15	10204.62
873.393	10183.62
873.636	10203.62
873.879	10199.62
874.122	10000.62
874.366	9860.62
874.609	9738.62
874.852	9656.62
875.095	9596.62
875.337	9523.62
875.58	9392.62
875.823	9414.62
876.066	9417.62
876.309	9439.62
876.551	9303.62
876.794	9252.62
877.037	9248.62
877.279	9132.62
877.522	9151.62
877.764	9193.62
878.007	9104.62
878.249	9123.62
878.491	9042.62
878.734	9094.62
878.976	9028.62
879.218	8928.62
879.46	8999.62
879.702	8808.62
879.945	8770.62
880.187	8690.62
880.429	8582.62
880.671	8652.62
880.912	8647.62
881.154	8594.62
881.396	8466.62
881.638	8555.62
881.88	8614.62
882.121	8567.62
882.363	8513.62
882.605	8663.62
882.846	8646.62
883.088	8653.62
883.329	8660.62
883.571	8814.62
883.812	9038.62
884.053	9465.62
884.295	9801.62
884.536	10062.62
884.777	9896.62
885.018	9926.62
885.259	9865.62
885.5	9772.62
885.742	9836.62
885.982	9519.62
886.223	9436.62
886.464	9387.62
886.705	9122.62
886.946	8994.62
887.187	8652.62
887.428	8613.62
887.668	8315.62
887.909	8193.62
888.15	8052.62
888.39	8000.62
888.631	7977.62
888.871	7820.62
889.111	7848.62
889.352	7730.62
889.592	7638.62
889.833	7557.62
890.073	7526.62
890.313	7478.62
890.553	7373.62
890.793	7385.62
891.033	7402.62
891.273	7257.62
891.513	7300.62
891.753	7335.62
891.993	7255.62
892.233	7299.62
892.473	7361.62
892.713	7347.62
892.952	7362.62
893.192	7399.62
893.432	7328.62
893.671	7351.62
893.911	7372.62
894.15	7291.62
894.39	7179.62
894.629	7192.62
894.869	7163.62
895.108	7157.62
895.347	7078.62
895.587	7207.62
895.826	7109.62
896.065	7069.62
896.304	7151.62
896.543	7194.62
896.782	7061.62
897.021	7073.62
897.26	7039.62
897.499	7193.62
897.738	7179.62
897.977	7055.62
898.216	7050.62
898.454	6991.62
898.693	6925.62
898.932	6963.62
899.17	6947.62
899.409	6872.62
899.647	6939.62
899.886	6902.62
900.124	6999.62
900.363	6973.62
900.601	7029.62
900.839	7089.62
901.078	7174.62
901.316	7271.62
901.554	7405.62
901.792	7438.62
902.03	7424.62
902.268	7508.62
902.506	7522.62
902.744	7397.62
902.982	7389.62
903.22	7162.62
903.458	6944.62
903.695	6873.62
903.933	6719.62
904.171	6553.62
904.409	6410.62
904.646	6343.62
904.884	6210.62
905.121	6185.62
905.359	6043.62
905.596	6022.62
905.833	5941.62
906.071	5921.62
906.308	5887.62
906.545	5885.62
906.783	5799.62
907.02	5812.62
907.257	5750.62
907.494	5793.62
907.731	5750.62
907.968	5754.62
908.205	5740.62
908.442	5640.62
908.679	5677.62
908.915	5602.62
909.152	5529.62
909.389	5487.62
909.626	5417.62
909.862	5375.62
910.099	5392.62
910.335	5446.62
910.572	5313.62
910.808	5354.62
911.045	5297.62
911.281	5292.62
911.518	5300.62
911.754	5226.62
911.99	5211.62
912.226	5157.62
912.463	5168.62
912.699	5097.62
912.935	5103.62
913.171	5047.62
913.407	4952.62
913.643	5016.62
913.879	4937.62
914.114	4882.62
914.35	4827.62
914.586	4862.62
914.822	4773.62
915.057	4819.62
915.293	4698.62
915.529	4695.62
915.764	4761.62
916	4726.62
916.235	4704.62
916.471	4700.62
916.706	4642.62
916.941	4614.62
917.177	4674.62
917.412	4702.62
917.647	4680.62
917.882	4605.62
918.117	4684.62
918.352	4641.62
918.588	4652.62
918.823	4568.62
919.057	4505.62
919.292	4421.62
919.527	4504.62
919.762	4402.62
919.997	4441.62
920.232	4319.62
920.466	4382.62
920.701	4232.62
920.935	4290.62
921.17	4253.62
921.405	4213.62
921.639	4277.62
921.873	4221.62
922.108	4194.62
922.342	4185.62
922.576	4106.62
922.811	4154.62
923.045	4178.62
923.279	4211.62
923.513	4028.62
923.747	4120.62
923.981	4105.62
924.215	4008.62
924.449	4027.62
924.683	3960.62
924.917	3963.62
925.151	3953.62
925.385	3999.62
925.618	3949.62
925.852	3920.62
926.086	3883.62
926.319	3987.62
926.553	3944.62
926.786	3952.62
927.02	3939.62
927.253	3922.62
927.486	3925.62
927.72	3909.62
927.953	3944.62
928.186	3917.62
928.42	3873.62
928.653	3822.62
928.886	3806.62
929.119	3877.62
929.352	3849.62
929.585	3794.62
929.818	3744.62
930.051	3781.62
930.284	3776.62
930.516	3648.62
930.749	3692.62
930.982	3709.62
931.215	3672.62
931.447	3617.62
931.68	3627.62
931.912	3578.62
932.145	3612.62
932.377	3637.62
932.61	3771.62
932.842	3619.62
933.074	3642.62
933.307	3558.62
933.539	3641.62
933.771	3656.62
934.003	3613.62
934.236	3654.62
934.468	3670.62
934.7	3637.62
934.932	3638.62
935.164	3601.62
935.395	3549.62
935.627	3595.62
935.859	3585.62
936.091	3502.62
936.323	3563.62
936.554	3613.62
936.786	3535.62
937.017	3503.62
937.249	3549.62
937.481	3457.62
937.712	3543.62
937.943	3509.62
938.175	3486.62
938.406	3468.62
938.637	3527.62
938.869	3449.62
939.1	3473.62
939.331	3432.62
939.562	3472.62
939.793	3469.62
940.024	3459.62
940.255	3420.62
940.486	3386.62
940.717	3418.62
940.948	3390.62
941.179	3333.62
941.409	3345.62
941.64	3342.62
941.871	3384.62
942.102	3342.62
942.332	3378.62
942.563	3400.62
942.793	3377.62
943.024	3324.62
943.254	3339.62
943.484	3407.62
943.715	3444.62
943.945	3404.62
944.175	3313.62
944.405	3286.62
944.636	3293.62
944.866	3344.62
945.096	3349.62
945.326	3271.62
945.556	3353.62
945.786	3325.62
946.016	3325.62
946.245	3205.62
946.475	3225.62
946.705	3200.62
946.935	3236.62
947.164	3202.62
947.394	3190.62
947.624	3183.62
947.853	3241.62
948.083	3220.62
948.312	3152.62
948.542	3090.62
948.771	3042.62
949	3081.62
949.23	3107.62
949.459	3097.62
949.688	3187.62
949.917	3118.62
950.146	3119.62
950.375	3170.62
950.604	3060.62
950.833	3152.62
951.062	3172.62
951.291	3088.62
951.52	3032.62
951.749	3074.62
951.978	3017.62
952.206	3050.62
952.435	3032.62
952.664	3043.62
952.892	3071.62
953.121	3049.62
953.349	3032.62
953.578	3079.62
953.806	3008.62
954.035	2920.62
954.263	2936.62
954.491	2926.62
954.719	2936.62
954.948	2918.62
955.176	2926.62
955.404	2836.62
955.632	2881.62
955.86	2921.62
956.088	2894.62
956.316	2869.62
956.544	2906.62
956.772	2867.62
956.999	2809.62
957.227	2907.62
957.455	2762.62
957.683	2794.62
957.91	2740.62
958.138	2734.62
958.365	2778.62
958.593	2793.62
958.82	2697.62
959.048	2756.62
959.275	2720.62
959.502	2682.62
959.73	2672.62
959.957	2740.62
960.184	2765.62
960.411	2690.62
960.638	2744.62
960.865	2667.62
961.092	2708.62
961.319	2602.62
961.546	2718.62
961.773	2721.62
962	2669.62
962.227	2743.62
962.454	2659.62
962.68	2632.62
962.907	2685.62
963.134	2602.62
963.36	2665.62
963.587	2642.62
963.813	2581.62
964.04	2613.62
964.266	2528.62
964.493	2642.62
964.719	2602.62
964.945	2584.62
965.171	2483.62
965.398	2563.62
965.624	2545.62
965.85	2490.62
966.076	2477.62
966.302	2522.62
966.528	2530.62
966.754	2509.62
966.98	2495.62
967.206	2485.62
967.431	2423.62
967.657	2505.62
967.883	2504.62
968.109	2477.62
968.334	2422.62
968.56	2425.62
968.785	2405.62
969.011	2424.62
969.236	2445.62
969.462	2386.62
969.687	2408.62
969.912	2458.62
970.138	2418.62
970.363	2381.62
970.588	2390.62
970.813	2367.62
971.038	2347.62
971.263	2340.62
971.488	2396.62
971.713	2413.62
971.938	2360.62
972.163	2286.62
972.388	2312.62
972.613	2287.62
972.838	2282.62
973.062	2295.62
973.287	2282.62
973.512	2213.62
973.736	2273.62
973.961	2233.62
974.185	2242.62
974.41	2265.62
974.634	2188.62
974.858	2175.62
975.083	2230.62
975.307	2232.62
975.531	2184.62
975.755	2081.62
975.98	2158.62
976.204	2090.62
976.428	2081.62
976.652	2071.62
976.876	2102.62
977.1	2084.62
977.324	2070.62
977.547	2099.62
977.771	2104.62
977.995	2094.62
978.219	2025.62
978.442	2141.62
978.666	2062.62
978.89	2055.62
979.113	2034.62
979.337	2069.62
979.56	2019.62
979.783	2126.62
980.007	2009.62
980.23	2034.62
980.453	1980.62
980.677	2015.62
980.9	1997.62
981.123	1926.62
981.346	2014.62
981.569	2008.62
981.792	2003.62
982.015	1963.62
982.238	1938.62
982.461	1977.62
982.684	1958.62
982.907	1920.62
983.129	1926.62
983.352	1936.62
983.575	1894.62
983.797	1937.62
984.02	1883.62
984.242	1874.62
984.465	1880.62
984.687	1928.62
984.91	1944.62
985.132	1916.62
985.354	1931.62
985.577	1925.62
985.799	1874.62
986.021	1810.62
986.243	1828.62
986.465	1845.62
986.687	1896.62
986.909	1929.62
987.131	1869.62
987.353	1810.62
987.575	1875.62
987.797	1819.62
988.019	1782.62
988.241	1826.62
988.462	1784.62
988.684	1866.62
988.906	1871.62
989.127	1885.62
989.349	1749.62
989.57	1801.62
989.792	1842.62
990.013	1866.62
990.234	1863.62
990.456	1840.62
990.677	1870.62
990.898	1774.62
991.119	1790.62
991.341	1791.62
991.562	1765.62
991.783	1836.62
992.004	1728.62
992.225	1702.62
992.446	1765.62
992.667	1686.62
992.887	1779.62
993.108	1682.62
993.329	1791.62
993.55	1774.62
993.77	1663.62
993.991	1698.62
994.212	1724.62
994.432	1702.62
994.653	1716.62
994.873	1687.62
995.093	1594.62
995.314	1654.62
995.534	1708.62
995.754	1724.62
995.975	1756.62
996.195	1666.62
996.415	1716.62
996.635	1710.62
996.855	1700.62
997.075	1712.62
997.295	1678.62
997.515	1686.62
997.735	1725.62
997.955	1690.62
998.174	1689.62
998.394	1645.62
998.614	1705.62
998.834	1639.62
999.053	1691.62
999.273	1648.62
999.492	1728.62
999.712	1682.62
999.931	1622.62
1000.151	1654.62
1000.37	1638.62
1000.589	1680.62
1000.809	1615.62
1001.028	1720.62
1001.247	1647.62
1001.466	1551.62
1001.685	1675.62
1001.904	1656.62
1002.123	1609.62
1002.342	1637.62
1002.561	1557.62
1002.78	1565.62
1002.999	1656.62
1003.218	1577.62
1003.436	1563.62
1003.655	1590.62
1003.874	1550.62
1004.092	1589.62
1004.311	1620.62
1004.53	1605.62
1004.748	1625.62
1004.966	1593.62
1005.185	1631.62
1005.403	1647.62
1005.622	1593.62
1005.84	1698.62
1006.058	1586.62
1006.276	1605.62
1006.494	2092.62
1006.712	1620.62
1006.931	1700.62
1007.149	1623.62
1007.367	1628.62
1007.584	1663.62
1007.802	1729.62
1008.02	1717.62
1008.238	1778.62
1008.456	1796.62
1008.673	1734.62
1008.891	1830.62
1009.109	1811.62
1009.326	1886.62
1009.544	2028.62
1009.761	1986.62
1009.979	2125.62
1010.196	2172.62
1010.413	2374.62
1010.631	2500.62
1010.848	2588.62
1011.065	2645.62
1011.282	2612.62
1011.5	2553.62
1011.717	2641.62
1011.934	2599.62
1012.151	2583.62
1012.368	2551.62
1012.585	2497.62
1012.801	2565.62
1013.018	2573.62
1013.235	2546.62
1013.452	2565.62
1013.669	2576.62
1013.885	2579.62
1014.102	2668.62
1014.318	2597.62
1014.535	2596.62
1014.751	2627.62
1014.968	2586.62
1015.184	2605.62
1015.401	2515.62
1015.617	2517.62
1015.833	2461.62
1016.049	2456.62
1016.266	2441.62
1016.482	2427.62
1016.698	2357.62
1016.914	2376.62
1017.13	2319.62
1017.346	2313.62
1017.562	2366.62
1017.778	2277.62
1017.993	2253.62
1018.209	2313.62
1018.425	2293.62
1018.641	2239.62
1018.856	2209.62
1019.072	2293.62
1019.288	2318.62
1019.503	2263.62
1019.719	2204.62
1019.934	2217.62
1020.149	2270.62
1020.365	2178.62
1020.58	2082.62
1020.795	2091.62
1021.011	2028.62
1021.226	1965.62
1021.441	1957.62
1021.656	1848.62
1021.871	1770.62
1022.086	1763.62
1022.301	1735.62
1022.516	1677.62
1022.731	1734.62
1022.946	1633.62
1023.16	1595.62
1023.375	1524.62
1023.59	1521.62
1023.804	1474.62
1024.019	1563.62
1024.234	1403.62
1024.448	1383.62
1024.663	1333.62
1024.877	1324.62
1025.092	1331.62
1025.306	1323.62
1025.52	1213.62
1025.734	1314.62
1025.949	1191.62
1026.163	1145.62
1026.377	1088.62
1026.591	1128.62
1026.805	1047.62
1027.019	1049.62
1027.233	1012.62
1027.447	943.62
1027.661	1070.62
1027.875	972.62
1028.088	982.62
1028.302	894.62
1028.516	876.62
1028.73	882.62
1028.943	853.62
1029.157	812.62
1029.37	746.62
1029.584	-3.38
1029.797	-3.38
1030.011	0.62
1030.224	-2.38
