Data from QEP037381__70__13-32-51-029.txt Node

Date: Wed Dec 21 13:32:51 EST 2022
User: dcclab
Spectrometer: QEP03738
Trigger mode: 4
Integration Time (sec): 1.000000E1
Scans to average: 1
Electric dark correction enabled: true
Nonlinearity correction enabled: false
Boxcar width: 0
XAxis mode: Wavelengths
Number of Pixels in Spectrum: 1044
>>>>>Begin Spectral Data<<<<<
784.041	13.12
784.3	-0.88
784.558	-1.88
784.817	-1.88
785.075	95170.12
785.334	16102.12
785.592	7362.12
785.851	5083.12
786.109	3887.12
786.368	3001.12
786.626	2399.12
786.884	1987.12
787.143	1703.12
787.401	1379.12
787.659	1254.12
787.917	1092.12
788.175	990.12
788.433	871.12
788.691	782.12
788.949	742.12
789.207	708.12
789.465	605.12
789.723	585.12
789.98	551.12
790.238	577.12
790.496	553.12
790.753	525.12
791.011	567.12
791.268	506.12
791.526	492.12
791.783	502.12
792.041	490.12
792.298	415.12
792.556	478.12
792.813	455.12
793.07	432.12
793.327	422.12
793.584	510.12
793.841	427.12
794.099	432.12
794.356	487.12
794.613	409.12
794.869	437.12
795.126	376.12
795.383	380.12
795.64	409.12
795.897	358.12
796.153	424.12
796.41	397.12
796.667	383.12
796.923	388.12
797.18	376.12
797.436	412.12
797.693	367.12
797.949	416.12
798.206	446.12
798.462	373.12
798.718	429.12
798.974	400.12
799.231	425.12
799.487	435.12
799.743	418.12
799.999	448.12
800.255	426.12
800.511	398.12
800.767	469.12
801.023	440.12
801.279	456.12
801.534	472.12
801.79	498.12
802.046	485.12
802.302	593.12
802.557	626.12
802.813	729.12
803.068	807.12
803.324	1063.12
803.579	1386.12
803.835	1798.12
804.09	2487.12
804.345	3157.12
804.601	3833.12
804.856	4697.12
805.111	5362.12
805.366	5883.12
805.621	6277.12
805.876	6549.12
806.131	6649.12
806.386	6820.12
806.641	6925.12
806.896	7032.12
807.151	7197.12
807.406	7345.12
807.661	7382.12
807.915	7508.12
808.17	7612.12
808.425	7735.12
808.679	7781.12
808.934	7930.12
809.188	7925.12
809.443	8020.12
809.697	8192.12
809.951	8160.12
810.206	8282.12
810.46	8355.12
810.714	8462.12
810.968	8541.12
811.223	8581.12
811.477	8716.12
811.731	8762.12
811.985	8788.12
812.239	8742.12
812.493	8784.12
812.747	8894.12
813	8768.12
813.254	8943.12
813.508	8993.12
813.762	8995.12
814.015	9081.12
814.269	9143.12
814.522	9256.12
814.776	9344.12
815.03	9501.12
815.283	9616.12
815.536	9769.12
815.79	9969.12
816.043	10028.12
816.296	10112.12
816.55	10272.12
816.803	10453.12
817.056	10597.12
817.309	10703.12
817.562	10810.12
817.815	10982.12
818.068	11015.12
818.321	11100.12
818.574	11197.12
818.827	11406.12
819.079	11567.12
819.332	11731.12
819.585	11958.12
819.838	12157.12
820.09	12143.12
820.343	12161.12
820.595	12136.12
820.848	12338.12
821.1	12384.12
821.353	12303.12
821.605	12298.12
821.857	12345.12
822.11	12241.12
822.362	12181.12
822.614	12125.12
822.866	12203.12
823.118	12212.12
823.37	12352.12
823.622	12365.12
823.874	12376.12
824.126	12457.12
824.378	12536.12
824.63	12513.12
824.882	12542.12
825.134	12477.12
825.385	12422.12
825.637	12439.12
825.888	12351.12
826.14	12293.12
826.392	12295.12
826.643	12263.12
826.895	12266.12
827.146	12098.12
827.397	12174.12
827.649	12157.12
827.9	12124.12
828.151	12069.12
828.402	12170.12
828.653	12196.12
828.905	12252.12
829.156	12279.12
829.407	12266.12
829.658	12356.12
829.909	12498.12
830.159	12591.12
830.41	12486.12
830.661	12367.12
830.912	12221.12
831.162	12250.12
831.413	12256.12
831.664	12356.12
831.914	12265.12
832.165	12230.12
832.415	12153.12
832.666	12226.12
832.916	12234.12
833.167	12202.12
833.417	12300.12
833.667	12168.12
833.917	12206.12
834.168	12147.12
834.418	12200.12
834.668	12077.12
834.918	11970.12
835.168	12044.12
835.418	11846.12
835.668	11955.12
835.918	11970.12
836.167	11783.12
836.417	11797.12
836.667	11933.12
836.917	11905.12
837.166	11859.12
837.416	11870.12
837.666	11981.12
837.915	11881.12
838.165	11866.12
838.414	11773.12
838.663	11799.12
838.913	11855.12
839.162	11830.12
839.411	11916.12
839.661	11810.12
839.91	11821.12
840.159	11859.12
840.408	11916.12
840.657	11822.12
840.906	11969.12
841.155	11908.12
841.404	11899.12
841.653	11897.12
841.902	11885.12
842.15	11977.12
842.399	12007.12
842.648	12076.12
842.897	11947.12
843.145	11914.12
843.394	11836.12
843.642	11637.12
843.891	11690.12
844.139	11580.12
844.388	11520.12
844.636	11393.12
844.884	11479.12
845.133	11501.12
845.381	11478.12
845.629	11518.12
845.877	11515.12
846.125	11494.12
846.373	11511.12
846.621	11443.12
846.869	11406.12
847.117	11396.12
847.365	11341.12
847.613	11290.12
847.861	11272.12
848.108	11327.12
848.356	11264.12
848.604	11229.12
848.851	11324.12
849.099	11288.12
849.346	11245.12
849.594	11457.12
849.841	11483.12
850.089	11514.12
850.336	11617.12
850.583	11694.12
850.831	11591.12
851.078	11532.12
851.325	11505.12
851.572	11622.12
851.819	11462.12
852.066	11145.12
852.313	11037.12
852.56	10924.12
852.807	10882.12
853.054	10839.12
853.301	10832.12
853.548	10891.12
853.794	11107.12
854.041	11064.12
854.288	11053.12
854.534	11269.12
854.781	11255.12
855.028	11142.12
855.274	11232.12
855.52	11150.12
855.767	11169.12
856.013	11263.12
856.26	11563.12
856.506	11144.12
856.752	11095.12
856.998	11078.12
857.244	11145.12
857.49	11218.12
857.736	11271.12
857.982	11188.12
858.228	11155.12
858.474	11025.12
858.72	10915.12
858.966	10815.12
859.212	10627.12
859.458	10557.12
859.703	10454.12
859.949	10383.12
860.195	10311.12
860.44	10368.12
860.686	10254.12
860.931	10331.12
861.177	10180.12
861.422	10113.12
861.667	9947.12
861.913	10008.12
862.158	9929.12
862.403	10010.12
862.648	10116.12
862.893	10107.12
863.138	10075.12
863.384	9989.12
863.629	10128.12
863.873	10017.12
864.118	9980.12
864.363	9926.12
864.608	9990.12
864.853	9952.12
865.098	9863.12
865.342	9826.12
865.587	9748.12
865.832	9859.12
866.076	9824.12
866.321	9811.12
866.565	9769.12
866.81	9665.12
867.054	9692.12
867.298	9663.12
867.543	9667.12
867.787	9664.12
868.031	9664.12
868.275	9635.12
868.519	9734.12
868.764	9736.12
869.008	9699.12
869.252	9777.12
869.496	9779.12
869.739	9690.12
869.983	9830.12
870.227	9905.12
870.471	9877.12
870.715	9981.12
870.958	9996.12
871.202	10073.12
871.446	9999.12
871.689	10071.12
871.933	10084.12
872.176	10092.12
872.42	10032.12
872.663	9892.12
872.906	10038.12
873.15	10004.12
873.393	10095.12
873.636	10159.12
873.879	10044.12
874.122	9913.12
874.366	9644.12
874.609	9615.12
874.852	9513.12
875.095	9434.12
875.337	9336.12
875.58	9275.12
875.823	9255.12
876.066	9269.12
876.309	9248.12
876.551	9158.12
876.794	9056.12
877.037	9112.12
877.279	8949.12
877.522	9003.12
877.764	9027.12
878.007	8997.12
878.249	8982.12
878.491	8822.12
878.734	8972.12
878.976	8819.12
879.218	8787.12
879.46	8834.12
879.702	8746.12
879.945	8596.12
880.187	8519.12
880.429	8490.12
880.671	8430.12
880.912	8434.12
881.154	8377.12
881.396	8396.12
881.638	8361.12
881.88	8356.12
882.121	8416.12
882.363	8405.12
882.605	8502.12
882.846	8408.12
883.088	8521.12
883.329	8570.12
883.571	8661.12
883.812	8929.12
884.053	9354.12
884.295	9649.12
884.536	9933.12
884.777	9923.12
885.018	9838.12
885.259	9650.12
885.5	9531.12
885.742	9705.12
885.982	9495.12
886.223	9257.12
886.464	9099.12
886.705	9008.12
886.946	8841.12
887.187	8522.12
887.428	8431.12
887.668	8202.12
887.909	7964.12
888.15	7909.12
888.39	7860.12
888.631	7822.12
888.871	7737.12
889.111	7631.12
889.352	7537.12
889.592	7434.12
889.833	7430.12
890.073	7367.12
890.313	7417.12
890.553	7171.12
890.793	7202.12
891.033	7183.12
891.273	7218.12
891.513	7088.12
891.753	7169.12
891.993	7095.12
892.233	7115.12
892.473	7219.12
892.713	7131.12
892.952	7124.12
893.192	7196.12
893.432	7209.12
893.671	7207.12
893.911	7172.12
894.15	7135.12
894.39	7034.12
894.629	6979.12
894.869	7065.12
895.108	6976.12
895.347	6907.12
895.587	6956.12
895.826	6893.12
896.065	6888.12
896.304	6935.12
896.543	6986.12
896.782	6851.12
897.021	6926.12
897.26	6899.12
897.499	6988.12
897.738	6957.12
897.977	6888.12
898.216	6856.12
898.454	6784.12
898.693	6780.12
898.932	6819.12
899.17	6791.12
899.409	6779.12
899.647	6720.12
899.886	6715.12
900.124	6850.12
900.363	6816.12
900.601	6895.12
900.839	7004.12
901.078	6999.12
901.316	7131.12
901.554	7156.12
901.792	7305.12
902.03	7290.12
902.268	7308.12
902.506	7352.12
902.744	7280.12
902.982	7184.12
903.22	6948.12
903.458	6821.12
903.695	6663.12
903.933	6505.12
904.171	6396.12
904.409	6215.12
904.646	6180.12
904.884	6027.12
905.121	6033.12
905.359	5900.12
905.596	5854.12
905.833	5764.12
906.071	5703.12
906.308	5761.12
906.545	5736.12
906.783	5676.12
907.02	5665.12
907.257	5623.12
907.494	5639.12
907.731	5624.12
907.968	5607.12
908.205	5496.12
908.442	5552.12
908.679	5519.12
908.915	5386.12
909.152	5420.12
909.389	5327.12
909.626	5279.12
909.862	5265.12
910.099	5231.12
910.335	5186.12
910.572	5137.12
910.808	5167.12
911.045	5163.12
911.281	5073.12
911.518	5173.12
911.754	5059.12
911.99	5095.12
912.226	5068.12
912.463	4985.12
912.699	4949.12
912.935	4924.12
913.171	4828.12
913.407	4876.12
913.643	4855.12
913.879	4775.12
914.114	4749.12
914.35	4679.12
914.586	4681.12
914.822	4598.12
915.057	4669.12
915.293	4526.12
915.529	4523.12
915.764	4590.12
916	4574.12
916.235	4535.12
916.471	4580.12
916.706	4480.12
916.941	4523.12
917.177	4513.12
917.412	4542.12
917.647	4545.12
917.882	4424.12
918.117	4501.12
918.352	4496.12
918.588	4499.12
918.823	4410.12
919.057	4427.12
919.292	4278.12
919.527	4367.12
919.762	4268.12
919.997	4277.12
920.232	4193.12
920.466	4176.12
920.701	4125.12
920.935	4130.12
921.17	4124.12
921.405	4090.12
921.639	4102.12
921.873	4058.12
922.108	4053.12
922.342	4040.12
922.576	3986.12
922.811	4025.12
923.045	4008.12
923.279	4034.12
923.513	3895.12
923.747	3998.12
923.981	3965.12
924.215	3847.12
924.449	3864.12
924.683	3806.12
924.917	3855.12
925.151	3862.12
925.385	3853.12
925.618	3850.12
925.852	3794.12
926.086	3795.12
926.319	3778.12
926.553	3755.12
926.786	3820.12
927.02	3812.12
927.253	3825.12
927.486	3782.12
927.72	3725.12
927.953	3793.12
928.186	3710.12
928.42	3785.12
928.653	3692.12
928.886	3686.12
929.119	3706.12
929.352	3702.12
929.585	3690.12
929.818	3627.12
930.051	3622.12
930.284	3650.12
930.516	3535.12
930.749	3517.12
930.982	3558.12
931.215	3567.12
931.447	3469.12
931.68	3471.12
931.912	3452.12
932.145	3479.12
932.377	3478.12
932.61	3590.12
932.842	3459.12
933.074	3524.12
933.307	3428.12
933.539	3529.12
933.771	3508.12
934.003	3488.12
934.236	3557.12
934.468	3554.12
934.7	3443.12
934.932	3496.12
935.164	3463.12
935.395	3442.12
935.627	3470.12
935.859	3470.12
936.091	3408.12
936.323	3461.12
936.554	3468.12
936.786	3368.12
937.017	3348.12
937.249	3396.12
937.481	3361.12
937.712	3377.12
937.943	3357.12
938.175	3379.12
938.406	3305.12
938.637	3406.12
938.869	3283.12
939.1	3365.12
939.331	3334.12
939.562	3323.12
939.793	3300.12
940.024	3348.12
940.255	3349.12
940.486	3289.12
940.717	3260.12
940.948	3242.12
941.179	3214.12
941.409	3239.12
941.64	3200.12
941.871	3237.12
942.102	3223.12
942.332	3209.12
942.563	3251.12
942.793	3239.12
943.024	3192.12
943.254	3205.12
943.484	3253.12
943.715	3283.12
943.945	3273.12
944.175	3174.12
944.405	3148.12
944.636	3140.12
944.866	3211.12
945.096	3233.12
945.326	3128.12
945.556	3222.12
945.786	3222.12
946.016	3181.12
946.245	3095.12
946.475	3117.12
946.705	3101.12
946.935	3066.12
947.164	3068.12
947.394	3031.12
947.624	3029.12
947.853	3057.12
948.083	3071.12
948.312	3027.12
948.542	2980.12
948.771	2916.12
949	2940.12
949.23	2962.12
949.459	2947.12
949.688	3016.12
949.917	2962.12
950.146	2997.12
950.375	3022.12
950.604	2917.12
950.833	3030.12
951.062	3029.12
951.291	2941.12
951.52	2909.12
951.749	2954.12
951.978	2877.12
952.206	2931.12
952.435	2868.12
952.664	2912.12
952.892	2935.12
953.121	2935.12
953.349	2949.12
953.578	2907.12
953.806	2835.12
954.035	2802.12
954.263	2870.12
954.491	2802.12
954.719	2851.12
954.948	2775.12
955.176	2764.12
955.404	2720.12
955.632	2787.12
955.86	2794.12
956.088	2739.12
956.316	2823.12
956.544	2804.12
956.772	2699.12
956.999	2660.12
957.227	2767.12
957.455	2653.12
957.683	2702.12
957.91	2669.12
958.138	2627.12
958.365	2631.12
958.593	2642.12
958.82	2532.12
959.048	2630.12
959.275	2611.12
959.502	2601.12
959.73	2543.12
959.957	2583.12
960.184	2669.12
960.411	2530.12
960.638	2649.12
960.865	2566.12
961.092	2631.12
961.319	2503.12
961.546	2594.12
961.773	2560.12
962	2535.12
962.227	2595.12
962.454	2583.12
962.68	2521.12
962.907	2569.12
963.134	2509.12
963.36	2511.12
963.587	2566.12
963.813	2469.12
964.04	2521.12
964.266	2424.12
964.493	2532.12
964.719	2501.12
964.945	2460.12
965.171	2380.12
965.398	2399.12
965.624	2462.12
965.85	2388.12
966.076	2371.12
966.302	2421.12
966.528	2374.12
966.754	2417.12
966.98	2372.12
967.206	2368.12
967.431	2306.12
967.657	2407.12
967.883	2355.12
968.109	2351.12
968.334	2303.12
968.56	2290.12
968.785	2270.12
969.011	2260.12
969.236	2330.12
969.462	2287.12
969.687	2279.12
969.912	2300.12
970.138	2362.12
970.363	2267.12
970.588	2282.12
970.813	2233.12
971.038	2217.12
971.263	2270.12
971.488	2252.12
971.713	2295.12
971.938	2276.12
972.163	2190.12
972.388	2216.12
972.613	2163.12
972.838	2187.12
973.062	2174.12
973.287	2180.12
973.512	2104.12
973.736	2159.12
973.961	2120.12
974.185	2115.12
974.41	2145.12
974.634	2095.12
974.858	2067.12
975.083	2102.12
975.307	2100.12
975.531	2024.12
975.755	2024.12
975.98	2040.12
976.204	1983.12
976.428	1950.12
976.652	1997.12
976.876	1954.12
977.1	1994.12
977.324	1970.12
977.547	2020.12
977.771	1976.12
977.995	1985.12
978.219	1910.12
978.442	2042.12
978.666	1990.12
978.89	1943.12
979.113	1956.12
979.337	1949.12
979.56	1912.12
979.783	1990.12
980.007	1915.12
980.23	1954.12
980.453	1886.12
980.677	1925.12
980.9	1905.12
981.123	1831.12
981.346	1931.12
981.569	1918.12
981.792	1933.12
982.015	1878.12
982.238	1884.12
982.461	1863.12
982.684	1804.12
982.907	1800.12
983.129	1782.12
983.352	1855.12
983.575	1861.12
983.797	1865.12
984.02	1787.12
984.242	1797.12
984.465	1810.12
984.687	1819.12
984.91	1843.12
985.132	1824.12
985.354	1816.12
985.577	1801.12
985.799	1776.12
986.021	1715.12
986.243	1743.12
986.465	1747.12
986.687	1808.12
986.909	1811.12
987.131	1756.12
987.353	1754.12
987.575	1780.12
987.797	1766.12
988.019	1675.12
988.241	1746.12
988.462	1699.12
988.684	1760.12
988.906	1795.12
989.127	1791.12
989.349	1672.12
989.57	1721.12
989.792	1777.12
990.013	1762.12
990.234	1739.12
990.456	1800.12
990.677	1786.12
990.898	1709.12
991.119	1725.12
991.341	1756.12
991.562	1655.12
991.783	1730.12
992.004	1662.12
992.225	1628.12
992.446	1677.12
992.667	1605.12
992.887	1685.12
993.108	1580.12
993.329	1706.12
993.55	1672.12
993.77	1603.12
993.991	1598.12
994.212	1630.12
994.432	1616.12
994.653	1652.12
994.873	1637.12
995.093	1533.12
995.314	1580.12
995.534	1630.12
995.754	1655.12
995.975	1703.12
996.195	1581.12
996.415	1608.12
996.635	1610.12
996.855	1627.12
997.075	1626.12
997.295	1608.12
997.515	1592.12
997.735	1662.12
997.955	1631.12
998.174	1614.12
998.394	1594.12
998.614	1626.12
998.834	1614.12
999.053	1667.12
999.273	1614.12
999.492	1642.12
999.712	1618.12
999.931	1551.12
1000.151	1604.12
1000.37	1570.12
1000.589	1624.12
1000.809	1552.12
1001.028	1689.12
1001.247	1575.12
1001.466	1496.12
1001.685	1642.12
1001.904	1570.12
1002.123	1531.12
1002.342	1546.12
1002.561	1505.12
1002.78	1513.12
1002.999	1575.12
1003.218	1541.12
1003.436	1521.12
1003.655	1575.12
1003.874	1488.12
1004.092	1525.12
1004.311	1562.12
1004.53	1530.12
1004.748	1600.12
1004.966	1528.12
1005.185	1594.12
1005.403	1586.12
1005.622	1548.12
1005.84	1620.12
1006.058	1517.12
1006.276	1544.12
1006.494	2066.12
1006.712	1588.12
1006.931	1624.12
1007.149	1571.12
1007.367	1557.12
1007.584	1628.12
1007.802	1658.12
1008.02	1639.12
1008.238	1745.12
1008.456	1749.12
1008.673	1645.12
1008.891	1765.12
1009.109	1740.12
1009.326	1874.12
1009.544	1995.12
1009.761	1921.12
1009.979	2063.12
1010.196	2178.12
1010.413	2360.12
1010.631	2455.12
1010.848	2543.12
1011.065	2597.12
1011.282	2528.12
1011.5	2500.12
1011.717	2627.12
1011.934	2559.12
1012.151	2573.12
1012.368	2531.12
1012.585	2485.12
1012.801	2544.12
1013.018	2518.12
1013.235	2504.12
1013.452	2567.12
1013.669	2582.12
1013.885	2571.12
1014.102	2636.12
1014.318	2643.12
1014.535	2573.12
1014.751	2587.12
1014.968	2546.12
1015.184	2549.12
1015.401	2487.12
1015.617	2512.12
1015.833	2439.12
1016.049	2415.12
1016.266	2369.12
1016.482	2398.12
1016.698	2312.12
1016.914	2346.12
1017.13	2272.12
1017.346	2295.12
1017.562	2352.12
1017.778	2267.12
1017.993	2218.12
1018.209	2284.12
1018.425	2251.12
1018.641	2247.12
1018.856	2163.12
1019.072	2228.12
1019.288	2293.12
1019.503	2218.12
1019.719	2156.12
1019.934	2141.12
1020.149	2207.12
1020.365	2107.12
1020.58	2053.12
1020.795	2074.12
1021.011	1925.12
1021.226	1921.12
1021.441	1903.12
1021.656	1794.12
1021.871	1727.12
1022.086	1691.12
1022.301	1661.12
1022.516	1662.12
1022.731	1737.12
1022.946	1592.12
1023.16	1555.12
1023.375	1522.12
1023.59	1468.12
1023.804	1443.12
1024.019	1510.12
1024.234	1358.12
1024.448	1358.12
1024.663	1293.12
1024.877	1284.12
1025.092	1313.12
1025.306	1266.12
1025.52	1169.12
1025.734	1262.12
1025.949	1186.12
1026.163	1129.12
1026.377	1076.12
1026.591	1081.12
1026.805	1033.12
1027.019	991.12
1027.233	947.12
1027.447	900.12
1027.661	1022.12
1027.875	928.12
1028.088	949.12
1028.302	894.12
1028.516	864.12
1028.73	854.12
1028.943	826.12
1029.157	751.12
1029.37	731.12
1029.584	-2.88
1029.797	0.12
1030.011	-1.88
1030.224	-3.88
