Data from QEP037381__33__13-26-41-046.txt Node

Date: Wed Dec 21 13:26:41 EST 2022
User: dcclab
Spectrometer: QEP03738
Trigger mode: 4
Integration Time (sec): 1.000000E1
Scans to average: 1
Electric dark correction enabled: true
Nonlinearity correction enabled: false
Boxcar width: 0
XAxis mode: Wavelengths
Number of Pixels in Spectrum: 1044
>>>>>Begin Spectral Data<<<<<
784.041	11.12
784.3	-1.88
784.558	-1.88
784.817	-6.88
785.075	90516.12
785.334	15486.12
785.592	7244.12
785.851	5009.12
786.109	3739.12
786.368	2919.12
786.626	2346.12
786.884	2006.12
787.143	1674.12
787.401	1382.12
787.659	1261.12
787.917	1086.12
788.175	1001.12
788.433	892.12
788.691	803.12
788.949	746.12
789.207	708.12
789.465	617.12
789.723	596.12
789.98	565.12
790.238	589.12
790.496	567.12
790.753	528.12
791.011	606.12
791.268	511.12
791.526	498.12
791.783	512.12
792.041	492.12
792.298	418.12
792.556	483.12
792.813	468.12
793.07	443.12
793.327	433.12
793.584	511.12
793.841	432.12
794.099	453.12
794.356	512.12
794.613	407.12
794.869	450.12
795.126	416.12
795.383	396.12
795.64	409.12
795.897	383.12
796.153	441.12
796.41	417.12
796.667	393.12
796.923	418.12
797.18	408.12
797.436	430.12
797.693	394.12
797.949	448.12
798.206	486.12
798.462	396.12
798.718	457.12
798.974	430.12
799.231	481.12
799.487	464.12
799.743	466.12
799.999	490.12
800.255	480.12
800.511	465.12
800.767	512.12
801.023	489.12
801.279	527.12
801.534	558.12
801.79	597.12
802.046	592.12
802.302	731.12
802.557	827.12
802.813	989.12
803.068	1166.12
803.324	1633.12
803.579	2130.12
803.835	2957.12
804.09	4044.12
804.345	5218.12
804.601	6540.12
804.856	7890.12
805.111	9179.12
805.366	10073.12
805.621	10868.12
805.876	11369.12
806.131	11744.12
806.386	11931.12
806.641	12120.12
806.896	12340.12
807.151	12631.12
807.406	12697.12
807.661	12988.12
807.915	13268.12
808.17	13538.12
808.425	13652.12
808.679	13718.12
808.934	13996.12
809.188	14056.12
809.443	14234.12
809.697	14431.12
809.951	14556.12
810.206	14707.12
810.46	14916.12
810.714	14939.12
810.968	15216.12
811.223	15236.12
811.477	15452.12
811.731	15517.12
811.985	15484.12
812.239	15595.12
812.493	15742.12
812.747	15722.12
813	15893.12
813.254	15930.12
813.508	16046.12
813.762	16117.12
814.015	16143.12
814.269	16245.12
814.522	16433.12
814.776	16601.12
815.03	16808.12
815.283	17153.12
815.536	17333.12
815.79	17695.12
816.043	17975.12
816.296	18239.12
816.55	18482.12
816.803	18634.12
817.056	19028.12
817.309	19181.12
817.562	19409.12
817.815	19540.12
818.068	19800.12
818.321	19888.12
818.574	20144.12
818.827	20475.12
819.079	20701.12
819.332	21171.12
819.585	21381.12
819.838	21633.12
820.09	21713.12
820.343	21928.12
820.595	22081.12
820.848	22198.12
821.1	22233.12
821.353	22279.12
821.605	22143.12
821.857	22215.12
822.11	22040.12
822.362	22190.12
822.614	22014.12
822.866	22087.12
823.118	22043.12
823.37	22138.12
823.622	22263.12
823.874	22349.12
824.126	22445.12
824.378	22322.12
824.63	22514.12
824.882	22505.12
825.134	22530.12
825.385	22476.12
825.637	22375.12
825.888	22360.12
826.14	22277.12
826.392	22326.12
826.643	22105.12
826.895	22264.12
827.146	21979.12
827.397	21952.12
827.649	22071.12
827.9	21954.12
828.151	22064.12
828.402	22131.12
828.653	22223.12
828.905	22282.12
829.156	22310.12
829.407	22213.12
829.658	22358.12
829.909	22557.12
830.159	22454.12
830.41	22456.12
830.661	22121.12
830.912	22047.12
831.162	22010.12
831.413	22025.12
831.664	22036.12
831.914	21924.12
832.165	21923.12
832.415	21986.12
832.666	21986.12
832.916	22056.12
833.167	21879.12
833.417	21997.12
833.667	21921.12
833.917	21863.12
834.168	21858.12
834.418	21789.12
834.668	21777.12
834.918	21501.12
835.168	21638.12
835.418	21425.12
835.668	21377.12
835.918	21478.12
836.167	21398.12
836.417	21220.12
836.667	21334.12
836.917	21286.12
837.166	21236.12
837.416	21471.12
837.666	21453.12
837.915	21261.12
838.165	21222.12
838.414	21279.12
838.663	21131.12
838.913	21097.12
839.162	21126.12
839.411	21220.12
839.661	21158.12
839.91	21173.12
840.159	21070.12
840.408	21079.12
840.657	21052.12
840.906	21148.12
841.155	21189.12
841.404	20984.12
841.653	21250.12
841.902	21161.12
842.15	21297.12
842.399	21262.12
842.648	21229.12
842.897	21201.12
843.145	21101.12
843.394	20817.12
843.642	20718.12
843.891	20722.12
844.139	20678.12
844.388	20461.12
844.636	20326.12
844.884	20406.12
845.133	20490.12
845.381	20478.12
845.629	20377.12
845.877	20442.12
846.125	20373.12
846.373	20377.12
846.621	20348.12
846.869	20281.12
847.117	20225.12
847.365	20015.12
847.613	19997.12
847.861	19962.12
848.108	19907.12
848.356	19927.12
848.604	19855.12
848.851	19916.12
849.099	19983.12
849.346	19927.12
849.594	20171.12
849.841	20128.12
850.089	20190.12
850.336	20332.12
850.583	20371.12
850.831	20280.12
851.078	20154.12
851.325	20173.12
851.572	20214.12
851.819	19950.12
852.066	19570.12
852.313	19276.12
852.56	19231.12
852.807	19038.12
853.054	19012.12
853.301	19048.12
853.548	19116.12
853.794	19259.12
854.041	19255.12
854.288	19421.12
854.534	19617.12
854.781	19506.12
855.028	19620.12
855.274	19486.12
855.52	19315.12
855.767	19409.12
856.013	19377.12
856.26	19541.12
856.506	19119.12
856.752	19182.12
856.998	19114.12
857.244	19190.12
857.49	19276.12
857.736	19380.12
857.982	19473.12
858.228	19209.12
858.474	19114.12
858.72	19045.12
858.966	18743.12
859.212	18611.12
859.458	18410.12
859.703	18324.12
859.949	18031.12
860.195	18075.12
860.44	17931.12
860.686	17865.12
860.931	17873.12
861.177	17742.12
861.422	17681.12
861.667	17565.12
861.913	17470.12
862.158	17588.12
862.403	17592.12
862.648	17681.12
862.893	17713.12
863.138	17735.12
863.384	17721.12
863.629	17627.12
863.873	17723.12
864.118	17727.12
864.363	17591.12
864.608	17380.12
864.853	17422.12
865.098	17290.12
865.342	17310.12
865.587	17169.12
865.832	17109.12
866.076	17205.12
866.321	17179.12
866.565	17085.12
866.81	17036.12
867.054	16928.12
867.298	16960.12
867.543	16848.12
867.787	16852.12
868.031	16915.12
868.275	16756.12
868.519	16794.12
868.764	16791.12
869.008	16818.12
869.252	16878.12
869.496	16748.12
869.739	16729.12
869.983	16801.12
870.227	16796.12
870.471	16738.12
870.715	16946.12
870.958	16926.12
871.202	16899.12
871.446	17044.12
871.689	16975.12
871.933	16951.12
872.176	16950.12
872.42	16888.12
872.663	16817.12
872.906	16818.12
873.15	16812.12
873.393	16771.12
873.636	16774.12
873.879	16661.12
874.122	16546.12
874.366	16211.12
874.609	16146.12
874.852	16036.12
875.095	15844.12
875.337	15788.12
875.58	15725.12
875.823	15700.12
876.066	15604.12
876.309	15606.12
876.551	15419.12
876.794	15393.12
877.037	15389.12
877.279	15299.12
877.522	15303.12
877.764	15265.12
878.007	15282.12
878.249	15209.12
878.491	15187.12
878.734	15204.12
878.976	15166.12
879.218	15088.12
879.46	14999.12
879.702	14927.12
879.945	14754.12
880.187	14683.12
880.429	14622.12
880.671	14522.12
880.912	14487.12
881.154	14518.12
881.396	14407.12
881.638	14445.12
881.88	14411.12
882.121	14290.12
882.363	14335.12
882.605	14432.12
882.846	14408.12
883.088	14346.12
883.329	14336.12
883.571	14394.12
883.812	14570.12
884.053	14936.12
884.295	15186.12
884.536	15447.12
884.777	15336.12
885.018	15299.12
885.259	15204.12
885.5	15078.12
885.742	15294.12
885.982	14988.12
886.223	14821.12
886.464	14742.12
886.705	14565.12
886.946	14384.12
887.187	14141.12
887.428	14024.12
887.668	13785.12
887.909	13496.12
888.15	13390.12
888.39	13285.12
888.631	13292.12
888.871	13146.12
889.111	12965.12
889.352	12981.12
889.592	12750.12
889.833	12652.12
890.073	12629.12
890.313	12565.12
890.553	12385.12
890.793	12410.12
891.033	12312.12
891.273	12307.12
891.513	12298.12
891.753	12220.12
891.993	12141.12
892.233	12223.12
892.473	12337.12
892.713	12242.12
892.952	12231.12
893.192	12291.12
893.432	12255.12
893.671	12291.12
893.911	12231.12
894.15	12114.12
894.39	12006.12
894.629	12016.12
894.869	11864.12
895.108	11819.12
895.347	11792.12
895.587	11790.12
895.826	11769.12
896.065	11698.12
896.304	11706.12
896.543	11729.12
896.782	11624.12
897.021	11594.12
897.26	11602.12
897.499	11661.12
897.738	11615.12
897.977	11424.12
898.216	11378.12
898.454	11301.12
898.693	11264.12
898.932	11308.12
899.17	11215.12
899.409	11134.12
899.647	11162.12
899.886	11139.12
900.124	11220.12
900.363	11167.12
900.601	11276.12
900.839	11306.12
901.078	11331.12
901.316	11361.12
901.554	11449.12
901.792	11506.12
902.03	11482.12
902.268	11464.12
902.506	11540.12
902.744	11355.12
902.982	11340.12
903.22	11146.12
903.458	10950.12
903.695	10863.12
903.933	10693.12
904.171	10472.12
904.409	10306.12
904.646	10184.12
904.884	10022.12
905.121	10046.12
905.359	9866.12
905.596	9687.12
905.833	9671.12
906.071	9562.12
906.308	9590.12
906.545	9551.12
906.783	9487.12
907.02	9453.12
907.257	9402.12
907.494	9424.12
907.731	9411.12
907.968	9341.12
908.205	9323.12
908.442	9204.12
908.679	9190.12
908.915	9114.12
909.152	9069.12
909.389	8900.12
909.626	8908.12
909.862	8910.12
910.099	8817.12
910.335	8820.12
910.572	8697.12
910.808	8683.12
911.045	8663.12
911.281	8620.12
911.518	8659.12
911.754	8559.12
911.99	8555.12
912.226	8441.12
912.463	8294.12
912.699	8336.12
912.935	8291.12
913.171	8282.12
913.407	8140.12
913.643	8177.12
913.879	8108.12
914.114	8040.12
914.35	7891.12
914.586	7835.12
914.822	7774.12
915.057	7774.12
915.293	7616.12
915.529	7617.12
915.764	7656.12
916	7627.12
916.235	7641.12
916.471	7621.12
916.706	7555.12
916.941	7540.12
917.177	7525.12
917.412	7502.12
917.647	7546.12
917.882	7469.12
918.117	7494.12
918.352	7425.12
918.588	7483.12
918.823	7372.12
919.057	7304.12
919.292	7273.12
919.527	7219.12
919.762	7120.12
919.997	7132.12
920.232	6961.12
920.466	6950.12
920.701	6793.12
920.935	6889.12
921.17	6778.12
921.405	6755.12
921.639	6756.12
921.873	6691.12
922.108	6704.12
922.342	6657.12
922.576	6589.12
922.811	6606.12
923.045	6641.12
923.279	6613.12
923.513	6488.12
923.747	6556.12
923.981	6479.12
924.215	6399.12
924.449	6354.12
924.683	6289.12
924.917	6271.12
925.151	6277.12
925.385	6267.12
925.618	6214.12
925.852	6222.12
926.086	6173.12
926.319	6180.12
926.553	6212.12
926.786	6219.12
927.02	6153.12
927.253	6242.12
927.486	6258.12
927.72	6105.12
927.953	6198.12
928.186	6076.12
928.42	6115.12
928.653	6084.12
928.886	5998.12
929.119	6045.12
929.352	5959.12
929.585	6003.12
929.818	5902.12
930.051	5894.12
930.284	5900.12
930.516	5725.12
930.749	5737.12
930.982	5747.12
931.215	5711.12
931.447	5659.12
931.68	5613.12
931.912	5594.12
932.145	5620.12
932.377	5656.12
932.61	5748.12
932.842	5562.12
933.074	5688.12
933.307	5546.12
933.539	5702.12
933.771	5647.12
934.003	5604.12
934.236	5659.12
934.468	5656.12
934.7	5558.12
934.932	5590.12
935.164	5503.12
935.395	5508.12
935.627	5568.12
935.859	5496.12
936.091	5429.12
936.323	5482.12
936.554	5539.12
936.786	5407.12
937.017	5319.12
937.249	5410.12
937.481	5255.12
937.712	5385.12
937.943	5346.12
938.175	5340.12
938.406	5300.12
938.637	5315.12
938.869	5269.12
939.1	5315.12
939.331	5220.12
939.562	5291.12
939.793	5262.12
940.024	5304.12
940.255	5242.12
940.486	5146.12
940.717	5130.12
940.948	5095.12
941.179	5093.12
941.409	5077.12
941.64	5114.12
941.871	5163.12
942.102	5025.12
942.332	5089.12
942.563	5106.12
942.793	5074.12
943.024	5045.12
943.254	5038.12
943.484	5056.12
943.715	5089.12
943.945	5083.12
944.175	4984.12
944.405	4975.12
944.636	5028.12
944.866	5025.12
945.096	5009.12
945.326	4898.12
945.556	4999.12
945.786	5003.12
946.016	4865.12
946.245	4865.12
946.475	4831.12
946.705	4869.12
946.935	4765.12
947.164	4835.12
947.394	4700.12
947.624	4747.12
947.853	4735.12
948.083	4710.12
948.312	4668.12
948.542	4596.12
948.771	4599.12
949	4640.12
949.23	4601.12
949.459	4650.12
949.688	4661.12
949.917	4573.12
950.146	4629.12
950.375	4664.12
950.604	4531.12
950.833	4646.12
951.062	4615.12
951.291	4609.12
951.52	4542.12
951.749	4568.12
951.978	4483.12
952.206	4460.12
952.435	4452.12
952.664	4489.12
952.892	4489.12
953.121	4454.12
953.349	4443.12
953.578	4477.12
953.806	4400.12
954.035	4327.12
954.263	4371.12
954.491	4341.12
954.719	4334.12
954.948	4291.12
955.176	4314.12
955.404	4211.12
955.632	4242.12
955.86	4248.12
956.088	4214.12
956.316	4219.12
956.544	4220.12
956.772	4166.12
956.999	4107.12
957.227	4138.12
957.455	4066.12
957.683	4078.12
957.91	4032.12
958.138	4007.12
958.365	4032.12
958.593	3995.12
958.82	3945.12
959.048	3982.12
959.275	3951.12
959.502	3961.12
959.73	3948.12
959.957	3974.12
960.184	3969.12
960.411	3910.12
960.638	3938.12
960.865	3886.12
961.092	3908.12
961.319	3837.12
961.546	3930.12
961.773	3913.12
962	3883.12
962.227	3928.12
962.454	3883.12
962.68	3867.12
962.907	3883.12
963.134	3777.12
963.36	3785.12
963.587	3816.12
963.813	3696.12
964.04	3783.12
964.266	3671.12
964.493	3747.12
964.719	3691.12
964.945	3735.12
965.171	3593.12
965.398	3645.12
965.624	3619.12
965.85	3568.12
966.076	3564.12
966.302	3539.12
966.528	3546.12
966.754	3544.12
966.98	3527.12
967.206	3530.12
967.431	3496.12
967.657	3529.12
967.883	3517.12
968.109	3479.12
968.334	3425.12
968.56	3427.12
968.785	3393.12
969.011	3382.12
969.236	3443.12
969.462	3387.12
969.687	3383.12
969.912	3407.12
970.138	3429.12
970.363	3338.12
970.588	3371.12
970.813	3345.12
971.038	3320.12
971.263	3337.12
971.488	3348.12
971.713	3361.12
971.938	3326.12
972.163	3242.12
972.388	3249.12
972.613	3218.12
972.838	3217.12
973.062	3166.12
973.287	3171.12
973.512	3116.12
973.736	3158.12
973.961	3106.12
974.185	3092.12
974.41	3124.12
974.634	3053.12
974.858	3048.12
975.083	3059.12
975.307	3072.12
975.531	2995.12
975.755	2929.12
975.98	2969.12
976.204	2907.12
976.428	2904.12
976.652	2911.12
976.876	2894.12
977.1	2896.12
977.324	2856.12
977.547	2905.12
977.771	2871.12
977.995	2882.12
978.219	2766.12
978.442	2890.12
978.666	2852.12
978.89	2835.12
979.113	2858.12
979.337	2800.12
979.56	2788.12
979.783	2870.12
980.007	2736.12
980.23	2783.12
980.453	2731.12
980.677	2741.12
980.9	2744.12
981.123	2688.12
981.346	2752.12
981.569	2715.12
981.792	2724.12
982.015	2686.12
982.238	2665.12
982.461	2644.12
982.684	2605.12
982.907	2606.12
983.129	2587.12
983.352	2628.12
983.575	2598.12
983.797	2594.12
984.02	2537.12
984.242	2500.12
984.465	2555.12
984.687	2556.12
984.91	2579.12
985.132	2544.12
985.354	2554.12
985.577	2502.12
985.799	2468.12
986.021	2427.12
986.243	2455.12
986.465	2421.12
986.687	2516.12
986.909	2463.12
987.131	2457.12
987.353	2422.12
987.575	2410.12
987.797	2398.12
988.019	2308.12
988.241	2355.12
988.462	2355.12
988.684	2411.12
988.906	2398.12
989.127	2433.12
989.349	2308.12
989.57	2336.12
989.792	2363.12
990.013	2422.12
990.234	2406.12
990.456	2398.12
990.677	2373.12
990.898	2309.12
991.119	2303.12
991.341	2341.12
991.562	2262.12
991.783	2286.12
992.004	2253.12
992.225	2195.12
992.446	2268.12
992.667	2126.12
992.887	2245.12
993.108	2119.12
993.329	2265.12
993.55	2177.12
993.77	2144.12
993.991	2123.12
994.212	2188.12
994.432	2156.12
994.653	2146.12
994.873	2147.12
995.093	2028.12
995.314	2082.12
995.534	2152.12
995.754	2146.12
995.975	2143.12
996.195	2048.12
996.415	2090.12
996.635	2061.12
996.855	2121.12
997.075	2061.12
997.295	2048.12
997.515	2043.12
997.735	2058.12
997.955	2050.12
998.174	2042.12
998.394	2042.12
998.614	2059.12
998.834	2024.12
999.053	2068.12
999.273	2016.12
999.492	2083.12
999.712	2034.12
999.931	1961.12
1000.151	2035.12
1000.37	2017.12
1000.589	2065.12
1000.809	1962.12
1001.028	2063.12
1001.247	2004.12
1001.466	1886.12
1001.685	2012.12
1001.904	1960.12
1002.123	1913.12
1002.342	1933.12
1002.561	1878.12
1002.78	1910.12
1002.999	1967.12
1003.218	1895.12
1003.436	1874.12
1003.655	1928.12
1003.874	1871.12
1004.092	1866.12
1004.311	1907.12
1004.53	1867.12
1004.748	1949.12
1004.966	1836.12
1005.185	1921.12
1005.403	1894.12
1005.622	1875.12
1005.84	1943.12
1006.058	1843.12
1006.276	1856.12
1006.494	2343.12
1006.712	1864.12
1006.931	1931.12
1007.149	1816.12
1007.367	1854.12
1007.584	1913.12
1007.802	1918.12
1008.02	1874.12
1008.238	1963.12
1008.456	1958.12
1008.673	1828.12
1008.891	1938.12
1009.109	1896.12
1009.326	1950.12
1009.544	2055.12
1009.761	2023.12
1009.979	2099.12
1010.196	2158.12
1010.413	2241.12
1010.631	2316.12
1010.848	2421.12
1011.065	2386.12
1011.282	2338.12
1011.5	2265.12
1011.717	2387.12
1011.934	2307.12
1012.151	2363.12
1012.368	2324.12
1012.585	2250.12
1012.801	2320.12
1013.018	2265.12
1013.235	2247.12
1013.452	2261.12
1013.669	2284.12
1013.885	2297.12
1014.102	2326.12
1014.318	2302.12
1014.535	2264.12
1014.751	2305.12
1014.968	2257.12
1015.184	2268.12
1015.401	2182.12
1015.617	2210.12
1015.833	2141.12
1016.049	2150.12
1016.266	2123.12
1016.482	2132.12
1016.698	2065.12
1016.914	2101.12
1017.13	2054.12
1017.346	2008.12
1017.562	2074.12
1017.778	2036.12
1017.993	1994.12
1018.209	2027.12
1018.425	2023.12
1018.641	1986.12
1018.856	1949.12
1019.072	1969.12
1019.288	2031.12
1019.503	1968.12
1019.719	1907.12
1019.934	1884.12
1020.149	1985.12
1020.365	1914.12
1020.58	1824.12
1020.795	1870.12
1021.011	1804.12
1021.226	1759.12
1021.441	1778.12
1021.656	1677.12
1021.871	1559.12
1022.086	1591.12
1022.301	1590.12
1022.516	1538.12
1022.731	1573.12
1022.946	1515.12
1023.16	1478.12
1023.375	1444.12
1023.59	1390.12
1023.804	1361.12
1024.019	1452.12
1024.234	1331.12
1024.448	1349.12
1024.663	1261.12
1024.877	1277.12
1025.092	1274.12
1025.306	1263.12
1025.52	1174.12
1025.734	1237.12
1025.949	1158.12
1026.163	1131.12
1026.377	1050.12
1026.591	1100.12
1026.805	1042.12
1027.019	1034.12
1027.233	959.12
1027.447	925.12
1027.661	1040.12
1027.875	965.12
1028.088	959.12
1028.302	872.12
1028.516	887.12
1028.73	865.12
1028.943	828.12
1029.157	784.12
1029.37	725.12
1029.584	0.12
1029.797	1.12
1030.011	0.12
1030.224	-1.88
