Data from QEP037381__14__13-23-31-060.txt Node

Date: Wed Dec 21 13:23:31 EST 2022
User: dcclab
Spectrometer: QEP03738
Trigger mode: 4
Integration Time (sec): 1.000000E1
Scans to average: 1
Electric dark correction enabled: true
Nonlinearity correction enabled: false
Boxcar width: 0
XAxis mode: Wavelengths
Number of Pixels in Spectrum: 1044
>>>>>Begin Spectral Data<<<<<
784.041	14.5
784.3	0.5
784.558	-4.5
784.817	-3.5
785.075	94768.5
785.334	16042.5
785.592	7341.5
785.851	5084.5
786.109	3822.5
786.368	2969.5
786.626	2426.5
786.884	2005.5
787.143	1661.5
787.401	1379.5
787.659	1283.5
787.917	1106.5
788.175	1001.5
788.433	859.5
788.691	811.5
788.949	739.5
789.207	696.5
789.465	617.5
789.723	594.5
789.98	535.5
790.238	584.5
790.496	538.5
790.753	531.5
791.011	564.5
791.268	513.5
791.526	493.5
791.783	518.5
792.041	504.5
792.298	404.5
792.556	467.5
792.813	480.5
793.07	432.5
793.327	415.5
793.584	518.5
793.841	426.5
794.099	459.5
794.356	504.5
794.613	401.5
794.869	435.5
795.126	406.5
795.383	382.5
795.64	414.5
795.897	363.5
796.153	424.5
796.41	400.5
796.667	392.5
796.923	398.5
797.18	395.5
797.436	412.5
797.693	380.5
797.949	438.5
798.206	475.5
798.462	366.5
798.718	438.5
798.974	412.5
799.231	446.5
799.487	430.5
799.743	446.5
799.999	473.5
800.255	459.5
800.511	421.5
800.767	483.5
801.023	444.5
801.279	486.5
801.534	493.5
801.79	534.5
802.046	537.5
802.302	647.5
802.557	690.5
802.813	810.5
803.068	972.5
803.324	1274.5
803.579	1710.5
803.835	2264.5
804.09	3091.5
804.345	3895.5
804.601	4836.5
804.856	5812.5
805.111	6708.5
805.366	7416.5
805.621	7951.5
805.876	8156.5
806.131	8403.5
806.386	8556.5
806.641	8671.5
806.896	8869.5
807.151	8995.5
807.406	9101.5
807.661	9235.5
807.915	9422.5
808.17	9555.5
808.425	9630.5
808.679	9673.5
808.934	9896.5
809.188	9967.5
809.443	10080.5
809.697	10113.5
809.951	10197.5
810.206	10248.5
810.46	10378.5
810.714	10399.5
810.968	10562.5
811.223	10573.5
811.477	10726.5
811.731	10780.5
811.985	10760.5
812.239	10821.5
812.493	10813.5
812.747	10955.5
813	10866.5
813.254	11032.5
813.508	11088.5
813.762	11050.5
814.015	11126.5
814.269	11178.5
814.522	11275.5
814.776	11447.5
815.03	11613.5
815.283	11627.5
815.536	11872.5
815.79	12011.5
816.043	12248.5
816.296	12375.5
816.55	12461.5
816.803	12661.5
817.056	12822.5
817.309	12888.5
817.562	13035.5
817.815	13122.5
818.068	13288.5
818.321	13366.5
818.574	13482.5
818.827	13624.5
819.079	13675.5
819.332	14101.5
819.585	14230.5
819.838	14460.5
820.09	14482.5
820.343	14585.5
820.595	14587.5
820.848	14618.5
821.1	14772.5
821.353	14799.5
821.605	14666.5
821.857	14758.5
822.11	14537.5
822.362	14525.5
822.614	14545.5
822.866	14557.5
823.118	14549.5
823.37	14643.5
823.622	14681.5
823.874	14798.5
824.126	14792.5
824.378	14705.5
824.63	14810.5
824.882	14803.5
825.134	14715.5
825.385	14770.5
825.637	14707.5
825.888	14603.5
826.14	14596.5
826.392	14530.5
826.643	14498.5
826.895	14402.5
827.146	14335.5
827.397	14277.5
827.649	14360.5
827.9	14182.5
828.151	14267.5
828.402	14288.5
828.653	14404.5
828.905	14365.5
829.156	14496.5
829.407	14469.5
829.658	14450.5
829.909	14577.5
830.159	14659.5
830.41	14490.5
830.661	14443.5
830.912	14213.5
831.162	14214.5
831.413	14204.5
831.664	14150.5
831.914	14206.5
832.165	14195.5
832.415	14201.5
832.666	14115.5
832.916	14095.5
833.167	14078.5
833.417	14157.5
833.667	14017.5
833.917	14033.5
834.168	14000.5
834.418	14026.5
834.668	13899.5
834.918	13823.5
835.168	13840.5
835.418	13687.5
835.668	13741.5
835.918	13691.5
836.167	13611.5
836.417	13546.5
836.667	13633.5
836.917	13597.5
837.166	13537.5
837.416	13609.5
837.666	13650.5
837.915	13521.5
838.165	13467.5
838.414	13456.5
838.663	13415.5
838.913	13473.5
839.162	13380.5
839.411	13543.5
839.661	13415.5
839.91	13291.5
840.159	13326.5
840.408	13320.5
840.657	13337.5
840.906	13326.5
841.155	13398.5
841.404	13314.5
841.653	13383.5
841.902	13393.5
842.15	13402.5
842.399	13380.5
842.648	13394.5
842.897	13297.5
843.145	13227.5
843.394	13148.5
843.642	13083.5
843.891	13036.5
844.139	12970.5
844.388	12793.5
844.636	12773.5
844.884	12732.5
845.133	12681.5
845.381	12686.5
845.629	12755.5
845.877	12757.5
846.125	12745.5
846.373	12712.5
846.621	12620.5
846.869	12660.5
847.117	12499.5
847.365	12428.5
847.613	12440.5
847.861	12384.5
848.108	12416.5
848.356	12403.5
848.604	12302.5
848.851	12365.5
849.099	12409.5
849.346	12326.5
849.594	12423.5
849.841	12494.5
850.089	12552.5
850.336	12554.5
850.583	12575.5
850.831	12515.5
851.078	12332.5
851.325	12346.5
851.572	12412.5
851.819	12313.5
852.066	12075.5
852.313	11961.5
852.56	11749.5
852.807	11757.5
853.054	11767.5
853.301	11803.5
853.548	11775.5
853.794	11908.5
854.041	11830.5
854.288	11877.5
854.534	11992.5
854.781	11993.5
855.028	11979.5
855.274	11993.5
855.52	11880.5
855.767	11935.5
856.013	12002.5
856.26	12262.5
856.506	11785.5
856.752	11753.5
856.998	11706.5
857.244	11819.5
857.49	11863.5
857.736	11843.5
857.982	11829.5
858.228	11780.5
858.474	11703.5
858.72	11551.5
858.966	11482.5
859.212	11370.5
859.458	11216.5
859.703	11072.5
859.949	10997.5
860.195	10915.5
860.44	10863.5
860.686	10862.5
860.931	10983.5
861.177	10852.5
861.422	10779.5
861.667	10556.5
861.913	10668.5
862.158	10639.5
862.403	10728.5
862.648	10698.5
862.893	10683.5
863.138	10657.5
863.384	10623.5
863.629	10632.5
863.873	10578.5
864.118	10600.5
864.363	10550.5
864.608	10481.5
864.853	10472.5
865.098	10461.5
865.342	10338.5
865.587	10353.5
865.832	10418.5
866.076	10348.5
866.321	10254.5
866.565	10187.5
866.81	10047.5
867.054	10094.5
867.298	10163.5
867.543	10114.5
867.787	10128.5
868.031	10041.5
868.275	10107.5
868.519	10075.5
868.764	10053.5
869.008	10036.5
869.252	10033.5
869.496	9997.5
869.739	9959.5
869.983	10038.5
870.227	10065.5
870.471	9991.5
870.715	10066.5
870.958	10180.5
871.202	10158.5
871.446	10228.5
871.689	10159.5
871.933	10155.5
872.176	10180.5
872.42	10095.5
872.663	10073.5
872.906	10169.5
873.15	10121.5
873.393	10098.5
873.636	10175.5
873.879	10053.5
874.122	9902.5
874.366	9786.5
874.609	9637.5
874.852	9539.5
875.095	9502.5
875.337	9498.5
875.58	9338.5
875.823	9290.5
876.066	9349.5
876.309	9333.5
876.551	9189.5
876.794	9071.5
877.037	9131.5
877.279	9132.5
877.522	9068.5
877.764	9111.5
878.007	9039.5
878.249	9002.5
878.491	9002.5
878.734	9012.5
878.976	8915.5
879.218	8888.5
879.46	8898.5
879.702	8838.5
879.945	8623.5
880.187	8548.5
880.429	8619.5
880.671	8576.5
880.912	8545.5
881.154	8514.5
881.396	8340.5
881.638	8439.5
881.88	8451.5
882.121	8392.5
882.363	8380.5
882.605	8441.5
882.846	8439.5
883.088	8463.5
883.329	8396.5
883.571	8475.5
883.812	8624.5
884.053	8991.5
884.295	9159.5
884.536	9383.5
884.777	9336.5
885.018	9215.5
885.259	9165.5
885.5	9018.5
885.742	9238.5
885.982	8996.5
886.223	8805.5
886.464	8777.5
886.705	8554.5
886.946	8493.5
887.187	8241.5
887.428	8244.5
887.668	7984.5
887.909	7918.5
888.15	7820.5
888.39	7716.5
888.631	7718.5
888.871	7579.5
889.111	7510.5
889.352	7448.5
889.592	7412.5
889.833	7377.5
890.073	7264.5
890.313	7306.5
890.553	7143.5
890.793	7148.5
891.033	7153.5
891.273	7067.5
891.513	7040.5
891.753	7107.5
891.993	7071.5
892.233	7064.5
892.473	7137.5
892.713	7102.5
892.952	7060.5
893.192	7116.5
893.432	7095.5
893.671	7054.5
893.911	7020.5
894.15	6936.5
894.39	6857.5
894.629	6844.5
894.869	6832.5
895.108	6790.5
895.347	6789.5
895.587	6798.5
895.826	6686.5
896.065	6687.5
896.304	6748.5
896.543	6735.5
896.782	6606.5
897.021	6624.5
897.26	6630.5
897.499	6663.5
897.738	6652.5
897.977	6566.5
898.216	6557.5
898.454	6498.5
898.693	6386.5
898.932	6477.5
899.17	6417.5
899.409	6414.5
899.647	6388.5
899.886	6347.5
900.124	6391.5
900.363	6373.5
900.601	6369.5
900.839	6484.5
901.078	6422.5
901.316	6530.5
901.554	6560.5
901.792	6616.5
902.03	6566.5
902.268	6630.5
902.506	6620.5
902.744	6519.5
902.982	6542.5
903.22	6354.5
903.458	6304.5
903.695	6172.5
903.933	6097.5
904.171	6005.5
904.409	5881.5
904.646	5800.5
904.884	5683.5
905.121	5748.5
905.359	5608.5
905.596	5559.5
905.833	5524.5
906.071	5426.5
906.308	5473.5
906.545	5454.5
906.783	5407.5
907.02	5435.5
907.257	5355.5
907.494	5365.5
907.731	5358.5
907.968	5345.5
908.205	5247.5
908.442	5264.5
908.679	5236.5
908.915	5157.5
909.152	5164.5
909.389	5083.5
909.626	5037.5
909.862	5011.5
910.099	5016.5
910.335	5043.5
910.572	4932.5
910.808	4962.5
911.045	4970.5
911.281	4926.5
911.518	4973.5
911.754	4846.5
911.99	4826.5
912.226	4825.5
912.463	4720.5
912.699	4775.5
912.935	4690.5
913.171	4685.5
913.407	4638.5
913.643	4684.5
913.879	4569.5
914.114	4558.5
914.35	4475.5
914.586	4508.5
914.822	4395.5
915.057	4492.5
915.293	4316.5
915.529	4314.5
915.764	4394.5
916	4369.5
916.235	4343.5
916.471	4319.5
916.706	4257.5
916.941	4298.5
917.177	4273.5
917.412	4320.5
917.647	4284.5
917.882	4213.5
918.117	4277.5
918.352	4237.5
918.588	4266.5
918.823	4163.5
919.057	4173.5
919.292	4048.5
919.527	4156.5
919.762	4010.5
919.997	4037.5
920.232	3987.5
920.466	3977.5
920.701	3838.5
920.935	3873.5
921.17	3858.5
921.405	3804.5
921.639	3866.5
921.873	3806.5
922.108	3817.5
922.342	3798.5
922.576	3726.5
922.811	3786.5
923.045	3782.5
923.279	3779.5
923.513	3655.5
923.747	3753.5
923.981	3686.5
924.215	3651.5
924.449	3621.5
924.683	3593.5
924.917	3560.5
925.151	3542.5
925.385	3613.5
925.618	3525.5
925.852	3555.5
926.086	3531.5
926.319	3530.5
926.553	3521.5
926.786	3538.5
927.02	3516.5
927.253	3520.5
927.486	3538.5
927.72	3427.5
927.953	3562.5
928.186	3446.5
928.42	3497.5
928.653	3430.5
928.886	3401.5
929.119	3470.5
929.352	3410.5
929.585	3406.5
929.818	3362.5
930.051	3372.5
930.284	3375.5
930.516	3251.5
930.749	3224.5
930.982	3273.5
931.215	3238.5
931.447	3176.5
931.68	3220.5
931.912	3217.5
932.145	3155.5
932.377	3191.5
932.61	3315.5
932.842	3131.5
933.074	3230.5
933.307	3147.5
933.539	3245.5
933.771	3257.5
934.003	3182.5
934.236	3247.5
934.468	3270.5
934.7	3157.5
934.932	3187.5
935.164	3134.5
935.395	3120.5
935.627	3148.5
935.859	3150.5
936.091	3067.5
936.323	3146.5
936.554	3158.5
936.786	3086.5
937.017	3002.5
937.249	3104.5
937.481	3003.5
937.712	3070.5
937.943	3006.5
938.175	3039.5
938.406	3013.5
938.637	3043.5
938.869	2960.5
939.1	2995.5
939.331	2975.5
939.562	3028.5
939.793	3003.5
940.024	3031.5
940.255	2998.5
940.486	2953.5
940.717	2940.5
940.948	2920.5
941.179	2856.5
941.409	2916.5
941.64	2890.5
941.871	2948.5
942.102	2884.5
942.332	2907.5
942.563	2892.5
942.793	2887.5
943.024	2877.5
943.254	2884.5
943.484	2897.5
943.715	2921.5
943.945	2901.5
944.175	2829.5
944.405	2777.5
944.636	2819.5
944.866	2853.5
945.096	2860.5
945.326	2778.5
945.556	2863.5
945.786	2836.5
946.016	2791.5
946.245	2777.5
946.475	2745.5
946.705	2763.5
946.935	2752.5
947.164	2741.5
947.394	2700.5
947.624	2722.5
947.853	2764.5
948.083	2717.5
948.312	2659.5
948.542	2616.5
948.771	2599.5
949	2651.5
949.23	2606.5
949.459	2678.5
949.688	2700.5
949.917	2644.5
950.146	2660.5
950.375	2705.5
950.604	2569.5
950.833	2675.5
951.062	2694.5
951.291	2610.5
951.52	2549.5
951.749	2600.5
951.978	2566.5
952.206	2571.5
952.435	2573.5
952.664	2597.5
952.892	2590.5
953.121	2579.5
953.349	2584.5
953.578	2563.5
953.806	2515.5
954.035	2490.5
954.263	2560.5
954.491	2434.5
954.719	2500.5
954.948	2445.5
955.176	2424.5
955.404	2396.5
955.632	2477.5
955.86	2467.5
956.088	2429.5
956.316	2422.5
956.544	2468.5
956.772	2335.5
956.999	2362.5
957.227	2443.5
957.455	2358.5
957.683	2399.5
957.91	2316.5
958.138	2312.5
958.365	2346.5
958.593	2315.5
958.82	2275.5
959.048	2334.5
959.275	2251.5
959.502	2304.5
959.73	2278.5
959.957	2304.5
960.184	2326.5
960.411	2233.5
960.638	2354.5
960.865	2291.5
961.092	2324.5
961.319	2179.5
961.546	2283.5
961.773	2302.5
962	2268.5
962.227	2321.5
962.454	2238.5
962.68	2230.5
962.907	2247.5
963.134	2221.5
963.36	2220.5
963.587	2253.5
963.813	2131.5
964.04	2195.5
964.266	2122.5
964.493	2238.5
964.719	2184.5
964.945	2183.5
965.171	2093.5
965.398	2163.5
965.624	2129.5
965.85	2087.5
966.076	2108.5
966.302	2124.5
966.528	2097.5
966.754	2096.5
966.98	2112.5
967.206	2085.5
967.431	2013.5
967.657	2091.5
967.883	2107.5
968.109	2055.5
968.334	2034.5
968.56	2015.5
968.785	2030.5
969.011	2007.5
969.236	2012.5
969.462	1971.5
969.687	2000.5
969.912	2068.5
970.138	2049.5
970.363	1997.5
970.588	1996.5
970.813	1985.5
971.038	1944.5
971.263	1976.5
971.488	1975.5
971.713	2015.5
971.938	2041.5
972.163	1874.5
972.388	1911.5
972.613	1891.5
972.838	1915.5
973.062	1914.5
973.287	1908.5
973.512	1852.5
973.736	1858.5
973.961	1879.5
974.185	1869.5
974.41	1889.5
974.634	1786.5
974.858	1820.5
975.083	1833.5
975.307	1916.5
975.531	1783.5
975.755	1772.5
975.98	1777.5
976.204	1715.5
976.428	1700.5
976.652	1716.5
976.876	1706.5
977.1	1735.5
977.324	1702.5
977.547	1765.5
977.771	1755.5
977.995	1707.5
978.219	1660.5
978.442	1797.5
978.666	1752.5
978.89	1695.5
979.113	1727.5
979.337	1720.5
979.56	1636.5
979.783	1738.5
980.007	1638.5
980.23	1679.5
980.453	1650.5
980.677	1709.5
980.9	1671.5
981.123	1579.5
981.346	1658.5
981.569	1659.5
981.792	1676.5
982.015	1654.5
982.238	1589.5
982.461	1621.5
982.684	1600.5
982.907	1580.5
983.129	1551.5
983.352	1625.5
983.575	1600.5
983.797	1591.5
984.02	1523.5
984.242	1558.5
984.465	1547.5
984.687	1580.5
984.91	1613.5
985.132	1581.5
985.354	1586.5
985.577	1538.5
985.799	1539.5
986.021	1473.5
986.243	1507.5
986.465	1514.5
986.687	1571.5
986.909	1617.5
987.131	1534.5
987.353	1517.5
987.575	1517.5
987.797	1489.5
988.019	1430.5
988.241	1502.5
988.462	1424.5
988.684	1520.5
988.906	1539.5
989.127	1561.5
989.349	1450.5
989.57	1501.5
989.792	1496.5
990.013	1531.5
990.234	1517.5
990.456	1545.5
990.677	1555.5
990.898	1464.5
991.119	1487.5
991.341	1503.5
991.562	1422.5
991.783	1480.5
992.004	1427.5
992.225	1390.5
992.446	1454.5
992.667	1363.5
992.887	1480.5
993.108	1343.5
993.329	1481.5
993.55	1404.5
993.77	1356.5
993.991	1384.5
994.212	1399.5
994.432	1389.5
994.653	1419.5
994.873	1418.5
995.093	1287.5
995.314	1336.5
995.534	1424.5
995.754	1410.5
995.975	1454.5
996.195	1327.5
996.415	1409.5
996.635	1357.5
996.855	1380.5
997.075	1345.5
997.295	1357.5
997.515	1328.5
997.735	1405.5
997.955	1387.5
998.174	1362.5
998.394	1306.5
998.614	1359.5
998.834	1320.5
999.053	1408.5
999.273	1359.5
999.492	1426.5
999.712	1328.5
999.931	1328.5
1000.151	1369.5
1000.37	1344.5
1000.589	1415.5
1000.809	1305.5
1001.028	1427.5
1001.247	1356.5
1001.466	1256.5
1001.685	1408.5
1001.904	1326.5
1002.123	1304.5
1002.342	1331.5
1002.561	1311.5
1002.78	1339.5
1002.999	1374.5
1003.218	1296.5
1003.436	1281.5
1003.655	1355.5
1003.874	1288.5
1004.092	1324.5
1004.311	1364.5
1004.53	1320.5
1004.748	1382.5
1004.966	1292.5
1005.185	1360.5
1005.403	1330.5
1005.622	1329.5
1005.84	1427.5
1006.058	1294.5
1006.276	1339.5
1006.494	1832.5
1006.712	1322.5
1006.931	1385.5
1007.149	1302.5
1007.367	1289.5
1007.584	1341.5
1007.802	1402.5
1008.02	1338.5
1008.238	1443.5
1008.456	1446.5
1008.673	1296.5
1008.891	1433.5
1009.109	1375.5
1009.326	1433.5
1009.544	1520.5
1009.761	1433.5
1009.979	1536.5
1010.196	1583.5
1010.413	1696.5
1010.631	1740.5
1010.848	1753.5
1011.065	1748.5
1011.282	1726.5
1011.5	1653.5
1011.717	1748.5
1011.934	1686.5
1012.151	1751.5
1012.368	1690.5
1012.585	1683.5
1012.801	1715.5
1013.018	1695.5
1013.235	1662.5
1013.452	1676.5
1013.669	1701.5
1013.885	1668.5
1014.102	1715.5
1014.318	1688.5
1014.535	1634.5
1014.751	1678.5
1014.968	1695.5
1015.184	1698.5
1015.401	1611.5
1015.617	1617.5
1015.833	1567.5
1016.049	1618.5
1016.266	1578.5
1016.482	1559.5
1016.698	1477.5
1016.914	1555.5
1017.13	1458.5
1017.346	1489.5
1017.562	1569.5
1017.778	1486.5
1017.993	1423.5
1018.209	1513.5
1018.425	1453.5
1018.641	1428.5
1018.856	1434.5
1019.072	1445.5
1019.288	1484.5
1019.503	1455.5
1019.719	1349.5
1019.934	1373.5
1020.149	1427.5
1020.365	1403.5
1020.58	1354.5
1020.795	1388.5
1021.011	1319.5
1021.226	1278.5
1021.441	1293.5
1021.656	1189.5
1021.871	1147.5
1022.086	1160.5
1022.301	1152.5
1022.516	1149.5
1022.731	1191.5
1022.946	1095.5
1023.16	1088.5
1023.375	1046.5
1023.59	1048.5
1023.804	996.5
1024.019	1075.5
1024.234	978.5
1024.448	971.5
1024.663	924.5
1024.877	925.5
1025.092	957.5
1025.306	928.5
1025.52	854.5
1025.734	952.5
1025.949	854.5
1026.163	841.5
1026.377	754.5
1026.591	820.5
1026.805	744.5
1027.019	738.5
1027.233	706.5
1027.447	653.5
1027.661	770.5
1027.875	727.5
1028.088	716.5
1028.302	655.5
1028.516	640.5
1028.73	635.5
1028.943	630.5
1029.157	584.5
1029.37	551.5
1029.584	-2.5
1029.797	-2.5
1030.011	0.5
1030.224	-2.5
