Data from QEP037381__199__15-34-05-440.txt Node

Date: Wed Dec 21 15:34:05 EST 2022
User: dcclab
Spectrometer: QEP03738
Trigger mode: 4
Integration Time (sec): 1.000000E1
Scans to average: 1
Electric dark correction enabled: true
Nonlinearity correction enabled: false
Boxcar width: 0
XAxis mode: Wavelengths
Number of Pixels in Spectrum: 1044
>>>>>Begin Spectral Data<<<<<
784.041	12.75
784.3	0.75
784.558	-2.25
784.817	-3.25
785.075	119358.75
785.334	20327.75
785.592	9387.75
785.851	6433.75
786.109	4822.75
786.368	3709.75
786.626	2977.75
786.884	2448.75
787.143	2029.75
787.401	1649.75
787.659	1517.75
787.917	1286.75
788.175	1160.75
788.433	1024.75
788.691	923.75
788.949	861.75
789.207	785.75
789.465	670.75
789.723	660.75
789.98	619.75
790.238	637.75
790.496	610.75
790.753	568.75
791.011	625.75
791.268	544.75
791.526	534.75
791.783	535.75
792.041	523.75
792.298	455.75
792.556	508.75
792.813	484.75
793.07	463.75
793.327	458.75
793.584	529.75
793.841	450.75
794.099	476.75
794.356	515.75
794.613	419.75
794.869	470.75
795.126	424.75
795.383	412.75
795.64	411.75
795.897	375.75
796.153	432.75
796.41	416.75
796.667	391.75
796.923	404.75
797.18	399.75
797.436	438.75
797.693	385.75
797.949	437.75
798.206	456.75
798.462	375.75
798.718	439.75
798.974	398.75
799.231	455.75
799.487	432.75
799.743	442.75
799.999	449.75
800.255	463.75
800.511	435.75
800.767	461.75
801.023	454.75
801.279	478.75
801.534	482.75
801.79	505.75
802.046	518.75
802.302	623.75
802.557	671.75
802.813	815.75
803.068	913.75
803.324	1246.75
803.579	1589.75
803.835	2112.75
804.09	2827.75
804.345	3590.75
804.601	4448.75
804.856	5300.75
805.111	6172.75
805.366	6718.75
805.621	7104.75
805.876	7417.75
806.131	7613.75
806.386	7704.75
806.641	7834.75
806.896	7951.75
807.151	8041.75
807.406	8170.75
807.661	8257.75
807.915	8482.75
808.17	8588.75
808.425	8659.75
808.679	8617.75
808.934	8771.75
809.188	8701.75
809.443	8858.75
809.697	9038.75
809.951	9005.75
810.206	8994.75
810.46	9109.75
810.714	9244.75
810.968	9315.75
811.223	9381.75
811.477	9459.75
811.731	9554.75
811.985	9554.75
812.239	9493.75
812.493	9534.75
812.747	9578.75
813	9540.75
813.254	9573.75
813.508	9749.75
813.762	9667.75
814.015	9744.75
814.269	9751.75
814.522	9891.75
814.776	9979.75
815.03	9981.75
815.283	10259.75
815.536	10355.75
815.79	10495.75
816.043	10665.75
816.296	10720.75
816.55	10781.75
816.803	10925.75
817.056	11172.75
817.309	11118.75
817.562	11211.75
817.815	11413.75
818.068	11447.75
818.321	11490.75
818.574	11585.75
818.827	11710.75
819.079	11894.75
819.332	12246.75
819.585	12317.75
819.838	12501.75
820.09	12341.75
820.343	12486.75
820.595	12439.75
820.848	12572.75
821.1	12588.75
821.353	12650.75
821.605	12586.75
821.857	12611.75
822.11	12460.75
822.362	12434.75
822.614	12438.75
822.866	12543.75
823.118	12467.75
823.37	12540.75
823.622	12558.75
823.874	12689.75
824.126	12708.75
824.378	12601.75
824.63	12706.75
824.882	12685.75
825.134	12617.75
825.385	12672.75
825.637	12578.75
825.888	12516.75
826.14	12483.75
826.392	12288.75
826.643	12236.75
826.895	12298.75
827.146	12230.75
827.397	12148.75
827.649	12173.75
827.9	12153.75
828.151	12090.75
828.402	12133.75
828.653	12184.75
828.905	12244.75
829.156	12276.75
829.407	12243.75
829.658	12294.75
829.909	12513.75
830.159	12633.75
830.41	12459.75
830.661	12285.75
830.912	12147.75
831.162	12081.75
831.413	12118.75
831.664	12133.75
831.914	12119.75
832.165	12007.75
832.415	12082.75
832.666	12037.75
832.916	12131.75
833.167	12050.75
833.417	12073.75
833.667	11917.75
833.917	11913.75
834.168	11988.75
834.418	11895.75
834.668	11842.75
834.918	11786.75
835.168	11787.75
835.418	11648.75
835.668	11696.75
835.918	11682.75
836.167	11606.75
836.417	11546.75
836.667	11561.75
836.917	11595.75
837.166	11618.75
837.416	11616.75
837.666	11652.75
837.915	11646.75
838.165	11610.75
838.414	11484.75
838.663	11472.75
838.913	11553.75
839.162	11466.75
839.411	11558.75
839.661	11513.75
839.91	11510.75
840.159	11423.75
840.408	11427.75
840.657	11503.75
840.906	11422.75
841.155	11448.75
841.404	11324.75
841.653	11410.75
841.902	11385.75
842.15	11544.75
842.399	11483.75
842.648	11564.75
842.897	11535.75
843.145	11358.75
843.394	11296.75
843.642	11186.75
843.891	11209.75
844.139	11022.75
844.388	10900.75
844.636	10871.75
844.884	10860.75
845.133	10913.75
845.381	10996.75
845.629	10889.75
845.877	10936.75
846.125	10913.75
846.373	10899.75
846.621	10767.75
846.869	10778.75
847.117	10599.75
847.365	10615.75
847.613	10588.75
847.861	10631.75
848.108	10699.75
848.356	10689.75
848.604	10666.75
848.851	10628.75
849.099	10539.75
849.346	10500.75
849.594	10675.75
849.841	10618.75
850.089	10598.75
850.336	10704.75
850.583	10666.75
850.831	10671.75
851.078	10558.75
851.325	10534.75
851.572	10704.75
851.819	10671.75
852.066	10312.75
852.313	10232.75
852.56	10066.75
852.807	10085.75
853.054	10007.75
853.301	10173.75
853.548	10079.75
853.794	10216.75
854.041	10132.75
854.288	10145.75
854.534	10340.75
854.781	10397.75
855.028	10379.75
855.274	10364.75
855.52	10327.75
855.767	10350.75
856.013	10514.75
856.26	10835.75
856.506	10252.75
856.752	10243.75
856.998	10240.75
857.244	10260.75
857.49	10343.75
857.736	10323.75
857.982	10318.75
858.228	10264.75
858.474	10116.75
858.72	9936.75
858.966	9968.75
859.212	9723.75
859.458	9692.75
859.703	9597.75
859.949	9452.75
860.195	9400.75
860.44	9439.75
860.686	9346.75
860.931	9539.75
861.177	9305.75
861.422	9329.75
861.667	9133.75
861.913	9062.75
862.158	9097.75
862.403	9174.75
862.648	9086.75
862.893	9162.75
863.138	9130.75
863.384	8979.75
863.629	9084.75
863.873	9048.75
864.118	9058.75
864.363	8992.75
864.608	9025.75
864.853	8958.75
865.098	8907.75
865.342	8773.75
865.587	8775.75
865.832	8834.75
866.076	8763.75
866.321	8740.75
866.565	8652.75
866.81	8630.75
867.054	8632.75
867.298	8627.75
867.543	8602.75
867.787	8657.75
868.031	8555.75
868.275	8631.75
868.519	8475.75
868.764	8593.75
869.008	8516.75
869.252	8618.75
869.496	8556.75
869.739	8544.75
869.983	8598.75
870.227	8619.75
870.471	8632.75
870.715	8623.75
870.958	8706.75
871.202	8658.75
871.446	8732.75
871.689	8698.75
871.933	8692.75
872.176	8712.75
872.42	8657.75
872.663	8690.75
872.906	8800.75
873.15	8854.75
873.393	8951.75
873.636	9004.75
873.879	8900.75
874.122	8711.75
874.366	8524.75
874.609	8372.75
874.852	8251.75
875.095	8115.75
875.337	8093.75
875.58	8015.75
875.823	7988.75
876.066	7982.75
876.309	7973.75
876.551	7871.75
876.794	7804.75
877.037	7834.75
877.279	7687.75
877.522	7810.75
877.764	7719.75
878.007	7692.75
878.249	7731.75
878.491	7667.75
878.734	7663.75
878.976	7567.75
879.218	7487.75
879.46	7541.75
879.702	7492.75
879.945	7353.75
880.187	7330.75
880.429	7268.75
880.671	7205.75
880.912	7201.75
881.154	7134.75
881.396	7021.75
881.638	7153.75
881.88	7130.75
882.121	7082.75
882.363	7142.75
882.605	7217.75
882.846	7183.75
883.088	7249.75
883.329	7249.75
883.571	7422.75
883.812	7658.75
884.053	8136.75
884.295	8599.75
884.536	8749.75
884.777	8649.75
885.018	8511.75
885.259	8375.75
885.5	8215.75
885.742	8332.75
885.982	8120.75
886.223	7920.75
886.464	7840.75
886.705	7680.75
886.946	7511.75
887.187	7191.75
887.428	7132.75
887.668	6921.75
887.909	6742.75
888.15	6594.75
888.39	6570.75
888.631	6533.75
888.871	6433.75
889.111	6320.75
889.352	6290.75
889.592	6220.75
889.833	6174.75
890.073	6090.75
890.313	6093.75
890.553	5920.75
890.793	5980.75
891.033	6006.75
891.273	5917.75
891.513	5933.75
891.753	5957.75
891.993	5916.75
892.233	5869.75
892.473	5989.75
892.713	5915.75
892.952	5854.75
893.192	5877.75
893.432	5919.75
893.671	5877.75
893.911	5860.75
894.15	5788.75
894.39	5698.75
894.629	5723.75
894.869	5667.75
895.108	5641.75
895.347	5617.75
895.587	5698.75
895.826	5599.75
896.065	5588.75
896.304	5589.75
896.543	5621.75
896.782	5479.75
897.021	5562.75
897.26	5501.75
897.499	5586.75
897.738	5527.75
897.977	5483.75
898.216	5457.75
898.454	5412.75
898.693	5340.75
898.932	5384.75
899.17	5305.75
899.409	5320.75
899.647	5319.75
899.886	5282.75
900.124	5333.75
900.363	5339.75
900.601	5409.75
900.839	5379.75
901.078	5448.75
901.316	5482.75
901.554	5543.75
901.792	5626.75
902.03	5524.75
902.268	5575.75
902.506	5634.75
902.744	5514.75
902.982	5535.75
903.22	5405.75
903.458	5247.75
903.695	5212.75
903.933	5098.75
904.171	4956.75
904.409	4906.75
904.646	4837.75
904.884	4749.75
905.121	4757.75
905.359	4644.75
905.596	4676.75
905.833	4575.75
906.071	4556.75
906.308	4626.75
906.545	4499.75
906.783	4520.75
907.02	4528.75
907.257	4430.75
907.494	4488.75
907.731	4504.75
907.968	4494.75
908.205	4397.75
908.442	4379.75
908.679	4350.75
908.915	4358.75
909.152	4289.75
909.389	4214.75
909.626	4256.75
909.862	4143.75
910.099	4212.75
910.335	4234.75
910.572	4103.75
910.808	4136.75
911.045	4068.75
911.281	4060.75
911.518	4162.75
911.754	4034.75
911.99	4066.75
912.226	4022.75
912.463	3989.75
912.699	3947.75
912.935	3938.75
913.171	3891.75
913.407	3783.75
913.643	3898.75
913.879	3835.75
914.114	3794.75
914.35	3744.75
914.586	3691.75
914.822	3651.75
915.057	3727.75
915.293	3573.75
915.529	3609.75
915.764	3677.75
916	3615.75
916.235	3633.75
916.471	3588.75
916.706	3527.75
916.941	3526.75
917.177	3548.75
917.412	3559.75
917.647	3555.75
917.882	3494.75
918.117	3548.75
918.352	3526.75
918.588	3578.75
918.823	3471.75
919.057	3495.75
919.292	3331.75
919.527	3447.75
919.762	3363.75
919.997	3421.75
920.232	3296.75
920.466	3362.75
920.701	3200.75
920.935	3237.75
921.17	3192.75
921.405	3183.75
921.639	3268.75
921.873	3168.75
922.108	3190.75
922.342	3192.75
922.576	3107.75
922.811	3135.75
923.045	3150.75
923.279	3188.75
923.513	3031.75
923.747	3127.75
923.981	3084.75
924.215	3048.75
924.449	3036.75
924.683	2974.75
924.917	2996.75
925.151	2973.75
925.385	3004.75
925.618	2984.75
925.852	2976.75
926.086	2890.75
926.319	2958.75
926.553	2900.75
926.786	2944.75
927.02	2954.75
927.253	2999.75
927.486	2979.75
927.72	2892.75
927.953	2960.75
928.186	2865.75
928.42	2914.75
928.653	2867.75
928.886	2863.75
929.119	2858.75
929.352	2859.75
929.585	2832.75
929.818	2771.75
930.051	2824.75
930.284	2748.75
930.516	2678.75
930.749	2748.75
930.982	2719.75
931.215	2730.75
931.447	2680.75
931.68	2693.75
931.912	2673.75
932.145	2652.75
932.377	2687.75
932.61	2805.75
932.842	2598.75
933.074	2651.75
933.307	2623.75
933.539	2688.75
933.771	2707.75
934.003	2631.75
934.236	2705.75
934.468	2728.75
934.7	2633.75
934.932	2674.75
935.164	2593.75
935.395	2603.75
935.627	2611.75
935.859	2616.75
936.091	2576.75
936.323	2607.75
936.554	2629.75
936.786	2565.75
937.017	2523.75
937.249	2580.75
937.481	2517.75
937.712	2568.75
937.943	2542.75
938.175	2527.75
938.406	2544.75
938.637	2616.75
938.869	2457.75
939.1	2534.75
939.331	2490.75
939.562	2519.75
939.793	2521.75
940.024	2514.75
940.255	2488.75
940.486	2462.75
940.717	2434.75
940.948	2460.75
941.179	2387.75
941.409	2388.75
941.64	2413.75
941.871	2442.75
942.102	2415.75
942.332	2420.75
942.563	2467.75
942.793	2404.75
943.024	2393.75
943.254	2406.75
943.484	2424.75
943.715	2454.75
943.945	2442.75
944.175	2352.75
944.405	2342.75
944.636	2362.75
944.866	2412.75
945.096	2406.75
945.326	2341.75
945.556	2399.75
945.786	2435.75
946.016	2349.75
946.245	2291.75
946.475	2317.75
946.705	2315.75
946.935	2305.75
947.164	2342.75
947.394	2298.75
947.624	2272.75
947.853	2328.75
948.083	2276.75
948.312	2246.75
948.542	2180.75
948.771	2154.75
949	2193.75
949.23	2217.75
949.459	2191.75
949.688	2295.75
949.917	2214.75
950.146	2212.75
950.375	2276.75
950.604	2198.75
950.833	2243.75
951.062	2261.75
951.291	2189.75
951.52	2169.75
951.749	2200.75
951.978	2143.75
952.206	2141.75
952.435	2146.75
952.664	2173.75
952.892	2178.75
953.121	2155.75
953.349	2172.75
953.578	2171.75
953.806	2125.75
954.035	2103.75
954.263	2117.75
954.491	2069.75
954.719	2112.75
954.948	2059.75
955.176	2056.75
955.404	1987.75
955.632	2082.75
955.86	2063.75
956.088	2028.75
956.316	2072.75
956.544	2059.75
956.772	2035.75
956.999	1997.75
957.227	2075.75
957.455	1975.75
957.683	1962.75
957.91	1967.75
958.138	1933.75
958.365	1958.75
958.593	1937.75
958.82	1885.75
959.048	1949.75
959.275	1939.75
959.502	1947.75
959.73	1902.75
959.957	1963.75
960.184	1935.75
960.411	1889.75
960.638	1980.75
960.865	1918.75
961.092	1936.75
961.319	1848.75
961.546	1940.75
961.773	1928.75
962	1886.75
962.227	1945.75
962.454	1925.75
962.68	1889.75
962.907	1894.75
963.134	1849.75
963.36	1893.75
963.587	1908.75
963.813	1836.75
964.04	1881.75
964.266	1768.75
964.493	1914.75
964.719	1848.75
964.945	1867.75
965.171	1739.75
965.398	1801.75
965.624	1814.75
965.85	1764.75
966.076	1773.75
966.302	1804.75
966.528	1796.75
966.754	1800.75
966.98	1775.75
967.206	1778.75
967.431	1695.75
967.657	1803.75
967.883	1764.75
968.109	1765.75
968.334	1705.75
968.56	1701.75
968.785	1723.75
969.011	1675.75
969.236	1734.75
969.462	1700.75
969.687	1720.75
969.912	1742.75
970.138	1775.75
970.363	1675.75
970.588	1724.75
970.813	1710.75
971.038	1681.75
971.263	1707.75
971.488	1680.75
971.713	1721.75
971.938	1706.75
972.163	1612.75
972.388	1616.75
972.613	1631.75
972.838	1671.75
973.062	1636.75
973.287	1639.75
973.512	1554.75
973.736	1610.75
973.961	1582.75
974.185	1580.75
974.41	1628.75
974.634	1512.75
974.858	1555.75
975.083	1559.75
975.307	1577.75
975.531	1546.75
975.755	1500.75
975.98	1525.75
976.204	1449.75
976.428	1475.75
976.652	1476.75
976.876	1434.75
977.1	1488.75
977.324	1459.75
977.547	1487.75
977.771	1498.75
977.995	1478.75
978.219	1412.75
978.442	1541.75
978.666	1498.75
978.89	1477.75
979.113	1457.75
979.337	1459.75
979.56	1423.75
979.783	1508.75
980.007	1404.75
980.23	1464.75
980.453	1381.75
980.677	1462.75
980.9	1431.75
981.123	1354.75
981.346	1463.75
981.569	1443.75
981.792	1464.75
982.015	1416.75
982.238	1372.75
982.461	1407.75
982.684	1367.75
982.907	1342.75
983.129	1361.75
983.352	1400.75
983.575	1341.75
983.797	1380.75
984.02	1362.75
984.242	1337.75
984.465	1359.75
984.687	1385.75
984.91	1403.75
985.132	1369.75
985.354	1400.75
985.577	1372.75
985.799	1372.75
986.021	1304.75
986.243	1288.75
986.465	1315.75
986.687	1360.75
986.909	1409.75
987.131	1365.75
987.353	1319.75
987.575	1356.75
987.797	1326.75
988.019	1257.75
988.241	1330.75
988.462	1280.75
988.684	1355.75
988.906	1367.75
989.127	1393.75
989.349	1266.75
989.57	1309.75
989.792	1373.75
990.013	1351.75
990.234	1358.75
990.456	1393.75
990.677	1394.75
990.898	1304.75
991.119	1324.75
991.341	1365.75
991.562	1255.75
991.783	1326.75
992.004	1290.75
992.225	1232.75
992.446	1320.75
992.667	1209.75
992.887	1298.75
993.108	1214.75
993.329	1322.75
993.55	1304.75
993.77	1222.75
993.991	1231.75
994.212	1266.75
994.432	1264.75
994.653	1303.75
994.873	1274.75
995.093	1165.75
995.314	1218.75
995.534	1286.75
995.754	1303.75
995.975	1307.75
996.195	1213.75
996.415	1271.75
996.635	1269.75
996.855	1256.75
997.075	1243.75
997.295	1253.75
997.515	1231.75
997.735	1284.75
997.955	1259.75
998.174	1253.75
998.394	1239.75
998.614	1283.75
998.834	1242.75
999.053	1317.75
999.273	1250.75
999.492	1315.75
999.712	1256.75
999.931	1223.75
1000.151	1252.75
1000.37	1211.75
1000.589	1271.75
1000.809	1205.75
1001.028	1312.75
1001.247	1251.75
1001.466	1184.75
1001.685	1298.75
1001.904	1229.75
1002.123	1228.75
1002.342	1236.75
1002.561	1191.75
1002.78	1201.75
1002.999	1288.75
1003.218	1203.75
1003.436	1204.75
1003.655	1245.75
1003.874	1196.75
1004.092	1205.75
1004.311	1262.75
1004.53	1220.75
1004.748	1297.75
1004.966	1208.75
1005.185	1281.75
1005.403	1290.75
1005.622	1249.75
1005.84	1338.75
1006.058	1212.75
1006.276	1247.75
1006.494	1760.75
1006.712	1237.75
1006.931	1324.75
1007.149	1229.75
1007.367	1246.75
1007.584	1295.75
1007.802	1339.75
1008.02	1289.75
1008.238	1399.75
1008.456	1400.75
1008.673	1313.75
1008.891	1433.75
1009.109	1388.75
1009.326	1469.75
1009.544	1607.75
1009.761	1530.75
1009.979	1670.75
1010.196	1734.75
1010.413	1855.75
1010.631	1993.75
1010.848	2003.75
1011.065	2055.75
1011.282	2022.75
1011.5	1969.75
1011.717	2056.75
1011.934	1984.75
1012.151	1980.75
1012.368	1972.75
1012.585	1910.75
1012.801	1983.75
1013.018	1962.75
1013.235	1935.75
1013.452	1948.75
1013.669	1946.75
1013.885	1956.75
1014.102	2019.75
1014.318	1988.75
1014.535	2000.75
1014.751	2008.75
1014.968	1955.75
1015.184	2016.75
1015.401	1878.75
1015.617	1922.75
1015.833	1842.75
1016.049	1823.75
1016.266	1825.75
1016.482	1816.75
1016.698	1677.75
1016.914	1752.75
1017.13	1668.75
1017.346	1662.75
1017.562	1737.75
1017.778	1651.75
1017.993	1608.75
1018.209	1673.75
1018.425	1617.75
1018.641	1587.75
1018.856	1553.75
1019.072	1583.75
1019.288	1648.75
1019.503	1569.75
1019.719	1512.75
1019.934	1516.75
1020.149	1587.75
1020.365	1510.75
1020.58	1445.75
1020.795	1477.75
1021.011	1403.75
1021.226	1351.75
1021.441	1381.75
1021.656	1273.75
1021.871	1229.75
1022.086	1205.75
1022.301	1189.75
1022.516	1170.75
1022.731	1224.75
1022.946	1130.75
1023.16	1098.75
1023.375	1049.75
1023.59	1032.75
1023.804	1015.75
1024.019	1112.75
1024.234	954.75
1024.448	980.75
1024.663	911.75
1024.877	921.75
1025.092	930.75
1025.306	915.75
1025.52	846.75
1025.734	933.75
1025.949	847.75
1026.163	809.75
1026.377	747.75
1026.591	791.75
1026.805	743.75
1027.019	721.75
1027.233	688.75
1027.447	635.75
1027.661	736.75
1027.875	682.75
1028.088	686.75
1028.302	608.75
1028.516	588.75
1028.73	609.75
1028.943	596.75
1029.157	533.75
1029.37	516.75
1029.584	-1.25
1029.797	-3.25
1030.011	-3.25
1030.224	-0.25
