Data from QEP037381__185__15-31-45-441.txt Node

Date: Wed Dec 21 15:31:45 EST 2022
User: dcclab
Spectrometer: QEP03738
Trigger mode: 4
Integration Time (sec): 1.000000E1
Scans to average: 1
Electric dark correction enabled: true
Nonlinearity correction enabled: false
Boxcar width: 0
XAxis mode: Wavelengths
Number of Pixels in Spectrum: 1044
>>>>>Begin Spectral Data<<<<<
784.041	10.38
784.3	0.38
784.558	-2.62
784.817	0.38
785.075	113890.38
785.334	19578.38
785.592	9064.38
785.851	6254.38
786.109	4705.38
786.368	3605.38
786.626	2925.38
786.884	2430.38
787.143	2069.38
787.401	1662.38
787.659	1482.38
787.917	1283.38
788.175	1170.38
788.433	1032.38
788.691	923.38
788.949	834.38
789.207	808.38
789.465	689.38
789.723	667.38
789.98	614.38
790.238	648.38
790.496	615.38
790.753	579.38
791.011	616.38
791.268	550.38
791.526	539.38
791.783	561.38
792.041	521.38
792.298	457.38
792.556	520.38
792.813	490.38
793.07	466.38
793.327	456.38
793.584	525.38
793.841	434.38
794.099	476.38
794.356	517.38
794.613	415.38
794.869	475.38
795.126	426.38
795.383	401.38
795.64	430.38
795.897	369.38
796.153	426.38
796.41	428.38
796.667	401.38
796.923	408.38
797.18	394.38
797.436	436.38
797.693	398.38
797.949	441.38
798.206	462.38
798.462	376.38
798.718	440.38
798.974	420.38
799.231	454.38
799.487	439.38
799.743	437.38
799.999	466.38
800.255	454.38
800.511	441.38
800.767	482.38
801.023	446.38
801.279	492.38
801.534	506.38
801.79	539.38
802.046	523.38
802.302	640.38
802.557	669.38
802.813	803.38
803.068	945.38
803.324	1257.38
803.579	1633.38
803.835	2209.38
804.09	3013.38
804.345	3819.38
804.601	4754.38
804.856	5668.38
805.111	6560.38
805.366	7091.38
805.621	7560.38
805.876	7954.38
806.131	8147.38
806.386	8215.38
806.641	8358.38
806.896	8504.38
807.151	8670.38
807.406	8724.38
807.661	8886.38
807.915	9021.38
808.17	9130.38
808.425	9195.38
808.679	9275.38
808.934	9426.38
809.188	9360.38
809.443	9546.38
809.697	9607.38
809.951	9670.38
810.206	9704.38
810.46	9799.38
810.714	9898.38
810.968	10017.38
811.223	10056.38
811.477	10179.38
811.731	10246.38
811.985	10223.38
812.239	10235.38
812.493	10208.38
812.747	10274.38
813	10281.38
813.254	10366.38
813.508	10399.38
813.762	10402.38
814.015	10470.38
814.269	10456.38
814.522	10582.38
814.776	10715.38
815.03	10752.38
815.283	10919.38
815.536	11079.38
815.79	11281.38
816.043	11398.38
816.296	11536.38
816.55	11636.38
816.803	11715.38
817.056	11938.38
817.309	12004.38
817.562	12032.38
817.815	12124.38
818.068	12235.38
818.321	12363.38
818.574	12373.38
818.827	12642.38
819.079	12707.38
819.332	13127.38
819.585	13182.38
819.838	13389.38
820.09	13248.38
820.343	13411.38
820.595	13310.38
820.848	13530.38
821.1	13524.38
821.353	13533.38
821.605	13430.38
821.857	13456.38
822.11	13391.38
822.362	13256.38
822.614	13323.38
822.866	13395.38
823.118	13348.38
823.37	13485.38
823.622	13520.38
823.874	13527.38
824.126	13579.38
824.378	13466.38
824.63	13562.38
824.882	13563.38
825.134	13480.38
825.385	13499.38
825.637	13385.38
825.888	13284.38
826.14	13311.38
826.392	13286.38
826.643	13141.38
826.895	13087.38
827.146	12991.38
827.397	12926.38
827.649	13039.38
827.9	12964.38
828.151	12938.38
828.402	13018.38
828.653	13014.38
828.905	13053.38
829.156	13227.38
829.407	13044.38
829.658	13171.38
829.909	13339.38
830.159	13340.38
830.41	13340.38
830.661	13177.38
830.912	12833.38
831.162	12935.38
831.413	12892.38
831.664	12981.38
831.914	12854.38
832.165	12823.38
832.415	12852.38
832.666	12871.38
832.916	12899.38
833.167	12845.38
833.417	12875.38
833.667	12701.38
833.917	12677.38
834.168	12777.38
834.418	12586.38
834.668	12633.38
834.918	12424.38
835.168	12507.38
835.418	12382.38
835.668	12402.38
835.918	12355.38
836.167	12325.38
836.417	12183.38
836.667	12325.38
836.917	12327.38
837.166	12235.38
837.416	12343.38
837.666	12378.38
837.915	12248.38
838.165	12255.38
838.414	12236.38
838.663	12184.38
838.913	12250.38
839.162	12194.38
839.411	12219.38
839.661	12113.38
839.91	12152.38
840.159	12135.38
840.408	12240.38
840.657	12124.38
840.906	12108.38
841.155	12026.38
841.404	12023.38
841.653	12074.38
841.902	12004.38
842.15	12084.38
842.399	12259.38
842.648	12198.38
842.897	12179.38
843.145	11952.38
843.394	11980.38
843.642	11850.38
843.891	11790.38
844.139	11657.38
844.388	11436.38
844.636	11421.38
844.884	11608.38
845.133	11478.38
845.381	11536.38
845.629	11540.38
845.877	11473.38
846.125	11506.38
846.373	11431.38
846.621	11325.38
846.869	11360.38
847.117	11260.38
847.365	11228.38
847.613	11181.38
847.861	11202.38
848.108	11195.38
848.356	11232.38
848.604	11146.38
848.851	11273.38
849.099	11135.38
849.346	11196.38
849.594	11172.38
849.841	11228.38
850.089	11187.38
850.336	11266.38
850.583	11279.38
850.831	11226.38
851.078	11141.38
851.325	11170.38
851.572	11327.38
851.819	11148.38
852.066	10912.38
852.313	10749.38
852.56	10543.38
852.807	10579.38
853.054	10616.38
853.301	10557.38
853.548	10621.38
853.794	10736.38
854.041	10704.38
854.288	10745.38
854.534	10830.38
854.781	10898.38
855.028	10821.38
855.274	10934.38
855.52	10906.38
855.767	10876.38
856.013	10978.38
856.26	11398.38
856.506	10799.38
856.752	10771.38
856.998	10689.38
857.244	10746.38
857.49	10827.38
857.736	10824.38
857.982	10887.38
858.228	10763.38
858.474	10561.38
858.72	10448.38
858.966	10388.38
859.212	10241.38
859.458	10098.38
859.703	10052.38
859.949	9908.38
860.195	9945.38
860.44	9892.38
860.686	9852.38
860.931	9853.38
861.177	9820.38
861.422	9704.38
861.667	9584.38
861.913	9539.38
862.158	9519.38
862.403	9517.38
862.648	9585.38
862.893	9546.38
863.138	9530.38
863.384	9432.38
863.629	9491.38
863.873	9466.38
864.118	9433.38
864.363	9406.38
864.608	9404.38
864.853	9341.38
865.098	9186.38
865.342	9239.38
865.587	9185.38
865.832	9188.38
866.076	9228.38
866.321	9100.38
866.565	9075.38
866.81	9000.38
867.054	9006.38
867.298	8986.38
867.543	8914.38
867.787	8933.38
868.031	9040.38
868.275	8912.38
868.519	8915.38
868.764	8988.38
869.008	8920.38
869.252	8934.38
869.496	8956.38
869.739	8908.38
869.983	8982.38
870.227	8978.38
870.471	8976.38
870.715	9087.38
870.958	9074.38
871.202	9004.38
871.446	9073.38
871.689	9081.38
871.933	9119.38
872.176	9090.38
872.42	9091.38
872.663	9119.38
872.906	9218.38
873.15	9280.38
873.393	9331.38
873.636	9422.38
873.879	9287.38
874.122	9098.38
874.366	8903.38
874.609	8773.38
874.852	8624.38
875.095	8588.38
875.337	8413.38
875.58	8347.38
875.823	8345.38
876.066	8382.38
876.309	8309.38
876.551	8158.38
876.794	8102.38
877.037	8148.38
877.279	8083.38
877.522	8093.38
877.764	8095.38
878.007	8003.38
878.249	7971.38
878.491	7982.38
878.734	7990.38
878.976	7928.38
879.218	7841.38
879.46	7851.38
879.702	7746.38
879.945	7709.38
880.187	7542.38
880.429	7585.38
880.671	7448.38
880.912	7510.38
881.154	7430.38
881.396	7384.38
881.638	7455.38
881.88	7374.38
882.121	7385.38
882.363	7400.38
882.605	7487.38
882.846	7398.38
883.088	7418.38
883.329	7524.38
883.571	7687.38
883.812	7961.38
884.053	8412.38
884.295	8845.38
884.536	9136.38
884.777	9004.38
885.018	8870.38
885.259	8680.38
885.5	8461.38
885.742	8776.38
885.982	8411.38
886.223	8229.38
886.464	8158.38
886.705	7908.38
886.946	7812.38
887.187	7500.38
887.428	7386.38
887.668	7092.38
887.909	7033.38
888.15	6853.38
888.39	6807.38
888.631	6819.38
888.871	6637.38
889.111	6571.38
889.352	6572.38
889.592	6436.38
889.833	6356.38
890.073	6343.38
890.313	6324.38
890.553	6133.38
890.793	6187.38
891.033	6123.38
891.273	6114.38
891.513	6181.38
891.753	6142.38
891.993	6065.38
892.233	6101.38
892.473	6171.38
892.713	6101.38
892.952	6044.38
893.192	6095.38
893.432	6027.38
893.671	6090.38
893.911	5979.38
894.15	5993.38
894.39	5879.38
894.629	5936.38
894.869	5911.38
895.108	5817.38
895.347	5768.38
895.587	5772.38
895.826	5746.38
896.065	5737.38
896.304	5825.38
896.543	5819.38
896.782	5673.38
897.021	5761.38
897.26	5680.38
897.499	5769.38
897.738	5771.38
897.977	5648.38
898.216	5623.38
898.454	5612.38
898.693	5526.38
898.932	5609.38
899.17	5550.38
899.409	5477.38
899.647	5512.38
899.886	5405.38
900.124	5475.38
900.363	5422.38
900.601	5502.38
900.839	5511.38
901.078	5611.38
901.316	5636.38
901.554	5744.38
901.792	5818.38
902.03	5698.38
902.268	5696.38
902.506	5721.38
902.744	5742.38
902.982	5733.38
903.22	5562.38
903.458	5507.38
903.695	5391.38
903.933	5285.38
904.171	5082.38
904.409	5031.38
904.646	4963.38
904.884	4886.38
905.121	4864.38
905.359	4798.38
905.596	4741.38
905.833	4666.38
906.071	4698.38
906.308	4729.38
906.545	4650.38
906.783	4585.38
907.02	4629.38
907.257	4605.38
907.494	4599.38
907.731	4624.38
907.968	4583.38
908.205	4551.38
908.442	4533.38
908.679	4510.38
908.915	4426.38
909.152	4435.38
909.389	4263.38
909.626	4366.38
909.862	4311.38
910.099	4282.38
910.335	4290.38
910.572	4236.38
910.808	4215.38
911.045	4201.38
911.281	4152.38
911.518	4231.38
911.754	4157.38
911.99	4118.38
912.226	4128.38
912.463	4070.38
912.699	4024.38
912.935	3961.38
913.171	3953.38
913.407	3925.38
913.643	3988.38
913.879	3929.38
914.114	3871.38
914.35	3775.38
914.586	3793.38
914.822	3736.38
915.057	3864.38
915.293	3616.38
915.529	3646.38
915.764	3695.38
916	3684.38
916.235	3652.38
916.471	3694.38
916.706	3593.38
916.941	3665.38
917.177	3618.38
917.412	3654.38
917.647	3661.38
917.882	3587.38
918.117	3624.38
918.352	3626.38
918.588	3656.38
918.823	3578.38
919.057	3483.38
919.292	3403.38
919.527	3486.38
919.762	3402.38
919.997	3469.38
920.232	3355.38
920.466	3414.38
920.701	3256.38
920.935	3332.38
921.17	3280.38
921.405	3244.38
921.639	3298.38
921.873	3261.38
922.108	3270.38
922.342	3229.38
922.576	3133.38
922.811	3170.38
923.045	3195.38
923.279	3246.38
923.513	3072.38
923.747	3163.38
923.981	3131.38
924.215	3073.38
924.449	3089.38
924.683	3012.38
924.917	2991.38
925.151	3020.38
925.385	3074.38
925.618	3051.38
925.852	3042.38
926.086	2977.38
926.319	3005.38
926.553	3004.38
926.786	3005.38
927.02	2963.38
927.253	3009.38
927.486	3017.38
927.72	2918.38
927.953	2988.38
928.186	2943.38
928.42	2959.38
928.653	2883.38
928.886	2946.38
929.119	2935.38
929.352	2917.38
929.585	2911.38
929.818	2810.38
930.051	2854.38
930.284	2836.38
930.516	2712.38
930.749	2765.38
930.982	2803.38
931.215	2809.38
931.447	2707.38
931.68	2703.38
931.912	2673.38
932.145	2713.38
932.377	2693.38
932.61	2827.38
932.842	2667.38
933.074	2670.38
933.307	2675.38
933.539	2768.38
933.771	2724.38
934.003	2690.38
934.236	2784.38
934.468	2738.38
934.7	2708.38
934.932	2735.38
935.164	2666.38
935.395	2647.38
935.627	2688.38
935.859	2638.38
936.091	2584.38
936.323	2645.38
936.554	2649.38
936.786	2598.38
937.017	2590.38
937.249	2610.38
937.481	2551.38
937.712	2622.38
937.943	2587.38
938.175	2563.38
938.406	2559.38
938.637	2600.38
938.869	2540.38
939.1	2603.38
939.331	2525.38
939.562	2568.38
939.793	2537.38
940.024	2561.38
940.255	2598.38
940.486	2506.38
940.717	2496.38
940.948	2463.38
941.179	2441.38
941.409	2477.38
941.64	2458.38
941.871	2479.38
942.102	2464.38
942.332	2424.38
942.563	2487.38
942.793	2450.38
943.024	2390.38
943.254	2417.38
943.484	2453.38
943.715	2509.38
943.945	2441.38
944.175	2375.38
944.405	2347.38
944.636	2354.38
944.866	2464.38
945.096	2408.38
945.326	2358.38
945.556	2417.38
945.786	2432.38
946.016	2380.38
946.245	2325.38
946.475	2316.38
946.705	2323.38
946.935	2335.38
947.164	2329.38
947.394	2257.38
947.624	2279.38
947.853	2327.38
948.083	2258.38
948.312	2295.38
948.542	2234.38
948.771	2251.38
949	2257.38
949.23	2246.38
949.459	2247.38
949.688	2303.38
949.917	2226.38
950.146	2265.38
950.375	2308.38
950.604	2181.38
950.833	2274.38
951.062	2276.38
951.291	2195.38
951.52	2200.38
951.749	2225.38
951.978	2120.38
952.206	2122.38
952.435	2169.38
952.664	2231.38
952.892	2199.38
953.121	2179.38
953.349	2184.38
953.578	2195.38
953.806	2139.38
954.035	2085.38
954.263	2106.38
954.491	2109.38
954.719	2139.38
954.948	2095.38
955.176	2060.38
955.404	1993.38
955.632	2074.38
955.86	2089.38
956.088	2073.38
956.316	2087.38
956.544	2120.38
956.772	2021.38
956.999	2015.38
957.227	2095.38
957.455	1992.38
957.683	1997.38
957.91	1967.38
958.138	1950.38
958.365	1971.38
958.593	1981.38
958.82	1876.38
959.048	1987.38
959.275	1940.38
959.502	1950.38
959.73	1916.38
959.957	1955.38
960.184	1966.38
960.411	1912.38
960.638	1996.38
960.865	1919.38
961.092	1961.38
961.319	1876.38
961.546	1960.38
961.773	1941.38
962	1885.38
962.227	1963.38
962.454	1931.38
962.68	1848.38
962.907	1903.38
963.134	1851.38
963.36	1881.38
963.587	1887.38
963.813	1827.38
964.04	1903.38
964.266	1841.38
964.493	1925.38
964.719	1845.38
964.945	1880.38
965.171	1763.38
965.398	1825.38
965.624	1846.38
965.85	1754.38
966.076	1786.38
966.302	1818.38
966.528	1774.38
966.754	1791.38
966.98	1801.38
967.206	1808.38
967.431	1713.38
967.657	1810.38
967.883	1779.38
968.109	1753.38
968.334	1734.38
968.56	1735.38
968.785	1752.38
969.011	1670.38
969.236	1713.38
969.462	1711.38
969.687	1710.38
969.912	1750.38
970.138	1755.38
970.363	1660.38
970.588	1706.38
970.813	1678.38
971.038	1679.38
971.263	1698.38
971.488	1688.38
971.713	1727.38
971.938	1688.38
972.163	1594.38
972.388	1642.38
972.613	1628.38
972.838	1659.38
973.062	1632.38
973.287	1606.38
973.512	1575.38
973.736	1619.38
973.961	1589.38
974.185	1571.38
974.41	1644.38
974.634	1557.38
974.858	1542.38
975.083	1589.38
975.307	1612.38
975.531	1534.38
975.755	1496.38
975.98	1518.38
976.204	1448.38
976.428	1443.38
976.652	1463.38
976.876	1449.38
977.1	1490.38
977.324	1435.38
977.547	1515.38
977.771	1543.38
977.995	1486.38
978.219	1441.38
978.442	1509.38
978.666	1496.38
978.89	1470.38
979.113	1474.38
979.337	1452.38
979.56	1436.38
979.783	1525.38
980.007	1421.38
980.23	1463.38
980.453	1419.38
980.677	1452.38
980.9	1418.38
981.123	1359.38
981.346	1457.38
981.569	1435.38
981.792	1449.38
982.015	1423.38
982.238	1362.38
982.461	1395.38
982.684	1358.38
982.907	1366.38
983.129	1331.38
983.352	1396.38
983.575	1373.38
983.797	1384.38
984.02	1324.38
984.242	1348.38
984.465	1381.38
984.687	1382.38
984.91	1408.38
985.132	1376.38
985.354	1380.38
985.577	1378.38
985.799	1351.38
986.021	1277.38
986.243	1332.38
986.465	1336.38
986.687	1393.38
986.909	1409.38
987.131	1329.38
987.353	1313.38
987.575	1365.38
987.797	1308.38
988.019	1253.38
988.241	1326.38
988.462	1283.38
988.684	1359.38
988.906	1373.38
989.127	1401.38
989.349	1265.38
989.57	1308.38
989.792	1344.38
990.013	1374.38
990.234	1373.38
990.456	1368.38
990.677	1360.38
990.898	1321.38
991.119	1330.38
991.341	1341.38
991.562	1264.38
991.783	1340.38
992.004	1267.38
992.225	1253.38
992.446	1293.38
992.667	1215.38
992.887	1270.38
993.108	1207.38
993.329	1325.38
993.55	1263.38
993.77	1226.38
993.991	1248.38
994.212	1280.38
994.432	1256.38
994.653	1252.38
994.873	1264.38
995.093	1172.38
995.314	1218.38
995.534	1270.38
995.754	1295.38
995.975	1317.38
996.195	1179.38
996.415	1289.38
996.635	1250.38
996.855	1288.38
997.075	1247.38
997.295	1262.38
997.515	1270.38
997.735	1289.38
997.955	1307.38
998.174	1249.38
998.394	1229.38
998.614	1287.38
998.834	1231.38
999.053	1299.38
999.273	1264.38
999.492	1301.38
999.712	1244.38
999.931	1217.38
1000.151	1247.38
1000.37	1224.38
1000.589	1281.38
1000.809	1198.38
1001.028	1308.38
1001.247	1246.38
1001.466	1170.38
1001.685	1290.38
1001.904	1240.38
1002.123	1229.38
1002.342	1220.38
1002.561	1181.38
1002.78	1223.38
1002.999	1278.38
1003.218	1221.38
1003.436	1193.38
1003.655	1254.38
1003.874	1186.38
1004.092	1220.38
1004.311	1261.38
1004.53	1204.38
1004.748	1287.38
1004.966	1206.38
1005.185	1268.38
1005.403	1265.38
1005.622	1245.38
1005.84	1324.38
1006.058	1234.38
1006.276	1235.38
1006.494	1746.38
1006.712	1270.38
1006.931	1316.38
1007.149	1253.38
1007.367	1282.38
1007.584	1304.38
1007.802	1340.38
1008.02	1299.38
1008.238	1394.38
1008.456	1427.38
1008.673	1309.38
1008.891	1414.38
1009.109	1401.38
1009.326	1480.38
1009.544	1623.38
1009.761	1537.38
1009.979	1669.38
1010.196	1766.38
1010.413	1915.38
1010.631	1981.38
1010.848	2078.38
1011.065	2121.38
1011.282	2043.38
1011.5	2009.38
1011.717	2056.38
1011.934	1997.38
1012.151	2006.38
1012.368	2014.38
1012.585	1936.38
1012.801	2004.38
1013.018	1978.38
1013.235	1958.38
1013.452	1964.38
1013.669	1997.38
1013.885	1987.38
1014.102	2027.38
1014.318	2031.38
1014.535	2004.38
1014.751	2050.38
1014.968	2024.38
1015.184	2040.38
1015.401	1929.38
1015.617	1963.38
1015.833	1868.38
1016.049	1858.38
1016.266	1860.38
1016.482	1842.38
1016.698	1750.38
1016.914	1810.38
1017.13	1695.38
1017.346	1708.38
1017.562	1763.38
1017.778	1673.38
1017.993	1636.38
1018.209	1686.38
1018.425	1677.38
1018.641	1651.38
1018.856	1579.38
1019.072	1616.38
1019.288	1674.38
1019.503	1608.38
1019.719	1542.38
1019.934	1529.38
1020.149	1613.38
1020.365	1526.38
1020.58	1458.38
1020.795	1492.38
1021.011	1415.38
1021.226	1372.38
1021.441	1366.38
1021.656	1325.38
1021.871	1233.38
1022.086	1236.38
1022.301	1188.38
1022.516	1199.38
1022.731	1257.38
1022.946	1143.38
1023.16	1136.38
1023.375	1100.38
1023.59	1052.38
1023.804	1013.38
1024.019	1119.38
1024.234	953.38
1024.448	996.38
1024.663	931.38
1024.877	935.38
1025.092	941.38
1025.306	936.38
1025.52	836.38
1025.734	927.38
1025.949	837.38
1026.163	811.38
1026.377	764.38
1026.591	793.38
1026.805	735.38
1027.019	724.38
1027.233	685.38
1027.447	640.38
1027.661	731.38
1027.875	668.38
1028.088	699.38
1028.302	634.38
1028.516	611.38
1028.73	606.38
1028.943	608.38
1029.157	554.38
1029.37	522.38
1029.584	-2.62
1029.797	-3.62
1030.011	0.38
1030.224	-2.62
