Data from QEP037381__191__15-32-45-441.txt Node

Date: Wed Dec 21 15:32:45 EST 2022
User: dcclab
Spectrometer: QEP03738
Trigger mode: 4
Integration Time (sec): 1.000000E1
Scans to average: 1
Electric dark correction enabled: true
Nonlinearity correction enabled: false
Boxcar width: 0
XAxis mode: Wavelengths
Number of Pixels in Spectrum: 1044
>>>>>Begin Spectral Data<<<<<
784.041	12.75
784.3	-0.25
784.558	-2.25
784.817	-4.25
785.075	113563.75
785.334	20188.75
785.592	9585.75
785.851	6630.75
786.109	4965.75
786.368	3806.75
786.626	3075.75
786.884	2519.75
787.143	2081.75
787.401	1755.75
787.659	1519.75
787.917	1316.75
788.175	1217.75
788.433	1062.75
788.691	933.75
788.949	867.75
789.207	824.75
789.465	731.75
789.723	685.75
789.98	610.75
790.238	648.75
790.496	607.75
790.753	563.75
791.011	618.75
791.268	548.75
791.526	522.75
791.783	559.75
792.041	522.75
792.298	458.75
792.556	493.75
792.813	491.75
793.07	461.75
793.327	457.75
793.584	514.75
793.841	458.75
794.099	446.75
794.356	514.75
794.613	422.75
794.869	442.75
795.126	425.75
795.383	404.75
795.64	425.75
795.897	355.75
796.153	430.75
796.41	416.75
796.667	399.75
796.923	400.75
797.18	400.75
797.436	429.75
797.693	382.75
797.949	443.75
798.206	466.75
798.462	371.75
798.718	448.75
798.974	401.75
799.231	449.75
799.487	437.75
799.743	439.75
799.999	462.75
800.255	456.75
800.511	425.75
800.767	474.75
801.023	454.75
801.279	460.75
801.534	504.75
801.79	530.75
802.046	533.75
802.302	607.75
802.557	676.75
802.813	792.75
803.068	911.75
803.324	1176.75
803.579	1553.75
803.835	2088.75
804.09	2797.75
804.345	3552.75
804.601	4432.75
804.856	5296.75
805.111	6100.75
805.366	6540.75
805.621	7079.75
805.876	7313.75
806.131	7504.75
806.386	7618.75
806.641	7753.75
806.896	7839.75
807.151	8015.75
807.406	8047.75
807.661	8159.75
807.915	8305.75
808.17	8398.75
808.425	8500.75
808.679	8479.75
808.934	8677.75
809.188	8674.75
809.443	8824.75
809.697	8822.75
809.951	8862.75
810.206	8908.75
810.46	8995.75
810.714	9098.75
810.968	9170.75
811.223	9217.75
811.477	9367.75
811.731	9357.75
811.985	9373.75
812.239	9377.75
812.493	9415.75
812.747	9410.75
813	9442.75
813.254	9482.75
813.508	9532.75
813.762	9552.75
814.015	9628.75
814.269	9606.75
814.522	9711.75
814.776	9824.75
815.03	9852.75
815.283	10015.75
815.536	10180.75
815.79	10348.75
816.043	10478.75
816.296	10551.75
816.55	10694.75
816.803	10752.75
817.056	10954.75
817.309	11001.75
817.562	11043.75
817.815	11167.75
818.068	11187.75
818.321	11242.75
818.574	11374.75
818.827	11610.75
819.079	11645.75
819.332	12021.75
819.585	12011.75
819.838	12304.75
820.09	12124.75
820.343	12307.75
820.595	12248.75
820.848	12401.75
821.1	12447.75
821.353	12386.75
821.605	12310.75
821.857	12377.75
822.11	12269.75
822.362	12222.75
822.614	12212.75
822.866	12205.75
823.118	12237.75
823.37	12391.75
823.622	12411.75
823.874	12395.75
824.126	12527.75
824.378	12454.75
824.63	12422.75
824.882	12538.75
825.134	12402.75
825.385	12466.75
825.637	12327.75
825.888	12176.75
826.14	12226.75
826.392	12124.75
826.643	12079.75
826.895	12023.75
827.146	12049.75
827.397	11933.75
827.649	12008.75
827.9	11978.75
828.151	11891.75
828.402	11913.75
828.653	11901.75
828.905	12098.75
829.156	12018.75
829.407	11996.75
829.658	12126.75
829.909	12243.75
830.159	12431.75
830.41	12290.75
830.661	12146.75
830.912	12020.75
831.162	11866.75
831.413	11889.75
831.664	11887.75
831.914	11895.75
832.165	11864.75
832.415	11895.75
832.666	11830.75
832.916	11889.75
833.167	11896.75
833.417	11870.75
833.667	11798.75
833.917	11590.75
834.168	11690.75
834.418	11748.75
834.668	11684.75
834.918	11605.75
835.168	11607.75
835.418	11491.75
835.668	11474.75
835.918	11411.75
836.167	11405.75
836.417	11341.75
836.667	11359.75
836.917	11369.75
837.166	11367.75
837.416	11410.75
837.666	11373.75
837.915	11417.75
838.165	11367.75
838.414	11233.75
838.663	11210.75
838.913	11339.75
839.162	11260.75
839.411	11330.75
839.661	11209.75
839.91	11186.75
840.159	11255.75
840.408	11234.75
840.657	11306.75
840.906	11262.75
841.155	11207.75
841.404	11201.75
841.653	11162.75
841.902	11093.75
842.15	11273.75
842.399	11347.75
842.648	11340.75
842.897	11222.75
843.145	11165.75
843.394	11019.75
843.642	10971.75
843.891	10900.75
844.139	10859.75
844.388	10678.75
844.636	10663.75
844.884	10615.75
845.133	10627.75
845.381	10704.75
845.629	10711.75
845.877	10660.75
846.125	10619.75
846.373	10641.75
846.621	10524.75
846.869	10588.75
847.117	10478.75
847.365	10360.75
847.613	10390.75
847.861	10378.75
848.108	10433.75
848.356	10366.75
848.604	10339.75
848.851	10382.75
849.099	10285.75
849.346	10380.75
849.594	10402.75
849.841	10377.75
850.089	10427.75
850.336	10394.75
850.583	10450.75
850.831	10367.75
851.078	10287.75
851.325	10376.75
851.572	10502.75
851.819	10430.75
852.066	10077.75
852.313	9952.75
852.56	9894.75
852.807	9833.75
853.054	9839.75
853.301	9787.75
853.548	9857.75
853.794	10028.75
854.041	9975.75
854.288	9942.75
854.534	10122.75
854.781	10121.75
855.028	10097.75
855.274	10142.75
855.52	10054.75
855.767	10150.75
856.013	10318.75
856.26	10586.75
856.506	10018.75
856.752	9951.75
856.998	9988.75
857.244	10022.75
857.49	10079.75
857.736	10185.75
857.982	10039.75
858.228	10017.75
858.474	9809.75
858.72	9758.75
858.966	9645.75
859.212	9598.75
859.458	9458.75
859.703	9289.75
859.949	9255.75
860.195	9169.75
860.44	9172.75
860.686	9182.75
860.931	9228.75
861.177	9099.75
861.422	9038.75
861.667	8923.75
861.913	8842.75
862.158	8842.75
862.403	8907.75
862.648	8912.75
862.893	8925.75
863.138	8833.75
863.384	8825.75
863.629	8786.75
863.873	8821.75
864.118	8791.75
864.363	8760.75
864.608	8736.75
864.853	8721.75
865.098	8546.75
865.342	8539.75
865.587	8517.75
865.832	8571.75
866.076	8576.75
866.321	8445.75
866.565	8511.75
866.81	8384.75
867.054	8401.75
867.298	8426.75
867.543	8281.75
867.787	8367.75
868.031	8336.75
868.275	8311.75
868.519	8308.75
868.764	8310.75
869.008	8329.75
869.252	8325.75
869.496	8358.75
869.739	8274.75
869.983	8338.75
870.227	8424.75
870.471	8400.75
870.715	8376.75
870.958	8420.75
871.202	8450.75
871.446	8456.75
871.689	8432.75
871.933	8457.75
872.176	8520.75
872.42	8415.75
872.663	8438.75
872.906	8595.75
873.15	8663.75
873.393	8709.75
873.636	8805.75
873.879	8735.75
874.122	8526.75
874.366	8301.75
874.609	8217.75
874.852	7986.75
875.095	7942.75
875.337	7840.75
875.58	7740.75
875.823	7753.75
876.066	7836.75
876.309	7738.75
876.551	7676.75
876.794	7550.75
877.037	7613.75
877.279	7492.75
877.522	7551.75
877.764	7555.75
878.007	7506.75
878.249	7492.75
878.491	7417.75
878.734	7458.75
878.976	7372.75
879.218	7300.75
879.46	7319.75
879.702	7244.75
879.945	7143.75
880.187	7025.75
880.429	7026.75
880.671	7005.75
880.912	6940.75
881.154	6900.75
881.396	6850.75
881.638	6909.75
881.88	6920.75
882.121	6867.75
882.363	6896.75
882.605	6956.75
882.846	6972.75
883.088	7022.75
883.329	7112.75
883.571	7186.75
883.812	7465.75
884.053	7895.75
884.295	8380.75
884.536	8589.75
884.777	8467.75
885.018	8346.75
885.259	8184.75
885.5	8027.75
885.742	8230.75
885.982	7909.75
886.223	7730.75
886.464	7702.75
886.705	7445.75
886.946	7333.75
887.187	7051.75
887.428	6924.75
887.668	6727.75
887.909	6561.75
888.15	6380.75
888.39	6377.75
888.631	6341.75
888.871	6199.75
889.111	6187.75
889.352	6163.75
889.592	6049.75
889.833	5978.75
890.073	5952.75
890.313	5952.75
890.553	5811.75
890.793	5727.75
891.033	5751.75
891.273	5731.75
891.513	5674.75
891.753	5711.75
891.993	5718.75
892.233	5715.75
892.473	5805.75
892.713	5699.75
892.952	5641.75
893.192	5648.75
893.432	5651.75
893.671	5683.75
893.911	5643.75
894.15	5659.75
894.39	5538.75
894.629	5555.75
894.869	5546.75
895.108	5541.75
895.347	5453.75
895.587	5407.75
895.826	5410.75
896.065	5342.75
896.304	5454.75
896.543	5430.75
896.782	5325.75
897.021	5343.75
897.26	5332.75
897.499	5431.75
897.738	5362.75
897.977	5297.75
898.216	5286.75
898.454	5198.75
898.693	5182.75
898.932	5215.75
899.17	5167.75
899.409	5142.75
899.647	5103.75
899.886	5112.75
900.124	5183.75
900.363	5118.75
900.601	5156.75
900.839	5279.75
901.078	5322.75
901.316	5304.75
901.554	5363.75
901.792	5417.75
902.03	5420.75
902.268	5397.75
902.506	5430.75
902.744	5336.75
902.982	5381.75
903.22	5236.75
903.458	5127.75
903.695	5066.75
903.933	4886.75
904.171	4802.75
904.409	4695.75
904.646	4723.75
904.884	4563.75
905.121	4550.75
905.359	4512.75
905.596	4482.75
905.833	4423.75
906.071	4348.75
906.308	4410.75
906.545	4344.75
906.783	4342.75
907.02	4389.75
907.257	4299.75
907.494	4347.75
907.731	4323.75
907.968	4336.75
908.205	4263.75
908.442	4181.75
908.679	4217.75
908.915	4183.75
909.152	4150.75
909.389	4078.75
909.626	4074.75
909.862	4019.75
910.099	4041.75
910.335	4073.75
910.572	3933.75
910.808	3966.75
911.045	3908.75
911.281	3906.75
911.518	3967.75
911.754	3867.75
911.99	3874.75
912.226	3878.75
912.463	3822.75
912.699	3813.75
912.935	3818.75
913.171	3716.75
913.407	3687.75
913.643	3724.75
913.879	3682.75
914.114	3651.75
914.35	3566.75
914.586	3536.75
914.822	3487.75
915.057	3597.75
915.293	3496.75
915.529	3491.75
915.764	3531.75
916	3503.75
916.235	3499.75
916.471	3469.75
916.706	3369.75
916.941	3398.75
917.177	3429.75
917.412	3386.75
917.647	3446.75
917.882	3384.75
918.117	3410.75
918.352	3376.75
918.588	3458.75
918.823	3336.75
919.057	3338.75
919.292	3227.75
919.527	3324.75
919.762	3192.75
919.997	3267.75
920.232	3190.75
920.466	3198.75
920.701	3048.75
920.935	3092.75
921.17	3116.75
921.405	3049.75
921.639	3087.75
921.873	3055.75
922.108	3065.75
922.342	3053.75
922.576	3001.75
922.811	2975.75
923.045	3013.75
923.279	3049.75
923.513	2912.75
923.747	3000.75
923.981	2980.75
924.215	2923.75
924.449	2894.75
924.683	2869.75
924.917	2871.75
925.151	2872.75
925.385	2925.75
925.618	2824.75
925.852	2867.75
926.086	2797.75
926.319	2860.75
926.553	2799.75
926.786	2857.75
927.02	2789.75
927.253	2860.75
927.486	2847.75
927.72	2754.75
927.953	2835.75
928.186	2753.75
928.42	2796.75
928.653	2748.75
928.886	2723.75
929.119	2767.75
929.352	2727.75
929.585	2709.75
929.818	2688.75
930.051	2696.75
930.284	2680.75
930.516	2627.75
930.749	2630.75
930.982	2644.75
931.215	2613.75
931.447	2571.75
931.68	2551.75
931.912	2554.75
932.145	2551.75
932.377	2560.75
932.61	2712.75
932.842	2483.75
933.074	2581.75
933.307	2525.75
933.539	2608.75
933.771	2577.75
934.003	2549.75
934.236	2633.75
934.468	2630.75
934.7	2494.75
934.932	2565.75
935.164	2503.75
935.395	2472.75
935.627	2529.75
935.859	2549.75
936.091	2456.75
936.323	2533.75
936.554	2556.75
936.786	2444.75
937.017	2440.75
937.249	2457.75
937.481	2392.75
937.712	2478.75
937.943	2440.75
938.175	2409.75
938.406	2413.75
938.637	2481.75
938.869	2391.75
939.1	2481.75
939.331	2426.75
939.562	2418.75
939.793	2396.75
940.024	2433.75
940.255	2434.75
940.486	2363.75
940.717	2377.75
940.948	2382.75
941.179	2327.75
941.409	2370.75
941.64	2317.75
941.871	2340.75
942.102	2306.75
942.332	2343.75
942.563	2377.75
942.793	2320.75
943.024	2285.75
943.254	2348.75
943.484	2356.75
943.715	2368.75
943.945	2307.75
944.175	2279.75
944.405	2263.75
944.636	2274.75
944.866	2286.75
945.096	2308.75
945.326	2250.75
945.556	2314.75
945.786	2319.75
946.016	2246.75
946.245	2250.75
946.475	2231.75
946.705	2244.75
946.935	2225.75
947.164	2224.75
947.394	2188.75
947.624	2193.75
947.853	2207.75
948.083	2190.75
948.312	2161.75
948.542	2130.75
948.771	2092.75
949	2114.75
949.23	2124.75
949.459	2113.75
949.688	2184.75
949.917	2113.75
950.146	2162.75
950.375	2182.75
950.604	2087.75
950.833	2173.75
951.062	2168.75
951.291	2097.75
951.52	2082.75
951.749	2109.75
951.978	2055.75
952.206	2076.75
952.435	2078.75
952.664	2108.75
952.892	2105.75
953.121	2075.75
953.349	2089.75
953.578	2070.75
953.806	2065.75
954.035	1985.75
954.263	2045.75
954.491	1993.75
954.719	2032.75
954.948	1951.75
955.176	1950.75
955.404	1897.75
955.632	1989.75
955.86	1985.75
956.088	1959.75
956.316	1971.75
956.544	1995.75
956.772	1925.75
956.999	1924.75
957.227	2013.75
957.455	1903.75
957.683	1930.75
957.91	1889.75
958.138	1902.75
958.365	1936.75
958.593	1877.75
958.82	1839.75
959.048	1895.75
959.275	1860.75
959.502	1865.75
959.73	1818.75
959.957	1873.75
960.184	1862.75
960.411	1822.75
960.638	1928.75
960.865	1843.75
961.092	1879.75
961.319	1778.75
961.546	1887.75
961.773	1854.75
962	1815.75
962.227	1872.75
962.454	1830.75
962.68	1808.75
962.907	1849.75
963.134	1777.75
963.36	1829.75
963.587	1834.75
963.813	1753.75
964.04	1825.75
964.266	1762.75
964.493	1845.75
964.719	1790.75
964.945	1790.75
965.171	1710.75
965.398	1737.75
965.624	1752.75
965.85	1674.75
966.076	1694.75
966.302	1752.75
966.528	1705.75
966.754	1746.75
966.98	1708.75
967.206	1725.75
967.431	1667.75
967.657	1746.75
967.883	1719.75
968.109	1736.75
968.334	1645.75
968.56	1663.75
968.785	1671.75
969.011	1618.75
969.236	1678.75
969.462	1624.75
969.687	1628.75
969.912	1700.75
970.138	1703.75
970.363	1614.75
970.588	1630.75
970.813	1631.75
971.038	1607.75
971.263	1644.75
971.488	1629.75
971.713	1704.75
971.938	1629.75
972.163	1533.75
972.388	1555.75
972.613	1565.75
972.838	1613.75
973.062	1577.75
973.287	1567.75
973.512	1531.75
973.736	1540.75
973.961	1533.75
974.185	1536.75
974.41	1578.75
974.634	1461.75
974.858	1480.75
975.083	1521.75
975.307	1542.75
975.531	1489.75
975.755	1451.75
975.98	1474.75
976.204	1426.75
976.428	1389.75
976.652	1409.75
976.876	1408.75
977.1	1452.75
977.324	1418.75
977.547	1449.75
977.771	1443.75
977.995	1414.75
978.219	1356.75
978.442	1467.75
978.666	1445.75
978.89	1432.75
979.113	1403.75
979.337	1402.75
979.56	1383.75
979.783	1486.75
980.007	1367.75
980.23	1392.75
980.453	1387.75
980.677	1403.75
980.9	1386.75
981.123	1300.75
981.346	1402.75
981.569	1368.75
981.792	1414.75
982.015	1380.75
982.238	1340.75
982.461	1367.75
982.684	1314.75
982.907	1328.75
983.129	1315.75
983.352	1359.75
983.575	1329.75
983.797	1338.75
984.02	1283.75
984.242	1313.75
984.465	1318.75
984.687	1331.75
984.91	1388.75
985.132	1350.75
985.354	1354.75
985.577	1345.75
985.799	1343.75
986.021	1271.75
986.243	1275.75
986.465	1295.75
986.687	1341.75
986.909	1374.75
987.131	1296.75
987.353	1307.75
987.575	1296.75
987.797	1296.75
988.019	1219.75
988.241	1291.75
988.462	1248.75
988.684	1305.75
988.906	1350.75
989.127	1357.75
989.349	1216.75
989.57	1266.75
989.792	1313.75
990.013	1319.75
990.234	1340.75
990.456	1333.75
990.677	1351.75
990.898	1268.75
991.119	1273.75
991.341	1300.75
991.562	1256.75
991.783	1298.75
992.004	1244.75
992.225	1229.75
992.446	1280.75
992.667	1172.75
992.887	1290.75
993.108	1154.75
993.329	1321.75
993.55	1223.75
993.77	1206.75
993.991	1203.75
994.212	1220.75
994.432	1218.75
994.653	1250.75
994.873	1237.75
995.093	1093.75
995.314	1183.75
995.534	1254.75
995.754	1265.75
995.975	1285.75
996.195	1172.75
996.415	1252.75
996.635	1227.75
996.855	1247.75
997.075	1224.75
997.295	1244.75
997.515	1222.75
997.735	1272.75
997.955	1231.75
998.174	1241.75
998.394	1212.75
998.614	1248.75
998.834	1192.75
999.053	1266.75
999.273	1219.75
999.492	1299.75
999.712	1239.75
999.931	1179.75
1000.151	1236.75
1000.37	1219.75
1000.589	1267.75
1000.809	1183.75
1001.028	1308.75
1001.247	1233.75
1001.466	1118.75
1001.685	1275.75
1001.904	1212.75
1002.123	1205.75
1002.342	1188.75
1002.561	1169.75
1002.78	1197.75
1002.999	1242.75
1003.218	1209.75
1003.436	1178.75
1003.655	1214.75
1003.874	1181.75
1004.092	1199.75
1004.311	1227.75
1004.53	1176.75
1004.748	1279.75
1004.966	1195.75
1005.185	1243.75
1005.403	1237.75
1005.622	1241.75
1005.84	1293.75
1006.058	1204.75
1006.276	1235.75
1006.494	1744.75
1006.712	1231.75
1006.931	1312.75
1007.149	1214.75
1007.367	1239.75
1007.584	1271.75
1007.802	1333.75
1008.02	1263.75
1008.238	1401.75
1008.456	1397.75
1008.673	1309.75
1008.891	1405.75
1009.109	1390.75
1009.326	1471.75
1009.544	1588.75
1009.761	1541.75
1009.979	1650.75
1010.196	1742.75
1010.413	1831.75
1010.631	1966.75
1010.848	2041.75
1011.065	2034.75
1011.282	2011.75
1011.5	1980.75
1011.717	2055.75
1011.934	1974.75
1012.151	1992.75
1012.368	1983.75
1012.585	1963.75
1012.801	1985.75
1013.018	1955.75
1013.235	1934.75
1013.452	1944.75
1013.669	1992.75
1013.885	1977.75
1014.102	2037.75
1014.318	2020.75
1014.535	1969.75
1014.751	2031.75
1014.968	1993.75
1015.184	2000.75
1015.401	1895.75
1015.617	1946.75
1015.833	1864.75
1016.049	1828.75
1016.266	1816.75
1016.482	1815.75
1016.698	1715.75
1016.914	1744.75
1017.13	1710.75
1017.346	1661.75
1017.562	1699.75
1017.778	1638.75
1017.993	1621.75
1018.209	1667.75
1018.425	1638.75
1018.641	1620.75
1018.856	1585.75
1019.072	1618.75
1019.288	1654.75
1019.503	1592.75
1019.719	1517.75
1019.934	1505.75
1020.149	1581.75
1020.365	1517.75
1020.58	1446.75
1020.795	1486.75
1021.011	1396.75
1021.226	1372.75
1021.441	1373.75
1021.656	1263.75
1021.871	1230.75
1022.086	1192.75
1022.301	1176.75
1022.516	1189.75
1022.731	1234.75
1022.946	1108.75
1023.16	1101.75
1023.375	1077.75
1023.59	1046.75
1023.804	999.75
1024.019	1091.75
1024.234	945.75
1024.448	994.75
1024.663	887.75
1024.877	900.75
1025.092	912.75
1025.306	916.75
1025.52	810.75
1025.734	910.75
1025.949	831.75
1026.163	798.75
1026.377	739.75
1026.591	784.75
1026.805	722.75
1027.019	714.75
1027.233	672.75
1027.447	627.75
1027.661	723.75
1027.875	664.75
1028.088	668.75
1028.302	619.75
1028.516	609.75
1028.73	593.75
1028.943	594.75
1029.157	528.75
1029.37	507.75
1029.584	-4.25
1029.797	-1.25
1030.011	1.75
1030.224	-2.25
