Data from QEP037381__112__15-13-59-949.txt Node

Date: Thu Jan 27 15:13:59 EST 2022
User: dcclab
Spectrometer: QEP03738
Trigger mode: 4
Integration Time (sec): 3.000000E1
Scans to average: 1
Electric dark correction enabled: true
Nonlinearity correction enabled: false
Boxcar width: 0
XAxis mode: Wavelengths
Number of Pixels in Spectrum: 1044
>>>>>Begin Spectral Data<<<<<
783.959	12.12
784.218	0.12
784.476	-3.88
784.734	-3.88
784.992	2823.12
785.251	2632.12
785.509	2469.12
785.767	2251.12
786.025	2158.12
786.283	2053.12
786.541	2041.12
786.798	2032.12
787.056	1894.12
787.314	1621.12
787.572	1748.12
787.83	1612.12
788.087	1658.12
788.345	1520.12
788.602	1456.12
788.86	1425.12
789.117	1439.12
789.375	1288.12
789.632	1357.12
789.89	1233.12
790.147	1412.12
790.404	1342.12
790.661	1318.12
790.919	1476.12
791.176	1295.12
791.433	1309.12
791.69	1379.12
791.947	1351.12
792.204	1166.12
792.461	1398.12
792.718	1370.12
792.974	1335.12
793.231	1343.12
793.488	1588.12
793.745	1377.12
794.001	1452.12
794.258	1659.12
794.514	1430.12
794.771	1568.12
795.027	1539.12
795.284	1591.12
795.54	1717.12
795.797	1697.12
796.053	1996.12
796.309	2099.12
796.565	2166.12
796.822	2430.12
797.078	2620.12
797.334	2951.12
797.59	3089.12
797.846	3564.12
798.102	4004.12
798.358	4178.12
798.614	4812.12
798.869	5285.12
799.125	6039.12
799.381	6674.12
799.637	7535.12
799.892	8453.12
800.148	9234.12
800.403	9855.12
800.659	10389.12
800.914	10606.12
801.17	10770.12
801.425	11006.12
801.68	11101.12
801.936	11165.12
802.191	11498.12
802.446	11586.12
802.701	11896.12
802.957	11969.12
803.212	12272.12
803.467	12371.12
803.722	12634.12
803.977	13023.12
804.232	13197.12
804.486	13374.12
804.741	13664.12
804.996	13851.12
805.251	14063.12
805.505	14273.12
805.76	14567.12
806.015	14672.12
806.269	14848.12
806.524	14863.12
806.778	14934.12
807.033	15241.12
807.287	15235.12
807.541	15578.12
807.796	15654.12
808.05	15866.12
808.304	15884.12
808.558	15935.12
808.812	16299.12
809.066	16101.12
809.32	16214.12
809.574	16217.12
809.828	15934.12
810.082	16013.12
810.336	16222.12
810.59	16251.12
810.844	16329.12
811.097	16413.12
811.351	16830.12
811.605	17044.12
811.858	16862.12
812.112	16716.12
812.365	16780.12
812.619	16597.12
812.872	16295.12
813.126	16330.12
813.379	16164.12
813.632	16032.12
813.885	15861.12
814.139	15893.12
814.392	15973.12
814.645	16019.12
814.898	16011.12
815.151	16168.12
815.404	16223.12
815.657	16319.12
815.91	16414.12
816.163	16279.12
816.416	16417.12
816.668	16392.12
816.921	16605.12
817.174	16372.12
817.426	16332.12
817.679	16440.12
817.931	16210.12
818.184	16207.12
818.436	16300.12
818.689	16518.12
818.941	16353.12
819.194	16854.12
819.446	16611.12
819.698	16667.12
819.95	16362.12
820.202	16383.12
820.455	16027.12
820.707	16037.12
820.959	15863.12
821.211	15715.12
821.462	15480.12
821.714	15591.12
821.966	15079.12
822.218	14997.12
822.47	14701.12
822.722	14735.12
822.973	14548.12
823.225	14737.12
823.476	14593.12
823.728	14590.12
823.979	14629.12
824.231	14425.12
824.482	14433.12
824.734	14466.12
824.985	14280.12
825.236	14436.12
825.487	14241.12
825.739	14222.12
825.99	14165.12
826.241	13945.12
826.492	13796.12
826.743	13904.12
826.994	13670.12
827.245	13588.12
827.496	13741.12
827.747	13416.12
827.997	13338.12
828.248	13474.12
828.499	13551.12
828.75	13572.12
829	13619.12
829.251	13466.12
829.501	13574.12
829.752	13587.12
830.002	13581.12
830.253	13503.12
830.503	13464.12
830.753	13454.12
831.004	13421.12
831.254	13512.12
831.504	13617.12
831.754	13453.12
832.004	13524.12
832.254	13581.12
832.504	13534.12
832.754	13590.12
833.004	13279.12
833.254	13444.12
833.504	13287.12
833.754	13112.12
834.003	13192.12
834.253	12949.12
834.503	12805.12
834.752	12629.12
835.002	12466.12
835.252	12230.12
835.501	12292.12
835.75	12338.12
836	12307.12
836.249	12101.12
836.499	12152.12
836.748	12112.12
836.997	11771.12
837.246	11752.12
837.495	11658.12
837.744	11389.12
837.993	11310.12
838.242	11206.12
838.491	10931.12
838.74	11031.12
838.989	10931.12
839.238	11061.12
839.487	10740.12
839.736	10815.12
839.984	10645.12
840.233	10674.12
840.482	10621.12
840.73	10502.12
840.979	10565.12
841.227	10421.12
841.476	10466.12
841.724	10263.12
841.972	10440.12
842.221	10418.12
842.469	10349.12
842.717	10247.12
842.965	10127.12
843.213	10105.12
843.461	10079.12
843.71	10122.12
843.958	10019.12
844.205	9773.12
844.453	9695.12
844.701	9797.12
844.949	9696.12
845.197	9745.12
845.445	9812.12
845.692	9648.12
845.94	9607.12
846.188	9707.12
846.435	9721.12
846.683	9771.12
846.93	9861.12
847.178	9890.12
847.425	9919.12
847.672	9864.12
847.92	9816.12
848.167	9667.12
848.414	9550.12
848.661	9599.12
848.908	9556.12
849.155	9507.12
849.402	9587.12
849.649	9571.12
849.896	9560.12
850.143	9552.12
850.39	9526.12
850.637	9660.12
850.884	9616.12
851.131	9552.12
851.377	9657.12
851.624	9717.12
851.87	9493.12
852.117	9406.12
852.364	9285.12
852.61	9176.12
852.856	9205.12
853.103	9098.12
853.349	9065.12
853.595	9311.12
853.842	9044.12
854.088	8921.12
854.334	9176.12
854.58	8938.12
854.826	8861.12
855.072	9060.12
855.318	8823.12
855.564	8688.12
855.81	8834.12
856.056	9579.12
856.302	8667.12
856.548	8791.12
856.793	8648.12
857.039	8581.12
857.285	8674.12
857.53	8738.12
857.776	8769.12
858.021	8862.12
858.267	8716.12
858.512	8895.12
858.758	8887.12
859.003	8952.12
859.248	8879.12
859.493	8800.12
859.739	8792.12
859.984	8871.12
860.229	8826.12
860.474	8607.12
860.719	8747.12
860.964	8475.12
861.209	8644.12
861.454	8434.12
861.699	8428.12
861.943	8443.12
862.188	8483.12
862.433	8441.12
862.678	8561.12
862.922	8411.12
863.167	8298.12
863.411	8379.12
863.656	8429.12
863.9	8325.12
864.145	8204.12
864.389	8379.12
864.634	8423.12
864.878	8308.12
865.122	8361.12
865.366	8322.12
865.61	8426.12
865.855	8362.12
866.099	8196.12
866.343	8205.12
866.587	7993.12
866.831	8164.12
867.074	8196.12
867.318	8043.12
867.562	8259.12
867.806	8236.12
868.05	8200.12
868.293	8120.12
868.537	8172.12
868.78	8149.12
869.024	8293.12
869.267	8134.12
869.511	8144.12
869.754	8169.12
869.998	8042.12
870.241	7957.12
870.484	8099.12
870.728	8008.12
870.971	7880.12
871.214	7853.12
871.457	7853.12
871.7	8018.12
871.943	8021.12
872.186	8034.12
872.429	8005.12
872.672	8151.12
872.915	7918.12
873.158	7749.12
873.4	8023.12
873.643	7952.12
873.886	8009.12
874.128	7832.12
874.371	7837.12
874.613	7756.12
874.856	7761.12
875.098	7614.12
875.341	7452.12
875.583	7556.12
875.825	7661.12
876.068	7750.12
876.31	7369.12
876.552	7329.12
876.794	7499.12
877.036	7250.12
877.278	7357.12
877.52	7424.12
877.762	7308.12
878.004	7509.12
878.246	7356.12
878.488	7587.12
878.73	7490.12
878.972	7378.12
879.213	7695.12
879.455	7642.12
879.697	7653.12
879.938	7563.12
880.18	7726.12
880.421	7715.12
880.663	7801.12
880.904	7709.12
881.145	7446.12
881.387	7569.12
881.628	7523.12
881.869	7474.12
882.11	7454.12
882.352	7580.12
882.593	7441.12
882.834	7424.12
883.075	7251.12
883.316	7201.12
883.557	7127.12
883.797	7163.12
884.038	7137.12
884.279	7243.12
884.52	6998.12
884.761	7076.12
885.001	7044.12
885.242	6817.12
885.482	7931.12
885.723	7076.12
885.963	6950.12
886.204	6975.12
886.444	6845.12
886.685	7047.12
886.925	6801.12
887.165	7160.12
887.405	7032.12
887.646	6988.12
887.886	6989.12
888.126	7171.12
888.366	7408.12
888.606	7337.12
888.846	7343.12
889.086	7412.12
889.326	7391.12
889.565	7438.12
889.805	7424.12
890.045	7735.12
890.285	7433.12
890.524	7611.12
890.764	7527.12
891.003	7567.12
891.243	7729.12
891.482	7820.12
891.722	7670.12
891.961	7776.12
892.201	8023.12
892.44	7940.12
892.679	7854.12
892.918	8031.12
893.158	8053.12
893.397	8253.12
893.636	8257.12
893.875	8487.12
894.114	8331.12
894.353	8496.12
894.592	8768.12
894.831	8707.12
895.069	8648.12
895.308	8891.12
895.547	8714.12
895.786	8781.12
896.024	8894.12
896.263	8975.12
896.501	8629.12
896.74	8876.12
896.978	8833.12
897.217	8997.12
897.455	8883.12
897.694	8653.12
897.932	8538.12
898.17	8392.12
898.408	8245.12
898.646	8292.12
898.885	8011.12
899.123	7938.12
899.361	7702.12
899.599	7601.12
899.837	7538.12
900.075	7292.12
900.312	7299.12
900.55	7118.12
900.788	6953.12
901.026	6767.12
901.263	6659.12
901.501	6613.12
901.739	6266.12
901.976	6286.12
902.214	6400.12
902.451	6128.12
902.689	6264.12
902.926	6006.12
903.163	6005.12
903.401	6092.12
903.638	6020.12
903.875	5842.12
904.112	5802.12
904.349	5877.12
904.586	5716.12
904.823	5880.12
905.06	5703.12
905.297	5653.12
905.534	5448.12
905.771	5416.12
906.008	5482.12
906.245	5370.12
906.481	5165.12
906.718	5228.12
906.955	5046.12
907.191	5139.12
907.428	5157.12
907.664	5119.12
907.901	4938.12
908.137	4957.12
908.374	5072.12
908.61	5018.12
908.846	5004.12
909.083	4788.12
909.319	4889.12
909.555	4823.12
909.791	4926.12
910.027	5004.12
910.263	4690.12
910.499	4832.12
910.735	4756.12
910.971	4739.12
911.207	4904.12
911.443	4704.12
911.678	4697.12
911.914	4667.12
912.15	4580.12
912.385	4628.12
912.621	4590.12
912.857	4595.12
913.092	4587.12
913.328	4758.12
913.563	4659.12
913.798	4670.12
914.034	4614.12
914.269	4721.12
914.504	4559.12
914.739	4903.12
914.975	4492.12
915.21	4524.12
915.445	4728.12
915.68	4595.12
915.915	4542.12
916.15	4552.12
916.384	4330.12
916.619	4332.12
916.854	4333.12
917.089	4485.12
917.324	4451.12
917.558	4296.12
917.793	4494.12
918.028	4416.12
918.262	4615.12
918.497	4387.12
918.731	4385.12
918.965	4148.12
919.2	4517.12
919.434	4413.12
919.668	4621.12
919.903	4527.12
920.137	4591.12
920.371	4285.12
920.605	4434.12
920.839	4343.12
921.073	4280.12
921.307	4450.12
921.541	4368.12
921.775	4381.12
922.009	4392.12
922.243	4211.12
922.476	4222.12
922.71	4403.12
922.944	4467.12
923.177	4122.12
923.411	4417.12
923.644	4376.12
923.878	4243.12
924.111	4292.12
924.345	4212.12
924.578	4256.12
924.811	4273.12
925.045	4505.12
925.278	4402.12
925.511	4389.12
925.744	4148.12
925.977	4275.12
926.21	4266.12
926.443	4349.12
926.676	4240.12
926.909	4421.12
927.142	4360.12
927.375	4091.12
927.608	4306.12
927.841	4212.12
928.073	4258.12
928.306	4142.12
928.539	4158.12
928.771	4268.12
929.004	4242.12
929.236	4274.12
929.469	4200.12
929.701	4342.12
929.933	4369.12
930.166	4182.12
930.398	4241.12
930.63	4428.12
930.862	4395.12
931.094	4166.12
931.327	4229.12
931.559	4171.12
931.791	4168.12
932.023	4205.12
932.255	4566.12
932.486	3997.12
932.718	4181.12
932.95	4045.12
933.182	4293.12
933.413	4244.12
933.645	4137.12
933.877	4366.12
934.108	4332.12
934.34	4067.12
934.571	4221.12
934.803	4076.12
935.034	4010.12
935.265	4115.12
935.497	4150.12
935.728	3970.12
935.959	4150.12
936.19	4294.12
936.422	4062.12
936.653	3910.12
936.884	4064.12
937.115	3907.12
937.346	4068.12
937.577	3985.12
937.807	3922.12
938.038	3928.12
938.269	4146.12
938.5	3816.12
938.73	4011.12
938.961	3878.12
939.192	3976.12
939.422	3986.12
939.653	4032.12
939.883	4101.12
940.114	3896.12
940.344	3872.12
940.574	3874.12
940.805	3737.12
941.035	3807.12
941.265	3756.12
941.495	3757.12
941.726	3689.12
941.956	3703.12
942.186	3795.12
942.416	3719.12
942.646	3480.12
942.876	3616.12
943.105	3697.12
943.335	3730.12
943.565	3634.12
943.795	3408.12
944.024	3364.12
944.254	3404.12
944.484	3506.12
944.713	3542.12
944.943	3322.12
945.172	3489.12
945.402	3550.12
945.631	3469.12
945.86	3337.12
946.09	3423.12
946.319	3380.12
946.548	3420.12
946.777	3436.12
947.006	3329.12
947.235	3374.12
947.465	3482.12
947.694	3386.12
947.922	3315.12
948.151	3178.12
948.38	3091.12
948.609	3159.12
948.838	3172.12
949.067	3172.12
949.295	3347.12
949.524	3177.12
949.752	3213.12
949.981	3329.12
950.21	3036.12
950.438	3296.12
950.666	3246.12
950.895	3078.12
951.123	2983.12
951.351	3056.12
951.58	2950.12
951.808	2964.12
952.036	2965.12
952.264	3075.12
952.492	3109.12
952.72	3008.12
952.948	3128.12
953.176	3083.12
953.404	3011.12
953.632	2871.12
953.86	2994.12
954.088	2824.12
954.315	2980.12
954.543	2864.12
954.771	2859.12
954.998	2675.12
955.226	2907.12
955.453	2951.12
955.681	2915.12
955.908	2976.12
956.135	3033.12
956.363	2859.12
956.59	2810.12
956.817	3090.12
957.045	2813.12
957.272	2880.12
957.499	2760.12
957.726	2740.12
957.953	2784.12
958.18	2789.12
958.407	2603.12
958.634	2856.12
958.861	2765.12
959.087	2722.12
959.314	2658.12
959.541	2721.12
959.767	2817.12
959.994	2638.12
960.221	2818.12
960.447	2663.12
960.674	2773.12
960.9	2468.12
961.127	2751.12
961.353	2770.12
961.579	2593.12
961.806	2769.12
962.032	2667.12
962.258	2585.12
962.484	2687.12
962.71	2554.12
962.936	2671.12
963.162	2733.12
963.388	2551.12
963.614	2728.12
963.84	2579.12
964.066	2835.12
964.292	2740.12
964.518	2831.12
964.743	2474.12
964.969	2662.12
965.195	2718.12
965.42	2558.12
965.646	2548.12
965.871	2697.12
966.097	2600.12
966.322	2739.12
966.547	2687.12
966.773	2637.12
966.998	2488.12
967.223	2703.12
967.448	2638.12
967.674	2629.12
967.899	2476.12
968.124	2448.12
968.349	2519.12
968.574	2418.12
968.799	2582.12
969.024	2407.12
969.248	2497.12
969.473	2610.12
969.698	2656.12
969.923	2416.12
970.147	2532.12
970.372	2439.12
970.596	2389.12
970.821	2522.12
971.046	2498.12
971.27	2604.12
971.494	2597.12
971.719	2288.12
971.943	2417.12
972.167	2360.12
972.392	2399.12
972.616	2363.12
972.84	2364.12
973.064	2179.12
973.288	2390.12
973.512	2361.12
973.736	2303.12
973.96	2457.12
974.184	2191.12
974.408	2258.12
974.631	2418.12
974.855	2459.12
975.079	2276.12
975.303	2164.12
975.526	2305.12
975.75	2110.12
975.973	2121.12
976.197	2143.12
976.42	2130.12
976.644	2236.12
976.867	2124.12
977.09	2277.12
977.313	2315.12
977.537	2218.12
977.76	2067.12
977.983	2392.12
978.206	2193.12
978.429	2235.12
978.652	2193.12
978.875	2201.12
979.098	2087.12
979.321	2374.12
979.544	2052.12
979.767	2183.12
979.989	2095.12
980.212	2229.12
980.435	2174.12
980.657	1905.12
980.88	2225.12
981.102	2181.12
981.325	2268.12
981.547	2156.12
981.77	2050.12
981.992	2156.12
982.214	2106.12
982.437	2028.12
982.659	2062.12
982.881	2233.12
983.103	2151.12
983.325	2186.12
983.547	2096.12
983.769	2064.12
983.991	2135.12
984.213	2251.12
984.435	2305.12
984.657	2223.12
984.879	2286.12
985.1	2205.12
985.322	2211.12
985.544	1996.12
985.765	2075.12
985.987	2147.12
986.208	2284.12
986.43	2402.12
986.651	2211.12
986.873	2114.12
987.094	2218.12
987.315	2103.12
987.536	1973.12
987.758	2148.12
987.979	2018.12
988.2	2220.12
988.421	2276.12
988.642	2365.12
988.863	2026.12
989.084	2141.12
989.305	2270.12
989.526	2268.12
989.747	2317.12
989.967	2376.12
990.188	2293.12
990.409	2154.12
990.629	2197.12
990.85	2287.12
991.071	2085.12
991.291	2248.12
991.512	2050.12
991.732	2050.12
991.952	2201.12
992.173	1979.12
992.393	2227.12
992.613	1974.12
992.834	2376.12
993.054	2215.12
993.274	2077.12
993.494	2104.12
993.714	2227.12
993.934	2235.12
994.154	2268.12
994.374	2243.12
994.594	1940.12
994.813	2105.12
995.033	2354.12
995.253	2388.12
995.473	2441.12
995.692	2091.12
995.912	2258.12
996.131	2221.12
996.351	2267.12
996.57	2179.12
996.79	2159.12
997.009	2099.12
997.228	2276.12
997.448	2217.12
997.667	2188.12
997.886	2127.12
998.105	2301.12
998.325	2127.12
998.544	2344.12
998.763	2282.12
998.982	2457.12
999.201	2266.12
999.419	2214.12
999.638	2336.12
999.857	2342.12
1000.076	2481.12
1000.295	2253.12
1000.513	2630.12
1000.732	2497.12
1000.95	2171.12
1001.169	2666.12
1001.388	2457.12
1001.606	2495.12
1001.824	2495.12
1002.043	2376.12
1002.261	2437.12
1002.479	2668.12
1002.698	2566.12
1002.916	2486.12
1003.134	2670.12
1003.352	2479.12
1003.57	2563.12
1003.788	2710.12
1004.006	2606.12
1004.224	2854.12
1004.442	2593.12
1004.66	2781.12
1004.878	2723.12
1005.095	2749.12
1005.313	2949.12
1005.531	2664.12
1005.748	2741.12
1005.966	4217.12
1006.184	2778.12
1006.401	2937.12
1006.618	2706.12
1006.836	2715.12
1007.053	2834.12
1007.271	2922.12
1007.488	2722.12
1007.705	3028.12
1007.922	2965.12
1008.139	2544.12
1008.357	2860.12
1008.574	2690.12
1008.791	2831.12
1009.008	2998.12
1009.225	2646.12
1009.441	2830.12
1009.658	2771.12
1009.875	2907.12
1010.092	2876.12
1010.309	2915.12
1010.525	2909.12
1010.742	2728.12
1010.958	2602.12
1011.175	2950.12
1011.391	2812.12
1011.608	2932.12
1011.824	2920.12
1012.041	2761.12
1012.257	2936.12
1012.473	2841.12
1012.689	2735.12
1012.906	2819.12
1013.122	2841.12
1013.338	2775.12
1013.554	2883.12
1013.77	2774.12
1013.986	2709.12
1014.202	2798.12
1014.418	2846.12
1014.634	2951.12
1014.849	2733.12
1015.065	2860.12
1015.281	2755.12
1015.496	2804.12
1015.712	2806.12
1015.928	2843.12
1016.143	2679.12
1016.359	2864.12
1016.574	2697.12
1016.79	2706.12
1017.005	2926.12
1017.22	2715.12
1017.435	2624.12
1017.651	2814.12
1017.866	2733.12
1018.081	2642.12
1018.296	2534.12
1018.511	2688.12
1018.726	2823.12
1018.941	2681.12
1019.156	2481.12
1019.371	2514.12
1019.586	2791.12
1019.801	2661.12
1020.015	2550.12
1020.23	2809.12
1020.445	2672.12
1020.659	2735.12
1020.874	2882.12
1021.088	2681.12
1021.303	2595.12
1021.517	2702.12
1021.732	2729.12
1021.946	2697.12
1022.16	2877.12
1022.375	2719.12
1022.589	2758.12
1022.803	2732.12
1023.017	2687.12
1023.231	2670.12
1023.445	2998.12
1023.659	2653.12
1023.873	2793.12
1024.087	2635.12
1024.301	2727.12
1024.515	2813.12
1024.729	2868.12
1024.942	2588.12
1025.156	2935.12
1025.37	2769.12
1025.583	2712.12
1025.797	2576.12
1026.01	2775.12
1026.224	2591.12
1026.437	2557.12
1026.651	2491.12
1026.864	2351.12
1027.077	2648.12
1027.291	2516.12
1027.504	2530.12
1027.717	2359.12
1027.93	2365.12
1028.143	2383.12
1028.356	2363.12
1028.569	2257.12
1028.782	2106.12
1028.995	-0.88
1029.208	-0.88
1029.421	0.12
1029.634	-2.88
