Data from QEP037381__111__15-13-29-949.txt Node

Date: Thu Jan 27 15:13:29 EST 2022
User: dcclab
Spectrometer: QEP03738
Trigger mode: 4
Integration Time (sec): 3.000000E1
Scans to average: 1
Electric dark correction enabled: true
Nonlinearity correction enabled: false
Boxcar width: 0
XAxis mode: Wavelengths
Number of Pixels in Spectrum: 1044
>>>>>Begin Spectral Data<<<<<
783.959	12.88
784.218	0.88
784.476	-2.12
784.734	-5.12
784.992	2811.88
785.251	2578.88
785.509	2423.88
785.767	2270.88
786.025	2115.88
786.283	2024.88
786.541	2026.88
786.798	2021.88
787.056	1878.88
787.314	1617.88
787.572	1741.88
787.83	1600.88
788.087	1682.88
788.345	1531.88
788.602	1438.88
788.86	1444.88
789.117	1493.88
789.375	1289.88
789.632	1351.88
789.89	1281.88
790.147	1429.88
790.404	1368.88
790.661	1294.88
790.919	1481.88
791.176	1309.88
791.433	1297.88
791.69	1368.88
791.947	1371.88
792.204	1166.88
792.461	1387.88
792.718	1357.88
792.974	1323.88
793.231	1310.88
793.488	1567.88
793.745	1401.88
794.001	1464.88
794.258	1673.88
794.514	1440.88
794.771	1580.88
795.027	1542.88
795.284	1573.88
795.54	1719.88
795.797	1676.88
796.053	1971.88
796.309	2085.88
796.565	2202.88
796.822	2408.88
797.078	2635.88
797.334	2944.88
797.59	3110.88
797.846	3571.88
798.102	4022.88
798.358	4189.88
798.614	4822.88
798.869	5349.88
799.125	6111.88
799.381	6752.88
799.637	7640.88
799.892	8570.88
800.148	9349.88
800.403	9895.88
800.659	10481.88
800.914	10703.88
801.17	10864.88
801.425	11039.88
801.68	11224.88
801.936	11329.88
802.191	11637.88
802.446	11760.88
802.701	11977.88
802.957	12014.88
803.212	12412.88
803.467	12503.88
803.722	12822.88
803.977	13134.88
804.232	13256.88
804.486	13372.88
804.741	13741.88
804.996	14015.88
805.251	14199.88
805.505	14375.88
805.76	14624.88
806.015	14804.88
806.269	14791.88
806.524	14947.88
806.778	15002.88
807.033	15445.88
807.287	15308.88
807.541	15612.88
807.796	15758.88
808.05	16031.88
808.304	16056.88
808.558	16057.88
808.812	16432.88
809.066	16221.88
809.32	16247.88
809.574	16353.88
809.828	16107.88
810.082	16051.88
810.336	16164.88
810.59	16323.88
810.844	16467.88
811.097	16469.88
811.351	16856.88
811.605	17136.88
811.858	17069.88
812.112	16959.88
812.365	16904.88
812.619	16828.88
812.872	16430.88
813.126	16507.88
813.379	16334.88
813.632	16096.88
813.885	16067.88
814.139	16129.88
814.392	16098.88
814.645	16204.88
814.898	16256.88
815.151	16340.88
815.404	16526.88
815.657	16520.88
815.91	16597.88
816.163	16561.88
816.416	16683.88
816.668	16555.88
816.921	16935.88
817.174	16690.88
817.426	16547.88
817.679	16670.88
817.931	16459.88
818.184	16427.88
818.436	16468.88
818.689	16805.88
818.941	16668.88
819.194	16985.88
819.446	16822.88
819.698	17009.88
819.95	16647.88
820.202	16586.88
820.455	16248.88
820.707	16306.88
820.959	16083.88
821.211	15886.88
821.462	15733.88
821.714	15832.88
821.966	15374.88
822.218	15233.88
822.47	15029.88
822.722	14975.88
822.973	14798.88
823.225	15004.88
823.476	14853.88
823.728	14750.88
823.979	14945.88
824.231	14602.88
824.482	14725.88
824.734	14695.88
824.985	14524.88
825.236	14665.88
825.487	14576.88
825.739	14350.88
825.99	14301.88
826.241	14186.88
826.492	14006.88
826.743	14161.88
826.994	13942.88
827.245	13842.88
827.496	14024.88
827.747	13786.88
827.997	13646.88
828.248	13655.88
828.499	13823.88
828.75	13812.88
829	13981.88
829.251	13669.88
829.501	13712.88
829.752	13833.88
830.002	13726.88
830.253	13750.88
830.503	13773.88
830.753	13687.88
831.004	13755.88
831.254	13660.88
831.504	13799.88
831.754	13737.88
832.004	13849.88
832.254	13789.88
832.504	13698.88
832.754	13792.88
833.004	13584.88
833.254	13638.88
833.504	13444.88
833.754	13331.88
834.003	13381.88
834.253	13269.88
834.503	13047.88
834.752	12723.88
835.002	12748.88
835.252	12467.88
835.501	12516.88
835.75	12608.88
836	12511.88
836.249	12333.88
836.499	12410.88
836.748	12317.88
836.997	11985.88
837.246	12004.88
837.495	11869.88
837.744	11603.88
837.993	11560.88
838.242	11381.88
838.491	11190.88
838.74	11286.88
838.989	11072.88
839.238	11241.88
839.487	10992.88
839.736	11004.88
839.984	10908.88
840.233	10890.88
840.482	10792.88
840.73	10747.88
840.979	10762.88
841.227	10695.88
841.476	10689.88
841.724	10440.88
841.972	10675.88
842.221	10586.88
842.469	10521.88
842.717	10482.88
842.965	10350.88
843.213	10223.88
843.461	10176.88
843.71	10297.88
843.958	10174.88
844.205	10001.88
844.453	9900.88
844.701	9953.88
844.949	9874.88
845.197	9936.88
845.445	9973.88
845.692	9816.88
845.94	9828.88
846.188	9937.88
846.435	9793.88
846.683	9982.88
846.93	10078.88
847.178	10142.88
847.425	10088.88
847.672	10027.88
847.92	10003.88
848.167	9896.88
848.414	9746.88
848.661	9727.88
848.908	9690.88
849.155	9615.88
849.402	9713.88
849.649	9811.88
849.896	9706.88
850.143	9641.88
850.39	9749.88
850.637	9734.88
850.884	9775.88
851.131	9702.88
851.377	9853.88
851.624	9817.88
851.87	9613.88
852.117	9584.88
852.364	9431.88
852.61	9352.88
852.856	9332.88
853.103	9297.88
853.349	9267.88
853.595	9451.88
853.842	9244.88
854.088	9012.88
854.334	9352.88
854.58	9152.88
854.826	9030.88
855.072	9225.88
855.318	9096.88
855.564	8830.88
855.81	8994.88
856.056	9751.88
856.302	8807.88
856.548	8859.88
856.793	8798.88
857.039	8611.88
857.285	8765.88
857.53	8828.88
857.776	8876.88
858.021	8957.88
858.267	8876.88
858.512	9042.88
858.758	9050.88
859.003	9096.88
859.248	9024.88
859.493	9108.88
859.739	8927.88
859.984	9009.88
860.229	9005.88
860.474	8735.88
860.719	8914.88
860.964	8603.88
861.209	8794.88
861.454	8504.88
861.699	8589.88
861.943	8514.88
862.188	8681.88
862.433	8641.88
862.678	8709.88
862.922	8575.88
863.167	8433.88
863.411	8620.88
863.656	8581.88
863.9	8494.88
864.145	8301.88
864.389	8608.88
864.634	8605.88
864.878	8457.88
865.122	8540.88
865.366	8418.88
865.61	8461.88
865.855	8464.88
866.099	8342.88
866.343	8340.88
866.587	8135.88
866.831	8268.88
867.074	8321.88
867.318	8238.88
867.562	8392.88
867.806	8297.88
868.05	8310.88
868.293	8255.88
868.537	8327.88
868.78	8277.88
869.024	8392.88
869.267	8215.88
869.511	8243.88
869.754	8333.88
869.998	8219.88
870.241	8058.88
870.484	8159.88
870.728	8104.88
870.971	8007.88
871.214	8049.88
871.457	8044.88
871.7	8049.88
871.943	8137.88
872.186	8094.88
872.429	8083.88
872.672	8260.88
872.915	8120.88
873.158	7895.88
873.4	8152.88
873.643	8073.88
873.886	8087.88
874.128	7884.88
874.371	7973.88
874.613	7842.88
874.856	7880.88
875.098	7733.88
875.341	7533.88
875.583	7724.88
875.825	7792.88
876.068	7830.88
876.31	7475.88
876.552	7411.88
876.794	7631.88
877.036	7338.88
877.278	7387.88
877.52	7514.88
877.762	7409.88
878.004	7550.88
878.246	7466.88
878.488	7651.88
878.73	7586.88
878.972	7500.88
879.213	7697.88
879.455	7752.88
879.697	7722.88
879.938	7684.88
880.18	7798.88
880.421	7814.88
880.663	7884.88
880.904	7822.88
881.145	7573.88
881.387	7718.88
881.628	7726.88
881.869	7582.88
882.11	7553.88
882.352	7674.88
882.593	7566.88
882.834	7546.88
883.075	7341.88
883.316	7256.88
883.557	7293.88
883.797	7279.88
884.038	7160.88
884.279	7309.88
884.52	7083.88
884.761	7130.88
885.001	7146.88
885.242	6945.88
885.482	8028.88
885.723	7153.88
885.963	7023.88
886.204	7046.88
886.444	6967.88
886.685	7114.88
886.925	6935.88
887.165	7256.88
887.405	7068.88
887.646	7086.88
887.886	7083.88
888.126	7198.88
888.366	7405.88
888.606	7359.88
888.846	7362.88
889.086	7428.88
889.326	7418.88
889.565	7496.88
889.805	7511.88
890.045	7752.88
890.285	7459.88
890.524	7629.88
890.764	7558.88
891.003	7611.88
891.243	7769.88
891.482	7963.88
891.722	7738.88
891.961	7852.88
892.201	8081.88
892.44	7940.88
892.679	7897.88
892.918	8098.88
893.158	8103.88
893.397	8365.88
893.636	8371.88
893.875	8510.88
894.114	8386.88
894.353	8665.88
894.592	8730.88
894.831	8789.88
895.069	8691.88
895.308	8924.88
895.547	8761.88
895.786	8833.88
896.024	8894.88
896.263	9085.88
896.501	8761.88
896.74	8978.88
896.978	8799.88
897.217	8962.88
897.455	8947.88
897.694	8630.88
897.932	8596.88
898.17	8415.88
898.408	8246.88
898.646	8346.88
898.885	7986.88
899.123	7983.88
899.361	7875.88
899.599	7602.88
899.837	7545.88
900.075	7281.88
900.312	7279.88
900.55	7202.88
900.788	6991.88
901.026	6888.88
901.263	6701.88
901.501	6622.88
901.739	6367.88
901.976	6304.88
902.214	6391.88
902.451	6190.88
902.689	6250.88
902.926	6052.88
903.163	6090.88
903.401	6127.88
903.638	6035.88
903.875	5885.88
904.112	5813.88
904.349	5968.88
904.586	5743.88
904.823	5931.88
905.06	5709.88
905.297	5723.88
905.534	5502.88
905.771	5410.88
906.008	5503.88
906.245	5394.88
906.481	5203.88
906.718	5276.88
906.955	5092.88
907.191	5167.88
907.428	5154.88
907.664	5188.88
907.901	5012.88
908.137	5030.88
908.374	5122.88
908.61	5044.88
908.846	5078.88
909.083	4872.88
909.319	4962.88
909.555	4854.88
909.791	4944.88
910.027	5017.88
910.263	4696.88
910.499	4846.88
910.735	4824.88
910.971	4696.88
911.207	4892.88
911.443	4739.88
911.678	4732.88
911.914	4682.88
912.15	4584.88
912.385	4655.88
912.621	4719.88
912.857	4686.88
913.092	4584.88
913.328	4777.88
913.563	4708.88
913.798	4696.88
914.034	4670.88
914.269	4661.88
914.504	4620.88
914.739	4859.88
914.975	4501.88
915.21	4541.88
915.445	4755.88
915.68	4622.88
915.915	4576.88
916.15	4610.88
916.384	4329.88
916.619	4400.88
916.854	4399.88
917.089	4511.88
917.324	4455.88
917.558	4314.88
917.793	4485.88
918.028	4411.88
918.262	4603.88
918.497	4394.88
918.731	4393.88
918.965	4149.88
919.2	4603.88
919.434	4444.88
919.668	4626.88
919.903	4465.88
920.137	4610.88
920.371	4284.88
920.605	4460.88
920.839	4380.88
921.073	4251.88
921.307	4449.88
921.541	4372.88
921.775	4413.88
922.009	4446.88
922.243	4209.88
922.476	4242.88
922.71	4430.88
922.944	4508.88
923.177	4110.88
923.411	4447.88
923.644	4382.88
923.878	4262.88
924.111	4355.88
924.345	4214.88
924.578	4277.88
924.811	4298.88
925.045	4522.88
925.278	4369.88
925.511	4389.88
925.744	4164.88
925.977	4287.88
926.21	4278.88
926.443	4335.88
926.676	4226.88
926.909	4348.88
927.142	4296.88
927.375	4102.88
927.608	4319.88
927.841	4186.88
928.073	4341.88
928.306	4140.88
928.539	4144.88
928.771	4327.88
929.004	4279.88
929.236	4327.88
929.469	4235.88
929.701	4358.88
929.933	4398.88
930.166	4162.88
930.398	4251.88
930.63	4436.88
930.862	4423.88
931.094	4192.88
931.327	4278.88
931.559	4151.88
931.791	4192.88
932.023	4202.88
932.255	4573.88
932.486	4010.88
932.718	4173.88
932.95	4050.88
933.182	4296.88
933.413	4302.88
933.645	4070.88
933.877	4308.88
934.108	4382.88
934.34	4103.88
934.571	4243.88
934.803	4068.88
935.034	4000.88
935.265	4147.88
935.497	4138.88
935.728	3983.88
935.959	4200.88
936.19	4285.88
936.422	4120.88
936.653	3969.88
936.884	4089.88
937.115	3880.88
937.346	4084.88
937.577	4019.88
937.807	3965.88
938.038	3935.88
938.269	4134.88
938.5	3855.88
938.73	4048.88
938.961	3905.88
939.192	4042.88
939.422	3957.88
939.653	4027.88
939.883	4118.88
940.114	3923.88
940.344	3878.88
940.574	3885.88
940.805	3751.88
941.035	3819.88
941.265	3757.88
941.495	3835.88
941.726	3707.88
941.956	3710.88
942.186	3797.88
942.416	3717.88
942.646	3508.88
942.876	3650.88
943.105	3733.88
943.335	3728.88
943.565	3639.88
943.795	3379.88
944.024	3344.88
944.254	3417.88
944.484	3510.88
944.713	3534.88
944.943	3287.88
945.172	3517.88
945.402	3593.88
945.631	3427.88
945.86	3317.88
946.09	3370.88
946.319	3395.88
946.548	3467.88
946.777	3451.88
947.006	3366.88
947.235	3401.88
947.465	3481.88
947.694	3369.88
947.922	3303.88
948.151	3153.88
948.38	3089.88
948.609	3149.88
948.838	3170.88
949.067	3169.88
949.295	3331.88
949.524	3196.88
949.752	3177.88
949.981	3312.88
950.21	3021.88
950.438	3319.88
950.666	3276.88
950.895	3121.88
951.123	2965.88
951.351	3080.88
951.58	2979.88
951.808	2962.88
952.036	2978.88
952.264	3085.88
952.492	3095.88
952.72	3041.88
952.948	3146.88
953.176	3094.88
953.404	3032.88
953.632	2834.88
953.86	2981.88
954.088	2855.88
954.315	2978.88
954.543	2868.88
954.771	2845.88
954.998	2693.88
955.226	2884.88
955.453	2913.88
955.681	2876.88
955.908	2942.88
956.135	3014.88
956.363	2876.88
956.59	2853.88
956.817	3092.88
957.045	2792.88
957.272	2896.88
957.499	2769.88
957.726	2750.88
957.953	2788.88
958.18	2783.88
958.407	2619.88
958.634	2851.88
958.861	2801.88
959.087	2692.88
959.314	2677.88
959.541	2757.88
959.767	2793.88
959.994	2615.88
960.221	2862.88
960.447	2700.88
960.674	2777.88
960.9	2470.88
961.127	2748.88
961.353	2766.88
961.579	2577.88
961.806	2793.88
962.032	2636.88
962.258	2632.88
962.484	2706.88
962.71	2571.88
962.936	2657.88
963.162	2754.88
963.388	2587.88
963.614	2740.88
963.84	2561.88
964.066	2859.88
964.292	2764.88
964.518	2780.88
964.743	2491.88
964.969	2714.88
965.195	2758.88
965.42	2556.88
965.646	2542.88
965.871	2725.88
966.097	2598.88
966.322	2751.88
966.547	2667.88
966.773	2671.88
966.998	2469.88
967.223	2736.88
967.448	2620.88
967.674	2615.88
967.899	2495.88
968.124	2427.88
968.349	2499.88
968.574	2364.88
968.799	2602.88
969.024	2431.88
969.248	2459.88
969.473	2580.88
969.698	2650.88
969.923	2439.88
970.147	2519.88
970.372	2476.88
970.596	2412.88
970.821	2499.88
971.046	2534.88
971.27	2599.88
971.494	2552.88
971.719	2316.88
971.943	2410.88
972.167	2353.88
972.392	2414.88
972.616	2404.88
972.84	2376.88
973.064	2200.88
973.288	2379.88
973.512	2346.88
973.736	2312.88
973.96	2451.88
974.184	2198.88
974.408	2225.88
974.631	2405.88
974.855	2474.88
975.079	2276.88
975.303	2190.88
975.526	2278.88
975.75	2102.88
975.973	2100.88
976.197	2185.88
976.42	2122.88
976.644	2206.88
976.867	2138.88
977.09	2309.88
977.313	2296.88
977.537	2228.88
977.76	2040.88
977.983	2373.88
978.206	2229.88
978.429	2226.88
978.652	2241.88
978.875	2208.88
979.098	2103.88
979.321	2366.88
979.544	2087.88
979.767	2170.88
979.989	2080.88
980.212	2226.88
980.435	2180.88
980.657	1931.88
980.88	2236.88
981.102	2197.88
981.325	2258.88
981.547	2143.88
981.77	2075.88
981.992	2164.88
982.214	2094.88
982.437	2075.88
982.659	2073.88
982.881	2264.88
983.103	2176.88
983.325	2191.88
983.547	2104.88
983.769	2115.88
983.991	2131.88
984.213	2249.88
984.435	2280.88
984.657	2226.88
984.879	2283.88
985.1	2209.88
985.322	2220.88
985.544	1970.88
985.765	2073.88
985.987	2120.88
986.208	2299.88
986.43	2390.88
986.651	2182.88
986.873	2108.88
987.094	2203.88
987.315	2123.88
987.536	1977.88
987.758	2126.88
987.979	2006.88
988.2	2226.88
988.421	2314.88
988.642	2383.88
988.863	2029.88
989.084	2131.88
989.305	2258.88
989.526	2313.88
989.747	2281.88
989.967	2406.88
990.188	2327.88
990.409	2166.88
990.629	2200.88
990.85	2306.88
991.071	2093.88
991.291	2261.88
991.512	2076.88
991.732	2011.88
991.952	2223.88
992.173	1970.88
992.393	2270.88
992.613	1972.88
992.834	2356.88
993.054	2217.88
993.274	2078.88
993.494	2117.88
993.714	2243.88
993.934	2218.88
994.154	2262.88
994.374	2258.88
994.594	1947.88
994.813	2104.88
995.033	2322.88
995.253	2383.88
995.473	2455.88
995.692	2097.88
995.912	2285.88
996.131	2169.88
996.351	2283.88
996.57	2184.88
996.79	2165.88
997.009	2144.88
997.228	2271.88
997.448	2237.88
997.667	2161.88
997.886	2100.88
998.105	2253.88
998.325	2148.88
998.544	2372.88
998.763	2263.88
998.982	2426.88
999.201	2297.88
999.419	2182.88
999.638	2381.88
999.857	2305.88
1000.076	2509.88
1000.295	2285.88
1000.513	2662.88
1000.732	2506.88
1000.95	2192.88
1001.169	2626.88
1001.388	2482.88
1001.606	2474.88
1001.824	2504.88
1002.043	2391.88
1002.261	2461.88
1002.479	2685.88
1002.698	2539.88
1002.916	2474.88
1003.134	2638.88
1003.352	2499.88
1003.57	2566.88
1003.788	2736.88
1004.006	2605.88
1004.224	2848.88
1004.442	2555.88
1004.66	2805.88
1004.878	2754.88
1005.095	2722.88
1005.313	2955.88
1005.531	2697.88
1005.748	2758.88
1005.966	4169.88
1006.184	2756.88
1006.401	2973.88
1006.618	2685.88
1006.836	2770.88
1007.053	2786.88
1007.271	2908.88
1007.488	2717.88
1007.705	2974.88
1007.922	2976.88
1008.139	2550.88
1008.357	2860.88
1008.574	2720.88
1008.791	2804.88
1009.008	3052.88
1009.225	2683.88
1009.441	2859.88
1009.658	2740.88
1009.875	2899.88
1010.092	2930.88
1010.309	2918.88
1010.525	2902.88
1010.742	2729.88
1010.958	2611.88
1011.175	2922.88
1011.391	2861.88
1011.608	2937.88
1011.824	2904.88
1012.041	2715.88
1012.257	2950.88
1012.473	2845.88
1012.689	2747.88
1012.906	2803.88
1013.122	2830.88
1013.338	2770.88
1013.554	2903.88
1013.77	2794.88
1013.986	2703.88
1014.202	2823.88
1014.418	2866.88
1014.634	2972.88
1014.849	2729.88
1015.065	2886.88
1015.281	2752.88
1015.496	2837.88
1015.712	2780.88
1015.928	2841.88
1016.143	2672.88
1016.359	2843.88
1016.574	2708.88
1016.79	2725.88
1017.005	2922.88
1017.22	2711.88
1017.435	2613.88
1017.651	2794.88
1017.866	2752.88
1018.081	2618.88
1018.296	2540.88
1018.511	2675.88
1018.726	2803.88
1018.941	2650.88
1019.156	2474.88
1019.371	2534.88
1019.586	2808.88
1019.801	2660.88
1020.015	2596.88
1020.23	2828.88
1020.445	2707.88
1020.659	2705.88
1020.874	2855.88
1021.088	2710.88
1021.303	2554.88
1021.517	2657.88
1021.732	2711.88
1021.946	2730.88
1022.16	2907.88
1022.375	2756.88
1022.589	2764.88
1022.803	2744.88
1023.017	2745.88
1023.231	2630.88
1023.445	2985.88
1023.659	2658.88
1023.873	2772.88
1024.087	2638.88
1024.301	2714.88
1024.515	2837.88
1024.729	2923.88
1024.942	2614.88
1025.156	2933.88
1025.37	2765.88
1025.583	2702.88
1025.797	2565.88
1026.01	2796.88
1026.224	2576.88
1026.437	2584.88
1026.651	2519.88
1026.864	2383.88
1027.077	2665.88
1027.291	2453.88
1027.504	2543.88
1027.717	2349.88
1027.93	2343.88
1028.143	2390.88
1028.356	2362.88
1028.569	2220.88
1028.782	2118.88
1028.995	-2.12
1029.208	-1.12
1029.421	-1.12
1029.634	-2.12
