Data from QEP037381__109__15-12-29-948.txt Node

Date: Thu Jan 27 15:12:29 EST 2022
User: dcclab
Spectrometer: QEP03738
Trigger mode: 4
Integration Time (sec): 3.000000E1
Scans to average: 1
Electric dark correction enabled: true
Nonlinearity correction enabled: false
Boxcar width: 0
XAxis mode: Wavelengths
Number of Pixels in Spectrum: 1044
>>>>>Begin Spectral Data<<<<<
783.959	8.62
784.218	2.62
784.476	-4.38
784.734	-5.38
784.992	2749.62
785.251	2498.62
785.509	2339.62
785.767	2175.62
786.025	2094.62
786.283	2027.62
786.541	1959.62
786.798	1943.62
787.056	1864.62
787.314	1601.62
787.572	1702.62
787.83	1606.62
788.087	1641.62
788.345	1493.62
788.602	1444.62
788.86	1416.62
789.117	1470.62
789.375	1298.62
789.632	1325.62
789.89	1217.62
790.147	1395.62
790.404	1314.62
790.661	1292.62
790.919	1463.62
791.176	1297.62
791.433	1284.62
791.69	1371.62
791.947	1361.62
792.204	1156.62
792.461	1375.62
792.718	1377.62
792.974	1314.62
793.231	1318.62
793.488	1599.62
793.745	1369.62
794.001	1457.62
794.258	1668.62
794.514	1411.62
794.771	1603.62
795.027	1516.62
795.284	1564.62
795.54	1743.62
795.797	1698.62
796.053	1969.62
796.309	2104.62
796.565	2232.62
796.822	2421.62
797.078	2587.62
797.334	2930.62
797.59	3108.62
797.846	3600.62
798.102	3989.62
798.358	4169.62
798.614	4829.62
798.869	5293.62
799.125	6079.62
799.381	6794.62
799.637	7639.62
799.892	8570.62
800.148	9288.62
800.403	9944.62
800.659	10476.62
800.914	10732.62
801.17	10877.62
801.425	11033.62
801.68	11234.62
801.936	11318.62
802.191	11615.62
802.446	11697.62
802.701	11970.62
802.957	11928.62
803.212	12385.62
803.467	12494.62
803.722	12827.62
803.977	13114.62
804.232	13176.62
804.486	13384.62
804.741	13664.62
804.996	14029.62
805.251	14130.62
805.505	14399.62
805.76	14535.62
806.015	14796.62
806.269	14787.62
806.524	14907.62
806.778	15112.62
807.033	15340.62
807.287	15299.62
807.541	15510.62
807.796	15712.62
808.05	15944.62
808.304	15915.62
808.558	15938.62
808.812	16353.62
809.066	16180.62
809.32	16324.62
809.574	16279.62
809.828	16036.62
810.082	16058.62
810.336	16169.62
810.59	16219.62
810.844	16537.62
811.097	16439.62
811.351	16812.62
811.605	17190.62
811.858	17091.62
812.112	16891.62
812.365	16930.62
812.619	16793.62
812.872	16389.62
813.126	16506.62
813.379	16405.62
813.632	16172.62
813.885	16132.62
814.139	16193.62
814.392	16216.62
814.645	16373.62
814.898	16395.62
815.151	16448.62
815.404	16615.62
815.657	16596.62
815.91	16636.62
816.163	16828.62
816.416	16712.62
816.668	16774.62
816.921	16950.62
817.174	16809.62
817.426	16748.62
817.679	16753.62
817.931	16603.62
818.184	16466.62
818.436	16523.62
818.689	16823.62
818.941	16807.62
819.194	17139.62
819.446	16988.62
819.698	17094.62
819.95	16719.62
820.202	16799.62
820.455	16400.62
820.707	16517.62
820.959	16368.62
821.211	16014.62
821.462	15879.62
821.714	15935.62
821.966	15537.62
822.218	15368.62
822.47	15156.62
822.722	15169.62
822.973	14884.62
823.225	15205.62
823.476	15003.62
823.728	14879.62
823.979	15041.62
824.231	14698.62
824.482	14775.62
824.734	14782.62
824.985	14795.62
825.236	14774.62
825.487	14699.62
825.739	14589.62
825.99	14461.62
826.241	14359.62
826.492	14158.62
826.743	14320.62
826.994	14103.62
827.245	13930.62
827.496	14173.62
827.747	13897.62
827.997	13927.62
828.248	13950.62
828.499	13890.62
828.75	13988.62
829	14100.62
829.251	13795.62
829.501	13954.62
829.752	13998.62
830.002	13924.62
830.253	13884.62
830.503	13849.62
830.753	13804.62
831.004	13719.62
831.254	13744.62
831.504	13891.62
831.754	13821.62
832.004	13839.62
832.254	13908.62
832.504	13778.62
832.754	13884.62
833.004	13590.62
833.254	13728.62
833.504	13639.62
833.754	13520.62
834.003	13506.62
834.253	13312.62
834.503	13173.62
834.752	12905.62
835.002	12876.62
835.252	12568.62
835.501	12666.62
835.75	12642.62
836	12597.62
836.249	12460.62
836.499	12534.62
836.748	12489.62
836.997	12161.62
837.246	12101.62
837.495	11885.62
837.744	11755.62
837.993	11664.62
838.242	11459.62
838.491	11373.62
838.74	11419.62
838.989	11085.62
839.238	11389.62
839.487	11131.62
839.736	11077.62
839.984	10990.62
840.233	11050.62
840.482	10849.62
840.73	10880.62
840.979	10903.62
841.227	10842.62
841.476	10746.62
841.724	10657.62
841.972	10748.62
842.221	10617.62
842.469	10607.62
842.717	10638.62
842.965	10388.62
843.213	10412.62
843.461	10307.62
843.71	10500.62
843.958	10300.62
844.205	10159.62
844.453	10064.62
844.701	10144.62
844.949	10042.62
845.197	10045.62
845.445	10074.62
845.692	9953.62
845.94	9950.62
846.188	9952.62
846.435	9964.62
846.683	10134.62
846.93	10165.62
847.178	10239.62
847.425	10237.62
847.672	10103.62
847.92	10135.62
848.167	10020.62
848.414	9799.62
848.661	9835.62
848.908	9853.62
849.155	9686.62
849.402	9916.62
849.649	9836.62
849.896	9784.62
850.143	9732.62
850.39	9817.62
850.637	9830.62
850.884	9856.62
851.131	9793.62
851.377	9909.62
851.624	9886.62
851.87	9711.62
852.117	9633.62
852.364	9459.62
852.61	9392.62
852.856	9381.62
853.103	9370.62
853.349	9380.62
853.595	9501.62
853.842	9231.62
854.088	9102.62
854.334	9441.62
854.58	9177.62
854.826	9076.62
855.072	9305.62
855.318	9011.62
855.564	8937.62
855.81	9015.62
856.056	9829.62
856.302	8897.62
856.548	8943.62
856.793	8869.62
857.039	8664.62
857.285	8880.62
857.53	8852.62
857.776	8952.62
858.021	9061.62
858.267	8984.62
858.512	9100.62
858.758	9121.62
859.003	9097.62
859.248	9067.62
859.493	9088.62
859.739	9017.62
859.984	9079.62
860.229	8952.62
860.474	8802.62
860.719	8977.62
860.964	8709.62
861.209	8843.62
861.454	8641.62
861.699	8585.62
861.943	8608.62
862.188	8710.62
862.433	8635.62
862.678	8750.62
862.922	8623.62
863.167	8495.62
863.411	8654.62
863.656	8629.62
863.9	8560.62
864.145	8394.62
864.389	8567.62
864.634	8619.62
864.878	8475.62
865.122	8496.62
865.366	8489.62
865.61	8535.62
865.855	8565.62
866.099	8410.62
866.343	8397.62
866.587	8213.62
866.831	8350.62
867.074	8420.62
867.318	8248.62
867.562	8385.62
867.806	8351.62
868.05	8302.62
868.293	8362.62
868.537	8357.62
868.78	8377.62
869.024	8427.62
869.267	8251.62
869.511	8279.62
869.754	8414.62
869.998	8304.62
870.241	8091.62
870.484	8149.62
870.728	8120.62
870.971	8006.62
871.214	8087.62
871.457	7994.62
871.7	8124.62
871.943	8150.62
872.186	8101.62
872.429	8142.62
872.672	8287.62
872.915	8147.62
873.158	7905.62
873.4	8165.62
873.643	8100.62
873.886	8153.62
874.128	7925.62
874.371	7980.62
874.613	7875.62
874.856	7880.62
875.098	7760.62
875.341	7578.62
875.583	7742.62
875.825	7822.62
876.068	7891.62
876.31	7577.62
876.552	7459.62
876.794	7665.62
877.036	7355.62
877.278	7447.62
877.52	7540.62
877.762	7414.62
878.004	7584.62
878.246	7466.62
878.488	7633.62
878.73	7642.62
878.972	7445.62
879.213	7734.62
879.455	7710.62
879.697	7717.62
879.938	7685.62
880.18	7822.62
880.421	7848.62
880.663	7840.62
880.904	7815.62
881.145	7568.62
881.387	7727.62
881.628	7677.62
881.869	7483.62
882.11	7544.62
882.352	7697.62
882.593	7562.62
882.834	7559.62
883.075	7378.62
883.316	7250.62
883.557	7244.62
883.797	7217.62
884.038	7218.62
884.279	7358.62
884.52	7042.62
884.761	7104.62
885.001	7160.62
885.242	6939.62
885.482	8044.62
885.723	7132.62
885.963	6966.62
886.204	7097.62
886.444	7006.62
886.685	7128.62
886.925	6945.62
887.165	7192.62
887.405	7019.62
887.646	7030.62
887.886	7005.62
888.126	7277.62
888.366	7449.62
888.606	7323.62
888.846	7371.62
889.086	7441.62
889.326	7448.62
889.565	7505.62
889.805	7600.62
890.045	7789.62
890.285	7534.62
890.524	7598.62
890.764	7571.62
891.003	7609.62
891.243	7716.62
891.482	7931.62
891.722	7770.62
891.961	7870.62
892.201	8083.62
892.44	7930.62
892.679	7805.62
892.918	8053.62
893.158	8116.62
893.397	8363.62
893.636	8369.62
893.875	8485.62
894.114	8390.62
894.353	8637.62
894.592	8780.62
894.831	8762.62
895.069	8742.62
895.308	8921.62
895.547	8800.62
895.786	8794.62
896.024	8916.62
896.263	9031.62
896.501	8807.62
896.74	8990.62
896.978	8920.62
897.217	8996.62
897.455	8944.62
897.694	8737.62
897.932	8557.62
898.17	8483.62
898.408	8275.62
898.646	8304.62
898.885	8051.62
899.123	7953.62
899.361	7824.62
899.599	7559.62
899.837	7569.62
900.075	7306.62
900.312	7286.62
900.55	7127.62
900.788	6980.62
901.026	6821.62
901.263	6687.62
901.501	6581.62
901.739	6365.62
901.976	6348.62
902.214	6391.62
902.451	6164.62
902.689	6239.62
902.926	6008.62
903.163	6047.62
903.401	6070.62
903.638	6037.62
903.875	5836.62
904.112	5846.62
904.349	5904.62
904.586	5728.62
904.823	5886.62
905.06	5749.62
905.297	5668.62
905.534	5455.62
905.771	5412.62
906.008	5516.62
906.245	5398.62
906.481	5144.62
906.718	5219.62
906.955	5116.62
907.191	5105.62
907.428	5128.62
907.664	5178.62
907.901	4999.62
908.137	4966.62
908.374	5065.62
908.61	5019.62
908.846	5064.62
909.083	4788.62
909.319	4844.62
909.555	4818.62
909.791	4888.62
910.027	5035.62
910.263	4673.62
910.499	4870.62
910.735	4759.62
910.971	4650.62
911.207	4876.62
911.443	4671.62
911.678	4674.62
911.914	4653.62
912.15	4536.62
912.385	4635.62
912.621	4650.62
912.857	4625.62
913.092	4537.62
913.328	4718.62
913.563	4676.62
913.798	4637.62
914.034	4607.62
914.269	4659.62
914.504	4561.62
914.739	4821.62
914.975	4456.62
915.21	4450.62
915.445	4698.62
915.68	4627.62
915.915	4487.62
916.15	4532.62
916.384	4292.62
916.619	4330.62
916.854	4312.62
917.089	4448.62
917.324	4480.62
917.558	4268.62
917.793	4452.62
918.028	4379.62
918.262	4502.62
918.497	4346.62
918.731	4384.62
918.965	4146.62
919.2	4562.62
919.434	4359.62
919.668	4592.62
919.903	4431.62
920.137	4608.62
920.371	4205.62
920.605	4437.62
920.839	4349.62
921.073	4253.62
921.307	4386.62
921.541	4313.62
921.775	4390.62
922.009	4355.62
922.243	4192.62
922.476	4212.62
922.71	4391.62
922.944	4406.62
923.177	4078.62
923.411	4414.62
923.644	4328.62
923.878	4247.62
924.111	4267.62
924.345	4181.62
924.578	4237.62
924.811	4234.62
925.045	4446.62
925.278	4316.62
925.511	4318.62
925.744	4121.62
925.977	4292.62
926.21	4262.62
926.443	4252.62
926.676	4189.62
926.909	4338.62
927.142	4284.62
927.375	4061.62
927.608	4318.62
927.841	4104.62
928.073	4299.62
928.306	4130.62
928.539	4119.62
928.771	4264.62
929.004	4250.62
929.236	4253.62
929.469	4189.62
929.701	4349.62
929.933	4295.62
930.166	4107.62
930.398	4223.62
930.63	4363.62
930.862	4362.62
931.094	4126.62
931.327	4194.62
931.559	4150.62
931.791	4141.62
932.023	4182.62
932.255	4530.62
932.486	3938.62
932.718	4183.62
932.95	3973.62
933.182	4287.62
933.413	4221.62
933.645	4036.62
933.877	4277.62
934.108	4283.62
934.34	4048.62
934.571	4213.62
934.803	4032.62
935.034	4003.62
935.265	4072.62
935.497	4116.62
935.728	3978.62
935.959	4185.62
936.19	4219.62
936.422	4067.62
936.653	3859.62
936.884	4118.62
937.115	3826.62
937.346	4078.62
937.577	3949.62
937.807	3909.62
938.038	3914.62
938.269	4107.62
938.5	3763.62
938.73	3962.62
938.961	3859.62
939.192	3965.62
939.422	3939.62
939.653	4008.62
939.883	4035.62
940.114	3899.62
940.344	3874.62
940.574	3849.62
940.805	3698.62
941.035	3780.62
941.265	3743.62
941.495	3736.62
941.726	3669.62
941.956	3659.62
942.186	3800.62
942.416	3682.62
942.646	3471.62
942.876	3586.62
943.105	3682.62
943.335	3656.62
943.565	3586.62
943.795	3364.62
944.024	3305.62
944.254	3378.62
944.484	3507.62
944.713	3495.62
944.943	3291.62
945.172	3521.62
945.402	3550.62
945.631	3404.62
945.86	3290.62
946.09	3377.62
946.319	3369.62
946.548	3421.62
946.777	3434.62
947.006	3307.62
947.235	3328.62
947.465	3446.62
947.694	3395.62
947.922	3311.62
948.151	3112.62
948.38	3072.62
948.609	3162.62
948.838	3154.62
949.067	3166.62
949.295	3309.62
949.524	3146.62
949.752	3194.62
949.981	3304.62
950.21	2981.62
950.438	3278.62
950.666	3232.62
950.895	3074.62
951.123	2982.62
951.351	3032.62
951.58	2900.62
951.808	2968.62
952.036	2962.62
952.264	3047.62
952.492	3059.62
952.72	3001.62
952.948	3108.62
953.176	3060.62
953.404	2974.62
953.632	2836.62
953.86	2963.62
954.088	2789.62
954.315	2967.62
954.543	2866.62
954.771	2829.62
954.998	2663.62
955.226	2864.62
955.453	2914.62
955.681	2877.62
955.908	2947.62
956.135	3022.62
956.363	2856.62
956.59	2785.62
956.817	3081.62
957.045	2817.62
957.272	2864.62
957.499	2767.62
957.726	2739.62
957.953	2787.62
958.18	2751.62
958.407	2645.62
958.634	2837.62
958.861	2732.62
959.087	2701.62
959.314	2638.62
959.541	2710.62
959.767	2793.62
959.994	2608.62
960.221	2835.62
960.447	2655.62
960.674	2751.62
960.9	2466.62
961.127	2775.62
961.353	2705.62
961.579	2610.62
961.806	2765.62
962.032	2598.62
962.258	2573.62
962.484	2698.62
962.71	2575.62
962.936	2645.62
963.162	2724.62
963.388	2561.62
963.614	2741.62
963.84	2546.62
964.066	2789.62
964.292	2740.62
964.518	2766.62
964.743	2491.62
964.969	2651.62
965.195	2731.62
965.42	2541.62
965.646	2536.62
965.871	2680.62
966.097	2594.62
966.322	2728.62
966.547	2656.62
966.773	2642.62
966.998	2458.62
967.223	2667.62
967.448	2656.62
967.674	2589.62
967.899	2473.62
968.124	2419.62
968.349	2519.62
968.574	2391.62
968.799	2599.62
969.024	2390.62
969.248	2453.62
969.473	2558.62
969.698	2656.62
969.923	2408.62
970.147	2488.62
970.372	2450.62
970.596	2396.62
970.821	2478.62
971.046	2502.62
971.27	2597.62
971.494	2558.62
971.719	2277.62
971.943	2412.62
972.167	2320.62
972.392	2440.62
972.616	2389.62
972.84	2398.62
973.064	2182.62
973.288	2375.62
973.512	2367.62
973.736	2257.62
973.96	2457.62
974.184	2146.62
974.408	2226.62
974.631	2352.62
974.855	2476.62
975.079	2287.62
975.303	2171.62
975.526	2251.62
975.75	2120.62
975.973	2115.62
976.197	2127.62
976.42	2132.62
976.644	2237.62
976.867	2129.62
977.09	2310.62
977.313	2285.62
977.537	2168.62
977.76	2047.62
977.983	2397.62
978.206	2226.62
978.429	2202.62
978.652	2221.62
978.875	2190.62
979.098	2088.62
979.321	2383.62
979.544	2036.62
979.767	2168.62
979.989	2093.62
980.212	2208.62
980.435	2151.62
980.657	1933.62
980.88	2244.62
981.102	2196.62
981.325	2271.62
981.547	2162.62
981.77	2058.62
981.992	2165.62
982.214	2108.62
982.437	2053.62
982.659	2048.62
982.881	2229.62
983.103	2176.62
983.325	2180.62
983.547	2096.62
983.769	2095.62
983.991	2126.62
984.213	2211.62
984.435	2303.62
984.657	2235.62
984.879	2270.62
985.1	2195.62
985.322	2176.62
985.544	1984.62
985.765	2051.62
985.987	2144.62
986.208	2326.62
986.43	2413.62
986.651	2235.62
986.873	2115.62
987.094	2192.62
987.315	2100.62
987.536	1955.62
987.758	2143.62
987.979	1994.62
988.2	2209.62
988.421	2275.62
988.642	2368.62
988.863	2007.62
989.084	2126.62
989.305	2240.62
989.526	2260.62
989.747	2308.62
989.967	2381.62
990.188	2325.62
990.409	2142.62
990.629	2182.62
990.85	2257.62
991.071	2086.62
991.291	2292.62
991.512	2069.62
991.732	2023.62
991.952	2248.62
992.173	1960.62
992.393	2254.62
992.613	1958.62
992.834	2358.62
993.054	2207.62
993.274	2069.62
993.494	2107.62
993.714	2234.62
993.934	2206.62
994.154	2281.62
994.374	2273.62
994.594	1966.62
994.813	2109.62
995.033	2304.62
995.253	2351.62
995.473	2402.62
995.692	2108.62
995.912	2264.62
996.131	2203.62
996.351	2296.62
996.57	2183.62
996.79	2170.62
997.009	2125.62
997.228	2277.62
997.448	2182.62
997.667	2188.62
997.886	2147.62
998.105	2253.62
998.325	2142.62
998.544	2377.62
998.763	2278.62
998.982	2437.62
999.201	2291.62
999.419	2192.62
999.638	2460.62
999.857	2956.62
1000.076	3493.62
1000.295	4079.62
1000.513	2733.62
1000.732	2502.62
1000.95	2209.62
1001.169	2632.62
1001.388	2481.62
1001.606	2462.62
1001.824	2504.62
1002.043	2426.62
1002.261	2483.62
1002.479	2711.62
1002.698	2558.62
1002.916	2469.62
1003.134	2649.62
1003.352	2484.62
1003.57	2624.62
1003.788	2719.62
1004.006	2581.62
1004.224	2818.62
1004.442	2603.62
1004.66	2810.62
1004.878	2762.62
1005.095	2755.62
1005.313	2957.62
1005.531	2666.62
1005.748	2754.62
1005.966	4155.62
1006.184	2766.62
1006.401	2962.62
1006.618	2683.62
1006.836	2691.62
1007.053	2760.62
1007.271	2875.62
1007.488	2726.62
1007.705	3021.62
1007.922	2977.62
1008.139	2578.62
1008.357	2901.62
1008.574	2666.62
1008.791	2814.62
1009.008	3034.62
1009.225	2652.62
1009.441	2845.62
1009.658	2758.62
1009.875	2930.62
1010.092	2911.62
1010.309	2947.62
1010.525	2909.62
1010.742	2765.62
1010.958	2619.62
1011.175	2989.62
1011.391	2827.62
1011.608	2948.62
1011.824	2889.62
1012.041	2758.62
1012.257	2905.62
1012.473	2810.62
1012.689	2743.62
1012.906	2782.62
1013.122	2856.62
1013.338	2775.62
1013.554	2872.62
1013.77	2769.62
1013.986	2691.62
1014.202	2819.62
1014.418	2832.62
1014.634	2988.62
1014.849	2740.62
1015.065	2864.62
1015.281	2757.62
1015.496	2815.62
1015.712	2768.62
1015.928	2850.62
1016.143	2676.62
1016.359	2832.62
1016.574	2712.62
1016.79	2720.62
1017.005	2901.62
1017.22	2710.62
1017.435	2615.62
1017.651	2763.62
1017.866	2727.62
1018.081	2615.62
1018.296	2536.62
1018.511	2673.62
1018.726	2786.62
1018.941	2673.62
1019.156	2466.62
1019.371	2527.62
1019.586	2802.62
1019.801	2678.62
1020.015	2603.62
1020.23	2837.62
1020.445	2706.62
1020.659	2686.62
1020.874	2920.62
1021.088	2709.62
1021.303	2601.62
1021.517	2704.62
1021.732	2751.62
1021.946	2766.62
1022.16	2915.62
1022.375	2776.62
1022.589	2755.62
1022.803	2743.62
1023.017	2744.62
1023.231	2673.62
1023.445	3017.62
1023.659	2699.62
1023.873	2821.62
1024.087	2614.62
1024.301	2736.62
1024.515	2855.62
1024.729	2895.62
1024.942	2650.62
1025.156	2945.62
1025.37	2748.62
1025.583	2733.62
1025.797	2574.62
1026.01	2800.62
1026.224	2589.62
1026.437	2617.62
1026.651	2498.62
1026.864	2381.62
1027.077	2667.62
1027.291	2482.62
1027.504	2543.62
1027.717	2376.62
1027.93	2378.62
1028.143	2384.62
1028.356	2399.62
1028.569	2268.62
1028.782	2129.62
1028.995	-2.38
1029.208	0.62
1029.421	-0.38
1029.634	0.62
