Data from QEP037381__105__13-51-14-642.txt Node

Date: Fri Apr 28 13:51:14 EDT 2023
User: dcclab
Spectrometer: QEP03738
Trigger mode: 4
Integration Time (sec): 1.000000E1
Scans to average: 1
Electric dark correction enabled: true
Nonlinearity correction enabled: false
Boxcar width: 0
XAxis mode: Wavelengths
Number of Pixels in Spectrum: 1044
>>>>>Begin Spectral Data<<<<<
784.041	11.12
784.3	-0.88
784.558	-1.88
784.817	-3.88
785.075	74100.12
785.334	14646.12
785.592	7602.12
785.851	5370.12
786.109	4086.12
786.368	3203.12
786.626	2575.12
786.884	2143.12
787.143	1818.12
787.401	1493.12
787.659	1333.12
787.917	1141.12
788.175	1055.12
788.433	934.12
788.691	825.12
788.949	780.12
789.207	741.12
789.465	625.12
789.723	609.12
789.98	562.12
790.238	602.12
790.496	562.12
790.753	532.12
791.011	593.12
791.268	526.12
791.526	491.12
791.783	525.12
792.041	513.12
792.298	419.12
792.556	489.12
792.813	474.12
793.07	431.12
793.327	430.12
793.584	516.12
793.841	423.12
794.099	447.12
794.356	501.12
794.613	396.12
794.869	445.12
795.126	415.12
795.383	388.12
795.64	407.12
795.897	369.12
796.153	420.12
796.41	408.12
796.667	389.12
796.923	406.12
797.18	403.12
797.436	429.12
797.693	395.12
797.949	445.12
798.206	462.12
798.462	391.12
798.718	446.12
798.974	425.12
799.231	461.12
799.487	450.12
799.743	456.12
799.999	467.12
800.255	472.12
800.511	450.12
800.767	491.12
801.023	480.12
801.279	514.12
801.534	520.12
801.79	581.12
802.046	602.12
802.302	714.12
802.557	812.12
802.813	986.12
803.068	1225.12
803.324	1671.12
803.579	2290.12
803.835	3191.12
804.09	4392.12
804.345	5758.12
804.601	7150.12
804.856	8393.12
805.111	9352.12
805.366	9982.12
805.621	10402.12
805.876	10699.12
806.131	10825.12
806.386	11027.12
806.641	11281.12
806.896	11388.12
807.151	11601.12
807.406	11662.12
807.661	11919.12
807.915	12194.12
808.17	12376.12
808.425	12531.12
808.679	12676.12
808.934	12973.12
809.188	13039.12
809.443	13090.12
809.697	13343.12
809.951	13429.12
810.206	13539.12
810.46	13636.12
810.714	13788.12
810.968	13900.12
811.223	13956.12
811.477	14132.12
811.731	14216.12
811.985	14145.12
812.239	14311.12
812.493	14475.12
812.747	14455.12
813	14444.12
813.254	14645.12
813.508	14659.12
813.762	14676.12
814.015	14829.12
814.269	14859.12
814.522	15028.12
814.776	15226.12
815.03	15386.12
815.283	15524.12
815.536	15854.12
815.79	16078.12
816.043	16360.12
816.296	16466.12
816.55	16768.12
816.803	16993.12
817.056	17202.12
817.309	17375.12
817.562	17456.12
817.815	17724.12
818.068	17802.12
818.321	18199.12
818.574	18343.12
818.827	18677.12
819.079	18923.12
819.332	19167.12
819.585	19476.12
819.838	19733.12
820.09	19863.12
820.343	20204.12
820.595	20072.12
820.848	20281.12
821.1	20308.12
821.353	20429.12
821.605	20319.12
821.857	20298.12
822.11	20127.12
822.362	20167.12
822.614	20130.12
822.866	20126.12
823.118	20138.12
823.37	20285.12
823.622	20368.12
823.874	20343.12
824.126	20414.12
824.378	20431.12
824.63	20591.12
824.882	20581.12
825.134	20537.12
825.385	20502.12
825.637	20515.12
825.888	20414.12
826.14	20262.12
826.392	20233.12
826.643	20117.12
826.895	20121.12
827.146	20001.12
827.397	19807.12
827.649	19950.12
827.9	19885.12
828.151	19756.12
828.402	19851.12
828.653	19999.12
828.905	20030.12
829.156	20201.12
829.407	20098.12
829.658	19971.12
829.909	19966.12
830.159	19817.12
830.41	19823.12
830.661	19635.12
830.912	19590.12
831.162	19534.12
831.413	19500.12
831.664	19559.12
831.914	19532.12
832.165	19437.12
832.415	19523.12
832.666	19419.12
832.916	19404.12
833.167	19401.12
833.417	19461.12
833.667	19275.12
833.917	19144.12
834.168	19211.12
834.418	18927.12
834.668	19001.12
834.918	18847.12
835.168	18862.12
835.418	18631.12
835.668	18831.12
835.918	18698.12
836.167	18673.12
836.417	18620.12
836.667	18567.12
836.917	18655.12
837.166	18542.12
837.416	18518.12
837.666	18401.12
837.915	18346.12
838.165	18349.12
838.414	18038.12
838.663	18058.12
838.913	18015.12
839.162	18057.12
839.411	18072.12
839.661	17892.12
839.91	17961.12
840.159	17865.12
840.408	18064.12
840.657	17877.12
840.906	17909.12
841.155	17963.12
841.404	17903.12
841.653	17935.12
841.902	17891.12
842.15	17919.12
842.399	17884.12
842.648	17746.12
842.897	17691.12
843.145	17582.12
843.394	17506.12
843.642	17426.12
843.891	17428.12
844.139	17245.12
844.388	17083.12
844.636	17079.12
844.884	17063.12
845.133	17108.12
845.381	16956.12
845.629	16975.12
845.877	16875.12
846.125	16929.12
846.373	16892.12
846.621	16860.12
846.869	16822.12
847.117	16763.12
847.365	16702.12
847.613	16635.12
847.861	16525.12
848.108	16446.12
848.356	16409.12
848.604	16502.12
848.851	16476.12
849.099	16360.12
849.346	16520.12
849.594	16565.12
849.841	16510.12
850.089	16618.12
850.336	16670.12
850.583	16592.12
850.831	16524.12
851.078	16463.12
851.325	16381.12
851.572	16349.12
851.819	16107.12
852.066	15819.12
852.313	15544.12
852.56	15572.12
852.807	15472.12
853.054	15364.12
853.301	15397.12
853.548	15463.12
853.794	15545.12
854.041	15507.12
854.288	15523.12
854.534	15705.12
854.781	15641.12
855.028	15568.12
855.274	15590.12
855.52	15421.12
855.767	15308.12
856.013	15281.12
856.26	15518.12
856.506	15136.12
856.752	15036.12
856.998	15006.12
857.244	15107.12
857.49	15200.12
857.736	15168.12
857.982	15272.12
858.228	15145.12
858.474	15105.12
858.72	15039.12
858.966	14902.12
859.212	14727.12
859.458	14628.12
859.703	14357.12
859.949	14229.12
860.195	14254.12
860.44	14208.12
860.686	14026.12
860.931	14025.12
861.177	13874.12
861.422	13878.12
861.667	13848.12
861.913	13870.12
862.158	13882.12
862.403	13982.12
862.648	14100.12
862.893	14060.12
863.138	13927.12
863.384	13873.12
863.629	13990.12
863.873	13923.12
864.118	13864.12
864.363	13703.12
864.608	13636.12
864.853	13649.12
865.098	13428.12
865.342	13484.12
865.587	13325.12
865.832	13287.12
866.076	13256.12
866.321	13199.12
866.565	13297.12
866.81	13101.12
867.054	13195.12
867.298	13125.12
867.543	13155.12
867.787	13136.12
868.031	13042.12
868.275	13039.12
868.519	13061.12
868.764	12930.12
869.008	12927.12
869.252	12901.12
869.496	12809.12
869.739	12851.12
869.983	12865.12
870.227	12815.12
870.471	12737.12
870.715	12860.12
870.958	12818.12
871.202	12789.12
871.446	12761.12
871.689	12758.12
871.933	12757.12
872.176	12783.12
872.42	12738.12
872.663	12681.12
872.906	12662.12
873.15	12508.12
873.393	12404.12
873.636	12480.12
873.879	12332.12
874.122	12223.12
874.366	12087.12
874.609	11967.12
874.852	11983.12
875.095	11898.12
875.337	11806.12
875.58	11694.12
875.823	11840.12
876.066	11687.12
876.309	11822.12
876.551	11679.12
876.794	11521.12
877.037	11620.12
877.279	11482.12
877.522	11509.12
877.764	11579.12
878.007	11510.12
878.249	11565.12
878.491	11537.12
878.734	11565.12
878.976	11542.12
879.218	11371.12
879.46	11390.12
879.702	11277.12
879.945	11153.12
880.187	11065.12
880.429	10947.12
880.671	10898.12
880.912	10855.12
881.154	10904.12
881.396	10749.12
881.638	10767.12
881.88	10714.12
882.121	10766.12
882.363	10765.12
882.605	10770.12
882.846	10676.12
883.088	10637.12
883.329	10521.12
883.571	10551.12
883.812	10556.12
884.053	10666.12
884.295	10678.12
884.536	10830.12
884.777	10732.12
885.018	10611.12
885.259	10706.12
885.5	10595.12
885.742	10791.12
885.982	10589.12
886.223	10459.12
886.464	10462.12
886.705	10332.12
886.946	10373.12
887.187	10133.12
887.428	10146.12
887.668	9982.12
887.909	9865.12
888.15	9794.12
888.39	9805.12
888.631	9803.12
888.871	9654.12
889.111	9622.12
889.352	9513.12
889.592	9396.12
889.833	9432.12
890.073	9299.12
890.313	9329.12
890.553	9169.12
890.793	9188.12
891.033	9122.12
891.273	9063.12
891.513	9077.12
891.753	9120.12
891.993	9076.12
892.233	9063.12
892.473	9169.12
892.713	9055.12
892.952	8968.12
893.192	9072.12
893.432	9045.12
893.671	8989.12
893.911	8968.12
894.15	8880.12
894.39	8784.12
894.629	8740.12
894.869	8677.12
895.108	8628.12
895.347	8635.12
895.587	8591.12
895.826	8536.12
896.065	8504.12
896.304	8498.12
896.543	8476.12
896.782	8325.12
897.021	8422.12
897.26	8366.12
897.499	8443.12
897.738	8426.12
897.977	8315.12
898.216	8251.12
898.454	8185.12
898.693	8085.12
898.932	8074.12
899.17	8049.12
899.409	7953.12
899.647	7982.12
899.886	7939.12
900.124	8007.12
900.363	7943.12
900.601	8011.12
900.839	7952.12
901.078	7953.12
901.316	7999.12
901.554	7979.12
901.792	8031.12
902.03	7960.12
902.268	8006.12
902.506	8023.12
902.744	7858.12
902.982	7834.12
903.22	7734.12
903.458	7659.12
903.695	7591.12
903.933	7505.12
904.171	7323.12
904.409	7291.12
904.646	7281.12
904.884	7114.12
905.121	7120.12
905.359	7032.12
905.596	6974.12
905.833	6908.12
906.071	6883.12
906.308	6934.12
906.545	6860.12
906.783	6812.12
907.02	6752.12
907.257	6698.12
907.494	6830.12
907.731	6833.12
907.968	6795.12
908.205	6702.12
908.442	6645.12
908.679	6650.12
908.915	6618.12
909.152	6550.12
909.389	6454.12
909.626	6442.12
909.862	6416.12
910.099	6380.12
910.335	6388.12
910.572	6240.12
910.808	6341.12
911.045	6256.12
911.281	6190.12
911.518	6250.12
911.754	6162.12
911.99	6212.12
912.226	6092.12
912.463	6008.12
912.699	6010.12
912.935	5922.12
913.171	5952.12
913.407	5866.12
913.643	5864.12
913.879	5762.12
914.114	5738.12
914.35	5624.12
914.586	5625.12
914.822	5568.12
915.057	5632.12
915.293	5438.12
915.529	5457.12
915.764	5504.12
916	5456.12
916.235	5433.12
916.471	5451.12
916.706	5347.12
916.941	5455.12
917.177	5398.12
917.412	5421.12
917.647	5438.12
917.882	5332.12
918.117	5400.12
918.352	5372.12
918.588	5348.12
918.823	5259.12
919.057	5239.12
919.292	5082.12
919.527	5161.12
919.762	5048.12
919.997	5065.12
920.232	4947.12
920.466	4971.12
920.701	4816.12
920.935	4858.12
921.17	4808.12
921.405	4723.12
921.639	4834.12
921.873	4735.12
922.108	4713.12
922.342	4726.12
922.576	4691.12
922.811	4686.12
923.045	4717.12
923.279	4682.12
923.513	4571.12
923.747	4644.12
923.981	4616.12
924.215	4536.12
924.449	4525.12
924.683	4466.12
924.917	4457.12
925.151	4420.12
925.385	4484.12
925.618	4404.12
925.852	4406.12
926.086	4345.12
926.319	4454.12
926.553	4391.12
926.786	4401.12
927.02	4361.12
927.253	4397.12
927.486	4355.12
927.72	4278.12
927.953	4308.12
928.186	4293.12
928.42	4304.12
928.653	4272.12
928.886	4220.12
929.119	4283.12
929.352	4241.12
929.585	4234.12
929.818	4119.12
930.051	4169.12
930.284	4144.12
930.516	4019.12
930.749	4042.12
930.982	4049.12
931.215	4016.12
931.447	3944.12
931.68	3923.12
931.912	3941.12
932.145	3937.12
932.377	3913.12
932.61	4103.12
932.842	3848.12
933.074	3965.12
933.307	3869.12
933.539	4004.12
933.771	4001.12
934.003	3933.12
934.236	3995.12
934.468	4026.12
934.7	3894.12
934.932	3977.12
935.164	3868.12
935.395	3819.12
935.627	3858.12
935.859	3827.12
936.091	3796.12
936.323	3852.12
936.554	3838.12
936.786	3797.12
937.017	3738.12
937.249	3735.12
937.481	3676.12
937.712	3771.12
937.943	3711.12
938.175	3767.12
938.406	3731.12
938.637	3789.12
938.869	3672.12
939.1	3711.12
939.331	3691.12
939.562	3673.12
939.793	3643.12
940.024	3696.12
940.255	3661.12
940.486	3631.12
940.717	3593.12
940.948	3617.12
941.179	3501.12
941.409	3597.12
941.64	3499.12
941.871	3554.12
942.102	3513.12
942.332	3531.12
942.563	3601.12
942.793	3529.12
943.024	3485.12
943.254	3503.12
943.484	3568.12
943.715	3562.12
943.945	3536.12
944.175	3474.12
944.405	3463.12
944.636	3451.12
944.866	3480.12
945.096	3501.12
945.326	3440.12
945.556	3491.12
945.786	3479.12
946.016	3401.12
946.245	3374.12
946.475	3371.12
946.705	3358.12
946.935	3351.12
947.164	3342.12
947.394	3266.12
947.624	3299.12
947.853	3303.12
948.083	3260.12
948.312	3268.12
948.542	3192.12
948.771	3205.12
949	3197.12
949.23	3189.12
949.459	3220.12
949.688	3300.12
949.917	3211.12
950.146	3209.12
950.375	3280.12
950.604	3190.12
950.833	3234.12
951.062	3281.12
951.291	3205.12
951.52	3144.12
951.749	3191.12
951.978	3127.12
952.206	3102.12
952.435	3116.12
952.664	3161.12
952.892	3161.12
953.121	3121.12
953.349	3122.12
953.578	3072.12
953.806	3087.12
954.035	3027.12
954.263	3052.12
954.491	2990.12
954.719	3039.12
954.948	2944.12
955.176	2955.12
955.404	2923.12
955.632	2951.12
955.86	2938.12
956.088	2932.12
956.316	3012.12
956.544	2963.12
956.772	2883.12
956.999	2898.12
957.227	2920.12
957.455	2873.12
957.683	2901.12
957.91	2813.12
958.138	2776.12
958.365	2785.12
958.593	2777.12
958.82	2717.12
959.048	2822.12
959.275	2791.12
959.502	2792.12
959.73	2737.12
959.957	2756.12
960.184	2789.12
960.411	2691.12
960.638	2818.12
960.865	2750.12
961.092	2789.12
961.319	2648.12
961.546	2742.12
961.773	2743.12
962	2698.12
962.227	2730.12
962.454	2728.12
962.68	2697.12
962.907	2714.12
963.134	2643.12
963.36	2682.12
963.587	2680.12
963.813	2589.12
964.04	2614.12
964.266	2576.12
964.493	2643.12
964.719	2619.12
964.945	2613.12
965.171	2494.12
965.398	2515.12
965.624	2585.12
965.85	2510.12
966.076	2490.12
966.302	2550.12
966.528	2495.12
966.754	2520.12
966.98	2471.12
967.206	2483.12
967.431	2433.12
967.657	2501.12
967.883	2485.12
968.109	2495.12
968.334	2420.12
968.56	2377.12
968.785	2416.12
969.011	2372.12
969.236	2439.12
969.462	2379.12
969.687	2369.12
969.912	2421.12
970.138	2438.12
970.363	2359.12
970.588	2393.12
970.813	2374.12
971.038	2316.12
971.263	2368.12
971.488	2368.12
971.713	2372.12
971.938	2357.12
972.163	2224.12
972.388	2302.12
972.613	2275.12
972.838	2299.12
973.062	2262.12
973.287	2253.12
973.512	2168.12
973.736	2248.12
973.961	2225.12
974.185	2180.12
974.41	2197.12
974.634	2141.12
974.858	2138.12
975.083	2182.12
975.307	2195.12
975.531	2106.12
975.755	2066.12
975.98	2096.12
976.204	2028.12
976.428	2008.12
976.652	2055.12
976.876	2025.12
977.1	2040.12
977.324	1982.12
977.547	2069.12
977.771	2055.12
977.995	2026.12
978.219	1984.12
978.442	2118.12
978.666	2043.12
978.89	2020.12
979.113	2022.12
979.337	2030.12
979.56	1941.12
979.783	2052.12
980.007	1941.12
980.23	1985.12
980.453	1954.12
980.677	1988.12
980.9	1980.12
981.123	1895.12
981.346	1972.12
981.569	1916.12
981.792	1943.12
982.015	1925.12
982.238	1866.12
982.461	1896.12
982.684	1860.12
982.907	1805.12
983.129	1833.12
983.352	1855.12
983.575	1868.12
983.797	1850.12
984.02	1820.12
984.242	1806.12
984.465	1811.12
984.687	1841.12
984.91	1878.12
985.132	1844.12
985.354	1820.12
985.577	1795.12
985.799	1783.12
986.021	1714.12
986.243	1754.12
986.465	1772.12
986.687	1825.12
986.909	1842.12
987.131	1781.12
987.353	1747.12
987.575	1798.12
987.797	1734.12
988.019	1683.12
988.241	1742.12
988.462	1708.12
988.684	1746.12
988.906	1777.12
989.127	1805.12
989.349	1638.12
989.57	1691.12
989.792	1725.12
990.013	1745.12
990.234	1734.12
990.456	1759.12
990.677	1733.12
990.898	1708.12
991.119	1694.12
991.341	1705.12
991.562	1643.12
991.783	1688.12
992.004	1610.12
992.225	1604.12
992.446	1632.12
992.667	1589.12
992.887	1639.12
993.108	1543.12
993.329	1665.12
993.55	1618.12
993.77	1555.12
993.991	1572.12
994.212	1589.12
994.432	1567.12
994.653	1609.12
994.873	1594.12
995.093	1501.12
995.314	1516.12
995.534	1596.12
995.754	1607.12
995.975	1614.12
996.195	1505.12
996.415	1560.12
996.635	1525.12
996.855	1540.12
997.075	1520.12
997.295	1502.12
997.515	1496.12
997.735	1532.12
997.955	1523.12
998.174	1482.12
998.394	1500.12
998.614	1514.12
998.834	1483.12
999.053	1568.12
999.273	1520.12
999.492	1535.12
999.712	1527.12
999.931	1470.12
1000.151	1492.12
1000.37	1491.12
1000.589	1545.12
1000.809	1483.12
1001.028	1604.12
1001.247	1502.12
1001.466	1433.12
1001.685	1543.12
1001.904	1491.12
1002.123	1459.12
1002.342	1458.12
1002.561	1410.12
1002.78	1437.12
1002.999	1522.12
1003.218	1462.12
1003.436	1437.12
1003.655	1496.12
1003.874	1446.12
1004.092	1431.12
1004.311	1481.12
1004.53	1419.12
1004.748	1511.12
1004.966	1427.12
1005.185	1496.12
1005.403	1489.12
1005.622	1458.12
1005.84	1516.12
1006.058	1400.12
1006.276	1446.12
1006.494	1811.12
1006.712	1441.12
1006.931	1494.12
1007.149	1411.12
1007.367	1404.12
1007.584	1432.12
1007.802	1492.12
1008.02	1395.12
1008.238	1490.12
1008.456	1478.12
1008.673	1346.12
1008.891	1434.12
1009.109	1409.12
1009.326	1441.12
1009.544	1508.12
1009.761	1383.12
1009.979	1495.12
1010.196	1464.12
1010.413	1542.12
1010.631	1552.12
1010.848	1565.12
1011.065	1569.12
1011.282	1473.12
1011.5	1461.12
1011.717	1552.12
1011.934	1496.12
1012.151	1561.12
1012.368	1511.12
1012.585	1477.12
1012.801	1513.12
1013.018	1491.12
1013.235	1435.12
1013.452	1468.12
1013.669	1460.12
1013.885	1449.12
1014.102	1485.12
1014.318	1454.12
1014.535	1393.12
1014.751	1443.12
1014.968	1450.12
1015.184	1469.12
1015.401	1378.12
1015.617	1416.12
1015.833	1365.12
1016.049	1380.12
1016.266	1360.12
1016.482	1355.12
1016.698	1317.12
1016.914	1385.12
1017.13	1303.12
1017.346	1286.12
1017.562	1373.12
1017.778	1322.12
1017.993	1332.12
1018.209	1343.12
1018.425	1311.12
1018.641	1303.12
1018.856	1240.12
1019.072	1298.12
1019.288	1344.12
1019.503	1285.12
1019.719	1209.12
1019.934	1241.12
1020.149	1320.12
1020.365	1247.12
1020.58	1224.12
1020.795	1255.12
1021.011	1176.12
1021.226	1170.12
1021.441	1215.12
1021.656	1156.12
1021.871	1088.12
1022.086	1090.12
1022.301	1082.12
1022.516	1052.12
1022.731	1152.12
1022.946	1057.12
1023.16	1039.12
1023.375	1003.12
1023.59	960.12
1023.804	973.12
1024.019	1073.12
1024.234	941.12
1024.448	991.12
1024.663	895.12
1024.877	929.12
1025.092	973.12
1025.306	965.12
1025.52	882.12
1025.734	950.12
1025.949	886.12
1026.163	854.12
1026.377	808.12
1026.591	845.12
1026.805	768.12
1027.019	790.12
1027.233	740.12
1027.447	710.12
1027.661	818.12
1027.875	747.12
1028.088	754.12
1028.302	687.12
1028.516	682.12
1028.73	691.12
1028.943	662.12
1029.157	625.12
1029.37	589.12
1029.584	-0.88
1029.797	-2.88
1030.011	0.12
1030.224	-0.88
