Data from QEP037381__101__13-50-34-645.txt Node

Date: Fri Apr 28 13:50:34 EDT 2023
User: dcclab
Spectrometer: QEP03738
Trigger mode: 4
Integration Time (sec): 1.000000E1
Scans to average: 1
Electric dark correction enabled: true
Nonlinearity correction enabled: false
Boxcar width: 0
XAxis mode: Wavelengths
Number of Pixels in Spectrum: 1044
>>>>>Begin Spectral Data<<<<<
784.041	15.5
784.3	-1.5
784.558	-1.5
784.817	-5.5
785.075	71388.5
785.334	14289.5
785.592	7320.5
785.851	5095.5
786.109	3902.5
786.368	3025.5
786.626	2531.5
786.884	2078.5
787.143	1718.5
787.401	1408.5
787.659	1274.5
787.917	1132.5
788.175	1035.5
788.433	911.5
788.691	791.5
788.949	742.5
789.207	724.5
789.465	622.5
789.723	603.5
789.98	580.5
790.238	599.5
790.496	558.5
790.753	529.5
791.011	576.5
791.268	526.5
791.526	500.5
791.783	516.5
792.041	496.5
792.298	417.5
792.556	489.5
792.813	472.5
793.07	432.5
793.327	435.5
793.584	503.5
793.841	422.5
794.099	456.5
794.356	505.5
794.613	406.5
794.869	446.5
795.126	418.5
795.383	394.5
795.64	420.5
795.897	370.5
796.153	429.5
796.41	418.5
796.667	408.5
796.923	396.5
797.18	402.5
797.436	422.5
797.693	385.5
797.949	447.5
798.206	486.5
798.462	388.5
798.718	449.5
798.974	434.5
799.231	465.5
799.487	458.5
799.743	464.5
799.999	490.5
800.255	476.5
800.511	458.5
800.767	514.5
801.023	492.5
801.279	512.5
801.534	558.5
801.79	601.5
802.046	620.5
802.302	760.5
802.557	849.5
802.813	1075.5
803.068	1313.5
803.324	1815.5
803.579	2504.5
803.835	3489.5
804.09	4837.5
804.345	6195.5
804.601	7623.5
804.856	8954.5
805.111	9926.5
805.366	10654.5
805.621	11062.5
805.876	11422.5
806.131	11568.5
806.386	11711.5
806.641	11872.5
806.896	12184.5
807.151	12382.5
807.406	12581.5
807.661	12809.5
807.915	13044.5
808.17	13325.5
808.425	13420.5
808.679	13513.5
808.934	13805.5
809.188	13809.5
809.443	14086.5
809.697	14251.5
809.951	14353.5
810.206	14434.5
810.46	14665.5
810.714	14727.5
810.968	14868.5
811.223	15002.5
811.477	15083.5
811.731	15167.5
811.985	15211.5
812.239	15264.5
812.493	15395.5
812.747	15515.5
813	15557.5
813.254	15539.5
813.508	15740.5
813.762	15759.5
814.015	15824.5
814.269	16076.5
814.522	16104.5
814.776	16246.5
815.03	16584.5
815.283	16674.5
815.536	17003.5
815.79	17272.5
816.043	17479.5
816.296	17780.5
816.55	17923.5
816.803	18234.5
817.056	18439.5
817.309	18588.5
817.562	18913.5
817.815	19035.5
818.068	19156.5
818.321	19466.5
818.574	19680.5
818.827	20068.5
819.079	20260.5
819.332	20719.5
819.585	20869.5
819.838	21294.5
820.09	21363.5
820.343	21578.5
820.595	21690.5
820.848	21855.5
821.1	21863.5
821.353	21931.5
821.605	21821.5
821.857	21852.5
822.11	21737.5
822.362	21823.5
822.614	21660.5
822.866	21613.5
823.118	21702.5
823.37	21785.5
823.622	21770.5
823.874	21951.5
824.126	21978.5
824.378	21994.5
824.63	22131.5
824.882	22193.5
825.134	22047.5
825.385	22157.5
825.637	21993.5
825.888	22068.5
826.14	21871.5
826.392	21799.5
826.643	21680.5
826.895	21696.5
827.146	21568.5
827.397	21409.5
827.649	21585.5
827.9	21499.5
828.151	21506.5
828.402	21473.5
828.653	21473.5
828.905	21601.5
829.156	21621.5
829.407	21653.5
829.658	21542.5
829.909	21647.5
830.159	21457.5
830.41	21330.5
830.661	21259.5
830.912	21035.5
831.162	21077.5
831.413	20980.5
831.664	21126.5
831.914	21014.5
832.165	21059.5
832.415	20918.5
832.666	20905.5
832.916	20944.5
833.167	20815.5
833.417	20891.5
833.667	20867.5
833.917	20729.5
834.168	20716.5
834.418	20647.5
834.668	20560.5
834.918	20491.5
835.168	20331.5
835.418	20319.5
835.668	20342.5
835.918	20298.5
836.167	20283.5
836.417	20176.5
836.667	20170.5
836.917	20136.5
837.166	20019.5
837.416	19960.5
837.666	19950.5
837.915	19803.5
838.165	19862.5
838.414	19711.5
838.663	19620.5
838.913	19689.5
839.162	19515.5
839.411	19621.5
839.661	19474.5
839.91	19419.5
840.159	19352.5
840.408	19457.5
840.657	19388.5
840.906	19423.5
841.155	19509.5
841.404	19394.5
841.653	19423.5
841.902	19365.5
842.15	19396.5
842.399	19426.5
842.648	19278.5
842.897	19170.5
843.145	19111.5
843.394	18975.5
843.642	18948.5
843.891	18877.5
844.139	18710.5
844.388	18702.5
844.636	18535.5
844.884	18563.5
845.133	18453.5
845.381	18510.5
845.629	18405.5
845.877	18296.5
846.125	18465.5
846.373	18298.5
846.621	18233.5
846.869	18294.5
847.117	18119.5
847.365	17996.5
847.613	18123.5
847.861	17912.5
848.108	17856.5
848.356	17825.5
848.604	17763.5
848.851	17806.5
849.099	17854.5
849.346	17924.5
849.594	17940.5
849.841	18015.5
850.089	18036.5
850.336	17951.5
850.583	18082.5
850.831	17931.5
851.078	17777.5
851.325	17734.5
851.572	17758.5
851.819	17569.5
852.066	17184.5
852.313	16969.5
852.56	16851.5
852.807	16793.5
853.054	16683.5
853.301	16720.5
853.548	16775.5
853.794	16909.5
854.041	16907.5
854.288	17049.5
854.534	17126.5
854.781	16993.5
855.028	16920.5
855.274	16867.5
855.52	16882.5
855.767	16662.5
856.013	16650.5
856.26	16809.5
856.506	16501.5
856.752	16544.5
856.998	16425.5
857.244	16443.5
857.49	16475.5
857.736	16527.5
857.982	16581.5
858.228	16548.5
858.474	16358.5
858.72	16283.5
858.966	16118.5
859.212	16014.5
859.458	15872.5
859.703	15753.5
859.949	15523.5
860.195	15428.5
860.44	15377.5
860.686	15258.5
860.931	15343.5
861.177	15114.5
861.422	15146.5
861.667	15114.5
861.913	15059.5
862.158	15249.5
862.403	15316.5
862.648	15240.5
862.893	15296.5
863.138	15248.5
863.384	15179.5
863.629	15179.5
863.873	15172.5
864.118	15117.5
864.363	14963.5
864.608	14893.5
864.853	14799.5
865.098	14793.5
865.342	14744.5
865.587	14621.5
865.832	14611.5
866.076	14503.5
866.321	14405.5
866.565	14520.5
866.81	14278.5
867.054	14320.5
867.298	14278.5
867.543	14308.5
867.787	14318.5
868.031	14260.5
868.275	14199.5
868.519	14314.5
868.764	14163.5
869.008	14131.5
869.252	14156.5
869.496	14021.5
869.739	13996.5
869.983	14008.5
870.227	14005.5
870.471	13968.5
870.715	14053.5
870.958	14054.5
871.202	13992.5
871.446	13978.5
871.689	14009.5
871.933	14009.5
872.176	14020.5
872.42	13869.5
872.663	13832.5
872.906	13867.5
873.15	13692.5
873.393	13548.5
873.636	13509.5
873.879	13429.5
874.122	13376.5
874.366	13151.5
874.609	13095.5
874.852	12983.5
875.095	13039.5
875.337	12996.5
875.58	12832.5
875.823	12798.5
876.066	12850.5
876.309	12815.5
876.551	12653.5
876.794	12621.5
877.037	12597.5
877.279	12557.5
877.522	12629.5
877.764	12700.5
878.007	12663.5
878.249	12579.5
878.491	12532.5
878.734	12502.5
878.976	12610.5
879.218	12434.5
879.46	12285.5
879.702	12284.5
879.945	12242.5
880.187	12137.5
880.429	11996.5
880.671	11897.5
880.912	11976.5
881.154	11901.5
881.396	11749.5
881.638	11865.5
881.88	11779.5
882.121	11722.5
882.363	11782.5
882.605	11806.5
882.846	11699.5
883.088	11677.5
883.329	11525.5
883.571	11541.5
883.812	11621.5
884.053	11606.5
884.295	11789.5
884.536	11882.5
884.777	11726.5
885.018	11677.5
885.259	11635.5
885.5	11568.5
885.742	11843.5
885.982	11597.5
886.223	11506.5
886.464	11469.5
886.705	11371.5
886.946	11348.5
887.187	11134.5
887.428	11108.5
887.668	10912.5
887.909	10886.5
888.15	10719.5
888.39	10722.5
888.631	10693.5
888.871	10557.5
889.111	10479.5
889.352	10485.5
889.592	10323.5
889.833	10136.5
890.073	10206.5
890.313	10230.5
890.553	10019.5
890.793	9995.5
891.033	9978.5
891.273	9898.5
891.513	9887.5
891.753	9936.5
891.993	9897.5
892.233	9886.5
892.473	9956.5
892.713	9879.5
892.952	9893.5
893.192	9854.5
893.432	9857.5
893.671	9844.5
893.911	9780.5
894.15	9761.5
894.39	9587.5
894.629	9611.5
894.869	9565.5
895.108	9457.5
895.347	9455.5
895.587	9462.5
895.826	9363.5
896.065	9282.5
896.304	9344.5
896.543	9331.5
896.782	9181.5
897.021	9303.5
897.26	9132.5
897.499	9238.5
897.738	9196.5
897.977	9160.5
898.216	9038.5
898.454	8993.5
898.693	8945.5
898.932	8954.5
899.17	8877.5
899.409	8857.5
899.647	8774.5
899.886	8766.5
900.124	8787.5
900.363	8730.5
900.601	8842.5
900.839	8730.5
901.078	8817.5
901.316	8799.5
901.554	8740.5
901.792	8896.5
902.03	8753.5
902.268	8802.5
902.506	8721.5
902.744	8664.5
902.982	8657.5
903.22	8496.5
903.458	8416.5
903.695	8394.5
903.933	8238.5
904.171	8136.5
904.409	8054.5
904.646	7980.5
904.884	7832.5
905.121	7800.5
905.359	7753.5
905.596	7604.5
905.833	7557.5
906.071	7529.5
906.308	7606.5
906.545	7573.5
906.783	7527.5
907.02	7532.5
907.257	7447.5
907.494	7530.5
907.731	7385.5
907.968	7445.5
908.205	7356.5
908.442	7303.5
908.679	7290.5
908.915	7168.5
909.152	7113.5
909.389	7056.5
909.626	6982.5
909.862	6979.5
910.099	7017.5
910.335	6961.5
910.572	6875.5
910.808	6888.5
911.045	6833.5
911.281	6777.5
911.518	6872.5
911.754	6763.5
911.99	6715.5
912.226	6674.5
912.463	6618.5
912.699	6602.5
912.935	6537.5
913.171	6484.5
913.407	6450.5
913.643	6452.5
913.879	6347.5
914.114	6271.5
914.35	6264.5
914.586	6134.5
914.822	6075.5
915.057	6123.5
915.293	5945.5
915.529	5932.5
915.764	6045.5
916	5988.5
916.235	5963.5
916.471	5999.5
916.706	5909.5
916.941	5878.5
917.177	5927.5
917.412	5960.5
917.647	5910.5
917.882	5921.5
918.117	5902.5
918.352	5849.5
918.588	5916.5
918.823	5766.5
919.057	5742.5
919.292	5619.5
919.527	5663.5
919.762	5566.5
919.997	5551.5
920.232	5425.5
920.466	5448.5
920.701	5286.5
920.935	5365.5
921.17	5263.5
921.405	5227.5
921.639	5282.5
921.873	5162.5
922.108	5250.5
922.342	5229.5
922.576	5115.5
922.811	5120.5
923.045	5144.5
923.279	5160.5
923.513	5058.5
923.747	5134.5
923.981	5032.5
924.215	4998.5
924.449	4950.5
924.683	4918.5
924.917	4892.5
925.151	4854.5
925.385	4879.5
925.618	4860.5
925.852	4823.5
926.086	4785.5
926.319	4831.5
926.553	4811.5
926.786	4814.5
927.02	4810.5
927.253	4835.5
927.486	4801.5
927.72	4754.5
927.953	4765.5
928.186	4684.5
928.42	4699.5
928.653	4711.5
928.886	4653.5
929.119	4712.5
929.352	4649.5
929.585	4612.5
929.818	4578.5
930.051	4552.5
930.284	4539.5
930.516	4377.5
930.749	4381.5
930.982	4473.5
931.215	4374.5
931.447	4351.5
931.68	4359.5
931.912	4307.5
932.145	4313.5
932.377	4316.5
932.61	4465.5
932.842	4275.5
933.074	4345.5
933.307	4295.5
933.539	4357.5
933.771	4338.5
934.003	4303.5
934.236	4364.5
934.468	4385.5
934.7	4280.5
934.932	4324.5
935.164	4286.5
935.395	4192.5
935.627	4265.5
935.859	4231.5
936.091	4152.5
936.323	4221.5
936.554	4227.5
936.786	4142.5
937.017	4086.5
937.249	4150.5
937.481	4058.5
937.712	4132.5
937.943	4075.5
938.175	4045.5
938.406	4069.5
938.637	4132.5
938.869	4038.5
939.1	4055.5
939.331	4016.5
939.562	4030.5
939.793	3998.5
940.024	4046.5
940.255	4031.5
940.486	3956.5
940.717	3981.5
940.948	3910.5
941.179	3905.5
941.409	3905.5
941.64	3912.5
941.871	3859.5
942.102	3861.5
942.332	3859.5
942.563	3922.5
942.793	3878.5
943.024	3847.5
943.254	3865.5
943.484	3891.5
943.715	3905.5
943.945	3852.5
944.175	3816.5
944.405	3781.5
944.636	3824.5
944.866	3845.5
945.096	3897.5
945.326	3730.5
945.556	3828.5
945.786	3811.5
946.016	3771.5
946.245	3723.5
946.475	3677.5
946.705	3657.5
946.935	3651.5
947.164	3611.5
947.394	3581.5
947.624	3589.5
947.853	3645.5
948.083	3571.5
948.312	3559.5
948.542	3492.5
948.771	3487.5
949	3486.5
949.23	3490.5
949.459	3520.5
949.688	3592.5
949.917	3523.5
950.146	3537.5
950.375	3558.5
950.604	3486.5
950.833	3565.5
951.062	3567.5
951.291	3431.5
951.52	3482.5
951.749	3462.5
951.978	3445.5
952.206	3424.5
952.435	3438.5
952.664	3443.5
952.892	3437.5
953.121	3420.5
953.349	3407.5
953.578	3373.5
953.806	3360.5
954.035	3319.5
954.263	3353.5
954.491	3239.5
954.719	3261.5
954.948	3299.5
955.176	3240.5
955.404	3162.5
955.632	3234.5
955.86	3288.5
956.088	3246.5
956.316	3237.5
956.544	3266.5
956.772	3189.5
956.999	3161.5
957.227	3208.5
957.455	3125.5
957.683	3133.5
957.91	3086.5
958.138	3128.5
958.365	3114.5
958.593	3062.5
958.82	2989.5
959.048	3078.5
959.275	3044.5
959.502	3006.5
959.73	2998.5
959.957	3026.5
960.184	3035.5
960.411	2953.5
960.638	3048.5
960.865	2958.5
961.092	3056.5
961.319	2920.5
961.546	3027.5
961.773	2990.5
962	2970.5
962.227	2982.5
962.454	3005.5
962.68	2977.5
962.907	2947.5
963.134	2896.5
963.36	2929.5
963.587	2924.5
963.813	2833.5
964.04	2851.5
964.266	2791.5
964.493	2887.5
964.719	2835.5
964.945	2844.5
965.171	2723.5
965.398	2795.5
965.624	2816.5
965.85	2738.5
966.076	2731.5
966.302	2741.5
966.528	2703.5
966.754	2757.5
966.98	2767.5
967.206	2696.5
967.431	2626.5
967.657	2721.5
967.883	2705.5
968.109	2667.5
968.334	2636.5
968.56	2608.5
968.785	2651.5
969.011	2630.5
969.236	2644.5
969.462	2558.5
969.687	2578.5
969.912	2620.5
970.138	2635.5
970.363	2568.5
970.588	2584.5
970.813	2538.5
971.038	2517.5
971.263	2554.5
971.488	2590.5
971.713	2620.5
971.938	2579.5
972.163	2471.5
972.388	2496.5
972.613	2457.5
972.838	2453.5
973.062	2474.5
973.287	2468.5
973.512	2366.5
973.736	2425.5
973.961	2403.5
974.185	2355.5
974.41	2417.5
974.634	2316.5
974.858	2344.5
975.083	2356.5
975.307	2383.5
975.531	2322.5
975.755	2258.5
975.98	2250.5
976.204	2215.5
976.428	2201.5
976.652	2232.5
976.876	2198.5
977.1	2220.5
977.324	2156.5
977.547	2221.5
977.771	2211.5
977.995	2178.5
978.219	2150.5
978.442	2278.5
978.666	2185.5
978.89	2195.5
979.113	2173.5
979.337	2172.5
979.56	2124.5
979.783	2213.5
980.007	2080.5
980.23	2162.5
980.453	2097.5
980.677	2154.5
980.9	2141.5
981.123	2023.5
981.346	2112.5
981.569	2076.5
981.792	2115.5
982.015	2087.5
982.238	2028.5
982.461	2067.5
982.684	2050.5
982.907	1998.5
983.129	2009.5
983.352	2018.5
983.575	1969.5
983.797	2017.5
984.02	1962.5
984.242	1959.5
984.465	1958.5
984.687	1994.5
984.91	2016.5
985.132	2002.5
985.354	1966.5
985.577	1940.5
985.799	1952.5
986.021	1864.5
986.243	1891.5
986.465	1875.5
986.687	1952.5
986.909	1966.5
987.131	1908.5
987.353	1906.5
987.575	1923.5
987.797	1862.5
988.019	1810.5
988.241	1867.5
988.462	1819.5
988.684	1894.5
988.906	1903.5
989.127	1903.5
989.349	1823.5
989.57	1859.5
989.792	1865.5
990.013	1892.5
990.234	1882.5
990.456	1911.5
990.677	1869.5
990.898	1792.5
991.119	1805.5
991.341	1843.5
991.562	1747.5
991.783	1840.5
992.004	1760.5
992.225	1716.5
992.446	1783.5
992.667	1687.5
992.887	1765.5
993.108	1684.5
993.329	1805.5
993.55	1763.5
993.77	1667.5
993.991	1663.5
994.212	1722.5
994.432	1704.5
994.653	1686.5
994.873	1681.5
995.093	1566.5
995.314	1617.5
995.534	1712.5
995.754	1707.5
995.975	1716.5
996.195	1607.5
996.415	1672.5
996.635	1631.5
996.855	1645.5
997.075	1615.5
997.295	1621.5
997.515	1592.5
997.735	1642.5
997.955	1634.5
998.174	1623.5
998.394	1571.5
998.614	1655.5
998.834	1591.5
999.053	1666.5
999.273	1605.5
999.492	1668.5
999.712	1623.5
999.931	1576.5
1000.151	1635.5
1000.37	1560.5
1000.589	1641.5
1000.809	1570.5
1001.028	1669.5
1001.247	1632.5
1001.466	1506.5
1001.685	1622.5
1001.904	1575.5
1002.123	1564.5
1002.342	1565.5
1002.561	1517.5
1002.78	1531.5
1002.999	1595.5
1003.218	1539.5
1003.436	1540.5
1003.655	1582.5
1003.874	1491.5
1004.092	1529.5
1004.311	1549.5
1004.53	1545.5
1004.748	1588.5
1004.966	1520.5
1005.185	1582.5
1005.403	1554.5
1005.622	1512.5
1005.84	1586.5
1006.058	1496.5
1006.276	1526.5
1006.494	1874.5
1006.712	1525.5
1006.931	1560.5
1007.149	1514.5
1007.367	1466.5
1007.584	1535.5
1007.802	1554.5
1008.02	1490.5
1008.238	1587.5
1008.456	1568.5
1008.673	1452.5
1008.891	1511.5
1009.109	1489.5
1009.326	1549.5
1009.544	1604.5
1009.761	1479.5
1009.979	1556.5
1010.196	1574.5
1010.413	1634.5
1010.631	1660.5
1010.848	1658.5
1011.065	1678.5
1011.282	1638.5
1011.5	1569.5
1011.717	1639.5
1011.934	1617.5
1012.151	1666.5
1012.368	1620.5
1012.585	1575.5
1012.801	1620.5
1013.018	1562.5
1013.235	1548.5
1013.452	1581.5
1013.669	1584.5
1013.885	1546.5
1014.102	1572.5
1014.318	1544.5
1014.535	1521.5
1014.751	1544.5
1014.968	1555.5
1015.184	1578.5
1015.401	1468.5
1015.617	1529.5
1015.833	1443.5
1016.049	1474.5
1016.266	1448.5
1016.482	1470.5
1016.698	1397.5
1016.914	1451.5
1017.13	1406.5
1017.346	1413.5
1017.562	1480.5
1017.778	1413.5
1017.993	1383.5
1018.209	1451.5
1018.425	1409.5
1018.641	1380.5
1018.856	1362.5
1019.072	1394.5
1019.288	1439.5
1019.503	1388.5
1019.719	1317.5
1019.934	1322.5
1020.149	1370.5
1020.365	1339.5
1020.58	1259.5
1020.795	1341.5
1021.011	1277.5
1021.226	1271.5
1021.441	1285.5
1021.656	1241.5
1021.871	1158.5
1022.086	1141.5
1022.301	1126.5
1022.516	1135.5
1022.731	1235.5
1022.946	1127.5
1023.16	1089.5
1023.375	1068.5
1023.59	1045.5
1023.804	1019.5
1024.019	1144.5
1024.234	990.5
1024.448	1034.5
1024.663	957.5
1024.877	1001.5
1025.092	1017.5
1025.306	1021.5
1025.52	917.5
1025.734	1016.5
1025.949	913.5
1026.163	894.5
1026.377	857.5
1026.591	920.5
1026.805	812.5
1027.019	829.5
1027.233	779.5
1027.447	736.5
1027.661	853.5
1027.875	781.5
1028.088	814.5
1028.302	736.5
1028.516	714.5
1028.73	698.5
1028.943	707.5
1029.157	651.5
1029.37	622.5
1029.584	-0.5
1029.797	-0.5
1030.011	-4.5
1030.224	-1.5
