Data from QEP037381__82__13-47-24-641.txt Node

Date: Fri Apr 28 13:47:24 EDT 2023
User: dcclab
Spectrometer: QEP03738
Trigger mode: 4
Integration Time (sec): 1.000000E1
Scans to average: 1
Electric dark correction enabled: true
Nonlinearity correction enabled: false
Boxcar width: 0
XAxis mode: Wavelengths
Number of Pixels in Spectrum: 1044
>>>>>Begin Spectral Data<<<<<
784.041	10
784.3	-1
784.558	-3
784.817	-2
785.075	68818
785.334	14090
785.592	7517
785.851	5345
786.109	4035
786.368	3107
786.626	2536
786.884	2132
787.143	1791
787.401	1468
787.659	1307
787.917	1127
788.175	1030
788.433	895
788.691	815
788.949	768
789.207	718
789.465	620
789.723	595
789.98	562
790.238	604
790.496	556
790.753	531
791.011	594
791.268	531
791.526	502
791.783	528
792.041	506
792.298	422
792.556	493
792.813	458
793.07	445
793.327	434
793.584	517
793.841	437
794.099	456
794.356	526
794.613	407
794.869	471
795.126	415
795.383	407
795.64	422
795.897	390
796.153	446
796.41	432
796.667	411
796.923	421
797.18	409
797.436	434
797.693	409
797.949	457
798.206	495
798.462	403
798.718	465
798.974	453
799.231	495
799.487	475
799.743	488
799.999	508
800.255	505
800.511	497
800.767	544
801.023	527
801.279	556
801.534	603
801.79	662
802.046	702
802.302	855
802.557	993
802.813	1269
803.068	1604
803.324	2282
803.579	3179
803.835	4428
804.09	6045
804.345	7648
804.601	9413
804.856	10991
805.111	12176
805.366	12936
805.621	13590
805.876	13918
806.131	14181
806.386	14406
806.641	14727
806.896	14893
807.151	15116
807.406	15374
807.661	15683
807.915	15881
808.17	16176
808.425	16390
808.679	16468
808.934	16902
809.188	16993
809.443	17135
809.697	17467
809.951	17493
810.206	17664
810.46	17852
810.714	18147
810.968	18285
811.223	18343
811.477	18411
811.731	18533
811.985	18591
812.239	18791
812.493	18862
812.747	18990
813	19053
813.254	19045
813.508	19266
813.762	19246
814.015	19484
814.269	19574
814.522	19746
814.776	19985
815.03	20171
815.283	20464
815.536	20815
815.79	21046
816.043	21303
816.296	21604
816.55	21882
816.803	22230
817.056	22547
817.309	22652
817.562	22985
817.815	23321
818.068	23495
818.321	23711
818.574	24154
818.827	24483
819.079	24777
819.332	25256
819.585	25480
819.838	25867
820.09	26075
820.343	26397
820.595	26453
820.848	26596
821.1	26749
821.353	26698
821.605	26667
821.857	26742
822.11	26511
822.362	26478
822.614	26485
822.866	26616
823.118	26581
823.37	26686
823.622	26619
823.874	26664
824.126	26797
824.378	26831
824.63	26992
824.882	27040
825.134	26925
825.385	26908
825.637	26794
825.888	26829
826.14	26752
826.392	26643
826.643	26568
826.895	26578
827.146	26286
827.397	26229
827.649	26239
827.9	26209
828.151	26240
828.402	26319
828.653	26325
828.905	26397
829.156	26466
829.407	26417
829.658	26418
829.909	26264
830.159	26235
830.41	26060
830.661	26006
830.912	25846
831.162	25752
831.413	25695
831.664	25798
831.914	25693
832.165	25667
832.415	25634
832.666	25780
832.916	25643
833.167	25510
833.417	25607
833.667	25425
833.917	25423
834.168	25305
834.418	25238
834.668	25072
834.918	24868
835.168	24975
835.418	24840
835.668	24849
835.918	24674
836.167	24645
836.417	24583
836.667	24592
836.917	24536
837.166	24461
837.416	24368
837.666	24312
837.915	24325
838.165	24166
838.414	24030
838.663	24014
838.913	24025
839.162	23947
839.411	23965
839.661	23797
839.91	23787
840.159	23721
840.408	23750
840.657	23829
840.906	23777
841.155	23757
841.404	23604
841.653	23669
841.902	23583
842.15	23798
842.399	23723
842.648	23502
842.897	23586
843.145	23240
843.394	23213
843.642	23121
843.891	23022
844.139	22926
844.388	22776
844.636	22610
844.884	22668
845.133	22533
845.381	22388
845.629	22556
845.877	22428
846.125	22461
846.373	22425
846.621	22393
846.869	22345
847.117	22173
847.365	21956
847.613	21851
847.861	21909
848.108	21883
848.356	21707
848.604	21723
848.851	21751
849.099	21754
849.346	21994
849.594	21933
849.841	21967
850.089	21899
850.336	21949
850.583	22041
850.831	21881
851.078	21812
851.325	21733
851.572	21590
851.819	21391
852.066	20964
852.313	20750
852.56	20617
852.807	20506
853.054	20426
853.301	20327
853.548	20350
853.794	20503
854.041	20661
854.288	20777
854.534	20749
854.781	20707
855.028	20677
855.274	20615
855.52	20403
855.767	20255
856.013	20281
856.26	20453
856.506	20092
856.752	20176
856.998	19985
857.244	20028
857.49	20152
857.736	20166
857.982	20123
858.228	20067
858.474	20059
858.72	19954
858.966	19665
859.212	19509
859.458	19368
859.703	19131
859.949	19033
860.195	18954
860.44	18789
860.686	18701
860.931	18698
861.177	18531
861.422	18448
861.667	18404
861.913	18566
862.158	18478
862.403	18573
862.648	18673
862.893	18674
863.138	18487
863.384	18463
863.629	18583
863.873	18448
864.118	18281
864.363	18164
864.608	18216
864.853	18061
865.098	17921
865.342	17905
865.587	17804
865.832	17736
866.076	17742
866.321	17593
866.565	17531
866.81	17519
867.054	17501
867.298	17387
867.543	17389
867.787	17475
868.031	17415
868.275	17288
868.519	17393
868.764	17240
869.008	17157
869.252	17245
869.496	17154
869.739	17110
869.983	17050
870.227	17138
870.471	17003
870.715	17116
870.958	17137
871.202	17110
871.446	17125
871.689	16995
871.933	17007
872.176	17023
872.42	16942
872.663	16935
872.906	16878
873.15	16716
873.393	16634
873.636	16590
873.879	16421
874.122	16283
874.366	16090
874.609	16032
874.852	15966
875.095	15831
875.337	15778
875.58	15617
875.823	15688
876.066	15725
876.309	15617
876.551	15487
876.794	15470
877.037	15382
877.279	15326
877.522	15282
877.764	15410
878.007	15319
878.249	15396
878.491	15291
878.734	15202
878.976	15200
879.218	15092
879.46	15056
879.702	14947
879.945	14870
880.187	14626
880.429	14574
880.671	14479
880.912	14508
881.154	14412
881.396	14330
881.638	14387
881.88	14403
882.121	14302
882.363	14309
882.605	14276
882.846	14123
883.088	14188
883.329	14094
883.571	14121
883.812	14065
884.053	14238
884.295	14338
884.536	14433
884.777	14383
885.018	14326
885.259	14346
885.5	14123
885.742	14320
885.982	14158
886.223	14004
886.464	14050
886.705	13810
886.946	13704
887.187	13540
887.428	13560
887.668	13304
887.909	13220
888.15	13084
888.39	13073
888.631	13019
888.871	12858
889.111	12718
889.352	12602
889.592	12445
889.833	12449
890.073	12385
890.313	12376
890.553	12169
890.793	12186
891.033	12160
891.273	12079
891.513	12060
891.753	12130
891.993	12016
892.233	11999
892.473	12005
892.713	12103
892.952	11995
893.192	12009
893.432	11906
893.671	11943
893.911	11831
894.15	11699
894.39	11591
894.629	11607
894.869	11557
895.108	11546
895.347	11392
895.587	11374
895.826	11307
896.065	11315
896.304	11330
896.543	11263
896.782	11172
897.021	11247
897.26	11148
897.499	11201
897.738	11175
897.977	11015
898.216	10947
898.454	10898
898.693	10828
898.932	10807
899.17	10751
899.409	10625
899.647	10670
899.886	10685
900.124	10636
900.363	10557
900.601	10673
900.839	10626
901.078	10635
901.316	10677
901.554	10652
901.792	10700
902.03	10703
902.268	10729
902.506	10652
902.744	10587
902.982	10551
903.22	10365
903.458	10247
903.695	10144
903.933	10054
904.171	9896
904.409	9718
904.646	9653
904.884	9479
905.121	9447
905.359	9251
905.596	9295
905.833	9151
906.071	9195
906.308	9149
906.545	9085
906.783	9043
907.02	9068
907.257	9052
907.494	9040
907.731	9037
907.968	8983
908.205	8898
908.442	8793
908.679	8793
908.915	8708
909.152	8647
909.389	8544
909.626	8508
909.862	8455
910.099	8407
910.335	8455
910.572	8359
910.808	8312
911.045	8260
911.281	8221
911.518	8312
911.754	8155
911.99	8073
912.226	8054
912.463	7988
912.699	7921
912.935	7929
913.171	7824
913.407	7690
913.643	7785
913.879	7619
914.114	7588
914.35	7435
914.586	7408
914.822	7370
915.057	7400
915.293	7187
915.529	7213
915.764	7256
916	7223
916.235	7150
916.471	7245
916.706	7127
916.941	7114
917.177	7165
917.412	7156
917.647	7094
917.882	7024
918.117	7100
918.352	7018
918.588	7066
918.823	6973
919.057	6887
919.292	6732
919.527	6822
919.762	6729
919.997	6650
920.232	6509
920.466	6562
920.701	6444
920.935	6405
921.17	6323
921.405	6322
921.639	6297
921.873	6260
922.108	6296
922.342	6276
922.576	6153
922.811	6172
923.045	6172
923.279	6200
923.513	6076
923.747	6138
923.981	6076
924.215	6019
924.449	5932
924.683	5904
924.917	5886
925.151	5849
925.385	5911
925.618	5794
925.852	5879
926.086	5785
926.319	5806
926.553	5793
926.786	5777
927.02	5784
927.253	5758
927.486	5784
927.72	5734
927.953	5746
928.186	5666
928.42	5633
928.653	5622
928.886	5517
929.119	5628
929.352	5568
929.585	5556
929.818	5492
930.051	5443
930.284	5403
930.516	5258
930.749	5234
930.982	5298
931.215	5282
931.447	5237
931.68	5195
931.912	5213
932.145	5188
932.377	5212
932.61	5305
932.842	5176
933.074	5191
933.307	5152
933.539	5275
933.771	5255
934.003	5117
934.236	5247
934.468	5257
934.7	5178
934.932	5175
935.164	5055
935.395	5059
935.627	5043
935.859	5105
936.091	4989
936.323	4984
936.554	5039
936.786	4950
937.017	4876
937.249	4963
937.481	4873
937.712	4907
937.943	4929
938.175	4841
938.406	4889
938.637	4910
938.869	4794
939.1	4863
939.331	4833
939.562	4865
939.793	4826
940.024	4814
940.255	4768
940.486	4721
940.717	4721
940.948	4685
941.179	4692
941.409	4668
941.64	4648
941.871	4683
942.102	4643
942.332	4590
942.563	4665
942.793	4639
943.024	4597
943.254	4581
943.484	4640
943.715	4661
943.945	4620
944.175	4593
944.405	4534
944.636	4562
944.866	4602
945.096	4577
945.326	4486
945.556	4577
945.786	4541
946.016	4493
946.245	4404
946.475	4434
946.705	4363
946.935	4349
947.164	4332
947.394	4265
947.624	4303
947.853	4349
948.083	4282
948.312	4280
948.542	4191
948.771	4163
949	4139
949.23	4190
949.459	4197
949.688	4239
949.917	4198
950.146	4271
950.375	4270
950.604	4133
950.833	4222
951.062	4207
951.291	4101
951.52	4114
951.749	4123
951.978	4072
952.206	4062
952.435	4043
952.664	4086
952.892	4062
953.121	4024
953.349	4079
953.578	4060
953.806	4012
954.035	3870
954.263	3957
954.491	3885
954.719	3913
954.948	3873
955.176	3875
955.404	3820
955.632	3865
955.86	3843
956.088	3794
956.316	3823
956.544	3814
956.772	3753
956.999	3759
957.227	3755
957.455	3666
957.683	3669
957.91	3641
958.138	3619
958.365	3633
958.593	3603
958.82	3599
959.048	3621
959.275	3592
959.502	3583
959.73	3570
959.957	3589
960.184	3577
960.411	3529
960.638	3594
960.865	3530
961.092	3563
961.319	3467
961.546	3579
961.773	3586
962	3473
962.227	3543
962.454	3480
962.68	3446
962.907	3475
963.134	3445
963.36	3427
963.587	3422
963.813	3349
964.04	3352
964.266	3312
964.493	3380
964.719	3344
964.945	3344
965.171	3223
965.398	3249
965.624	3294
965.85	3164
966.076	3197
966.302	3215
966.528	3221
966.754	3213
966.98	3181
967.206	3181
967.431	3118
967.657	3156
967.883	3206
968.109	3146
968.334	3094
968.56	3082
968.785	3051
969.011	3029
969.236	3102
969.462	3048
969.687	3044
969.912	3091
970.138	3060
970.363	2979
970.588	3067
970.813	3000
971.038	2963
971.263	3006
971.488	2979
971.713	2995
971.938	2990
972.163	2893
972.388	2860
972.613	2865
972.838	2885
973.062	2874
973.287	2861
973.512	2791
973.736	2826
973.961	2802
974.185	2767
974.41	2817
974.634	2724
974.858	2723
975.083	2743
975.307	2789
975.531	2704
975.755	2619
975.98	2656
976.204	2607
976.428	2589
976.652	2597
976.876	2562
977.1	2627
977.324	2539
977.547	2617
977.771	2587
977.995	2583
978.219	2501
978.442	2631
978.666	2551
978.89	2515
979.113	2546
979.337	2512
979.56	2453
979.783	2578
980.007	2442
980.23	2512
980.453	2470
980.677	2505
980.9	2467
981.123	2343
981.346	2482
981.569	2468
981.792	2436
982.015	2394
982.238	2397
982.461	2371
982.684	2344
982.907	2300
983.129	2281
983.352	2328
983.575	2341
983.797	2312
984.02	2261
984.242	2294
984.465	2237
984.687	2282
984.91	2313
985.132	2288
985.354	2272
985.577	2240
985.799	2206
986.021	2187
986.243	2195
986.465	2197
986.687	2248
986.909	2276
987.131	2180
987.353	2156
987.575	2208
987.797	2173
988.019	2099
988.241	2151
988.462	2106
988.684	2154
988.906	2163
989.127	2216
989.349	2062
989.57	2093
989.792	2130
990.013	2137
990.234	2136
990.456	2157
990.677	2149
990.898	2049
991.119	2074
991.341	2094
991.562	2004
991.783	2097
992.004	2011
992.225	1992
992.446	2042
992.667	1964
992.887	2000
993.108	1906
993.329	2028
993.55	1993
993.77	1909
993.991	1897
994.212	1930
994.432	1921
994.653	1973
994.873	1924
995.093	1817
995.314	1863
995.534	1916
995.754	1932
995.975	1967
996.195	1846
996.415	1890
996.635	1868
996.855	1887
997.075	1869
997.295	1874
997.515	1823
997.735	1890
997.955	1835
998.174	1834
998.394	1770
998.614	1814
998.834	1786
999.053	1861
999.273	1842
999.492	1892
999.712	1810
999.931	1755
1000.151	1824
1000.37	1767
1000.589	1851
1000.809	1761
1001.028	1870
1001.247	1803
1001.466	1692
1001.685	1850
1001.904	1783
1002.123	1756
1002.342	1766
1002.561	1703
1002.78	1745
1002.999	1799
1003.218	1737
1003.436	1691
1003.655	1768
1003.874	1674
1004.092	1700
1004.311	1759
1004.53	1697
1004.748	1748
1004.966	1692
1005.185	1751
1005.403	1722
1005.622	1670
1005.84	1754
1006.058	1686
1006.276	1689
1006.494	2045
1006.712	1678
1006.931	1730
1007.149	1628
1007.367	1638
1007.584	1692
1007.802	1727
1008.02	1661
1008.238	1772
1008.456	1709
1008.673	1611
1008.891	1683
1009.109	1657
1009.326	1711
1009.544	1762
1009.761	1696
1009.979	1766
1010.196	1768
1010.413	1835
1010.631	1856
1010.848	1896
1011.065	1893
1011.282	1825
1011.5	1774
1011.717	1856
1011.934	1840
1012.151	1846
1012.368	1842
1012.585	1780
1012.801	1848
1013.018	1780
1013.235	1744
1013.452	1772
1013.669	1803
1013.885	1735
1014.102	1817
1014.318	1746
1014.535	1698
1014.751	1766
1014.968	1748
1015.184	1772
1015.401	1667
1015.617	1707
1015.833	1675
1016.049	1675
1016.266	1644
1016.482	1667
1016.698	1601
1016.914	1655
1017.13	1590
1017.346	1596
1017.562	1657
1017.778	1589
1017.993	1572
1018.209	1627
1018.425	1605
1018.641	1563
1018.856	1571
1019.072	1577
1019.288	1609
1019.503	1567
1019.719	1494
1019.934	1498
1020.149	1561
1020.365	1509
1020.58	1447
1020.795	1516
1021.011	1427
1021.226	1451
1021.441	1442
1021.656	1366
1021.871	1315
1022.086	1299
1022.301	1283
1022.516	1285
1022.731	1363
1022.946	1263
1023.16	1224
1023.375	1190
1023.59	1190
1023.804	1160
1024.019	1248
1024.234	1127
1024.448	1135
1024.663	1093
1024.877	1098
1025.092	1111
1025.306	1122
1025.52	1027
1025.734	1119
1025.949	1025
1026.163	993
1026.377	957
1026.591	985
1026.805	914
1027.019	908
1027.233	875
1027.447	833
1027.661	937
1027.875	875
1028.088	871
1028.302	808
1028.516	796
1028.73	776
1028.943	788
1029.157	723
1029.37	675
1029.584	-1
1029.797	-1
1030.011	0
1030.224	-2
