Data from QEP037381__73__13-45-54-641.txt Node

Date: Fri Apr 28 13:45:54 EDT 2023
User: dcclab
Spectrometer: QEP03738
Trigger mode: 4
Integration Time (sec): 1.000000E1
Scans to average: 1
Electric dark correction enabled: true
Nonlinearity correction enabled: false
Boxcar width: 0
XAxis mode: Wavelengths
Number of Pixels in Spectrum: 1044
>>>>>Begin Spectral Data<<<<<
784.041	15.38
784.3	-0.62
784.558	-1.62
784.817	-3.62
785.075	72898.38
785.334	14557.38
785.592	7546.38
785.851	5323.38
786.109	4107.38
786.368	3148.38
786.626	2596.38
786.884	2141.38
787.143	1807.38
787.401	1473.38
787.659	1348.38
787.917	1154.38
788.175	1051.38
788.433	936.38
788.691	847.38
788.949	789.38
789.207	761.38
789.465	659.38
789.723	619.38
789.98	583.38
790.238	605.38
790.496	591.38
790.753	542.38
791.011	598.38
791.268	541.38
791.526	533.38
791.783	553.38
792.041	517.38
792.298	449.38
792.556	508.38
792.813	488.38
793.07	456.38
793.327	450.38
793.584	534.38
793.841	461.38
794.099	478.38
794.356	540.38
794.613	435.38
794.869	483.38
795.126	444.38
795.383	428.38
795.64	448.38
795.897	409.38
796.153	447.38
796.41	450.38
796.667	425.38
796.923	451.38
797.18	448.38
797.436	463.38
797.693	436.38
797.949	497.38
798.206	523.38
798.462	425.38
798.718	483.38
798.974	471.38
799.231	521.38
799.487	503.38
799.743	530.38
799.999	547.38
800.255	556.38
800.511	554.38
800.767	591.38
801.023	599.38
801.279	623.38
801.534	692.38
801.79	755.38
802.046	812.38
802.302	1019.38
802.557	1216.38
802.813	1580.38
803.068	2082.38
803.324	2981.38
803.579	4135.38
803.835	5859.38
804.09	8017.38
804.345	10330.38
804.601	12649.38
804.856	14700.38
805.111	16277.38
805.366	17421.38
805.621	18036.38
805.876	18647.38
806.131	19042.38
806.386	19435.38
806.641	19714.38
806.896	20030.38
807.151	20397.38
807.406	20675.38
807.661	21180.38
807.915	21433.38
808.17	21873.38
808.425	22160.38
808.679	22313.38
808.934	22749.38
809.188	22929.38
809.443	23261.38
809.697	23558.38
809.951	23739.38
810.206	23885.38
810.46	24154.38
810.714	24180.38
810.968	24606.38
811.223	24662.38
811.477	24926.38
811.731	25104.38
811.985	25262.38
812.239	25303.38
812.493	25574.38
812.747	25752.38
813	25756.38
813.254	25902.38
813.508	26002.38
813.762	26163.38
814.015	26222.38
814.269	26395.38
814.522	26636.38
814.776	26962.38
815.03	27343.38
815.283	27738.38
815.536	28133.38
815.79	28629.38
816.043	28921.38
816.296	29288.38
816.55	29775.38
816.803	30082.38
817.056	30495.38
817.309	30784.38
817.562	31152.38
817.815	31396.38
818.068	31852.38
818.321	32279.38
818.574	32732.38
818.827	33072.38
819.079	33603.38
819.332	34247.38
819.585	34580.38
819.838	35141.38
820.09	35432.38
820.343	35723.38
820.595	35876.38
820.848	36139.38
821.1	36182.38
821.353	36281.38
821.605	36192.38
821.857	36109.38
822.11	36101.38
822.362	35860.38
822.614	35785.38
822.866	36009.38
823.118	35854.38
823.37	36032.38
823.622	36193.38
823.874	36249.38
824.126	36215.38
824.378	36502.38
824.63	36464.38
824.882	36592.38
825.134	36451.38
825.385	36424.38
825.637	36430.38
825.888	36202.38
826.14	36043.38
826.392	36072.38
826.643	35821.38
826.895	35829.38
827.146	35632.38
827.397	35510.38
827.649	35572.38
827.9	35438.38
828.151	35494.38
828.402	35659.38
828.653	35704.38
828.905	35615.38
829.156	35767.38
829.407	35727.38
829.658	35574.38
829.909	35697.38
830.159	35450.38
830.41	35228.38
830.661	35119.38
830.912	34849.38
831.162	34835.38
831.413	34814.38
831.664	34749.38
831.914	34674.38
832.165	34650.38
832.415	34612.38
832.666	34723.38
832.916	34680.38
833.167	34515.38
833.417	34533.38
833.667	34427.38
833.917	34281.38
834.168	34202.38
834.418	34115.38
834.668	33960.38
834.918	33603.38
835.168	33560.38
835.418	33526.38
835.668	33515.38
835.918	33360.38
836.167	33329.38
836.417	33251.38
836.667	33108.38
836.917	32966.38
837.166	32935.38
837.416	32943.38
837.666	32931.38
837.915	32783.38
838.165	32612.38
838.414	32473.38
838.663	32337.38
838.913	32321.38
839.162	32171.38
839.411	32214.38
839.661	31979.38
839.91	31937.38
840.159	31865.38
840.408	32038.38
840.657	31912.38
840.906	32022.38
841.155	31949.38
841.404	31904.38
841.653	31766.38
841.902	31861.38
842.15	32087.38
842.399	31989.38
842.648	31725.38
842.897	31638.38
843.145	31283.38
843.394	31278.38
843.642	31089.38
843.891	31059.38
844.139	30850.38
844.388	30568.38
844.636	30369.38
844.884	30362.38
845.133	30412.38
845.381	30382.38
845.629	30358.38
845.877	30163.38
846.125	30165.38
846.373	30317.38
846.621	29949.38
846.869	30078.38
847.117	29689.38
847.365	29489.38
847.613	29376.38
847.861	29370.38
848.108	29344.38
848.356	29145.38
848.604	29259.38
848.851	29229.38
849.099	29246.38
849.346	29477.38
849.594	29360.38
849.841	29531.38
850.089	29529.38
850.336	29504.38
850.583	29443.38
850.831	29259.38
851.078	29160.38
851.325	29094.38
851.572	28976.38
851.819	28542.38
852.066	28107.38
852.313	27786.38
852.56	27596.38
852.807	27537.38
853.054	27398.38
853.301	27337.38
853.548	27309.38
853.794	27466.38
854.041	27438.38
854.288	27687.38
854.534	27882.38
854.781	27726.38
855.028	27583.38
855.274	27595.38
855.52	27371.38
855.767	27303.38
856.013	27183.38
856.26	27402.38
856.506	26864.38
856.752	26866.38
856.998	26888.38
857.244	26996.38
857.49	26924.38
857.736	26933.38
857.982	27039.38
858.228	26883.38
858.474	26660.38
858.72	26715.38
858.966	26397.38
859.212	26133.38
859.458	25831.38
859.703	25610.38
859.949	25284.38
860.195	25244.38
860.44	25138.38
860.686	24946.38
860.931	24926.38
861.177	24695.38
861.422	24700.38
861.667	24826.38
861.913	24586.38
862.158	24766.38
862.403	24815.38
862.648	24804.38
862.893	24838.38
863.138	24710.38
863.384	24715.38
863.629	24628.38
863.873	24603.38
864.118	24459.38
864.363	24297.38
864.608	24227.38
864.853	24115.38
865.098	23885.38
865.342	23873.38
865.587	23663.38
865.832	23692.38
866.076	23668.38
866.321	23582.38
866.565	23525.38
866.81	23311.38
867.054	23210.38
867.298	23253.38
867.543	23217.38
867.787	23210.38
868.031	23161.38
868.275	23103.38
868.519	23080.38
868.764	23034.38
869.008	23023.38
869.252	22750.38
869.496	22833.38
869.739	22757.38
869.983	22710.38
870.227	22681.38
870.471	22690.38
870.715	22725.38
870.958	22746.38
871.202	22564.38
871.446	22584.38
871.689	22558.38
871.933	22726.38
872.176	22543.38
872.42	22486.38
872.663	22381.38
872.906	22409.38
873.15	22312.38
873.393	21953.38
873.636	21802.38
873.879	21666.38
874.122	21531.38
874.366	21249.38
874.609	21214.38
874.852	21132.38
875.095	21035.38
875.337	20872.38
875.58	20751.38
875.823	20746.38
876.066	20711.38
876.309	20753.38
876.551	20611.38
876.794	20507.38
877.037	20443.38
877.279	20300.38
877.522	20463.38
877.764	20308.38
878.007	20385.38
878.249	20416.38
878.491	20295.38
878.734	20285.38
878.976	20195.38
879.218	20017.38
879.46	19887.38
879.702	19796.38
879.945	19683.38
880.187	19505.38
880.429	19377.38
880.671	19204.38
880.912	19205.38
881.154	19146.38
881.396	19034.38
881.638	19028.38
881.88	18945.38
882.121	18916.38
882.363	18974.38
882.605	18863.38
882.846	18744.38
883.088	18693.38
883.329	18663.38
883.571	18564.38
883.812	18614.38
884.053	18742.38
884.295	18783.38
884.536	18983.38
884.777	18716.38
885.018	18788.38
885.259	18765.38
885.5	18674.38
885.742	18810.38
885.982	18578.38
886.223	18432.38
886.464	18340.38
886.705	18242.38
886.946	18192.38
887.187	17976.38
887.428	17729.38
887.668	17574.38
887.909	17473.38
888.15	17330.38
888.39	17315.38
888.631	17087.38
888.871	17035.38
889.111	16908.38
889.352	16864.38
889.592	16610.38
889.833	16432.38
890.073	16399.38
890.313	16350.38
890.553	16130.38
890.793	16110.38
891.033	16096.38
891.273	15986.38
891.513	15952.38
891.753	15908.38
891.993	15822.38
892.233	15870.38
892.473	15969.38
892.713	15843.38
892.952	15819.38
893.192	15912.38
893.432	15796.38
893.671	15809.38
893.911	15705.38
894.15	15555.38
894.39	15387.38
894.629	15376.38
894.869	15225.38
895.108	15173.38
895.347	15131.38
895.587	15077.38
895.826	14908.38
896.065	14865.38
896.304	14888.38
896.543	14910.38
896.782	14736.38
897.021	14794.38
897.26	14787.38
897.499	14715.38
897.738	14758.38
897.977	14541.38
898.216	14497.38
898.454	14311.38
898.693	14146.38
898.932	14216.38
899.17	14131.38
899.409	14101.38
899.647	14039.38
899.886	14033.38
900.124	14047.38
900.363	13975.38
900.601	14040.38
900.839	14007.38
901.078	13946.38
901.316	14088.38
901.554	14070.38
901.792	14053.38
902.03	14047.38
902.268	13967.38
902.506	13864.38
902.744	13802.38
902.982	13757.38
903.22	13517.38
903.458	13491.38
903.695	13230.38
903.933	13149.38
904.171	12936.38
904.409	12696.38
904.646	12613.38
904.884	12463.38
905.121	12446.38
905.359	12293.38
905.596	12224.38
905.833	12022.38
906.071	12023.38
906.308	11987.38
906.545	12012.38
906.783	11863.38
907.02	11949.38
907.257	11793.38
907.494	11886.38
907.731	11748.38
907.968	11821.38
908.205	11683.38
908.442	11544.38
908.679	11454.38
908.915	11399.38
909.152	11392.38
909.389	11210.38
909.626	11249.38
909.862	11059.38
910.099	11043.38
910.335	11033.38
910.572	10967.38
910.808	10853.38
911.045	10899.38
911.281	10779.38
911.518	10872.38
911.754	10729.38
911.99	10576.38
912.226	10576.38
912.463	10441.38
912.699	10406.38
912.935	10358.38
913.171	10277.38
913.407	10187.38
913.643	10112.38
913.879	10048.38
914.114	9916.38
914.35	9818.38
914.586	9716.38
914.822	9595.38
915.057	9649.38
915.293	9475.38
915.529	9421.38
915.764	9522.38
916	9415.38
916.235	9399.38
916.471	9494.38
916.706	9304.38
916.941	9283.38
917.177	9305.38
917.412	9343.38
917.647	9309.38
917.882	9186.38
918.117	9327.38
918.352	9243.38
918.588	9262.38
918.823	9078.38
919.057	9036.38
919.292	8788.38
919.527	8916.38
919.762	8737.38
919.997	8662.38
920.232	8535.38
920.466	8536.38
920.701	8317.38
920.935	8395.38
921.17	8274.38
921.405	8256.38
921.639	8244.38
921.873	8194.38
922.108	8137.38
922.342	8223.38
922.576	8097.38
922.811	8082.38
923.045	8052.38
923.279	8079.38
923.513	7898.38
923.747	7956.38
923.981	7876.38
924.215	7775.38
924.449	7746.38
924.683	7662.38
924.917	7590.38
925.151	7665.38
925.385	7627.38
925.618	7516.38
925.852	7597.38
926.086	7433.38
926.319	7522.38
926.553	7496.38
926.786	7500.38
927.02	7461.38
927.253	7488.38
927.486	7485.38
927.72	7397.38
927.953	7425.38
928.186	7340.38
928.42	7393.38
928.653	7287.38
928.886	7231.38
929.119	7247.38
929.352	7226.38
929.585	7184.38
929.818	7069.38
930.051	7095.38
930.284	6981.38
930.516	6903.38
930.749	6812.38
930.982	6890.38
931.215	6825.38
931.447	6728.38
931.68	6730.38
931.912	6730.38
932.145	6736.38
932.377	6737.38
932.61	6855.38
932.842	6652.38
933.074	6727.38
933.307	6676.38
933.539	6762.38
933.771	6700.38
934.003	6754.38
934.236	6765.38
934.468	6781.38
934.7	6663.38
934.932	6664.38
935.164	6594.38
935.395	6532.38
935.627	6528.38
935.859	6535.38
936.091	6403.38
936.323	6460.38
936.554	6472.38
936.786	6499.38
937.017	6428.38
937.249	6375.38
937.481	6275.38
937.712	6312.38
937.943	6300.38
938.175	6329.38
938.406	6266.38
938.637	6271.38
938.869	6231.38
939.1	6277.38
939.331	6203.38
939.562	6180.38
939.793	6183.38
940.024	6202.38
940.255	6200.38
940.486	6111.38
940.717	6018.38
940.948	6024.38
941.179	5985.38
941.409	6034.38
941.64	6015.38
941.871	5967.38
942.102	5974.38
942.332	5968.38
942.563	6084.38
942.793	5997.38
943.024	5943.38
943.254	5957.38
943.484	5970.38
943.715	6011.38
943.945	5988.38
944.175	5892.38
944.405	5845.38
944.636	5855.38
944.866	5892.38
945.096	5898.38
945.326	5839.38
945.556	5847.38
945.786	5853.38
946.016	5726.38
946.245	5717.38
946.475	5695.38
946.705	5633.38
946.935	5647.38
947.164	5629.38
947.394	5560.38
947.624	5548.38
947.853	5544.38
948.083	5450.38
948.312	5446.38
948.542	5363.38
948.771	5379.38
949	5360.38
949.23	5384.38
949.459	5441.38
949.688	5487.38
949.917	5441.38
950.146	5383.38
950.375	5387.38
950.604	5304.38
950.833	5411.38
951.062	5395.38
951.291	5344.38
951.52	5226.38
951.749	5203.38
951.978	5218.38
952.206	5239.38
952.435	5189.38
952.664	5217.38
952.892	5244.38
953.121	5172.38
953.349	5152.38
953.578	5107.38
953.806	5107.38
954.035	5059.38
954.263	5111.38
954.491	5000.38
954.719	5040.38
954.948	4926.38
955.176	4946.38
955.404	4827.38
955.632	4923.38
955.86	4897.38
956.088	4819.38
956.316	4895.38
956.544	4855.38
956.772	4825.38
956.999	4792.38
957.227	4880.38
957.455	4714.38
957.683	4746.38
957.91	4682.38
958.138	4625.38
958.365	4609.38
958.593	4589.38
958.82	4538.38
959.048	4588.38
959.275	4575.38
959.502	4557.38
959.73	4542.38
959.957	4556.38
960.184	4571.38
960.411	4498.38
960.638	4581.38
960.865	4483.38
961.092	4522.38
961.319	4402.38
961.546	4478.38
961.773	4525.38
962	4489.38
962.227	4514.38
962.454	4457.38
962.68	4417.38
962.907	4412.38
963.134	4313.38
963.36	4354.38
963.587	4333.38
963.813	4254.38
964.04	4238.38
964.266	4176.38
964.493	4257.38
964.719	4237.38
964.945	4226.38
965.171	4119.38
965.398	4132.38
965.624	4132.38
965.85	4067.38
966.076	4039.38
966.302	4079.38
966.528	4022.38
966.754	4066.38
966.98	4012.38
967.206	4038.38
967.431	3986.38
967.657	3998.38
967.883	3954.38
968.109	3962.38
968.334	3877.38
968.56	3915.38
968.785	3902.38
969.011	3838.38
969.236	3877.38
969.462	3839.38
969.687	3875.38
969.912	3877.38
970.138	3887.38
970.363	3785.38
970.588	3786.38
970.813	3783.38
971.038	3733.38
971.263	3827.38
971.488	3761.38
971.713	3753.38
971.938	3771.38
972.163	3650.38
972.388	3681.38
972.613	3610.38
972.838	3664.38
973.062	3641.38
973.287	3566.38
973.512	3537.38
973.736	3551.38
973.961	3546.38
974.185	3556.38
974.41	3515.38
974.634	3446.38
974.858	3451.38
975.083	3449.38
975.307	3463.38
975.531	3337.38
975.755	3338.38
975.98	3325.38
976.204	3313.38
976.428	3224.38
976.652	3264.38
976.876	3264.38
977.1	3287.38
977.324	3218.38
977.547	3260.38
977.771	3234.38
977.995	3240.38
978.219	3166.38
978.442	3251.38
978.666	3258.38
978.89	3217.38
979.113	3224.38
979.337	3147.38
979.56	3138.38
979.783	3229.38
980.007	3073.38
980.23	3088.38
980.453	3079.38
980.677	3095.38
980.9	3121.38
981.123	2999.38
981.346	3083.38
981.569	3031.38
981.792	3018.38
982.015	2974.38
982.238	2939.38
982.461	2978.38
982.684	2879.38
982.907	2873.38
983.129	2874.38
983.352	2915.38
983.575	2853.38
983.797	2864.38
984.02	2807.38
984.242	2788.38
984.465	2792.38
984.687	2820.38
984.91	2807.38
985.132	2803.38
985.354	2832.38
985.577	2791.38
985.799	2748.38
986.021	2683.38
986.243	2699.38
986.465	2733.38
986.687	2770.38
986.909	2788.38
987.131	2761.38
987.353	3003.38
987.575	2721.38
987.797	2650.38
988.019	2588.38
988.241	2668.38
988.462	2590.38
988.684	2679.38
988.906	2666.38
989.127	2676.38
989.349	2589.38
989.57	2578.38
989.792	2631.38
990.013	2592.38
990.234	2639.38
990.456	2660.38
990.677	2593.38
990.898	2545.38
991.119	2560.38
991.341	2576.38
991.562	2494.38
991.783	2524.38
992.004	2451.38
992.225	2421.38
992.446	2481.38
992.667	2388.38
992.887	2448.38
993.108	2342.38
993.329	2477.38
993.55	2370.38
993.77	2325.38
993.991	2322.38
994.212	2348.38
994.432	2321.38
994.653	2367.38
994.873	2306.38
995.093	2210.38
995.314	2258.38
995.534	2319.38
995.754	2282.38
995.975	2311.38
996.195	2212.38
996.415	2299.38
996.635	2245.38
996.855	2236.38
997.075	2239.38
997.295	2229.38
997.515	2203.38
997.735	2251.38
997.955	2189.38
998.174	2180.38
998.394	2186.38
998.614	2231.38
998.834	2167.38
999.053	2244.38
999.273	2203.38
999.492	2237.38
999.712	2190.38
999.931	2128.38
1000.151	2167.38
1000.37	2141.38
1000.589	2172.38
1000.809	2106.38
1001.028	2240.38
1001.247	2152.38
1001.466	2024.38
1001.685	2172.38
1001.904	2076.38
1002.123	2072.38
1002.342	2073.38
1002.561	2028.38
1002.78	2049.38
1002.999	2103.38
1003.218	2011.38
1003.436	2049.38
1003.655	2057.38
1003.874	1996.38
1004.092	2017.38
1004.311	2068.38
1004.53	2005.38
1004.748	2085.38
1004.966	1979.38
1005.185	2049.38
1005.403	2015.38
1005.622	1971.38
1005.84	2065.38
1006.058	1971.38
1006.276	1975.38
1006.494	2345.38
1006.712	1974.38
1006.931	2023.38
1007.149	1931.38
1007.367	1942.38
1007.584	1958.38
1007.802	2000.38
1008.02	1896.38
1008.238	2025.38
1008.456	2027.38
1008.673	1884.38
1008.891	1987.38
1009.109	1943.38
1009.326	1958.38
1009.544	2042.38
1009.761	1957.38
1009.979	2044.38
1010.196	2030.38
1010.413	2105.38
1010.631	2140.38
1010.848	2156.38
1011.065	2145.38
1011.282	2070.38
1011.5	2041.38
1011.717	2139.38
1011.934	2069.38
1012.151	2068.38
1012.368	2101.38
1012.585	2032.38
1012.801	2111.38
1013.018	2051.38
1013.235	2005.38
1013.452	2048.38
1013.669	2055.38
1013.885	2021.38
1014.102	2041.38
1014.318	1972.38
1014.535	1962.38
1014.751	1990.38
1014.968	2018.38
1015.184	2027.38
1015.401	1935.38
1015.617	1985.38
1015.833	1893.38
1016.049	1910.38
1016.266	1905.38
1016.482	1904.38
1016.698	1803.38
1016.914	1894.38
1017.13	1814.38
1017.346	1800.38
1017.562	1904.38
1017.778	1836.38
1017.993	1778.38
1018.209	1839.38
1018.425	1822.38
1018.641	1795.38
1018.856	1772.38
1019.072	1791.38
1019.288	1834.38
1019.503	1760.38
1019.719	1709.38
1019.934	1721.38
1020.149	1785.38
1020.365	1727.38
1020.58	1656.38
1020.795	1713.38
1021.011	1672.38
1021.226	1585.38
1021.441	1653.38
1021.656	1567.38
1021.871	1499.38
1022.086	1503.38
1022.301	1494.38
1022.516	1485.38
1022.731	1522.38
1022.946	1416.38
1023.16	1421.38
1023.375	1344.38
1023.59	1354.38
1023.804	1321.38
1024.019	1422.38
1024.234	1285.38
1024.448	1316.38
1024.663	1259.38
1024.877	1256.38
1025.092	1271.38
1025.306	1299.38
1025.52	1197.38
1025.734	1269.38
1025.949	1175.38
1026.163	1168.38
1026.377	1079.38
1026.591	1130.38
1026.805	1043.38
1027.019	1042.38
1027.233	1023.38
1027.447	970.38
1027.661	1054.38
1027.875	1003.38
1028.088	1015.38
1028.302	908.38
1028.516	909.38
1028.73	892.38
1028.943	874.38
1029.157	830.38
1029.37	770.38
1029.584	-5.62
1029.797	-0.62
1030.011	-1.62
1030.224	-1.62
