Data from QEP037381__179__15-30-45-440.txt Node

Date: Wed Dec 21 15:30:45 EST 2022
User: dcclab
Spectrometer: QEP03738
Trigger mode: 4
Integration Time (sec): 1.000000E1
Scans to average: 1
Electric dark correction enabled: true
Nonlinearity correction enabled: false
Boxcar width: 0
XAxis mode: Wavelengths
Number of Pixels in Spectrum: 1044
>>>>>Begin Spectral Data<<<<<
784.041	15.5
784.3	4.5
784.558	-4.5
784.817	-3.5
785.075	121951.5
785.334	21036.5
785.592	9648.5
785.851	6702.5
786.109	5021.5
786.368	3891.5
786.626	3147.5
786.884	2581.5
787.143	2170.5
787.401	1806.5
787.659	1612.5
787.917	1368.5
788.175	1218.5
788.433	1045.5
788.691	944.5
788.949	886.5
789.207	825.5
789.465	723.5
789.723	682.5
789.98	647.5
790.238	666.5
790.496	607.5
790.753	583.5
791.011	628.5
791.268	560.5
791.526	539.5
791.783	550.5
792.041	535.5
792.298	441.5
792.556	496.5
792.813	483.5
793.07	484.5
793.327	455.5
793.584	519.5
793.841	447.5
794.099	455.5
794.356	536.5
794.613	428.5
794.869	454.5
795.126	431.5
795.383	404.5
795.64	416.5
795.897	373.5
796.153	436.5
796.41	427.5
796.667	400.5
796.923	409.5
797.18	409.5
797.436	432.5
797.693	396.5
797.949	441.5
798.206	474.5
798.462	396.5
798.718	419.5
798.974	410.5
799.231	441.5
799.487	440.5
799.743	445.5
799.999	447.5
800.255	459.5
800.511	440.5
800.767	482.5
801.023	465.5
801.279	486.5
801.534	504.5
801.79	540.5
802.046	529.5
802.302	632.5
802.557	697.5
802.813	820.5
803.068	953.5
803.324	1300.5
803.579	1655.5
803.835	2241.5
804.09	3026.5
804.345	3837.5
804.601	4792.5
804.856	5813.5
805.111	6635.5
805.366	7348.5
805.621	7817.5
805.876	8199.5
806.131	8338.5
806.386	8472.5
806.641	8536.5
806.896	8675.5
807.151	8955.5
807.406	8942.5
807.661	9040.5
807.915	9258.5
808.17	9325.5
808.425	9446.5
808.679	9429.5
808.934	9543.5
809.188	9658.5
809.443	9707.5
809.697	9806.5
809.951	9887.5
810.206	9856.5
810.46	10042.5
810.714	10115.5
810.968	10194.5
811.223	10246.5
811.477	10392.5
811.731	10475.5
811.985	10463.5
812.239	10436.5
812.493	10440.5
812.747	10455.5
813	10501.5
813.254	10496.5
813.508	10593.5
813.762	10665.5
814.015	10597.5
814.269	10664.5
814.522	10702.5
814.776	10832.5
815.03	10921.5
815.283	11043.5
815.536	11323.5
815.79	11479.5
816.043	11560.5
816.296	11707.5
816.55	11850.5
816.803	11933.5
817.056	12129.5
817.309	12223.5
817.562	12271.5
817.815	12412.5
818.068	12359.5
818.321	12498.5
818.574	12582.5
818.827	12750.5
819.079	12875.5
819.332	13219.5
819.585	13416.5
819.838	13483.5
820.09	13413.5
820.343	13476.5
820.595	13585.5
820.848	13622.5
821.1	13723.5
821.353	13717.5
821.605	13608.5
821.857	13611.5
822.11	13456.5
822.362	13509.5
822.614	13545.5
822.866	13573.5
823.118	13439.5
823.37	13625.5
823.622	13697.5
823.874	13714.5
824.126	13724.5
824.378	13651.5
824.63	13738.5
824.882	13711.5
825.134	13647.5
825.385	13644.5
825.637	13590.5
825.888	13462.5
826.14	13482.5
826.392	13432.5
826.643	13258.5
826.895	13248.5
827.146	13198.5
827.397	13133.5
827.649	13114.5
827.9	13064.5
828.151	13174.5
828.402	13145.5
828.653	13151.5
828.905	13229.5
829.156	13288.5
829.407	13240.5
829.658	13245.5
829.909	13440.5
830.159	13612.5
830.41	13527.5
830.661	13246.5
830.912	13033.5
831.162	13081.5
831.413	13047.5
831.664	13113.5
831.914	13087.5
832.165	13033.5
832.415	13061.5
832.666	12979.5
832.916	13122.5
833.167	12960.5
833.417	13011.5
833.667	12932.5
833.917	12866.5
834.168	12895.5
834.418	12824.5
834.668	12805.5
834.918	12690.5
835.168	12692.5
835.418	12496.5
835.668	12599.5
835.918	12581.5
836.167	12412.5
836.417	12459.5
836.667	12417.5
836.917	12469.5
837.166	12459.5
837.416	12467.5
837.666	12538.5
837.915	12405.5
838.165	12486.5
838.414	12257.5
838.663	12265.5
838.913	12295.5
839.162	12288.5
839.411	12398.5
839.661	12237.5
839.91	12259.5
840.159	12268.5
840.408	12267.5
840.657	12288.5
840.906	12206.5
841.155	12236.5
841.404	12191.5
841.653	12182.5
841.902	12166.5
842.15	12350.5
842.399	12360.5
842.648	12296.5
842.897	12277.5
843.145	12106.5
843.394	12016.5
843.642	11977.5
843.891	11885.5
844.139	11797.5
844.388	11667.5
844.636	11628.5
844.884	11720.5
845.133	11660.5
845.381	11683.5
845.629	11738.5
845.877	11569.5
846.125	11545.5
846.373	11600.5
846.621	11564.5
846.869	11492.5
847.117	11426.5
847.365	11355.5
847.613	11309.5
847.861	11291.5
848.108	11333.5
848.356	11390.5
848.604	11221.5
848.851	11238.5
849.099	11287.5
849.346	11341.5
849.594	11324.5
849.841	11381.5
850.089	11374.5
850.336	11355.5
850.583	11397.5
850.831	11246.5
851.078	11235.5
851.325	11181.5
851.572	11366.5
851.819	11268.5
852.066	10977.5
852.313	10771.5
852.56	10754.5
852.807	10707.5
853.054	10664.5
853.301	10698.5
853.548	10715.5
853.794	10851.5
854.041	10825.5
854.288	10860.5
854.534	11007.5
854.781	10915.5
855.028	10944.5
855.274	11025.5
855.52	10959.5
855.767	11026.5
856.013	11164.5
856.26	11479.5
856.506	10882.5
856.752	10779.5
856.998	10840.5
857.244	10799.5
857.49	10932.5
857.736	11001.5
857.982	10984.5
858.228	10831.5
858.474	10709.5
858.72	10598.5
858.966	10452.5
859.212	10402.5
859.458	10289.5
859.703	10161.5
859.949	10100.5
860.195	10031.5
860.44	9984.5
860.686	9927.5
860.931	10054.5
861.177	9877.5
861.422	9798.5
861.667	9660.5
861.913	9565.5
862.158	9572.5
862.403	9609.5
862.648	9613.5
862.893	9596.5
863.138	9568.5
863.384	9579.5
863.629	9560.5
863.873	9574.5
864.118	9525.5
864.363	9438.5
864.608	9457.5
864.853	9422.5
865.098	9375.5
865.342	9284.5
865.587	9245.5
865.832	9312.5
866.076	9197.5
866.321	9195.5
866.565	9240.5
866.81	9057.5
867.054	9076.5
867.298	9074.5
867.543	9015.5
867.787	9096.5
868.031	9012.5
868.275	8985.5
868.519	8951.5
868.764	8995.5
869.008	8980.5
869.252	8947.5
869.496	8910.5
869.739	8991.5
869.983	8980.5
870.227	8976.5
870.471	8972.5
870.715	9103.5
870.958	9135.5
871.202	9104.5
871.446	9165.5
871.689	9078.5
871.933	9110.5
872.176	9160.5
872.42	9102.5
872.663	9145.5
872.906	9251.5
873.15	9304.5
873.393	9446.5
873.636	9556.5
873.879	9440.5
874.122	9167.5
874.366	8977.5
874.609	8841.5
874.852	8673.5
875.095	8563.5
875.337	8458.5
875.58	8391.5
875.823	8373.5
876.066	8358.5
876.309	8323.5
876.551	8151.5
876.794	8192.5
877.037	8160.5
877.279	8071.5
877.522	8132.5
877.764	8096.5
878.007	8071.5
878.249	8064.5
878.491	8021.5
878.734	7996.5
878.976	7944.5
879.218	7917.5
879.46	7905.5
879.702	7836.5
879.945	7754.5
880.187	7612.5
880.429	7553.5
880.671	7478.5
880.912	7524.5
881.154	7462.5
881.396	7351.5
881.638	7448.5
881.88	7448.5
882.121	7397.5
882.363	7401.5
882.605	7526.5
882.846	7476.5
883.088	7547.5
883.329	7564.5
883.571	7703.5
883.812	8026.5
884.053	8468.5
884.295	8970.5
884.536	9174.5
884.777	9056.5
885.018	8897.5
885.259	8743.5
885.5	8550.5
885.742	8750.5
885.982	8400.5
886.223	8199.5
886.464	8233.5
886.705	7951.5
886.946	7838.5
887.187	7569.5
887.428	7425.5
887.668	7163.5
887.909	7015.5
888.15	6883.5
888.39	6838.5
888.631	6795.5
888.871	6723.5
889.111	6642.5
889.352	6588.5
889.592	6473.5
889.833	6437.5
890.073	6350.5
890.313	6385.5
890.553	6197.5
890.793	6223.5
891.033	6133.5
891.273	6100.5
891.513	6120.5
891.753	6164.5
891.993	6158.5
892.233	6075.5
892.473	6175.5
892.713	6152.5
892.952	6099.5
893.192	6130.5
893.432	6072.5
893.671	6114.5
893.911	6026.5
894.15	6017.5
894.39	5941.5
894.629	5930.5
894.869	5929.5
895.108	5877.5
895.347	5816.5
895.587	5859.5
895.826	5790.5
896.065	5817.5
896.304	5786.5
896.543	5854.5
896.782	5717.5
897.021	5731.5
897.26	5730.5
897.499	5740.5
897.738	5797.5
897.977	5683.5
898.216	5593.5
898.454	5559.5
898.693	5526.5
898.932	5576.5
899.17	5510.5
899.409	5499.5
899.647	5506.5
899.886	5459.5
900.124	5559.5
900.363	5468.5
900.601	5587.5
900.839	5525.5
901.078	5600.5
901.316	5634.5
901.554	5701.5
901.792	5799.5
902.03	5715.5
902.268	5768.5
902.506	5809.5
902.744	5738.5
902.982	5723.5
903.22	5584.5
903.458	5501.5
903.695	5354.5
903.933	5278.5
904.171	5097.5
904.409	5037.5
904.646	5009.5
904.884	4916.5
905.121	4914.5
905.359	4810.5
905.596	4790.5
905.833	4724.5
906.071	4652.5
906.308	4696.5
906.545	4688.5
906.783	4617.5
907.02	4641.5
907.257	4593.5
907.494	4564.5
907.731	4653.5
907.968	4623.5
908.205	4552.5
908.442	4500.5
908.679	4474.5
908.915	4482.5
909.152	4432.5
909.389	4323.5
909.626	4354.5
909.862	4276.5
910.099	4324.5
910.335	4338.5
910.572	4220.5
910.808	4266.5
911.045	4236.5
911.281	4168.5
911.518	4225.5
911.754	4111.5
911.99	4120.5
912.226	4111.5
912.463	4057.5
912.699	4052.5
912.935	3992.5
913.171	4035.5
913.407	3935.5
913.643	3963.5
913.879	3873.5
914.114	3849.5
914.35	3794.5
914.586	3800.5
914.822	3803.5
915.057	3773.5
915.293	3681.5
915.529	3699.5
915.764	3731.5
916	3733.5
916.235	3722.5
916.471	3703.5
916.706	3585.5
916.941	3649.5
917.177	3606.5
917.412	3682.5
917.647	3638.5
917.882	3634.5
918.117	3686.5
918.352	3561.5
918.588	3622.5
918.823	3537.5
919.057	3529.5
919.292	3443.5
919.527	3504.5
919.762	3410.5
919.997	3437.5
920.232	3354.5
920.466	3365.5
920.701	3260.5
920.935	3348.5
921.17	3267.5
921.405	3225.5
921.639	3268.5
921.873	3233.5
922.108	3236.5
922.342	3253.5
922.576	3157.5
922.811	3151.5
923.045	3224.5
923.279	3239.5
923.513	3102.5
923.747	3158.5
923.981	3135.5
924.215	3070.5
924.449	3065.5
924.683	3037.5
924.917	3057.5
925.151	3059.5
925.385	3075.5
925.618	3036.5
925.852	3014.5
926.086	2922.5
926.319	3001.5
926.553	3023.5
926.786	3019.5
927.02	2951.5
927.253	3020.5
927.486	2985.5
927.72	2918.5
927.953	3001.5
928.186	2992.5
928.42	2936.5
928.653	2929.5
928.886	2880.5
929.119	2928.5
929.352	2905.5
929.585	2884.5
929.818	2842.5
930.051	2845.5
930.284	2846.5
930.516	2725.5
930.749	2749.5
930.982	2811.5
931.215	2728.5
931.447	2702.5
931.68	2726.5
931.912	2678.5
932.145	2700.5
932.377	2756.5
932.61	2832.5
932.842	2631.5
933.074	2713.5
933.307	2623.5
933.539	2749.5
933.771	2735.5
934.003	2699.5
934.236	2722.5
934.468	2774.5
934.7	2685.5
934.932	2709.5
935.164	2645.5
935.395	2656.5
935.627	2663.5
935.859	2627.5
936.091	2584.5
936.323	2603.5
936.554	2646.5
936.786	2577.5
937.017	2577.5
937.249	2608.5
937.481	2530.5
937.712	2630.5
937.943	2527.5
938.175	2529.5
938.406	2537.5
938.637	2613.5
938.869	2521.5
939.1	2602.5
939.331	2529.5
939.562	2574.5
939.793	2525.5
940.024	2529.5
940.255	2545.5
940.486	2499.5
940.717	2446.5
940.948	2467.5
941.179	2431.5
941.409	2470.5
941.64	2412.5
941.871	2472.5
942.102	2465.5
942.332	2425.5
942.563	2459.5
942.793	2442.5
943.024	2372.5
943.254	2437.5
943.484	2448.5
943.715	2463.5
943.945	2468.5
944.175	2371.5
944.405	2384.5
944.636	2386.5
944.866	2425.5
945.096	2416.5
945.326	2346.5
945.556	2420.5
945.786	2429.5
946.016	2358.5
946.245	2315.5
946.475	2359.5
946.705	2359.5
946.935	2351.5
947.164	2318.5
947.394	2257.5
947.624	2286.5
947.853	2304.5
948.083	2294.5
948.312	2267.5
948.542	2210.5
948.771	2205.5
949	2222.5
949.23	2212.5
949.459	2224.5
949.688	2282.5
949.917	2219.5
950.146	2243.5
950.375	2286.5
950.604	2203.5
950.833	2245.5
951.062	2245.5
951.291	2238.5
951.52	2181.5
951.749	2204.5
951.978	2158.5
952.206	2163.5
952.435	2152.5
952.664	2195.5
952.892	2184.5
953.121	2175.5
953.349	2184.5
953.578	2176.5
953.806	2181.5
954.035	2089.5
954.263	2120.5
954.491	2051.5
954.719	2114.5
954.948	2096.5
955.176	2075.5
955.404	2009.5
955.632	2076.5
955.86	2075.5
956.088	2050.5
956.316	2083.5
956.544	2104.5
956.772	2048.5
956.999	1990.5
957.227	2096.5
957.455	1968.5
957.683	2018.5
957.91	1949.5
958.138	1970.5
958.365	1992.5
958.593	1944.5
958.82	1897.5
959.048	1979.5
959.275	1957.5
959.502	1949.5
959.73	1918.5
959.957	1937.5
960.184	1984.5
960.411	1914.5
960.638	1993.5
960.865	1917.5
961.092	1984.5
961.319	1830.5
961.546	1951.5
961.773	1919.5
962	1903.5
962.227	1933.5
962.454	1912.5
962.68	1928.5
962.907	1903.5
963.134	1855.5
963.36	1887.5
963.587	1918.5
963.813	1838.5
964.04	1885.5
964.266	1819.5
964.493	1889.5
964.719	1864.5
964.945	1867.5
965.171	1762.5
965.398	1800.5
965.624	1831.5
965.85	1765.5
966.076	1791.5
966.302	1793.5
966.528	1759.5
966.754	1832.5
966.98	1775.5
967.206	1793.5
967.431	1720.5
967.657	1801.5
967.883	1764.5
968.109	1786.5
968.334	1701.5
968.56	1669.5
968.785	1715.5
969.011	1690.5
969.236	1754.5
969.462	1686.5
969.687	1722.5
969.912	1723.5
970.138	1774.5
970.363	1661.5
970.588	1703.5
970.813	1679.5
971.038	1664.5
971.263	1706.5
971.488	1708.5
971.713	1711.5
971.938	1704.5
972.163	1604.5
972.388	1623.5
972.613	1637.5
972.838	1648.5
973.062	1602.5
973.287	1635.5
973.512	1545.5
973.736	1637.5
973.961	1597.5
974.185	1568.5
974.41	1646.5
974.634	1538.5
974.858	1550.5
975.083	1593.5
975.307	1595.5
975.531	1536.5
975.755	1473.5
975.98	1512.5
976.204	1448.5
976.428	1456.5
976.652	1461.5
976.876	1447.5
977.1	1492.5
977.324	1453.5
977.547	1515.5
977.771	1527.5
977.995	1466.5
978.219	1421.5
978.442	1554.5
978.666	1496.5
978.89	1462.5
979.113	1466.5
979.337	1447.5
979.56	1421.5
979.783	1515.5
980.007	1385.5
980.23	1465.5
980.453	1412.5
980.677	1445.5
980.9	1442.5
981.123	1354.5
981.346	1447.5
981.569	1447.5
981.792	1436.5
982.015	1385.5
982.238	1400.5
982.461	1416.5
982.684	1365.5
982.907	1371.5
983.129	1349.5
983.352	1427.5
983.575	1402.5
983.797	1374.5
984.02	1346.5
984.242	1340.5
984.465	1336.5
984.687	1392.5
984.91	1403.5
985.132	1373.5
985.354	1440.5
985.577	1368.5
985.799	1358.5
986.021	1284.5
986.243	1309.5
986.465	1311.5
986.687	1361.5
986.909	1408.5
987.131	1366.5
987.353	1323.5
987.575	1347.5
987.797	1348.5
988.019	1255.5
988.241	1317.5
988.462	1249.5
988.684	1351.5
988.906	1389.5
989.127	1405.5
989.349	1270.5
989.57	1322.5
989.792	1321.5
990.013	1369.5
990.234	1372.5
990.456	1382.5
990.677	1349.5
990.898	1313.5
991.119	1313.5
991.341	1339.5
991.562	1283.5
991.783	1340.5
992.004	1251.5
992.225	1239.5
992.446	1307.5
992.667	1217.5
992.887	1313.5
993.108	1180.5
993.329	1340.5
993.55	1276.5
993.77	1213.5
993.991	1204.5
994.212	1276.5
994.432	1241.5
994.653	1281.5
994.873	1259.5
995.093	1160.5
995.314	1209.5
995.534	1302.5
995.754	1315.5
995.975	1310.5
996.195	1202.5
996.415	1268.5
996.635	1260.5
996.855	1277.5
997.075	1253.5
997.295	1263.5
997.515	1253.5
997.735	1312.5
997.955	1264.5
998.174	1279.5
998.394	1231.5
998.614	1267.5
998.834	1221.5
999.053	1316.5
999.273	1253.5
999.492	1304.5
999.712	1254.5
999.931	1218.5
1000.151	1257.5
1000.37	1209.5
1000.589	1284.5
1000.809	1203.5
1001.028	1332.5
1001.247	1257.5
1001.466	1149.5
1001.685	1299.5
1001.904	1232.5
1002.123	1224.5
1002.342	1225.5
1002.561	1183.5
1002.78	1197.5
1002.999	1267.5
1003.218	1223.5
1003.436	1189.5
1003.655	1257.5
1003.874	1191.5
1004.092	1230.5
1004.311	1255.5
1004.53	1222.5
1004.748	1300.5
1004.966	1241.5
1005.185	1276.5
1005.403	1251.5
1005.622	1242.5
1005.84	1345.5
1006.058	1212.5
1006.276	1249.5
1006.494	1753.5
1006.712	1263.5
1006.931	1332.5
1007.149	1252.5
1007.367	1258.5
1007.584	1316.5
1007.802	1333.5
1008.02	1281.5
1008.238	1422.5
1008.456	1438.5
1008.673	1304.5
1008.891	1451.5
1009.109	1415.5
1009.326	1504.5
1009.544	1622.5
1009.761	1543.5
1009.979	1665.5
1010.196	1766.5
1010.413	1938.5
1010.631	2026.5
1010.848	2130.5
1011.065	2128.5
1011.282	2090.5
1011.5	1993.5
1011.717	2101.5
1011.934	2006.5
1012.151	2028.5
1012.368	2028.5
1012.585	1953.5
1012.801	2012.5
1013.018	1990.5
1013.235	1980.5
1013.452	2027.5
1013.669	2044.5
1013.885	2026.5
1014.102	2080.5
1014.318	2053.5
1014.535	2011.5
1014.751	2064.5
1014.968	2084.5
1015.184	2066.5
1015.401	1942.5
1015.617	1956.5
1015.833	1909.5
1016.049	1867.5
1016.266	1829.5
1016.482	1832.5
1016.698	1748.5
1016.914	1807.5
1017.13	1734.5
1017.346	1731.5
1017.562	1766.5
1017.778	1689.5
1017.993	1644.5
1018.209	1705.5
1018.425	1675.5
1018.641	1650.5
1018.856	1592.5
1019.072	1654.5
1019.288	1669.5
1019.503	1638.5
1019.719	1559.5
1019.934	1545.5
1020.149	1644.5
1020.365	1582.5
1020.58	1492.5
1020.795	1517.5
1021.011	1410.5
1021.226	1371.5
1021.441	1394.5
1021.656	1329.5
1021.871	1220.5
1022.086	1213.5
1022.301	1210.5
1022.516	1216.5
1022.731	1234.5
1022.946	1118.5
1023.16	1119.5
1023.375	1089.5
1023.59	1075.5
1023.804	1008.5
1024.019	1100.5
1024.234	970.5
1024.448	989.5
1024.663	915.5
1024.877	935.5
1025.092	938.5
1025.306	927.5
1025.52	827.5
1025.734	916.5
1025.949	842.5
1026.163	800.5
1026.377	744.5
1026.591	809.5
1026.805	722.5
1027.019	725.5
1027.233	677.5
1027.447	643.5
1027.661	740.5
1027.875	665.5
1028.088	691.5
1028.302	614.5
1028.516	608.5
1028.73	600.5
1028.943	603.5
1029.157	557.5
1029.37	515.5
1029.584	-2.5
1029.797	0.5
1030.011	-4.5
1030.224	-5.5
