Data from QEP037381__178__15-30-35-440.txt Node

Date: Wed Dec 21 15:30:35 EST 2022
User: dcclab
Spectrometer: QEP03738
Trigger mode: 4
Integration Time (sec): 1.000000E1
Scans to average: 1
Electric dark correction enabled: true
Nonlinearity correction enabled: false
Boxcar width: 0
XAxis mode: Wavelengths
Number of Pixels in Spectrum: 1044
>>>>>Begin Spectral Data<<<<<
784.041	13.25
784.3	2.25
784.558	-2.75
784.817	-1.75
785.075	117998.25
785.334	19671.25
785.592	9020.25
785.851	6254.25
786.109	4657.25
786.368	3644.25
786.626	2940.25
786.884	2421.25
787.143	2046.25
787.401	1700.25
787.659	1506.25
787.917	1265.25
788.175	1170.25
788.433	1015.25
788.691	916.25
788.949	849.25
789.207	816.25
789.465	698.25
789.723	676.25
789.98	607.25
790.238	646.25
790.496	588.25
790.753	568.25
791.011	624.25
791.268	567.25
791.526	540.25
791.783	559.25
792.041	508.25
792.298	440.25
792.556	507.25
792.813	497.25
793.07	447.25
793.327	443.25
793.584	519.25
793.841	451.25
794.099	454.25
794.356	530.25
794.613	415.25
794.869	459.25
795.126	424.25
795.383	396.25
795.64	424.25
795.897	376.25
796.153	432.25
796.41	410.25
796.667	387.25
796.923	417.25
797.18	399.25
797.436	420.25
797.693	387.25
797.949	445.25
798.206	473.25
798.462	381.25
798.718	441.25
798.974	399.25
799.231	449.25
799.487	435.25
799.743	430.25
799.999	463.25
800.255	455.25
800.511	425.25
800.767	473.25
801.023	449.25
801.279	477.25
801.534	490.25
801.79	535.25
802.046	536.25
802.302	643.25
802.557	692.25
802.813	825.25
803.068	959.25
803.324	1296.25
803.579	1663.25
803.835	2234.25
804.09	3012.25
804.345	3774.25
804.601	4751.25
804.856	5612.25
805.111	6435.25
805.366	7051.25
805.621	7448.25
805.876	7782.25
806.131	7970.25
806.386	8102.25
806.641	8214.25
806.896	8327.25
807.151	8547.25
807.406	8536.25
807.661	8697.25
807.915	8852.25
808.17	8985.25
808.425	9046.25
808.679	9054.25
808.934	9145.25
809.188	9147.25
809.443	9348.25
809.697	9389.25
809.951	9432.25
810.206	9474.25
810.46	9572.25
810.714	9709.25
810.968	9783.25
811.223	9808.25
811.477	9979.25
811.731	10038.25
811.985	9963.25
812.239	9889.25
812.493	10011.25
812.747	9998.25
813	9984.25
813.254	10085.25
813.508	10225.25
813.762	10074.25
814.015	10116.25
814.269	10234.25
814.522	10319.25
814.776	10299.25
815.03	10467.25
815.283	10582.25
815.536	10757.25
815.79	10948.25
816.043	11057.25
816.296	11177.25
816.55	11294.25
816.803	11385.25
817.056	11546.25
817.309	11644.25
817.562	11666.25
817.815	11852.25
818.068	11832.25
818.321	11956.25
818.574	11988.25
818.827	12135.25
819.079	12314.25
819.332	12688.25
819.585	12768.25
819.838	12899.25
820.09	12822.25
820.343	12924.25
820.595	12916.25
820.848	12975.25
821.1	13056.25
821.353	13065.25
821.605	12947.25
821.857	12994.25
822.11	12779.25
822.362	12818.25
822.614	12792.25
822.866	12866.25
823.118	12906.25
823.37	13011.25
823.622	13074.25
823.874	13070.25
824.126	13196.25
824.378	12993.25
824.63	13063.25
824.882	13056.25
825.134	12981.25
825.385	13059.25
825.637	12954.25
825.888	12884.25
826.14	12885.25
826.392	12740.25
826.643	12698.25
826.895	12665.25
827.146	12585.25
827.397	12527.25
827.649	12576.25
827.9	12500.25
828.151	12525.25
828.402	12569.25
828.653	12531.25
828.905	12667.25
829.156	12623.25
829.407	12559.25
829.658	12767.25
829.909	12960.25
830.159	12905.25
830.41	12971.25
830.661	12731.25
830.912	12481.25
831.162	12454.25
831.413	12471.25
831.664	12498.25
831.914	12415.25
832.165	12378.25
832.415	12380.25
832.666	12438.25
832.916	12423.25
833.167	12404.25
833.417	12463.25
833.667	12375.25
833.917	12258.25
834.168	12399.25
834.418	12268.25
834.668	12179.25
834.918	12144.25
835.168	12135.25
835.418	11988.25
835.668	12016.25
835.918	11987.25
836.167	11984.25
836.417	11887.25
836.667	11966.25
836.917	11914.25
837.166	11877.25
837.416	11964.25
837.666	11987.25
837.915	11975.25
838.165	11873.25
838.414	11811.25
838.663	11787.25
838.913	11848.25
839.162	11844.25
839.411	11909.25
839.661	11781.25
839.91	11803.25
840.159	11755.25
840.408	11785.25
840.657	11805.25
840.906	11739.25
841.155	11767.25
841.404	11681.25
841.653	11648.25
841.902	11670.25
842.15	11793.25
842.399	11868.25
842.648	11804.25
842.897	11878.25
843.145	11611.25
843.394	11561.25
843.642	11485.25
843.891	11507.25
844.139	11344.25
844.388	11207.25
844.636	11145.25
844.884	11200.25
845.133	11159.25
845.381	11147.25
845.629	11138.25
845.877	11174.25
846.125	11132.25
846.373	11157.25
846.621	11069.25
846.869	11004.25
847.117	10937.25
847.365	10822.25
847.613	10889.25
847.861	10805.25
848.108	10875.25
848.356	10877.25
848.604	10811.25
848.851	10795.25
849.099	10801.25
849.346	10792.25
849.594	10905.25
849.841	10891.25
850.089	10866.25
850.336	10892.25
850.583	10906.25
850.831	10859.25
851.078	10733.25
851.325	10852.25
851.572	10968.25
851.819	10813.25
852.066	10625.25
852.313	10353.25
852.56	10283.25
852.807	10239.25
853.054	10309.25
853.301	10323.25
853.548	10327.25
853.794	10435.25
854.041	10329.25
854.288	10494.25
854.534	10589.25
854.781	10546.25
855.028	10581.25
855.274	10551.25
855.52	10588.25
855.767	10647.25
856.013	10783.25
856.26	11102.25
856.506	10538.25
856.752	10463.25
856.998	10376.25
857.244	10421.25
857.49	10544.25
857.736	10667.25
857.982	10582.25
858.228	10556.25
858.474	10210.25
858.72	10247.25
858.966	10061.25
859.212	10036.25
859.458	9867.25
859.703	9750.25
859.949	9678.25
860.195	9641.25
860.44	9617.25
860.686	9617.25
860.931	9737.25
861.177	9496.25
861.422	9416.25
861.667	9295.25
861.913	9207.25
862.158	9236.25
862.403	9263.25
862.648	9260.25
862.893	9315.25
863.138	9199.25
863.384	9184.25
863.629	9194.25
863.873	9191.25
864.118	9184.25
864.363	9147.25
864.608	9100.25
864.853	9107.25
865.098	8956.25
865.342	8937.25
865.587	8887.25
865.832	8937.25
866.076	8886.25
866.321	8822.25
866.565	8769.25
866.81	8737.25
867.054	8772.25
867.298	8771.25
867.543	8698.25
867.787	8699.25
868.031	8684.25
868.275	8669.25
868.519	8694.25
868.764	8670.25
869.008	8653.25
869.252	8730.25
869.496	8687.25
869.739	8637.25
869.983	8767.25
870.227	8702.25
870.471	8663.25
870.715	8812.25
870.958	8784.25
871.202	8795.25
871.446	8848.25
871.689	8889.25
871.933	8842.25
872.176	8841.25
872.42	8826.25
872.663	8816.25
872.906	8891.25
873.15	9007.25
873.393	9119.25
873.636	9210.25
873.879	9031.25
874.122	8938.25
874.366	8693.25
874.609	8531.25
874.852	8426.25
875.095	8333.25
875.337	8151.25
875.58	8053.25
875.823	8089.25
876.066	8086.25
876.309	8074.25
876.551	7926.25
876.794	7912.25
877.037	7890.25
877.279	7805.25
877.522	7871.25
877.764	7786.25
878.007	7729.25
878.249	7741.25
878.491	7748.25
878.734	7737.25
878.976	7717.25
879.218	7573.25
879.46	7623.25
879.702	7521.25
879.945	7447.25
880.187	7349.25
880.429	7383.25
880.671	7244.25
880.912	7216.25
881.154	7193.25
881.396	7093.25
881.638	7145.25
881.88	7154.25
882.121	7080.25
882.363	7217.25
882.605	7243.25
882.846	7248.25
883.088	7296.25
883.329	7383.25
883.571	7432.25
883.812	7864.25
884.053	8300.25
884.295	8648.25
884.536	8998.25
884.777	8899.25
885.018	8628.25
885.259	8511.25
885.5	8251.25
885.742	8546.25
885.982	8192.25
886.223	8013.25
886.464	7936.25
886.705	7747.25
886.946	7606.25
887.187	7278.25
887.428	7231.25
887.668	6938.25
887.909	6789.25
888.15	6679.25
888.39	6640.25
888.631	6569.25
888.871	6446.25
889.111	6353.25
889.352	6341.25
889.592	6263.25
889.833	6178.25
890.073	6144.25
890.313	6108.25
890.553	5974.25
890.793	6032.25
891.033	5952.25
891.273	5915.25
891.513	5980.25
891.753	5944.25
891.993	5898.25
892.233	5889.25
892.473	5929.25
892.713	5930.25
892.952	5882.25
893.192	5895.25
893.432	5804.25
893.671	5922.25
893.911	5821.25
894.15	5793.25
894.39	5717.25
894.629	5674.25
894.869	5709.25
895.108	5673.25
895.347	5647.25
895.587	5626.25
895.826	5554.25
896.065	5523.25
896.304	5662.25
896.543	5616.25
896.782	5494.25
897.021	5535.25
897.26	5573.25
897.499	5552.25
897.738	5535.25
897.977	5486.25
898.216	5419.25
898.454	5446.25
898.693	5371.25
898.932	5347.25
899.17	5372.25
899.409	5371.25
899.647	5307.25
899.886	5293.25
900.124	5273.25
900.363	5298.25
900.601	5410.25
900.839	5381.25
901.078	5421.25
901.316	5499.25
901.554	5530.25
901.792	5595.25
902.03	5556.25
902.268	5607.25
902.506	5582.25
902.744	5571.25
902.982	5491.25
903.22	5414.25
903.458	5310.25
903.695	5212.25
903.933	5104.25
904.171	4966.25
904.409	4868.25
904.646	4817.25
904.884	4767.25
905.121	4742.25
905.359	4662.25
905.596	4643.25
905.833	4588.25
906.071	4527.25
906.308	4565.25
906.545	4517.25
906.783	4454.25
907.02	4526.25
907.257	4440.25
907.494	4456.25
907.731	4513.25
907.968	4446.25
908.205	4402.25
908.442	4353.25
908.679	4346.25
908.915	4347.25
909.152	4244.25
909.389	4184.25
909.626	4195.25
909.862	4168.25
910.099	4201.25
910.335	4189.25
910.572	4071.25
910.808	4116.25
911.045	4123.25
911.281	4063.25
911.518	4092.25
911.754	3995.25
911.99	4000.25
912.226	3991.25
912.463	3950.25
912.699	3920.25
912.935	3881.25
913.171	3862.25
913.407	3780.25
913.643	3812.25
913.879	3788.25
914.114	3736.25
914.35	3677.25
914.586	3689.25
914.822	3651.25
915.057	3702.25
915.293	3556.25
915.529	3587.25
915.764	3620.25
916	3661.25
916.235	3556.25
916.471	3579.25
916.706	3491.25
916.941	3499.25
917.177	3524.25
917.412	3565.25
917.647	3547.25
917.882	3501.25
918.117	3537.25
918.352	3482.25
918.588	3532.25
918.823	3476.25
919.057	3473.25
919.292	3299.25
919.527	3391.25
919.762	3342.25
919.997	3337.25
920.232	3251.25
920.466	3273.25
920.701	3150.25
920.935	3199.25
921.17	3204.25
921.405	3128.25
921.639	3193.25
921.873	3116.25
922.108	3134.25
922.342	3156.25
922.576	3070.25
922.811	3063.25
923.045	3121.25
923.279	3106.25
923.513	2989.25
923.747	3065.25
923.981	3035.25
924.215	2994.25
924.449	3008.25
924.683	2954.25
924.917	2979.25
925.151	2956.25
925.385	2991.25
925.618	2918.25
925.852	2911.25
926.086	2871.25
926.319	2906.25
926.553	2920.25
926.786	2907.25
927.02	2882.25
927.253	2932.25
927.486	2899.25
927.72	2830.25
927.953	2868.25
928.186	2825.25
928.42	2832.25
928.653	2808.25
928.886	2807.25
929.119	2820.25
929.352	2822.25
929.585	2787.25
929.818	2752.25
930.051	2748.25
930.284	2741.25
930.516	2666.25
930.749	2678.25
930.982	2734.25
931.215	2678.25
931.447	2616.25
931.68	2628.25
931.912	2624.25
932.145	2596.25
932.377	2667.25
932.61	2744.25
932.842	2561.25
933.074	2626.25
933.307	2589.25
933.539	2670.25
933.771	2634.25
934.003	2595.25
934.236	2638.25
934.468	2682.25
934.7	2589.25
934.932	2642.25
935.164	2571.25
935.395	2578.25
935.627	2591.25
935.859	2620.25
936.091	2523.25
936.323	2568.25
936.554	2600.25
936.786	2524.25
937.017	2502.25
937.249	2515.25
937.481	2470.25
937.712	2510.25
937.943	2498.25
938.175	2479.25
938.406	2493.25
938.637	2526.25
938.869	2458.25
939.1	2448.25
939.331	2465.25
939.562	2444.25
939.793	2438.25
940.024	2463.25
940.255	2462.25
940.486	2427.25
940.717	2453.25
940.948	2409.25
941.179	2377.25
941.409	2386.25
941.64	2362.25
941.871	2396.25
942.102	2370.25
942.332	2347.25
942.563	2404.25
942.793	2371.25
943.024	2308.25
943.254	2362.25
943.484	2414.25
943.715	2382.25
943.945	2384.25
944.175	2341.25
944.405	2313.25
944.636	2272.25
944.866	2354.25
945.096	2356.25
945.326	2280.25
945.556	2368.25
945.786	2370.25
946.016	2322.25
946.245	2249.25
946.475	2287.25
946.705	2264.25
946.935	2265.25
947.164	2271.25
947.394	2206.25
947.624	2221.25
947.853	2255.25
948.083	2244.25
948.312	2201.25
948.542	2132.25
948.771	2149.25
949	2148.25
949.23	2175.25
949.459	2159.25
949.688	2224.25
949.917	2182.25
950.146	2197.25
950.375	2231.25
950.604	2130.25
950.833	2208.25
951.062	2197.25
951.291	2148.25
951.52	2130.25
951.749	2155.25
951.978	2078.25
952.206	2121.25
952.435	2111.25
952.664	2125.25
952.892	2124.25
953.121	2092.25
953.349	2109.25
953.578	2133.25
953.806	2065.25
954.035	2054.25
954.263	2050.25
954.491	2016.25
954.719	2081.25
954.948	2032.25
955.176	2008.25
955.404	1962.25
955.632	2037.25
955.86	2007.25
956.088	1999.25
956.316	2039.25
956.544	2046.25
956.772	1982.25
956.999	1967.25
957.227	2013.25
957.455	1942.25
957.683	1964.25
957.91	1902.25
958.138	1894.25
958.365	1900.25
958.593	1896.25
958.82	1826.25
959.048	1949.25
959.275	1899.25
959.502	1894.25
959.73	1854.25
959.957	1894.25
960.184	1927.25
960.411	1880.25
960.638	1922.25
960.865	1861.25
961.092	1904.25
961.319	1792.25
961.546	1917.25
961.773	1886.25
962	1846.25
962.227	1887.25
962.454	1864.25
962.68	1840.25
962.907	1860.25
963.134	1825.25
963.36	1824.25
963.587	1864.25
963.813	1784.25
964.04	1838.25
964.266	1789.25
964.493	1859.25
964.719	1796.25
964.945	1836.25
965.171	1705.25
965.398	1758.25
965.624	1784.25
965.85	1727.25
966.076	1751.25
966.302	1740.25
966.528	1716.25
966.754	1765.25
966.98	1740.25
967.206	1739.25
967.431	1669.25
967.657	1792.25
967.883	1759.25
968.109	1719.25
968.334	1663.25
968.56	1676.25
968.785	1707.25
969.011	1655.25
969.236	1696.25
969.462	1624.25
969.687	1655.25
969.912	1727.25
970.138	1715.25
970.363	1613.25
970.588	1667.25
970.813	1646.25
971.038	1615.25
971.263	1633.25
971.488	1651.25
971.713	1716.25
971.938	1653.25
972.163	1580.25
972.388	1600.25
972.613	1571.25
972.838	1597.25
973.062	1583.25
973.287	1580.25
973.512	1535.25
973.736	1582.25
973.961	1528.25
974.185	1545.25
974.41	1572.25
974.634	1484.25
974.858	1520.25
975.083	1549.25
975.307	1577.25
975.531	1496.25
975.755	1462.25
975.98	1497.25
976.204	1436.25
976.428	1417.25
976.652	1440.25
976.876	1431.25
977.1	1469.25
977.324	1448.25
977.547	1462.25
977.771	1446.25
977.995	1452.25
978.219	1389.25
978.442	1501.25
978.666	1437.25
978.89	1422.25
979.113	1446.25
979.337	1438.25
979.56	1369.25
979.783	1473.25
980.007	1384.25
980.23	1405.25
980.453	1369.25
980.677	1406.25
980.9	1429.25
981.123	1297.25
981.346	1417.25
981.569	1368.25
981.792	1402.25
982.015	1398.25
982.238	1370.25
982.461	1394.25
982.684	1346.25
982.907	1328.25
983.129	1336.25
983.352	1407.25
983.575	1360.25
983.797	1342.25
984.02	1293.25
984.242	1315.25
984.465	1331.25
984.687	1344.25
984.91	1377.25
985.132	1348.25
985.354	1386.25
985.577	1372.25
985.799	1342.25
986.021	1250.25
986.243	1298.25
986.465	1314.25
986.687	1344.25
986.909	1401.25
987.131	1315.25
987.353	1281.25
987.575	1346.25
987.797	1282.25
988.019	1247.25
988.241	1296.25
988.462	1263.25
988.684	1330.25
988.906	1350.25
989.127	1372.25
989.349	1228.25
989.57	1282.25
989.792	1311.25
990.013	1335.25
990.234	1338.25
990.456	1367.25
990.677	1341.25
990.898	1284.25
991.119	1263.25
991.341	1329.25
991.562	1263.25
991.783	1307.25
992.004	1245.25
992.225	1226.25
992.446	1262.25
992.667	1210.25
992.887	1279.25
993.108	1145.25
993.329	1309.25
993.55	1268.25
993.77	1215.25
993.991	1204.25
994.212	1247.25
994.432	1254.25
994.653	1248.25
994.873	1280.25
995.093	1139.25
995.314	1196.25
995.534	1255.25
995.754	1271.25
995.975	1296.25
996.195	1209.25
996.415	1246.25
996.635	1236.25
996.855	1257.25
997.075	1224.25
997.295	1234.25
997.515	1228.25
997.735	1286.25
997.955	1251.25
998.174	1263.25
998.394	1219.25
998.614	1255.25
998.834	1194.25
999.053	1277.25
999.273	1254.25
999.492	1302.25
999.712	1229.25
999.931	1197.25
1000.151	1239.25
1000.37	1218.25
1000.589	1276.25
1000.809	1158.25
1001.028	1296.25
1001.247	1237.25
1001.466	1135.25
1001.685	1276.25
1001.904	1225.25
1002.123	1209.25
1002.342	1221.25
1002.561	1163.25
1002.78	1205.25
1002.999	1243.25
1003.218	1207.25
1003.436	1182.25
1003.655	1201.25
1003.874	1183.25
1004.092	1169.25
1004.311	1234.25
1004.53	1192.25
1004.748	1274.25
1004.966	1205.25
1005.185	1272.25
1005.403	1229.25
1005.622	1236.25
1005.84	1326.25
1006.058	1221.25
1006.276	1224.25
1006.494	1721.25
1006.712	1242.25
1006.931	1312.25
1007.149	1223.25
1007.367	1237.25
1007.584	1292.25
1007.802	1304.25
1008.02	1290.25
1008.238	1431.25
1008.456	1384.25
1008.673	1276.25
1008.891	1416.25
1009.109	1419.25
1009.326	1445.25
1009.544	1581.25
1009.761	1531.25
1009.979	1691.25
1010.196	1751.25
1010.413	1900.25
1010.631	2001.25
1010.848	2071.25
1011.065	2087.25
1011.282	2073.25
1011.5	1994.25
1011.717	2060.25
1011.934	2018.25
1012.151	2042.25
1012.368	2021.25
1012.585	1956.25
1012.801	2022.25
1013.018	1969.25
1013.235	1970.25
1013.452	1979.25
1013.669	2042.25
1013.885	2023.25
1014.102	2036.25
1014.318	2044.25
1014.535	2059.25
1014.751	2005.25
1014.968	2020.25
1015.184	2032.25
1015.401	1918.25
1015.617	1927.25
1015.833	1888.25
1016.049	1885.25
1016.266	1859.25
1016.482	1843.25
1016.698	1751.25
1016.914	1766.25
1017.13	1755.25
1017.346	1700.25
1017.562	1772.25
1017.778	1688.25
1017.993	1650.25
1018.209	1697.25
1018.425	1647.25
1018.641	1604.25
1018.856	1584.25
1019.072	1646.25
1019.288	1672.25
1019.503	1594.25
1019.719	1513.25
1019.934	1576.25
1020.149	1614.25
1020.365	1519.25
1020.58	1449.25
1020.795	1496.25
1021.011	1412.25
1021.226	1389.25
1021.441	1386.25
1021.656	1271.25
1021.871	1247.25
1022.086	1213.25
1022.301	1190.25
1022.516	1174.25
1022.731	1238.25
1022.946	1132.25
1023.16	1109.25
1023.375	1096.25
1023.59	1069.25
1023.804	1014.25
1024.019	1101.25
1024.234	972.25
1024.448	979.25
1024.663	889.25
1024.877	932.25
1025.092	920.25
1025.306	934.25
1025.52	827.25
1025.734	903.25
1025.949	832.25
1026.163	810.25
1026.377	763.25
1026.591	776.25
1026.805	726.25
1027.019	708.25
1027.233	682.25
1027.447	635.25
1027.661	719.25
1027.875	673.25
1028.088	686.25
1028.302	616.25
1028.516	606.25
1028.73	592.25
1028.943	597.25
1029.157	548.25
1029.37	511.25
1029.584	-0.75
1029.797	-3.75
1030.011	-1.75
1030.224	-4.75
