Data from QEP037381__198__15-33-55-441.txt Node

Date: Wed Dec 21 15:33:55 EST 2022
User: dcclab
Spectrometer: QEP03738
Trigger mode: 4
Integration Time (sec): 1.000000E1
Scans to average: 1
Electric dark correction enabled: true
Nonlinearity correction enabled: false
Boxcar width: 0
XAxis mode: Wavelengths
Number of Pixels in Spectrum: 1044
>>>>>Begin Spectral Data<<<<<
784.041	10
784.3	0
784.558	-3
784.817	-2
785.075	123864
785.334	20382
785.592	9204
785.851	6240
786.109	4731
786.368	3654
786.626	2902
786.884	2443
787.143	2031
787.401	1666
787.659	1468
787.917	1247
788.175	1159
788.433	1009
788.691	892
788.949	834
789.207	803
789.465	693
789.723	664
789.98	613
790.238	658
790.496	613
790.753	592
791.011	626
791.268	556
791.526	528
791.783	530
792.041	522
792.298	441
792.556	498
792.813	481
793.07	452
793.327	448
793.584	532
793.841	436
794.099	453
794.356	501
794.613	428
794.869	451
795.126	432
795.383	404
795.64	413
795.897	378
796.153	436
796.41	414
796.667	401
796.923	402
797.18	404
797.436	425
797.693	380
797.949	446
798.206	465
798.462	369
798.718	441
798.974	416
799.231	451
799.487	437
799.743	432
799.999	461
800.255	454
800.511	430
800.767	452
801.023	442
801.279	466
801.534	497
801.79	531
802.046	515
802.302	620
802.557	643
802.813	782
803.068	877
803.324	1171
803.579	1516
803.835	2010
804.09	2742
804.345	3496
804.601	4328
804.856	5239
805.111	5946
805.366	6519
805.621	6912
805.876	7235
806.131	7347
806.386	7476
806.641	7606
806.896	7749
807.151	7870
807.406	7859
807.661	8040
807.915	8179
808.17	8329
808.425	8338
808.679	8364
808.934	8561
809.188	8513
809.443	8609
809.697	8714
809.951	8745
810.206	8816
810.46	8942
810.714	8917
810.968	9111
811.223	9095
811.477	9262
811.731	9283
811.985	9245
812.239	9267
812.493	9246
812.747	9297
813	9253
813.254	9330
813.508	9372
813.762	9419
814.015	9388
814.269	9446
814.522	9599
814.776	9631
815.03	9762
815.283	9874
815.536	10019
815.79	10189
816.043	10339
816.296	10415
816.55	10494
816.803	10534
817.056	10769
817.309	10856
817.562	10951
817.815	11012
818.068	11019
818.321	11140
818.574	11245
818.827	11430
819.079	11466
819.332	11853
819.585	11978
819.838	12172
820.09	12061
820.343	12118
820.595	12093
820.848	12170
821.1	12215
821.353	12257
821.605	12225
821.857	12259
822.11	12085
822.362	12050
822.614	12086
822.866	12120
823.118	12064
823.37	12211
823.622	12353
823.874	12272
824.126	12432
824.378	12172
824.63	12299
824.882	12344
825.134	12245
825.385	12225
825.637	12179
825.888	12066
826.14	12054
826.392	12062
826.643	11935
826.895	11878
827.146	11819
827.397	11782
827.649	11795
827.9	11675
828.151	11698
828.402	11758
828.653	11756
828.905	11855
829.156	11931
829.407	11875
829.658	11875
829.909	12135
830.159	12172
830.41	12121
830.661	11968
830.912	11790
831.162	11757
831.413	11783
831.664	11866
831.914	11712
832.165	11674
832.415	11677
832.666	11780
832.916	11685
833.167	11639
833.417	11724
833.667	11583
833.917	11528
834.168	11587
834.418	11530
834.668	11472
834.918	11446
835.168	11394
835.418	11335
835.668	11302
835.918	11278
836.167	11267
836.417	11177
836.667	11199
836.917	11226
837.166	11190
837.416	11267
837.666	11213
837.915	11227
838.165	11157
838.414	11049
838.663	11047
838.913	11174
839.162	11110
839.411	11207
839.661	11001
839.91	11090
840.159	11136
840.408	11158
840.657	11086
840.906	11074
841.155	11031
841.404	11069
841.653	10957
841.902	11006
842.15	11153
842.399	11219
842.648	11063
842.897	11063
843.145	10950
843.394	10880
843.642	10857
843.891	10783
844.139	10691
844.388	10556
844.636	10472
844.884	10531
845.133	10565
845.381	10461
845.629	10546
845.877	10452
846.125	10472
846.373	10536
846.621	10437
846.869	10447
847.117	10262
847.365	10199
847.613	10238
847.861	10265
848.108	10197
848.356	10310
848.604	10242
848.851	10186
849.099	10168
849.346	10185
849.594	10287
849.841	10273
850.089	10281
850.336	10285
850.583	10358
850.831	10254
851.078	10220
851.325	10203
851.572	10280
851.819	10253
852.066	10006
852.313	9822
852.56	9788
852.807	9721
853.054	9670
853.301	9711
853.548	9753
853.794	9832
854.041	9793
854.288	9844
854.534	9972
854.781	10018
855.028	9953
855.274	9984
855.52	9969
855.767	10054
856.013	10165
856.26	10567
856.506	9928
856.752	9953
856.998	9882
857.244	9860
857.49	9952
857.736	10021
857.982	9970
858.228	9811
858.474	9776
858.72	9639
858.966	9487
859.212	9446
859.458	9321
859.703	9289
859.949	9053
860.195	9129
860.44	9072
860.686	9058
860.931	9142
861.177	8982
861.422	8883
861.667	8747
861.913	8727
862.158	8764
862.403	8803
862.648	8808
862.893	8786
863.138	8794
863.384	8675
863.629	8795
863.873	8723
864.118	8735
864.363	8652
864.608	8641
864.853	8574
865.098	8555
865.342	8468
865.587	8401
865.832	8445
866.076	8409
866.321	8348
866.565	8376
866.81	8283
867.054	8271
867.298	8280
867.543	8176
867.787	8249
868.031	8203
868.275	8215
868.519	8174
868.764	8155
869.008	8216
869.252	8241
869.496	8164
869.739	8194
869.983	8228
870.227	8345
870.471	8191
870.715	8292
870.958	8304
871.202	8292
871.446	8384
871.689	8389
871.933	8396
872.176	8424
872.42	8368
872.663	8365
872.906	8473
873.15	8523
873.393	8622
873.636	8704
873.879	8569
874.122	8460
874.366	8211
874.609	8130
874.852	7912
875.095	7853
875.337	7806
875.58	7581
875.823	7673
876.066	7650
876.309	7632
876.551	7566
876.794	7486
877.037	7528
877.279	7431
877.522	7438
877.764	7454
878.007	7360
878.249	7395
878.491	7325
878.734	7339
878.976	7345
879.218	7190
879.46	7226
879.702	7164
879.945	7081
880.187	6951
880.429	6920
880.671	6910
880.912	6850
881.154	6812
881.396	6759
881.638	6808
881.88	6827
882.121	6813
882.363	6824
882.605	6893
882.846	6850
883.088	6925
883.329	6947
883.571	7104
883.812	7434
884.053	7870
884.295	8337
884.536	8503
884.777	8465
885.018	8233
885.259	8107
885.5	7889
885.742	8137
885.982	7789
886.223	7677
886.464	7558
886.705	7410
886.946	7211
887.187	7045
887.428	6827
887.668	6673
887.909	6419
888.15	6353
888.39	6293
888.631	6191
888.871	6178
889.111	6094
889.352	5970
889.592	5948
889.833	5896
890.073	5809
890.313	5890
890.553	5719
890.793	5710
891.033	5708
891.273	5650
891.513	5635
891.753	5659
891.993	5608
892.233	5621
892.473	5737
892.713	5639
892.952	5608
893.192	5595
893.432	5544
893.671	5620
893.911	5549
894.15	5512
894.39	5486
894.629	5431
894.869	5455
895.108	5401
895.347	5336
895.587	5370
895.826	5354
896.065	5322
896.304	5318
896.543	5380
896.782	5271
897.021	5299
897.26	5233
897.499	5317
897.738	5345
897.977	5218
898.216	5214
898.454	5115
898.693	5138
898.932	5087
899.17	5057
899.409	5044
899.647	5059
899.886	5038
900.124	5054
900.363	5048
900.601	5134
900.839	5172
901.078	5179
901.316	5221
901.554	5257
901.792	5349
902.03	5290
902.268	5324
902.506	5379
902.744	5247
902.982	5269
903.22	5081
903.458	5059
903.695	4990
903.933	4849
904.171	4719
904.409	4611
904.646	4649
904.884	4463
905.121	4496
905.359	4469
905.596	4414
905.833	4338
906.071	4294
906.308	4340
906.545	4322
906.783	4246
907.02	4315
907.257	4249
907.494	4287
907.731	4237
907.968	4273
908.205	4155
908.442	4184
908.679	4142
908.915	4169
909.152	4098
909.389	3978
909.626	4053
909.862	3976
910.099	3929
910.335	3995
910.572	3891
910.808	3931
911.045	3895
911.281	3835
911.518	3939
911.754	3834
911.99	3851
912.226	3754
912.463	3758
912.699	3742
912.935	3726
913.171	3682
913.407	3624
913.643	3678
913.879	3606
914.114	3535
914.35	3582
914.586	3525
914.822	3433
915.057	3588
915.293	3409
915.529	3404
915.764	3492
916	3433
916.235	3431
916.471	3468
916.706	3344
916.941	3341
917.177	3333
917.412	3372
917.647	3384
917.882	3315
918.117	3386
918.352	3306
918.588	3379
918.823	3267
919.057	3279
919.292	3174
919.527	3281
919.762	3197
919.997	3224
920.232	3121
920.466	3165
920.701	2991
920.935	3056
921.17	3028
921.405	3002
921.639	3055
921.873	3013
922.108	2984
922.342	3007
922.576	2954
922.811	2981
923.045	3000
923.279	2976
923.513	2829
923.747	2959
923.981	2907
924.215	2838
924.449	2872
924.683	2819
924.917	2785
925.151	2806
925.385	2856
925.618	2844
925.852	2806
926.086	2750
926.319	2831
926.553	2832
926.786	2801
927.02	2757
927.253	2837
927.486	2819
927.72	2725
927.953	2764
928.186	2744
928.42	2780
928.653	2709
928.886	2691
929.119	2695
929.352	2702
929.585	2675
929.818	2650
930.051	2635
930.284	2647
930.516	2572
930.749	2586
930.982	2600
931.215	2567
931.447	2539
931.68	2530
931.912	2515
932.145	2495
932.377	2543
932.61	2658
932.842	2440
933.074	2562
933.307	2439
933.539	2589
933.771	2583
934.003	2492
934.236	2566
934.468	2582
934.7	2471
934.932	2532
935.164	2458
935.395	2457
935.627	2465
935.859	2486
936.091	2413
936.323	2481
936.554	2501
936.786	2465
937.017	2381
937.249	2401
937.481	2337
937.712	2436
937.943	2437
938.175	2381
938.406	2398
938.637	2436
938.869	2342
939.1	2430
939.331	2364
939.562	2399
939.793	2354
940.024	2408
940.255	2433
940.486	2363
940.717	2358
940.948	2319
941.179	2294
941.409	2315
941.64	2297
941.871	2290
942.102	2291
942.332	2259
942.563	2314
942.793	2285
943.024	2231
943.254	2288
943.484	2302
943.715	2316
943.945	2279
944.175	2225
944.405	2208
944.636	2217
944.866	2326
945.096	2282
945.326	2214
945.556	2257
945.786	2326
946.016	2249
946.245	2175
946.475	2220
946.705	2206
946.935	2179
947.164	2204
947.394	2147
947.624	2171
947.853	2206
948.083	2149
948.312	2136
948.542	2116
948.771	2029
949	2089
949.23	2103
949.459	2079
949.688	2133
949.917	2101
950.146	2134
950.375	2181
950.604	2069
950.833	2135
951.062	2110
951.291	2086
951.52	2047
951.749	2090
951.978	2029
952.206	2049
952.435	2049
952.664	2075
952.892	2063
953.121	2026
953.349	2064
953.578	2055
953.806	2023
954.035	1973
954.263	2016
954.491	1963
954.719	1981
954.948	1981
955.176	1952
955.404	1865
955.632	1971
955.86	1955
956.088	1916
956.316	1993
956.544	1990
956.772	1946
956.999	1901
957.227	2018
957.455	1849
957.683	1899
957.91	1834
958.138	1846
958.365	1855
958.593	1846
958.82	1778
959.048	1892
959.275	1826
959.502	1839
959.73	1794
959.957	1836
960.184	1857
960.411	1820
960.638	1861
960.865	1808
961.092	1868
961.319	1738
961.546	1859
961.773	1869
962	1785
962.227	1840
962.454	1784
962.68	1784
962.907	1817
963.134	1745
963.36	1778
963.587	1790
963.813	1729
964.04	1795
964.266	1724
964.493	1812
964.719	1776
964.945	1767
965.171	1671
965.398	1740
965.624	1733
965.85	1676
966.076	1675
966.302	1721
966.528	1693
966.754	1709
966.98	1709
967.206	1725
967.431	1630
967.657	1699
967.883	1692
968.109	1669
968.334	1610
968.56	1613
968.785	1634
969.011	1590
969.236	1687
969.462	1596
969.687	1611
969.912	1653
970.138	1656
970.363	1599
970.588	1654
970.813	1601
971.038	1558
971.263	1615
971.488	1610
971.713	1618
971.938	1647
972.163	1522
972.388	1578
972.613	1562
972.838	1580
973.062	1547
973.287	1540
973.512	1480
973.736	1545
973.961	1538
974.185	1513
974.41	1563
974.634	1452
974.858	1471
975.083	1530
975.307	1529
975.531	1476
975.755	1389
975.98	1439
976.204	1398
976.428	1380
976.652	1400
976.876	1394
977.1	1418
977.324	1370
977.547	1457
977.771	1429
977.995	1423
978.219	1330
978.442	1474
978.666	1398
978.89	1400
979.113	1398
979.337	1389
979.56	1349
979.783	1461
980.007	1352
980.23	1391
980.453	1381
980.677	1395
980.9	1383
981.123	1303
981.346	1387
981.569	1357
981.792	1392
982.015	1365
982.238	1309
982.461	1348
982.684	1323
982.907	1300
983.129	1285
983.352	1354
983.575	1342
983.797	1339
984.02	1289
984.242	1292
984.465	1294
984.687	1351
984.91	1339
985.132	1329
985.354	1343
985.577	1334
985.799	1323
986.021	1202
986.243	1277
986.465	1282
986.687	1338
986.909	1353
987.131	1318
987.353	1265
987.575	1317
987.797	1286
988.019	1205
988.241	1280
988.462	1221
988.684	1312
988.906	1315
989.127	1352
989.349	1219
989.57	1258
989.792	1305
990.013	1313
990.234	1304
990.456	1331
990.677	1295
990.898	1251
991.119	1275
991.341	1297
991.562	1241
991.783	1283
992.004	1225
992.225	1193
992.446	1263
992.667	1191
992.887	1268
993.108	1163
993.329	1310
993.55	1227
993.77	1178
993.991	1202
994.212	1231
994.432	1212
994.653	1236
994.873	1242
995.093	1147
995.314	1187
995.534	1261
995.754	1268
995.975	1305
996.195	1192
996.415	1250
996.635	1215
996.855	1209
997.075	1222
997.295	1216
997.515	1207
997.735	1291
997.955	1203
998.174	1246
998.394	1189
998.614	1254
998.834	1178
999.053	1286
999.273	1232
999.492	1288
999.712	1225
999.931	1166
1000.151	1203
1000.37	1189
1000.589	1263
1000.809	1183
1001.028	1272
1001.247	1206
1001.466	1128
1001.685	1261
1001.904	1243
1002.123	1181
1002.342	1209
1002.561	1134
1002.78	1174
1002.999	1247
1003.218	1184
1003.436	1172
1003.655	1208
1003.874	1150
1004.092	1195
1004.311	1228
1004.53	1193
1004.748	1275
1004.966	1176
1005.185	1253
1005.403	1205
1005.622	1218
1005.84	1294
1006.058	1192
1006.276	1220
1006.494	1737
1006.712	1224
1006.931	1314
1007.149	1201
1007.367	1239
1007.584	1269
1007.802	1325
1008.02	1276
1008.238	1402
1008.456	1390
1008.673	1266
1008.891	1391
1009.109	1387
1009.326	1465
1009.544	1573
1009.761	1502
1009.979	1660
1010.196	1737
1010.413	1902
1010.631	1990
1010.848	2096
1011.065	2048
1011.282	2066
1011.5	1960
1011.717	2076
1011.934	2013
1012.151	2034
1012.368	2022
1012.585	1938
1012.801	1983
1013.018	1934
1013.235	1961
1013.452	1996
1013.669	2008
1013.885	1995
1014.102	2083
1014.318	2012
1014.535	1977
1014.751	2015
1014.968	2007
1015.184	1981
1015.401	1923
1015.617	1912
1015.833	1875
1016.049	1860
1016.266	1842
1016.482	1807
1016.698	1725
1016.914	1778
1017.13	1695
1017.346	1691
1017.562	1748
1017.778	1660
1017.993	1610
1018.209	1665
1018.425	1623
1018.641	1592
1018.856	1558
1019.072	1602
1019.288	1641
1019.503	1599
1019.719	1522
1019.934	1519
1020.149	1565
1020.365	1504
1020.58	1475
1020.795	1478
1021.011	1401
1021.226	1367
1021.441	1345
1021.656	1277
1021.871	1219
1022.086	1211
1022.301	1193
1022.516	1167
1022.731	1224
1022.946	1115
1023.16	1081
1023.375	1067
1023.59	1062
1023.804	989
1024.019	1063
1024.234	951
1024.448	967
1024.663	911
1024.877	919
1025.092	905
1025.306	927
1025.52	815
1025.734	916
1025.949	823
1026.163	807
1026.377	732
1026.591	775
1026.805	741
1027.019	698
1027.233	671
1027.447	626
1027.661	736
1027.875	669
1028.088	685
1028.302	599
1028.516	612
1028.73	587
1028.943	576
1029.157	551
1029.37	505
1029.584	-3
1029.797	0
1030.011	-3
1030.224	1
