Data from QEP037381__176__15-30-15-440.txt Node

Date: Wed Dec 21 15:30:15 EST 2022
User: dcclab
Spectrometer: QEP03738
Trigger mode: 4
Integration Time (sec): 1.000000E1
Scans to average: 1
Electric dark correction enabled: true
Nonlinearity correction enabled: false
Boxcar width: 0
XAxis mode: Wavelengths
Number of Pixels in Spectrum: 1044
>>>>>Begin Spectral Data<<<<<
784.041	11.12
784.3	1.12
784.558	-1.88
784.817	-3.88
785.075	117906.12
785.334	20475.12
785.592	9514.12
785.851	6627.12
786.109	4975.12
786.368	3780.12
786.626	3035.12
786.884	2503.12
787.143	2103.12
787.401	1723.12
787.659	1556.12
787.917	1314.12
788.175	1212.12
788.433	1029.12
788.691	918.12
788.949	872.12
789.207	836.12
789.465	727.12
789.723	684.12
789.98	638.12
790.238	653.12
790.496	596.12
790.753	572.12
791.011	626.12
791.268	562.12
791.526	526.12
791.783	560.12
792.041	540.12
792.298	450.12
792.556	508.12
792.813	492.12
793.07	458.12
793.327	447.12
793.584	529.12
793.841	453.12
794.099	466.12
794.356	535.12
794.613	429.12
794.869	479.12
795.126	431.12
795.383	412.12
795.64	427.12
795.897	383.12
796.153	442.12
796.41	422.12
796.667	417.12
796.923	427.12
797.18	401.12
797.436	425.12
797.693	392.12
797.949	463.12
798.206	477.12
798.462	366.12
798.718	432.12
798.974	407.12
799.231	456.12
799.487	446.12
799.743	450.12
799.999	458.12
800.255	476.12
800.511	423.12
800.767	482.12
801.023	467.12
801.279	492.12
801.534	506.12
801.79	541.12
802.046	547.12
802.302	640.12
802.557	704.12
802.813	823.12
803.068	961.12
803.324	1283.12
803.579	1651.12
803.835	2251.12
804.09	3021.12
804.345	3813.12
804.601	4742.12
804.856	5673.12
805.111	6494.12
805.366	7131.12
805.621	7570.12
805.876	7908.12
806.131	8142.12
806.386	8209.12
806.641	8352.12
806.896	8521.12
807.151	8689.12
807.406	8705.12
807.661	8836.12
807.915	9023.12
808.17	9097.12
808.425	9191.12
808.679	9231.12
808.934	9364.12
809.188	9303.12
809.443	9429.12
809.697	9544.12
809.951	9519.12
810.206	9606.12
810.46	9782.12
810.714	9792.12
810.968	9898.12
811.223	9991.12
811.477	10057.12
811.731	10155.12
811.985	10172.12
812.239	10147.12
812.493	10130.12
812.747	10173.12
813	10115.12
813.254	10170.12
813.508	10256.12
813.762	10292.12
814.015	10232.12
814.269	10382.12
814.522	10451.12
814.776	10522.12
815.03	10642.12
815.283	10763.12
815.536	10860.12
815.79	11087.12
816.043	11204.12
816.296	11335.12
816.55	11465.12
816.803	11566.12
817.056	11739.12
817.309	11756.12
817.562	11921.12
817.815	12051.12
818.068	11959.12
818.321	12090.12
818.574	12140.12
818.827	12409.12
819.079	12448.12
819.332	12783.12
819.585	12881.12
819.838	13106.12
820.09	13014.12
820.343	13050.12
820.595	13126.12
820.848	13144.12
821.1	13290.12
821.353	13220.12
821.605	13193.12
821.857	13236.12
822.11	13022.12
822.362	13064.12
822.614	13037.12
822.866	13104.12
823.118	13100.12
823.37	13167.12
823.622	13242.12
823.874	13358.12
824.126	13309.12
824.378	13225.12
824.63	13267.12
824.882	13329.12
825.134	13267.12
825.385	13186.12
825.637	13157.12
825.888	13099.12
826.14	13038.12
826.392	12954.12
826.643	12866.12
826.895	12791.12
827.146	12782.12
827.397	12720.12
827.649	12775.12
827.9	12687.12
828.151	12739.12
828.402	12699.12
828.653	12756.12
828.905	12751.12
829.156	12868.12
829.407	12798.12
829.658	12932.12
829.909	13067.12
830.159	13109.12
830.41	13143.12
830.661	12826.12
830.912	12690.12
831.162	12629.12
831.413	12728.12
831.664	12744.12
831.914	12580.12
832.165	12498.12
832.415	12573.12
832.666	12543.12
832.916	12582.12
833.167	12501.12
833.417	12585.12
833.667	12580.12
833.917	12444.12
834.168	12513.12
834.418	12426.12
834.668	12380.12
834.918	12327.12
835.168	12329.12
835.418	12217.12
835.668	12105.12
835.918	12173.12
836.167	12127.12
836.417	11981.12
836.667	12027.12
836.917	12100.12
837.166	12042.12
837.416	12147.12
837.666	12106.12
837.915	12021.12
838.165	12073.12
838.414	12000.12
838.663	11899.12
838.913	11950.12
839.162	12054.12
839.411	12029.12
839.661	11840.12
839.91	11945.12
840.159	11985.12
840.408	11935.12
840.657	11921.12
840.906	11890.12
841.155	11893.12
841.404	11792.12
841.653	11916.12
841.902	11855.12
842.15	11981.12
842.399	12019.12
842.648	12007.12
842.897	11993.12
843.145	11868.12
843.394	11709.12
843.642	11724.12
843.891	11591.12
844.139	11441.12
844.388	11395.12
844.636	11279.12
844.884	11314.12
845.133	11297.12
845.381	11319.12
845.629	11312.12
845.877	11239.12
846.125	11259.12
846.373	11276.12
846.621	11189.12
846.869	11094.12
847.117	11066.12
847.365	10967.12
847.613	10980.12
847.861	11064.12
848.108	10995.12
848.356	10989.12
848.604	10950.12
848.851	11002.12
849.099	10903.12
849.346	10955.12
849.594	11015.12
849.841	11049.12
850.089	11056.12
850.336	11024.12
850.583	11060.12
850.831	11005.12
851.078	10888.12
851.325	10934.12
851.572	11090.12
851.819	10974.12
852.066	10660.12
852.313	10462.12
852.56	10495.12
852.807	10393.12
853.054	10377.12
853.301	10449.12
853.548	10449.12
853.794	10556.12
854.041	10574.12
854.288	10552.12
854.534	10727.12
854.781	10669.12
855.028	10660.12
855.274	10675.12
855.52	10766.12
855.767	10772.12
856.013	10967.12
856.26	11224.12
856.506	10641.12
856.752	10604.12
856.998	10563.12
857.244	10611.12
857.49	10644.12
857.736	10741.12
857.982	10778.12
858.228	10678.12
858.474	10420.12
858.72	10349.12
858.966	10215.12
859.212	10076.12
859.458	10085.12
859.703	9933.12
859.949	9826.12
860.195	9799.12
860.44	9785.12
860.686	9701.12
860.931	9805.12
861.177	9618.12
861.422	9578.12
861.667	9391.12
861.913	9341.12
862.158	9344.12
862.403	9381.12
862.648	9408.12
862.893	9417.12
863.138	9403.12
863.384	9300.12
863.629	9322.12
863.873	9278.12
864.118	9272.12
864.363	9252.12
864.608	9276.12
864.853	9259.12
865.098	9114.12
865.342	9100.12
865.587	9008.12
865.832	9057.12
866.076	9013.12
866.321	8944.12
866.565	8937.12
866.81	8855.12
867.054	8848.12
867.298	8806.12
867.543	8762.12
867.787	8819.12
868.031	8817.12
868.275	8722.12
868.519	8766.12
868.764	8703.12
869.008	8757.12
869.252	8801.12
869.496	8723.12
869.739	8761.12
869.983	8791.12
870.227	8882.12
870.471	8807.12
870.715	8892.12
870.958	8928.12
871.202	8984.12
871.446	8974.12
871.689	8973.12
871.933	8957.12
872.176	8951.12
872.42	8936.12
872.663	9012.12
872.906	9056.12
873.15	9222.12
873.393	9253.12
873.636	9345.12
873.879	9216.12
874.122	9032.12
874.366	8825.12
874.609	8660.12
874.852	8486.12
875.095	8369.12
875.337	8332.12
875.58	8090.12
875.823	8221.12
876.066	8193.12
876.309	8125.12
876.551	8036.12
876.794	7961.12
877.037	8005.12
877.279	7935.12
877.522	7940.12
877.764	7912.12
878.007	7900.12
878.249	7883.12
878.491	7805.12
878.734	7773.12
878.976	7784.12
879.218	7673.12
879.46	7699.12
879.702	7594.12
879.945	7551.12
880.187	7428.12
880.429	7354.12
880.671	7304.12
880.912	7273.12
881.154	7329.12
881.396	7133.12
881.638	7246.12
881.88	7220.12
882.121	7209.12
882.363	7293.12
882.605	7322.12
882.846	7251.12
883.088	7406.12
883.329	7397.12
883.571	7625.12
883.812	7911.12
884.053	8389.12
884.295	8932.12
884.536	9188.12
884.777	9031.12
885.018	8758.12
885.259	8668.12
885.5	8488.12
885.742	8688.12
885.982	8431.12
886.223	8216.12
886.464	8063.12
886.705	7938.12
886.946	7719.12
887.187	7436.12
887.428	7283.12
887.668	7015.12
887.909	6912.12
888.15	6680.12
888.39	6746.12
888.631	6611.12
888.871	6542.12
889.111	6434.12
889.352	6374.12
889.592	6292.12
889.833	6246.12
890.073	6230.12
890.313	6238.12
890.553	6121.12
890.793	6077.12
891.033	6082.12
891.273	5976.12
891.513	5909.12
891.753	6009.12
891.993	5944.12
892.233	5998.12
892.473	6024.12
892.713	6022.12
892.952	5993.12
893.192	5981.12
893.432	5921.12
893.671	5964.12
893.911	5883.12
894.15	5868.12
894.39	5806.12
894.629	5777.12
894.869	5769.12
895.108	5729.12
895.347	5642.12
895.587	5734.12
895.826	5689.12
896.065	5643.12
896.304	5695.12
896.543	5647.12
896.782	5567.12
897.021	5620.12
897.26	5578.12
897.499	5612.12
897.738	5665.12
897.977	5541.12
898.216	5511.12
898.454	5425.12
898.693	5399.12
898.932	5425.12
899.17	5388.12
899.409	5362.12
899.647	5351.12
899.886	5369.12
900.124	5430.12
900.363	5344.12
900.601	5418.12
900.839	5447.12
901.078	5498.12
901.316	5577.12
901.554	5578.12
901.792	5656.12
902.03	5630.12
902.268	5630.12
902.506	5647.12
902.744	5663.12
902.982	5609.12
903.22	5432.12
903.458	5346.12
903.695	5245.12
903.933	5126.12
904.171	4966.12
904.409	4935.12
904.646	4872.12
904.884	4735.12
905.121	4788.12
905.359	4741.12
905.596	4638.12
905.833	4609.12
906.071	4573.12
906.308	4622.12
906.545	4596.12
906.783	4505.12
907.02	4526.12
907.257	4469.12
907.494	4517.12
907.731	4531.12
907.968	4463.12
908.205	4425.12
908.442	4396.12
908.679	4385.12
908.915	4365.12
909.152	4326.12
909.389	4227.12
909.626	4251.12
909.862	4153.12
910.099	4190.12
910.335	4204.12
910.572	4132.12
910.808	4162.12
911.045	4145.12
911.281	4071.12
911.518	4165.12
911.754	4067.12
911.99	4039.12
912.226	4037.12
912.463	3950.12
912.699	3931.12
912.935	3961.12
913.171	3938.12
913.407	3857.12
913.643	3892.12
913.879	3823.12
914.114	3787.12
914.35	3711.12
914.586	3729.12
914.822	3638.12
915.057	3740.12
915.293	3601.12
915.529	3585.12
915.764	3695.12
916	3587.12
916.235	3597.12
916.471	3610.12
916.706	3551.12
916.941	3544.12
917.177	3548.12
917.412	3577.12
917.647	3547.12
917.882	3512.12
918.117	3565.12
918.352	3518.12
918.588	3542.12
918.823	3478.12
919.057	3446.12
919.292	3370.12
919.527	3425.12
919.762	3317.12
919.997	3419.12
920.232	3300.12
920.466	3340.12
920.701	3229.12
920.935	3267.12
921.17	3211.12
921.405	3129.12
921.639	3203.12
921.873	3176.12
922.108	3161.12
922.342	3162.12
922.576	3131.12
922.811	3068.12
923.045	3154.12
923.279	3134.12
923.513	3015.12
923.747	3089.12
923.981	3095.12
924.215	3018.12
924.449	3004.12
924.683	2951.12
924.917	2978.12
925.151	2968.12
925.385	3009.12
925.618	2951.12
925.852	2928.12
926.086	2917.12
926.319	2953.12
926.553	2935.12
926.786	2911.12
927.02	2922.12
927.253	2937.12
927.486	2972.12
927.72	2846.12
927.953	2913.12
928.186	2858.12
928.42	2901.12
928.653	2852.12
928.886	2843.12
929.119	2819.12
929.352	2844.12
929.585	2792.12
929.818	2773.12
930.051	2778.12
930.284	2764.12
930.516	2678.12
930.749	2680.12
930.982	2738.12
931.215	2710.12
931.447	2632.12
931.68	2670.12
931.912	2656.12
932.145	2649.12
932.377	2651.12
932.61	2815.12
932.842	2579.12
933.074	2658.12
933.307	2620.12
933.539	2684.12
933.771	2681.12
934.003	2626.12
934.236	2680.12
934.468	2728.12
934.7	2608.12
934.932	2673.12
935.164	2608.12
935.395	2565.12
935.627	2620.12
935.859	2603.12
936.091	2532.12
936.323	2587.12
936.554	2613.12
936.786	2529.12
937.017	2496.12
937.249	2583.12
937.481	2479.12
937.712	2521.12
937.943	2503.12
938.175	2490.12
938.406	2517.12
938.637	2591.12
938.869	2458.12
939.1	2527.12
939.331	2479.12
939.562	2477.12
939.793	2456.12
940.024	2524.12
940.255	2513.12
940.486	2457.12
940.717	2460.12
940.948	2410.12
941.179	2376.12
941.409	2405.12
941.64	2372.12
941.871	2402.12
942.102	2411.12
942.332	2382.12
942.563	2452.12
942.793	2415.12
943.024	2344.12
943.254	2382.12
943.484	2403.12
943.715	2428.12
943.945	2403.12
944.175	2353.12
944.405	2302.12
944.636	2307.12
944.866	2369.12
945.096	2385.12
945.326	2279.12
945.556	2341.12
945.786	2366.12
946.016	2315.12
946.245	2296.12
946.475	2280.12
946.705	2273.12
946.935	2284.12
947.164	2332.12
947.394	2268.12
947.624	2256.12
947.853	2290.12
948.083	2278.12
948.312	2211.12
948.542	2171.12
948.771	2167.12
949	2181.12
949.23	2179.12
949.459	2175.12
949.688	2240.12
949.917	2177.12
950.146	2204.12
950.375	2244.12
950.604	2143.12
950.833	2217.12
951.062	2205.12
951.291	2180.12
951.52	2153.12
951.749	2129.12
951.978	2121.12
952.206	2122.12
952.435	2095.12
952.664	2171.12
952.892	2164.12
953.121	2136.12
953.349	2152.12
953.578	2173.12
953.806	2129.12
954.035	2036.12
954.263	2078.12
954.491	2001.12
954.719	2054.12
954.948	2035.12
955.176	2060.12
955.404	1979.12
955.632	2054.12
955.86	2035.12
956.088	2034.12
956.316	2026.12
956.544	2039.12
956.772	2028.12
956.999	2000.12
957.227	2026.12
957.455	1939.12
957.683	1987.12
957.91	1938.12
958.138	1912.12
958.365	1907.12
958.593	1975.12
958.82	1897.12
959.048	1974.12
959.275	1877.12
959.502	1888.12
959.73	1874.12
959.957	1897.12
960.184	1952.12
960.411	1890.12
960.638	1924.12
960.865	1873.12
961.092	1908.12
961.319	1824.12
961.546	1914.12
961.773	1897.12
962	1854.12
962.227	1919.12
962.454	1892.12
962.68	1826.12
962.907	1852.12
963.134	1834.12
963.36	1826.12
963.587	1869.12
963.813	1807.12
964.04	1835.12
964.266	1771.12
964.493	1891.12
964.719	1832.12
964.945	1847.12
965.171	1737.12
965.398	1819.12
965.624	1804.12
965.85	1723.12
966.076	1725.12
966.302	1791.12
966.528	1733.12
966.754	1767.12
966.98	1758.12
967.206	1791.12
967.431	1672.12
967.657	1735.12
967.883	1746.12
968.109	1748.12
968.334	1695.12
968.56	1689.12
968.785	1704.12
969.011	1645.12
969.236	1702.12
969.462	1667.12
969.687	1678.12
969.912	1709.12
970.138	1730.12
970.363	1633.12
970.588	1692.12
970.813	1673.12
971.038	1622.12
971.263	1670.12
971.488	1673.12
971.713	1695.12
971.938	1676.12
972.163	1612.12
972.388	1607.12
972.613	1579.12
972.838	1622.12
973.062	1580.12
973.287	1601.12
973.512	1549.12
973.736	1579.12
973.961	1567.12
974.185	1535.12
974.41	1606.12
974.634	1469.12
974.858	1506.12
975.083	1553.12
975.307	1590.12
975.531	1500.12
975.755	1463.12
975.98	1491.12
976.204	1438.12
976.428	1432.12
976.652	1435.12
976.876	1406.12
977.1	1469.12
977.324	1408.12
977.547	1468.12
977.771	1485.12
977.995	1425.12
978.219	1397.12
978.442	1504.12
978.666	1443.12
978.89	1447.12
979.113	1436.12
979.337	1441.12
979.56	1375.12
979.783	1506.12
980.007	1401.12
980.23	1433.12
980.453	1393.12
980.677	1424.12
980.9	1398.12
981.123	1321.12
981.346	1414.12
981.569	1401.12
981.792	1426.12
982.015	1373.12
982.238	1352.12
982.461	1374.12
982.684	1353.12
982.907	1337.12
983.129	1322.12
983.352	1371.12
983.575	1360.12
983.797	1371.12
984.02	1332.12
984.242	1328.12
984.465	1345.12
984.687	1396.12
984.91	1372.12
985.132	1349.12
985.354	1370.12
985.577	1363.12
985.799	1354.12
986.021	1268.12
986.243	1295.12
986.465	1303.12
986.687	1378.12
986.909	1398.12
987.131	1329.12
987.353	1303.12
987.575	1337.12
987.797	1310.12
988.019	1258.12
988.241	1291.12
988.462	1280.12
988.684	1337.12
988.906	1345.12
989.127	1371.12
989.349	1247.12
989.57	1314.12
989.792	1322.12
990.013	1340.12
990.234	1324.12
990.456	1385.12
990.677	1353.12
990.898	1314.12
991.119	1299.12
991.341	1335.12
991.562	1291.12
991.783	1321.12
992.004	1266.12
992.225	1226.12
992.446	1298.12
992.667	1214.12
992.887	1292.12
993.108	1184.12
993.329	1315.12
993.55	1252.12
993.77	1225.12
993.991	1221.12
994.212	1232.12
994.432	1251.12
994.653	1263.12
994.873	1249.12
995.093	1123.12
995.314	1192.12
995.534	1275.12
995.754	1300.12
995.975	1311.12
996.195	1233.12
996.415	1262.12
996.635	1255.12
996.855	1261.12
997.075	1241.12
997.295	1226.12
997.515	1214.12
997.735	1292.12
997.955	1246.12
998.174	1251.12
998.394	1205.12
998.614	1265.12
998.834	1208.12
999.053	1292.12
999.273	1275.12
999.492	1281.12
999.712	1238.12
999.931	1207.12
1000.151	1251.12
1000.37	1233.12
1000.589	1272.12
1000.809	1203.12
1001.028	1313.12
1001.247	1241.12
1001.466	1145.12
1001.685	1294.12
1001.904	1212.12
1002.123	1222.12
1002.342	1254.12
1002.561	1166.12
1002.78	1192.12
1002.999	1276.12
1003.218	1244.12
1003.436	1176.12
1003.655	1256.12
1003.874	1177.12
1004.092	1185.12
1004.311	1243.12
1004.53	1204.12
1004.748	1298.12
1004.966	1218.12
1005.185	1253.12
1005.403	1266.12
1005.622	1230.12
1005.84	1316.12
1006.058	1222.12
1006.276	1234.12
1006.494	1725.12
1006.712	1259.12
1006.931	1317.12
1007.149	1234.12
1007.367	1257.12
1007.584	1312.12
1007.802	1325.12
1008.02	1281.12
1008.238	1398.12
1008.456	1424.12
1008.673	1302.12
1008.891	1422.12
1009.109	1396.12
1009.326	1521.12
1009.544	1634.12
1009.761	1562.12
1009.979	1696.12
1010.196	1763.12
1010.413	1933.12
1010.631	2050.12
1010.848	2124.12
1011.065	2149.12
1011.282	2084.12
1011.5	2030.12
1011.717	2107.12
1011.934	2083.12
1012.151	2068.12
1012.368	2046.12
1012.585	2006.12
1012.801	2022.12
1013.018	2051.12
1013.235	2000.12
1013.452	2023.12
1013.669	2058.12
1013.885	2072.12
1014.102	2111.12
1014.318	2102.12
1014.535	2060.12
1014.751	2085.12
1014.968	2062.12
1015.184	2098.12
1015.401	2004.12
1015.617	2015.12
1015.833	1960.12
1016.049	1919.12
1016.266	1873.12
1016.482	1909.12
1016.698	1793.12
1016.914	1823.12
1017.13	1751.12
1017.346	1741.12
1017.562	1775.12
1017.778	1715.12
1017.993	1683.12
1018.209	1724.12
1018.425	1697.12
1018.641	1700.12
1018.856	1638.12
1019.072	1621.12
1019.288	1679.12
1019.503	1649.12
1019.719	1564.12
1019.934	1561.12
1020.149	1628.12
1020.365	1547.12
1020.58	1475.12
1020.795	1508.12
1021.011	1427.12
1021.226	1399.12
1021.441	1406.12
1021.656	1298.12
1021.871	1217.12
1022.086	1247.12
1022.301	1208.12
1022.516	1188.12
1022.731	1267.12
1022.946	1148.12
1023.16	1117.12
1023.375	1101.12
1023.59	1085.12
1023.804	1042.12
1024.019	1121.12
1024.234	954.12
1024.448	988.12
1024.663	930.12
1024.877	934.12
1025.092	939.12
1025.306	957.12
1025.52	826.12
1025.734	921.12
1025.949	829.12
1026.163	821.12
1026.377	748.12
1026.591	787.12
1026.805	729.12
1027.019	732.12
1027.233	681.12
1027.447	653.12
1027.661	757.12
1027.875	676.12
1028.088	686.12
1028.302	620.12
1028.516	601.12
1028.73	609.12
1028.943	598.12
1029.157	565.12
1029.37	521.12
1029.584	0.12
1029.797	-4.88
1030.011	-0.88
1030.224	-0.88
