Data from QEP037381__175__15-30-05-440.txt Node

Date: Wed Dec 21 15:30:05 EST 2022
User: dcclab
Spectrometer: QEP03738
Trigger mode: 4
Integration Time (sec): 1.000000E1
Scans to average: 1
Electric dark correction enabled: true
Nonlinearity correction enabled: false
Boxcar width: 0
XAxis mode: Wavelengths
Number of Pixels in Spectrum: 1044
>>>>>Begin Spectral Data<<<<<
784.041	12.12
784.3	2.12
784.558	-0.88
784.817	-5.88
785.075	118296.12
785.334	20471.12
785.592	9487.12
785.851	6537.12
786.109	4966.12
786.368	3814.12
786.626	3099.12
786.884	2560.12
787.143	2139.12
787.401	1757.12
787.659	1567.12
787.917	1364.12
788.175	1218.12
788.433	1068.12
788.691	953.12
788.949	896.12
789.207	850.12
789.465	714.12
789.723	688.12
789.98	633.12
790.238	659.12
790.496	623.12
790.753	598.12
791.011	647.12
791.268	548.12
791.526	539.12
791.783	568.12
792.041	527.12
792.298	448.12
792.556	518.12
792.813	488.12
793.07	469.12
793.327	462.12
793.584	548.12
793.841	463.12
794.099	464.12
794.356	525.12
794.613	436.12
794.869	457.12
795.126	429.12
795.383	420.12
795.64	435.12
795.897	379.12
796.153	446.12
796.41	429.12
796.667	400.12
796.923	420.12
797.18	422.12
797.436	448.12
797.693	415.12
797.949	449.12
798.206	465.12
798.462	393.12
798.718	443.12
798.974	432.12
799.231	475.12
799.487	454.12
799.743	464.12
799.999	480.12
800.255	477.12
800.511	461.12
800.767	501.12
801.023	467.12
801.279	505.12
801.534	550.12
801.79	583.12
802.046	577.12
802.302	693.12
802.557	763.12
802.813	914.12
803.068	1059.12
803.324	1469.12
803.579	1929.12
803.835	2587.12
804.09	3521.12
804.345	4552.12
804.601	5727.12
804.856	6871.12
805.111	7971.12
805.366	8725.12
805.621	9276.12
805.876	9736.12
806.131	9962.12
806.386	10160.12
806.641	10252.12
806.896	10384.12
807.151	10606.12
807.406	10678.12
807.661	10887.12
807.915	11103.12
808.17	11282.12
808.425	11292.12
808.679	11452.12
808.934	11521.12
809.188	11573.12
809.443	11713.12
809.697	11817.12
809.951	11877.12
810.206	11883.12
810.46	11982.12
810.714	12096.12
810.968	12320.12
811.223	12236.12
811.477	12491.12
811.731	12577.12
811.985	12603.12
812.239	12499.12
812.493	12600.12
812.747	12583.12
813	12516.12
813.254	12680.12
813.508	12785.12
813.762	12803.12
814.015	12791.12
814.269	12901.12
814.522	13049.12
814.776	13053.12
815.03	13209.12
815.283	13365.12
815.536	13592.12
815.79	13859.12
816.043	13934.12
816.296	14065.12
816.55	14268.12
816.803	14330.12
817.056	14665.12
817.309	14619.12
817.562	14769.12
817.815	14887.12
818.068	14901.12
818.321	15175.12
818.574	15163.12
818.827	15466.12
819.079	15565.12
819.332	15896.12
819.585	16080.12
819.838	16324.12
820.09	16247.12
820.343	16319.12
820.595	16313.12
820.848	16442.12
821.1	16500.12
821.353	16554.12
821.605	16441.12
821.857	16469.12
822.11	16363.12
822.362	16323.12
822.614	16245.12
822.866	16323.12
823.118	16279.12
823.37	16518.12
823.622	16514.12
823.874	16546.12
824.126	16627.12
824.378	16522.12
824.63	16580.12
824.882	16527.12
825.134	16536.12
825.385	16572.12
825.637	16442.12
825.888	16243.12
826.14	16287.12
826.392	16243.12
826.643	16157.12
826.895	16081.12
827.146	15876.12
827.397	15936.12
827.649	15880.12
827.9	15831.12
828.151	15916.12
828.402	15889.12
828.653	15990.12
828.905	16064.12
829.156	16102.12
829.407	16149.12
829.658	16105.12
829.909	16285.12
830.159	16298.12
830.41	16224.12
830.661	16003.12
830.912	15778.12
831.162	15738.12
831.413	15847.12
831.664	15804.12
831.914	15787.12
832.165	15666.12
832.415	15663.12
832.666	15662.12
832.916	15623.12
833.167	15618.12
833.417	15739.12
833.667	15610.12
833.917	15542.12
834.168	15576.12
834.418	15420.12
834.668	15349.12
834.918	15273.12
835.168	15251.12
835.418	15219.12
835.668	15151.12
835.918	15056.12
836.167	15062.12
836.417	15051.12
836.667	14973.12
836.917	14983.12
837.166	15021.12
837.416	15122.12
837.666	15114.12
837.915	15026.12
838.165	14986.12
838.414	14915.12
838.663	14864.12
838.913	14903.12
839.162	14843.12
839.411	14939.12
839.661	14827.12
839.91	14841.12
840.159	14807.12
840.408	14690.12
840.657	14740.12
840.906	14901.12
841.155	14824.12
841.404	14680.12
841.653	14678.12
841.902	14730.12
842.15	14753.12
842.399	14829.12
842.648	14746.12
842.897	14832.12
843.145	14637.12
843.394	14656.12
843.642	14457.12
843.891	14376.12
844.139	14206.12
844.388	14148.12
844.636	14111.12
844.884	14057.12
845.133	14012.12
845.381	14093.12
845.629	14042.12
845.877	14036.12
846.125	14001.12
846.373	14013.12
846.621	13837.12
846.869	13818.12
847.117	13795.12
847.365	13707.12
847.613	13599.12
847.861	13610.12
848.108	13651.12
848.356	13524.12
848.604	13603.12
848.851	13499.12
849.099	13578.12
849.346	13546.12
849.594	13630.12
849.841	13715.12
850.089	13649.12
850.336	13731.12
850.583	13707.12
850.831	13599.12
851.078	13601.12
851.325	13521.12
851.572	13700.12
851.819	13543.12
852.066	13232.12
852.313	13003.12
852.56	13001.12
852.807	12922.12
853.054	12881.12
853.301	12807.12
853.548	12848.12
853.794	12917.12
854.041	13029.12
854.288	13077.12
854.534	13241.12
854.781	13135.12
855.028	13084.12
855.274	13181.12
855.52	13138.12
855.767	13223.12
856.013	13301.12
856.26	13578.12
856.506	13026.12
856.752	13002.12
856.998	13029.12
857.244	12901.12
857.49	13177.12
857.736	13139.12
857.982	13105.12
858.228	13066.12
858.474	12796.12
858.72	12749.12
858.966	12605.12
859.212	12487.12
859.458	12377.12
859.703	12193.12
859.949	12083.12
860.195	11988.12
860.44	12075.12
860.686	11949.12
860.931	12050.12
861.177	11872.12
861.422	11750.12
861.667	11618.12
861.913	11585.12
862.158	11571.12
862.403	11594.12
862.648	11562.12
862.893	11577.12
863.138	11575.12
863.384	11521.12
863.629	11514.12
863.873	11551.12
864.118	11484.12
864.363	11354.12
864.608	11433.12
864.853	11341.12
865.098	11271.12
865.342	11269.12
865.587	11176.12
865.832	11164.12
866.076	11096.12
866.321	11107.12
866.565	10981.12
866.81	10924.12
867.054	10953.12
867.298	10954.12
867.543	10882.12
867.787	10941.12
868.031	10882.12
868.275	10886.12
868.519	10770.12
868.764	10851.12
869.008	10826.12
869.252	10808.12
869.496	10814.12
869.739	10732.12
869.983	10880.12
870.227	10784.12
870.471	10837.12
870.715	10891.12
870.958	10905.12
871.202	10974.12
871.446	10951.12
871.689	10956.12
871.933	10978.12
872.176	11020.12
872.42	10979.12
872.663	10960.12
872.906	11038.12
873.15	11120.12
873.393	11199.12
873.636	11242.12
873.879	11108.12
874.122	10934.12
874.366	10670.12
874.609	10493.12
874.852	10389.12
875.095	10264.12
875.337	10228.12
875.58	10081.12
875.823	9995.12
876.066	10098.12
876.309	9985.12
876.551	9897.12
876.794	9830.12
877.037	9869.12
877.279	9788.12
877.522	9686.12
877.764	9787.12
878.007	9702.12
878.249	9677.12
878.491	9558.12
878.734	9649.12
878.976	9566.12
879.218	9456.12
879.46	9488.12
879.702	9371.12
879.945	9245.12
880.187	9138.12
880.429	9095.12
880.671	9048.12
880.912	8939.12
881.154	9015.12
881.396	8873.12
881.638	8928.12
881.88	8883.12
882.121	8879.12
882.363	8928.12
882.605	8927.12
882.846	9001.12
883.088	8980.12
883.329	9048.12
883.571	9292.12
883.812	9471.12
884.053	9913.12
884.295	10458.12
884.536	10689.12
884.777	10565.12
885.018	10382.12
885.259	10172.12
885.5	10027.12
885.742	10237.12
885.982	9876.12
886.223	9775.12
886.464	9643.12
886.705	9396.12
886.946	9270.12
887.187	8948.12
887.428	8901.12
887.668	8622.12
887.909	8451.12
888.15	8279.12
888.39	8214.12
888.631	8162.12
888.871	8117.12
889.111	7973.12
889.352	7923.12
889.592	7705.12
889.833	7702.12
890.073	7704.12
890.313	7687.12
890.553	7509.12
890.793	7474.12
891.033	7462.12
891.273	7401.12
891.513	7407.12
891.753	7450.12
891.993	7343.12
892.233	7397.12
892.473	7457.12
892.713	7408.12
892.952	7376.12
893.192	7379.12
893.432	7307.12
893.671	7353.12
893.911	7294.12
894.15	7303.12
894.39	7217.12
894.629	7139.12
894.869	7135.12
895.108	7115.12
895.347	7065.12
895.587	7040.12
895.826	6949.12
896.065	6951.12
896.304	7029.12
896.543	7009.12
896.782	6940.12
897.021	6913.12
897.26	6912.12
897.499	6956.12
897.738	6912.12
897.977	6828.12
898.216	6794.12
898.454	6682.12
898.693	6669.12
898.932	6704.12
899.17	6633.12
899.409	6592.12
899.647	6628.12
899.886	6540.12
900.124	6631.12
900.363	6623.12
900.601	6676.12
900.839	6636.12
901.078	6756.12
901.316	6796.12
901.554	6753.12
901.792	6939.12
902.03	6872.12
902.268	6888.12
902.506	6891.12
902.744	6775.12
902.982	6783.12
903.22	6634.12
903.458	6533.12
903.695	6433.12
903.933	6311.12
904.171	6164.12
904.409	6067.12
904.646	5968.12
904.884	5878.12
905.121	5918.12
905.359	5790.12
905.596	5742.12
905.833	5644.12
906.071	5637.12
906.308	5697.12
906.545	5598.12
906.783	5553.12
907.02	5524.12
907.257	5517.12
907.494	5536.12
907.731	5556.12
907.968	5587.12
908.205	5460.12
908.442	5418.12
908.679	5441.12
908.915	5350.12
909.152	5362.12
909.389	5211.12
909.626	5191.12
909.862	5175.12
910.099	5168.12
910.335	5200.12
910.572	5046.12
910.808	5116.12
911.045	5064.12
911.281	5067.12
911.518	5122.12
911.754	4994.12
911.99	4989.12
912.226	4933.12
912.463	4934.12
912.699	4845.12
912.935	4826.12
913.171	4762.12
913.407	4688.12
913.643	4761.12
913.879	4769.12
914.114	4657.12
914.35	4594.12
914.586	4604.12
914.822	4536.12
915.057	4556.12
915.293	4413.12
915.529	4410.12
915.764	4510.12
916	4470.12
916.235	4474.12
916.471	4475.12
916.706	4306.12
916.941	4341.12
917.177	4377.12
917.412	4383.12
917.647	4429.12
917.882	4300.12
918.117	4436.12
918.352	4303.12
918.588	4380.12
918.823	4252.12
919.057	4270.12
919.292	4151.12
919.527	4249.12
919.762	4102.12
919.997	4095.12
920.232	4035.12
920.466	4076.12
920.701	3880.12
920.935	3982.12
921.17	3957.12
921.405	3851.12
921.639	3926.12
921.873	3869.12
922.108	3899.12
922.342	3866.12
922.576	3826.12
922.811	3784.12
923.045	3832.12
923.279	3858.12
923.513	3726.12
923.747	3818.12
923.981	3771.12
924.215	3721.12
924.449	3690.12
924.683	3611.12
924.917	3622.12
925.151	3648.12
925.385	3650.12
925.618	3636.12
925.852	3607.12
926.086	3571.12
926.319	3583.12
926.553	3550.12
926.786	3626.12
927.02	3589.12
927.253	3553.12
927.486	3624.12
927.72	3504.12
927.953	3576.12
928.186	3524.12
928.42	3551.12
928.653	3466.12
928.886	3447.12
929.119	3497.12
929.352	3450.12
929.585	3426.12
929.818	3374.12
930.051	3382.12
930.284	3390.12
930.516	3279.12
930.749	3299.12
930.982	3338.12
931.215	3265.12
931.447	3204.12
931.68	3224.12
931.912	3257.12
932.145	3226.12
932.377	3254.12
932.61	3350.12
932.842	3194.12
933.074	3230.12
933.307	3167.12
933.539	3282.12
933.771	3282.12
934.003	3190.12
934.236	3299.12
934.468	3272.12
934.7	3156.12
934.932	3243.12
935.164	3145.12
935.395	3149.12
935.627	3207.12
935.859	3182.12
936.091	3117.12
936.323	3147.12
936.554	3161.12
936.786	3085.12
937.017	3039.12
937.249	3109.12
937.481	3035.12
937.712	3089.12
937.943	3060.12
938.175	3041.12
938.406	3023.12
938.637	3107.12
938.869	2997.12
939.1	3063.12
939.331	3012.12
939.562	3063.12
939.793	3034.12
940.024	3063.12
940.255	3058.12
940.486	2987.12
940.717	2954.12
940.948	3001.12
941.179	2907.12
941.409	2945.12
941.64	2922.12
941.871	2907.12
942.102	2908.12
942.332	2890.12
942.563	2943.12
942.793	2912.12
943.024	2868.12
943.254	2887.12
943.484	2914.12
943.715	2930.12
943.945	2910.12
944.175	2849.12
944.405	2822.12
944.636	2836.12
944.866	2891.12
945.096	2885.12
945.326	2806.12
945.556	2839.12
945.786	2868.12
946.016	2830.12
946.245	2766.12
946.475	2789.12
946.705	2754.12
946.935	2768.12
947.164	2788.12
947.394	2726.12
947.624	2737.12
947.853	2766.12
948.083	2704.12
948.312	2681.12
948.542	2600.12
948.771	2623.12
949	2608.12
949.23	2604.12
949.459	2622.12
949.688	2699.12
949.917	2607.12
950.146	2648.12
950.375	2690.12
950.604	2598.12
950.833	2692.12
951.062	2659.12
951.291	2588.12
951.52	2602.12
951.749	2588.12
951.978	2525.12
952.206	2576.12
952.435	2571.12
952.664	2596.12
952.892	2574.12
953.121	2568.12
953.349	2588.12
953.578	2560.12
953.806	2538.12
954.035	2467.12
954.263	2490.12
954.491	2459.12
954.719	2521.12
954.948	2480.12
955.176	2441.12
955.404	2374.12
955.632	2427.12
955.86	2452.12
956.088	2399.12
956.316	2409.12
956.544	2422.12
956.772	2405.12
956.999	2361.12
957.227	2479.12
957.455	2324.12
957.683	2355.12
957.91	2309.12
958.138	2316.12
958.365	2289.12
958.593	2283.12
958.82	2257.12
959.048	2351.12
959.275	2314.12
959.502	2254.12
959.73	2242.12
959.957	2288.12
960.184	2289.12
960.411	2248.12
960.638	2311.12
960.865	2238.12
961.092	2286.12
961.319	2171.12
961.546	2293.12
961.773	2296.12
962	2221.12
962.227	2289.12
962.454	2221.12
962.68	2213.12
962.907	2222.12
963.134	2172.12
963.36	2217.12
963.587	2237.12
963.813	2143.12
964.04	2179.12
964.266	2107.12
964.493	2203.12
964.719	2180.12
964.945	2194.12
965.171	2063.12
965.398	2145.12
965.624	2134.12
965.85	2074.12
966.076	2047.12
966.302	2111.12
966.528	2066.12
966.754	2109.12
966.98	2103.12
967.206	2097.12
967.431	1988.12
967.657	2135.12
967.883	2068.12
968.109	2079.12
968.334	1986.12
968.56	2011.12
968.785	2014.12
969.011	1952.12
969.236	2002.12
969.462	1971.12
969.687	1991.12
969.912	2003.12
970.138	2040.12
970.363	1931.12
970.588	1978.12
970.813	1958.12
971.038	1932.12
971.263	1992.12
971.488	1974.12
971.713	1973.12
971.938	1943.12
972.163	1868.12
972.388	1909.12
972.613	1880.12
972.838	1890.12
973.062	1884.12
973.287	1874.12
973.512	1817.12
973.736	1850.12
973.961	1858.12
974.185	1813.12
974.41	1870.12
974.634	1768.12
974.858	1776.12
975.083	1860.12
975.307	1819.12
975.531	1793.12
975.755	1727.12
975.98	1747.12
976.204	1701.12
976.428	1698.12
976.652	1693.12
976.876	1683.12
977.1	1749.12
977.324	1681.12
977.547	1721.12
977.771	1747.12
977.995	1730.12
978.219	1652.12
978.442	1727.12
978.666	1709.12
978.89	1681.12
979.113	1691.12
979.337	1657.12
979.56	1650.12
979.783	1688.12
980.007	1618.12
980.23	1659.12
980.453	1620.12
980.677	1641.12
980.9	1688.12
981.123	1560.12
981.346	1680.12
981.569	1639.12
981.792	1650.12
982.015	1598.12
982.238	1562.12
982.461	1629.12
982.684	1556.12
982.907	1576.12
983.129	1562.12
983.352	1616.12
983.575	1578.12
983.797	1597.12
984.02	1532.12
984.242	1539.12
984.465	1546.12
984.687	1572.12
984.91	1582.12
985.132	1563.12
985.354	1598.12
985.577	1567.12
985.799	1531.12
986.021	1465.12
986.243	1510.12
986.465	1504.12
986.687	1538.12
986.909	1595.12
987.131	1533.12
987.353	1498.12
987.575	1533.12
987.797	1498.12
988.019	1426.12
988.241	1488.12
988.462	1443.12
988.684	1513.12
988.906	1534.12
989.127	1548.12
989.349	1459.12
989.57	1475.12
989.792	1532.12
990.013	1522.12
990.234	1518.12
990.456	1543.12
990.677	1537.12
990.898	1458.12
991.119	1468.12
991.341	1493.12
991.562	1456.12
991.783	1516.12
992.004	1400.12
992.225	1391.12
992.446	1440.12
992.667	1398.12
992.887	1448.12
993.108	1333.12
993.329	1488.12
993.55	1445.12
993.77	1365.12
993.991	1373.12
994.212	1417.12
994.432	1405.12
994.653	1438.12
994.873	1405.12
995.093	1301.12
995.314	1347.12
995.534	1423.12
995.754	1448.12
995.975	1445.12
996.195	1353.12
996.415	1426.12
996.635	1379.12
996.855	1409.12
997.075	1402.12
997.295	1403.12
997.515	1369.12
997.735	1429.12
997.955	1391.12
998.174	1427.12
998.394	1370.12
998.614	1414.12
998.834	1359.12
999.053	1414.12
999.273	1409.12
999.492	1449.12
999.712	1373.12
999.931	1320.12
1000.151	1351.12
1000.37	1337.12
1000.589	1416.12
1000.809	1315.12
1001.028	1452.12
1001.247	1378.12
1001.466	1292.12
1001.685	1415.12
1001.904	1370.12
1002.123	1328.12
1002.342	1351.12
1002.561	1294.12
1002.78	1301.12
1002.999	1351.12
1003.218	1312.12
1003.436	1309.12
1003.655	1369.12
1003.874	1315.12
1004.092	1332.12
1004.311	1353.12
1004.53	1307.12
1004.748	1411.12
1004.966	1307.12
1005.185	1368.12
1005.403	1338.12
1005.622	1345.12
1005.84	1419.12
1006.058	1334.12
1006.276	1356.12
1006.494	1854.12
1006.712	1373.12
1006.931	1428.12
1007.149	1326.12
1007.367	1346.12
1007.584	1397.12
1007.802	1416.12
1008.02	1422.12
1008.238	1509.12
1008.456	1519.12
1008.673	1392.12
1008.891	1515.12
1009.109	1484.12
1009.326	1561.12
1009.544	1690.12
1009.761	1641.12
1009.979	1749.12
1010.196	1831.12
1010.413	2015.12
1010.631	2076.12
1010.848	2174.12
1011.065	2210.12
1011.282	2164.12
1011.5	2102.12
1011.717	2193.12
1011.934	2098.12
1012.151	2129.12
1012.368	2091.12
1012.585	2025.12
1012.801	2110.12
1013.018	2075.12
1013.235	2076.12
1013.452	2088.12
1013.669	2089.12
1013.885	2103.12
1014.102	2189.12
1014.318	2167.12
1014.535	2129.12
1014.751	2125.12
1014.968	2121.12
1015.184	2127.12
1015.401	2032.12
1015.617	2032.12
1015.833	1963.12
1016.049	1973.12
1016.266	1937.12
1016.482	1911.12
1016.698	1841.12
1016.914	1877.12
1017.13	1774.12
1017.346	1790.12
1017.562	1829.12
1017.778	1761.12
1017.993	1742.12
1018.209	1756.12
1018.425	1750.12
1018.641	1711.12
1018.856	1679.12
1019.072	1699.12
1019.288	1774.12
1019.503	1675.12
1019.719	1607.12
1019.934	1576.12
1020.149	1646.12
1020.365	1602.12
1020.58	1533.12
1020.795	1565.12
1021.011	1474.12
1021.226	1416.12
1021.441	1445.12
1021.656	1367.12
1021.871	1303.12
1022.086	1275.12
1022.301	1266.12
1022.516	1256.12
1022.731	1305.12
1022.946	1220.12
1023.16	1158.12
1023.375	1142.12
1023.59	1106.12
1023.804	1096.12
1024.019	1157.12
1024.234	1002.12
1024.448	1066.12
1024.663	974.12
1024.877	989.12
1025.092	995.12
1025.306	987.12
1025.52	883.12
1025.734	999.12
1025.949	874.12
1026.163	870.12
1026.377	796.12
1026.591	869.12
1026.805	760.12
1027.019	774.12
1027.233	716.12
1027.447	687.12
1027.661	768.12
1027.875	721.12
1028.088	723.12
1028.302	642.12
1028.516	632.12
1028.73	643.12
1028.943	626.12
1029.157	579.12
1029.37	548.12
1029.584	-0.88
1029.797	-2.88
1030.011	0.12
1030.224	-3.88
