Data from QEP037381__196__15-33-35-441.txt Node

Date: Wed Dec 21 15:33:35 EST 2022
User: dcclab
Spectrometer: QEP03738
Trigger mode: 4
Integration Time (sec): 1.000000E1
Scans to average: 1
Electric dark correction enabled: true
Nonlinearity correction enabled: false
Boxcar width: 0
XAxis mode: Wavelengths
Number of Pixels in Spectrum: 1044
>>>>>Begin Spectral Data<<<<<
784.041	11.5
784.3	3.5
784.558	1.5
784.817	-4.5
785.075	118355.5
785.334	20642.5
785.592	9757.5
785.851	6716.5
786.109	5123.5
786.368	3947.5
786.626	3194.5
786.884	2640.5
787.143	2189.5
787.401	1810.5
787.659	1606.5
787.917	1374.5
788.175	1239.5
788.433	1080.5
788.691	961.5
788.949	888.5
789.207	833.5
789.465	711.5
789.723	683.5
789.98	621.5
790.238	674.5
790.496	615.5
790.753	585.5
791.011	634.5
791.268	560.5
791.526	544.5
791.783	552.5
792.041	520.5
792.298	457.5
792.556	501.5
792.813	480.5
793.07	457.5
793.327	441.5
793.584	518.5
793.841	440.5
794.099	472.5
794.356	519.5
794.613	425.5
794.869	477.5
795.126	422.5
795.383	392.5
795.64	418.5
795.897	370.5
796.153	435.5
796.41	428.5
796.667	394.5
796.923	393.5
797.18	392.5
797.436	434.5
797.693	389.5
797.949	450.5
798.206	461.5
798.462	362.5
798.718	433.5
798.974	394.5
799.231	456.5
799.487	427.5
799.743	447.5
799.999	460.5
800.255	445.5
800.511	404.5
800.767	459.5
801.023	443.5
801.279	472.5
801.534	485.5
801.79	501.5
802.046	501.5
802.302	604.5
802.557	635.5
802.813	768.5
803.068	843.5
803.324	1126.5
803.579	1444.5
803.835	1894.5
804.09	2573.5
804.345	3258.5
804.601	4036.5
804.856	4838.5
805.111	5573.5
805.366	6041.5
805.621	6471.5
805.876	6753.5
806.131	6879.5
806.386	6994.5
806.641	7116.5
806.896	7167.5
807.151	7307.5
807.406	7332.5
807.661	7474.5
807.915	7642.5
808.17	7727.5
808.425	7784.5
808.679	7780.5
808.934	7978.5
809.188	7898.5
809.443	8036.5
809.697	8116.5
809.951	8163.5
810.206	8143.5
810.46	8251.5
810.714	8334.5
810.968	8435.5
811.223	8499.5
811.477	8540.5
811.731	8620.5
811.985	8566.5
812.239	8560.5
812.493	8657.5
812.747	8617.5
813	8596.5
813.254	8653.5
813.508	8742.5
813.762	8778.5
814.015	8725.5
814.269	8812.5
814.522	8852.5
814.776	8928.5
815.03	9034.5
815.283	9122.5
815.536	9265.5
815.79	9392.5
816.043	9579.5
816.296	9634.5
816.55	9653.5
816.803	9863.5
817.056	9978.5
817.309	10019.5
817.562	10122.5
817.815	10235.5
818.068	10133.5
818.321	10261.5
818.574	10372.5
818.827	10482.5
819.079	10601.5
819.332	10901.5
819.585	11002.5
819.838	11245.5
820.09	11106.5
820.343	11174.5
820.595	11138.5
820.848	11255.5
821.1	11293.5
821.353	11294.5
821.605	11183.5
821.857	11272.5
822.11	11119.5
822.362	11141.5
822.614	10998.5
822.866	11202.5
823.118	11124.5
823.37	11247.5
823.622	11229.5
823.874	11345.5
824.126	11356.5
824.378	11228.5
824.63	11330.5
824.882	11366.5
825.134	11237.5
825.385	11247.5
825.637	11136.5
825.888	11115.5
826.14	11071.5
826.392	11071.5
826.643	10949.5
826.895	10927.5
827.146	10825.5
827.397	10771.5
827.649	10856.5
827.9	10759.5
828.151	10811.5
828.402	10776.5
828.653	10874.5
828.905	10842.5
829.156	10904.5
829.407	10860.5
829.658	11012.5
829.909	11120.5
830.159	11265.5
830.41	11130.5
830.661	10964.5
830.912	10801.5
831.162	10818.5
831.413	10807.5
831.664	10786.5
831.914	10718.5
832.165	10698.5
832.415	10762.5
832.666	10706.5
832.916	10783.5
833.167	10717.5
833.417	10813.5
833.667	10624.5
833.917	10579.5
834.168	10631.5
834.418	10648.5
834.668	10599.5
834.918	10521.5
835.168	10517.5
835.418	10426.5
835.668	10434.5
835.918	10380.5
836.167	10319.5
836.417	10261.5
836.667	10279.5
836.917	10326.5
837.166	10332.5
837.416	10366.5
837.666	10396.5
837.915	10286.5
838.165	10289.5
838.414	10247.5
838.663	10213.5
838.913	10229.5
839.162	10289.5
839.411	10309.5
839.661	10213.5
839.91	10232.5
840.159	10172.5
840.408	10145.5
840.657	10170.5
840.906	10226.5
841.155	10179.5
841.404	10201.5
841.653	10154.5
841.902	10221.5
842.15	10237.5
842.399	10289.5
842.648	10216.5
842.897	10234.5
843.145	10132.5
843.394	10077.5
843.642	9992.5
843.891	10000.5
844.139	9864.5
844.388	9697.5
844.636	9669.5
844.884	9713.5
845.133	9776.5
845.381	9692.5
845.629	9755.5
845.877	9560.5
846.125	9598.5
846.373	9667.5
846.621	9582.5
846.869	9550.5
847.117	9481.5
847.365	9451.5
847.613	9436.5
847.861	9433.5
848.108	9525.5
848.356	9479.5
848.604	9424.5
848.851	9405.5
849.099	9400.5
849.346	9433.5
849.594	9436.5
849.841	9494.5
850.089	9491.5
850.336	9464.5
850.583	9485.5
850.831	9413.5
851.078	9395.5
851.325	9390.5
851.572	9469.5
851.819	9414.5
852.066	9192.5
852.313	9090.5
852.56	8945.5
852.807	8943.5
853.054	8917.5
853.301	8930.5
853.548	9007.5
853.794	9115.5
854.041	9045.5
854.288	9084.5
854.534	9322.5
854.781	9271.5
855.028	9130.5
855.274	9276.5
855.52	9224.5
855.767	9241.5
856.013	9366.5
856.26	9727.5
856.506	9174.5
856.752	9098.5
856.998	9046.5
857.244	9118.5
857.49	9215.5
857.736	9259.5
857.982	9220.5
858.228	9174.5
858.474	8939.5
858.72	8854.5
858.966	8743.5
859.212	8657.5
859.458	8590.5
859.703	8522.5
859.949	8422.5
860.195	8343.5
860.44	8374.5
860.686	8398.5
860.931	8410.5
861.177	8276.5
861.422	8202.5
861.667	8217.5
861.913	8035.5
862.158	8002.5
862.403	8131.5
862.648	8080.5
862.893	8093.5
863.138	8023.5
863.384	7958.5
863.629	8010.5
863.873	8033.5
864.118	8002.5
864.363	7894.5
864.608	7906.5
864.853	7928.5
865.098	7846.5
865.342	7784.5
865.587	7699.5
865.832	7755.5
866.076	7693.5
866.321	7716.5
866.565	7725.5
866.81	7618.5
867.054	7609.5
867.298	7660.5
867.543	7548.5
867.787	7654.5
868.031	7567.5
868.275	7557.5
868.519	7568.5
868.764	7545.5
869.008	7540.5
869.252	7610.5
869.496	7562.5
869.739	7612.5
869.983	7616.5
870.227	7632.5
870.471	7697.5
870.715	7671.5
870.958	7682.5
871.202	7742.5
871.446	7719.5
871.689	7773.5
871.933	7742.5
872.176	7752.5
872.42	7721.5
872.663	7705.5
872.906	7873.5
873.15	7937.5
873.393	7953.5
873.636	8128.5
873.879	8000.5
874.122	7882.5
874.366	7628.5
874.609	7510.5
874.852	7322.5
875.095	7285.5
875.337	7162.5
875.58	7091.5
875.823	7106.5
876.066	7067.5
876.309	7087.5
876.551	6951.5
876.794	6852.5
877.037	6944.5
877.279	6877.5
877.522	6840.5
877.764	6821.5
878.007	6794.5
878.249	6855.5
878.491	6729.5
878.734	6728.5
878.976	6735.5
879.218	6680.5
879.46	6698.5
879.702	6656.5
879.945	6518.5
880.187	6397.5
880.429	6416.5
880.671	6319.5
880.912	6312.5
881.154	6235.5
881.396	6178.5
881.638	6297.5
881.88	6302.5
882.121	6237.5
882.363	6217.5
882.605	6278.5
882.846	6326.5
883.088	6444.5
883.329	6409.5
883.571	6545.5
883.812	6862.5
884.053	7290.5
884.295	7704.5
884.536	7946.5
884.777	7880.5
885.018	7640.5
885.259	7529.5
885.5	7338.5
885.742	7647.5
885.982	7264.5
886.223	7095.5
886.464	6985.5
886.705	6863.5
886.946	6685.5
887.187	6404.5
887.428	6352.5
887.668	6109.5
887.909	5959.5
888.15	5833.5
888.39	5802.5
888.631	5796.5
888.871	5656.5
889.111	5548.5
889.352	5566.5
889.592	5484.5
889.833	5407.5
890.073	5371.5
890.313	5374.5
890.553	5247.5
890.793	5304.5
891.033	5165.5
891.273	5147.5
891.513	5148.5
891.753	5210.5
891.993	5186.5
892.233	5154.5
892.473	5236.5
892.713	5196.5
892.952	5107.5
893.192	5217.5
893.432	5097.5
893.671	5163.5
893.911	5121.5
894.15	5088.5
894.39	4984.5
894.629	5022.5
894.869	5006.5
895.108	4945.5
895.347	4944.5
895.587	4968.5
895.826	4906.5
896.065	4868.5
896.304	4895.5
896.543	4977.5
896.782	4823.5
897.021	4866.5
897.26	4808.5
897.499	4919.5
897.738	4876.5
897.977	4826.5
898.216	4785.5
898.454	4765.5
898.693	4693.5
898.932	4740.5
899.17	4681.5
899.409	4627.5
899.647	4689.5
899.886	4659.5
900.124	4695.5
900.363	4653.5
900.601	4765.5
900.839	4708.5
901.078	4780.5
901.316	4816.5
901.554	4896.5
901.792	4943.5
902.03	4915.5
902.268	4928.5
902.506	4960.5
902.744	4891.5
902.982	4872.5
903.22	4813.5
903.458	4641.5
903.695	4599.5
903.933	4500.5
904.171	4301.5
904.409	4331.5
904.646	4245.5
904.884	4140.5
905.121	4109.5
905.359	4084.5
905.596	4088.5
905.833	4024.5
906.071	4031.5
906.308	4035.5
906.545	3955.5
906.783	3911.5
907.02	3947.5
907.257	3871.5
907.494	3943.5
907.731	3943.5
907.968	3886.5
908.205	3859.5
908.442	3840.5
908.679	3783.5
908.915	3807.5
909.152	3791.5
909.389	3666.5
909.626	3716.5
909.862	3668.5
910.099	3648.5
910.335	3696.5
910.572	3559.5
910.808	3548.5
911.045	3584.5
911.281	3571.5
911.518	3635.5
911.754	3519.5
911.99	3579.5
912.226	3466.5
912.463	3453.5
912.699	3435.5
912.935	3452.5
913.171	3400.5
913.407	3334.5
913.643	3394.5
913.879	3308.5
914.114	3322.5
914.35	3254.5
914.586	3211.5
914.822	3199.5
915.057	3307.5
915.293	3131.5
915.529	3106.5
915.764	3188.5
916	3182.5
916.235	3191.5
916.471	3166.5
916.706	3086.5
916.941	3082.5
917.177	3100.5
917.412	3157.5
917.647	3095.5
917.882	3058.5
918.117	3110.5
918.352	3090.5
918.588	3104.5
918.823	3018.5
919.057	3032.5
919.292	2909.5
919.527	3032.5
919.762	2917.5
919.997	2999.5
920.232	2895.5
920.466	2932.5
920.701	2840.5
920.935	2849.5
921.17	2813.5
921.405	2802.5
921.639	2842.5
921.873	2760.5
922.108	2806.5
922.342	2794.5
922.576	2761.5
922.811	2716.5
923.045	2764.5
923.279	2821.5
923.513	2630.5
923.747	2689.5
923.981	2713.5
924.215	2627.5
924.449	2630.5
924.683	2607.5
924.917	2601.5
925.151	2592.5
925.385	2612.5
925.618	2613.5
925.852	2578.5
926.086	2535.5
926.319	2612.5
926.553	2548.5
926.786	2561.5
927.02	2549.5
927.253	2594.5
927.486	2592.5
927.72	2521.5
927.953	2576.5
928.186	2533.5
928.42	2563.5
928.653	2529.5
928.886	2492.5
929.119	2493.5
929.352	2484.5
929.585	2493.5
929.818	2438.5
930.051	2463.5
930.284	2481.5
930.516	2354.5
930.749	2354.5
930.982	2420.5
931.215	2391.5
931.447	2339.5
931.68	2335.5
931.912	2332.5
932.145	2338.5
932.377	2321.5
932.61	2450.5
932.842	2281.5
933.074	2360.5
933.307	2286.5
933.539	2393.5
933.771	2392.5
934.003	2309.5
934.236	2406.5
934.468	2406.5
934.7	2334.5
934.932	2355.5
935.164	2303.5
935.395	2266.5
935.627	2297.5
935.859	2294.5
936.091	2231.5
936.323	2307.5
936.554	2300.5
936.786	2244.5
937.017	2199.5
937.249	2249.5
937.481	2183.5
937.712	2239.5
937.943	2254.5
938.175	2227.5
938.406	2231.5
938.637	2241.5
938.869	2150.5
939.1	2237.5
939.331	2169.5
939.562	2215.5
939.793	2219.5
940.024	2228.5
940.255	2259.5
940.486	2157.5
940.717	2157.5
940.948	2170.5
941.179	2086.5
941.409	2141.5
941.64	2158.5
941.871	2157.5
942.102	2117.5
942.332	2122.5
942.563	2148.5
942.793	2154.5
943.024	2075.5
943.254	2120.5
943.484	2156.5
943.715	2174.5
943.945	2117.5
944.175	2081.5
944.405	2056.5
944.636	2073.5
944.866	2112.5
945.096	2106.5
945.326	2031.5
945.556	2100.5
945.786	2139.5
946.016	2072.5
946.245	2010.5
946.475	2026.5
946.705	2037.5
946.935	2035.5
947.164	2040.5
947.394	2034.5
947.624	2007.5
947.853	2026.5
948.083	2024.5
948.312	1970.5
948.542	1952.5
948.771	1938.5
949	1954.5
949.23	1966.5
949.459	1943.5
949.688	2036.5
949.917	1950.5
950.146	1955.5
950.375	2028.5
950.604	1909.5
950.833	1988.5
951.062	2004.5
951.291	1924.5
951.52	1894.5
951.749	1933.5
951.978	1877.5
952.206	1903.5
952.435	1853.5
952.664	1959.5
952.892	1947.5
953.121	1924.5
953.349	1923.5
953.578	1903.5
953.806	1879.5
954.035	1859.5
954.263	1885.5
954.491	1814.5
954.719	1864.5
954.948	1831.5
955.176	1793.5
955.404	1754.5
955.632	1849.5
955.86	1850.5
956.088	1813.5
956.316	1834.5
956.544	1848.5
956.772	1788.5
956.999	1756.5
957.227	1836.5
957.455	1715.5
957.683	1789.5
957.91	1745.5
958.138	1719.5
958.365	1728.5
958.593	1728.5
958.82	1673.5
959.048	1757.5
959.275	1727.5
959.502	1715.5
959.73	1680.5
959.957	1729.5
960.184	1735.5
960.411	1693.5
960.638	1768.5
960.865	1693.5
961.092	1740.5
961.319	1631.5
961.546	1719.5
961.773	1735.5
962	1700.5
962.227	1724.5
962.454	1687.5
962.68	1676.5
962.907	1690.5
963.134	1642.5
963.36	1668.5
963.587	1694.5
963.813	1639.5
964.04	1642.5
964.266	1599.5
964.493	1705.5
964.719	1657.5
964.945	1658.5
965.171	1545.5
965.398	1605.5
965.624	1641.5
965.85	1579.5
966.076	1584.5
966.302	1610.5
966.528	1568.5
966.754	1631.5
966.98	1592.5
967.206	1606.5
967.431	1538.5
967.657	1612.5
967.883	1579.5
968.109	1574.5
968.334	1538.5
968.56	1520.5
968.785	1549.5
969.011	1508.5
969.236	1547.5
969.462	1501.5
969.687	1502.5
969.912	1560.5
970.138	1588.5
970.363	1474.5
970.588	1530.5
970.813	1511.5
971.038	1481.5
971.263	1523.5
971.488	1526.5
971.713	1541.5
971.938	1509.5
972.163	1437.5
972.388	1464.5
972.613	1436.5
972.838	1463.5
973.062	1451.5
973.287	1468.5
973.512	1378.5
973.736	1449.5
973.961	1437.5
974.185	1421.5
974.41	1456.5
974.634	1378.5
974.858	1368.5
975.083	1424.5
975.307	1448.5
975.531	1374.5
975.755	1329.5
975.98	1358.5
976.204	1279.5
976.428	1312.5
976.652	1320.5
976.876	1310.5
977.1	1322.5
977.324	1286.5
977.547	1347.5
977.771	1360.5
977.995	1313.5
978.219	1273.5
978.442	1375.5
978.666	1326.5
978.89	1314.5
979.113	1299.5
979.337	1310.5
979.56	1285.5
979.783	1378.5
980.007	1267.5
980.23	1304.5
980.453	1285.5
980.677	1302.5
980.9	1303.5
981.123	1222.5
981.346	1315.5
981.569	1286.5
981.792	1313.5
982.015	1297.5
982.238	1246.5
982.461	1269.5
982.684	1255.5
982.907	1212.5
983.129	1217.5
983.352	1262.5
983.575	1271.5
983.797	1273.5
984.02	1204.5
984.242	1202.5
984.465	1254.5
984.687	1252.5
984.91	1270.5
985.132	1267.5
985.354	1271.5
985.577	1252.5
985.799	1254.5
986.021	1170.5
986.243	1227.5
986.465	1228.5
986.687	1263.5
986.909	1307.5
987.131	1225.5
987.353	1224.5
987.575	1208.5
987.797	1192.5
988.019	1148.5
988.241	1220.5
988.462	1159.5
988.684	1224.5
988.906	1253.5
989.127	1276.5
989.349	1141.5
989.57	1193.5
989.792	1197.5
990.013	1235.5
990.234	1238.5
990.456	1272.5
990.677	1238.5
990.898	1212.5
991.119	1218.5
991.341	1236.5
991.562	1193.5
991.783	1238.5
992.004	1153.5
992.225	1130.5
992.446	1197.5
992.667	1118.5
992.887	1190.5
993.108	1102.5
993.329	1242.5
993.55	1173.5
993.77	1145.5
993.991	1122.5
994.212	1176.5
994.432	1170.5
994.653	1181.5
994.873	1155.5
995.093	1073.5
995.314	1114.5
995.534	1187.5
995.754	1209.5
995.975	1214.5
996.195	1131.5
996.415	1179.5
996.635	1171.5
996.855	1206.5
997.075	1164.5
997.295	1160.5
997.515	1156.5
997.735	1203.5
997.955	1172.5
998.174	1178.5
998.394	1163.5
998.614	1182.5
998.834	1158.5
999.053	1229.5
999.273	1157.5
999.492	1221.5
999.712	1166.5
999.931	1128.5
1000.151	1161.5
1000.37	1163.5
1000.589	1189.5
1000.809	1108.5
1001.028	1253.5
1001.247	1174.5
1001.466	1105.5
1001.685	1215.5
1001.904	1166.5
1002.123	1155.5
1002.342	1142.5
1002.561	1126.5
1002.78	1126.5
1002.999	1210.5
1003.218	1163.5
1003.436	1123.5
1003.655	1181.5
1003.874	1087.5
1004.092	1164.5
1004.311	1196.5
1004.53	1150.5
1004.748	1243.5
1004.966	1124.5
1005.185	1207.5
1005.403	1180.5
1005.622	1167.5
1005.84	1244.5
1006.058	1147.5
1006.276	1163.5
1006.494	1683.5
1006.712	1190.5
1006.931	1259.5
1007.149	1199.5
1007.367	1197.5
1007.584	1233.5
1007.802	1265.5
1008.02	1232.5
1008.238	1345.5
1008.456	1339.5
1008.673	1221.5
1008.891	1384.5
1009.109	1347.5
1009.326	1391.5
1009.544	1511.5
1009.761	1468.5
1009.979	1589.5
1010.196	1653.5
1010.413	1791.5
1010.631	1896.5
1010.848	1962.5
1011.065	1991.5
1011.282	1940.5
1011.5	1870.5
1011.717	1959.5
1011.934	1916.5
1012.151	1957.5
1012.368	1894.5
1012.585	1855.5
1012.801	1911.5
1013.018	1894.5
1013.235	1873.5
1013.452	1919.5
1013.669	1926.5
1013.885	1946.5
1014.102	1964.5
1014.318	1916.5
1014.535	1892.5
1014.751	1956.5
1014.968	1939.5
1015.184	1949.5
1015.401	1852.5
1015.617	1878.5
1015.833	1783.5
1016.049	1775.5
1016.266	1742.5
1016.482	1746.5
1016.698	1671.5
1016.914	1715.5
1017.13	1645.5
1017.346	1607.5
1017.562	1682.5
1017.778	1615.5
1017.993	1576.5
1018.209	1622.5
1018.425	1578.5
1018.641	1554.5
1018.856	1512.5
1019.072	1546.5
1019.288	1600.5
1019.503	1553.5
1019.719	1458.5
1019.934	1464.5
1020.149	1545.5
1020.365	1496.5
1020.58	1416.5
1020.795	1437.5
1021.011	1361.5
1021.226	1320.5
1021.441	1338.5
1021.656	1223.5
1021.871	1176.5
1022.086	1171.5
1022.301	1148.5
1022.516	1123.5
1022.731	1179.5
1022.946	1091.5
1023.16	1064.5
1023.375	1033.5
1023.59	1014.5
1023.804	979.5
1024.019	1057.5
1024.234	919.5
1024.448	943.5
1024.663	883.5
1024.877	887.5
1025.092	879.5
1025.306	899.5
1025.52	791.5
1025.734	872.5
1025.949	800.5
1026.163	781.5
1026.377	722.5
1026.591	765.5
1026.805	681.5
1027.019	690.5
1027.233	656.5
1027.447	608.5
1027.661	711.5
1027.875	629.5
1028.088	661.5
1028.302	585.5
1028.516	583.5
1028.73	575.5
1028.943	579.5
1029.157	529.5
1029.37	503.5
1029.584	-5.5
1029.797	-3.5
1030.011	-5.5
1030.224	2.5
