Data from QEP037381__188__15-32-15-441.txt Node

Date: Wed Dec 21 15:32:15 EST 2022
User: dcclab
Spectrometer: QEP03738
Trigger mode: 4
Integration Time (sec): 1.000000E1
Scans to average: 1
Electric dark correction enabled: true
Nonlinearity correction enabled: false
Boxcar width: 0
XAxis mode: Wavelengths
Number of Pixels in Spectrum: 1044
>>>>>Begin Spectral Data<<<<<
784.041	8.5
784.3	-0.5
784.558	-1.5
784.817	-0.5
785.075	107053.5
785.334	19867.5
785.592	9683.5
785.851	6765.5
786.109	5028.5
786.368	3850.5
786.626	3105.5
786.884	2579.5
787.143	2176.5
787.401	1796.5
787.659	1631.5
787.917	1395.5
788.175	1248.5
788.433	1081.5
788.691	949.5
788.949	871.5
789.207	808.5
789.465	725.5
789.723	686.5
789.98	633.5
790.238	647.5
790.496	600.5
790.753	575.5
791.011	632.5
791.268	566.5
791.526	535.5
791.783	560.5
792.041	537.5
792.298	438.5
792.556	508.5
792.813	501.5
793.07	462.5
793.327	435.5
793.584	515.5
793.841	424.5
794.099	457.5
794.356	499.5
794.613	417.5
794.869	461.5
795.126	425.5
795.383	404.5
795.64	421.5
795.897	380.5
796.153	430.5
796.41	419.5
796.667	400.5
796.923	408.5
797.18	393.5
797.436	431.5
797.693	383.5
797.949	447.5
798.206	476.5
798.462	373.5
798.718	439.5
798.974	397.5
799.231	442.5
799.487	432.5
799.743	452.5
799.999	459.5
800.255	455.5
800.511	433.5
800.767	472.5
801.023	449.5
801.279	475.5
801.534	488.5
801.79	524.5
802.046	511.5
802.302	603.5
802.557	657.5
802.813	774.5
803.068	861.5
803.324	1151.5
803.579	1510.5
803.835	1974.5
804.09	2676.5
804.345	3331.5
804.601	4208.5
804.856	5025.5
805.111	5731.5
805.366	6180.5
805.621	6623.5
805.876	6819.5
806.131	7085.5
806.386	7194.5
806.641	7255.5
806.896	7392.5
807.151	7522.5
807.406	7551.5
807.661	7657.5
807.915	7747.5
808.17	7932.5
808.425	7953.5
808.679	7960.5
808.934	8197.5
809.188	8191.5
809.443	8239.5
809.697	8307.5
809.951	8344.5
810.206	8413.5
810.46	8473.5
810.714	8537.5
810.968	8639.5
811.223	8668.5
811.477	8792.5
811.731	8793.5
811.985	8849.5
812.239	8791.5
812.493	8865.5
812.747	8885.5
813	8825.5
813.254	8952.5
813.508	8985.5
813.762	8998.5
814.015	9073.5
814.269	9039.5
814.522	9143.5
814.776	9200.5
815.03	9329.5
815.283	9367.5
815.536	9534.5
815.79	9700.5
816.043	9787.5
816.296	9931.5
816.55	10024.5
816.803	10119.5
817.056	10315.5
817.309	10268.5
817.562	10332.5
817.815	10543.5
818.068	10454.5
818.321	10545.5
818.574	10669.5
818.827	10821.5
819.079	10901.5
819.332	11203.5
819.585	11380.5
819.838	11471.5
820.09	11355.5
820.343	11455.5
820.595	11432.5
820.848	11514.5
821.1	11580.5
821.353	11656.5
821.605	11541.5
821.857	11572.5
822.11	11465.5
822.362	11497.5
822.614	11431.5
822.866	11459.5
823.118	11467.5
823.37	11605.5
823.622	11640.5
823.874	11653.5
824.126	11747.5
824.378	11622.5
824.63	11694.5
824.882	11649.5
825.134	11570.5
825.385	11672.5
825.637	11500.5
825.888	11421.5
826.14	11456.5
826.392	11327.5
826.643	11355.5
826.895	11229.5
827.146	11204.5
827.397	11123.5
827.649	11169.5
827.9	11078.5
828.151	11131.5
828.402	11052.5
828.653	11191.5
828.905	11180.5
829.156	11299.5
829.407	11206.5
829.658	11290.5
829.909	11526.5
830.159	11528.5
830.41	11491.5
830.661	11335.5
830.912	11119.5
831.162	11152.5
831.413	11135.5
831.664	11119.5
831.914	11171.5
832.165	11164.5
832.415	10994.5
832.666	11087.5
832.916	11157.5
833.167	11108.5
833.417	11108.5
833.667	11002.5
833.917	10877.5
834.168	10967.5
834.418	10907.5
834.668	10931.5
834.918	10805.5
835.168	10835.5
835.418	10782.5
835.668	10716.5
835.918	10707.5
836.167	10621.5
836.417	10563.5
836.667	10615.5
836.917	10714.5
837.166	10582.5
837.416	10735.5
837.666	10773.5
837.915	10588.5
838.165	10639.5
838.414	10549.5
838.663	10530.5
838.913	10584.5
839.162	10593.5
839.411	10592.5
839.661	10530.5
839.91	10532.5
840.159	10481.5
840.408	10547.5
840.657	10498.5
840.906	10540.5
841.155	10544.5
841.404	10476.5
841.653	10481.5
841.902	10487.5
842.15	10555.5
842.399	10610.5
842.648	10573.5
842.897	10527.5
843.145	10362.5
843.394	10371.5
843.642	10321.5
843.891	10266.5
844.139	10162.5
844.388	9967.5
844.636	9999.5
844.884	10045.5
845.133	10054.5
845.381	9990.5
845.629	10030.5
845.877	9989.5
846.125	9991.5
846.373	9989.5
846.621	9818.5
846.869	9837.5
847.117	9763.5
847.365	9743.5
847.613	9781.5
847.861	9743.5
848.108	9738.5
848.356	9713.5
848.604	9668.5
848.851	9690.5
849.099	9712.5
849.346	9697.5
849.594	9769.5
849.841	9774.5
850.089	9767.5
850.336	9811.5
850.583	9825.5
850.831	9763.5
851.078	9662.5
851.325	9707.5
851.572	9849.5
851.819	9750.5
852.066	9523.5
852.313	9267.5
852.56	9271.5
852.807	9188.5
853.054	9191.5
853.301	9298.5
853.548	9275.5
853.794	9383.5
854.041	9324.5
854.288	9431.5
854.534	9591.5
854.781	9482.5
855.028	9489.5
855.274	9568.5
855.52	9586.5
855.767	9606.5
856.013	9729.5
856.26	10015.5
856.506	9512.5
856.752	9451.5
856.998	9427.5
857.244	9465.5
857.49	9504.5
857.736	9531.5
857.982	9457.5
858.228	9505.5
858.474	9232.5
858.72	9170.5
858.966	9150.5
859.212	9007.5
859.458	8879.5
859.703	8782.5
859.949	8711.5
860.195	8718.5
860.44	8646.5
860.686	8634.5
860.931	8720.5
861.177	8553.5
861.422	8554.5
861.667	8394.5
861.913	8341.5
862.158	8316.5
862.403	8326.5
862.648	8341.5
862.893	8324.5
863.138	8319.5
863.384	8239.5
863.629	8308.5
863.873	8238.5
864.118	8319.5
864.363	8236.5
864.608	8269.5
864.853	8169.5
865.098	8105.5
865.342	8066.5
865.587	8014.5
865.832	8026.5
866.076	8031.5
866.321	7944.5
866.565	8012.5
866.81	7898.5
867.054	7880.5
867.298	7865.5
867.543	7840.5
867.787	7926.5
868.031	7863.5
868.275	7847.5
868.519	7823.5
868.764	7774.5
869.008	7778.5
869.252	7781.5
869.496	7786.5
869.739	7813.5
869.983	7862.5
870.227	7888.5
870.471	7919.5
870.715	7952.5
870.958	7998.5
871.202	7984.5
871.446	8020.5
871.689	7983.5
871.933	8026.5
872.176	7993.5
872.42	8001.5
872.663	8035.5
872.906	8129.5
873.15	8205.5
873.393	8303.5
873.636	8402.5
873.879	8335.5
874.122	8128.5
874.366	7880.5
874.609	7709.5
874.852	7559.5
875.095	7508.5
875.337	7424.5
875.58	7325.5
875.823	7371.5
876.066	7377.5
876.309	7332.5
876.551	7180.5
876.794	7138.5
877.037	7186.5
877.279	7074.5
877.522	7051.5
877.764	7132.5
878.007	7097.5
878.249	7005.5
878.491	7005.5
878.734	6994.5
878.976	6998.5
879.218	6856.5
879.46	6871.5
879.702	6795.5
879.945	6738.5
880.187	6643.5
880.429	6615.5
880.671	6499.5
880.912	6518.5
881.154	6487.5
881.396	6432.5
881.638	6501.5
881.88	6455.5
882.121	6446.5
882.363	6480.5
882.605	6590.5
882.846	6546.5
883.088	6594.5
883.329	6659.5
883.571	6808.5
883.812	7100.5
884.053	7531.5
884.295	8061.5
884.536	8248.5
884.777	8098.5
885.018	7956.5
885.259	7872.5
885.5	7703.5
885.742	7935.5
885.982	7548.5
886.223	7454.5
886.464	7288.5
886.705	7082.5
886.946	7011.5
887.187	6647.5
887.428	6525.5
887.668	6312.5
887.909	6135.5
888.15	6042.5
888.39	5991.5
888.631	5919.5
888.871	5902.5
889.111	5837.5
889.352	5761.5
889.592	5617.5
889.833	5610.5
890.073	5520.5
890.313	5561.5
890.553	5467.5
890.793	5439.5
891.033	5363.5
891.273	5357.5
891.513	5342.5
891.753	5423.5
891.993	5277.5
892.233	5387.5
892.473	5417.5
892.713	5340.5
892.952	5360.5
893.192	5341.5
893.432	5335.5
893.671	5306.5
893.911	5257.5
894.15	5259.5
894.39	5183.5
894.629	5158.5
894.869	5184.5
895.108	5119.5
895.347	5103.5
895.587	5139.5
895.826	5080.5
896.065	5036.5
896.304	5091.5
896.543	5098.5
896.782	5001.5
897.021	5049.5
897.26	5045.5
897.499	5090.5
897.738	5093.5
897.977	4995.5
898.216	5006.5
898.454	4895.5
898.693	4792.5
898.932	4879.5
899.17	4828.5
899.409	4832.5
899.647	4838.5
899.886	4796.5
900.124	4807.5
900.363	4869.5
900.601	4903.5
900.839	4947.5
901.078	4934.5
901.316	4956.5
901.554	5063.5
901.792	5185.5
902.03	5119.5
902.268	5138.5
902.506	5074.5
902.744	5066.5
902.982	5104.5
903.22	4937.5
903.458	4855.5
903.695	4739.5
903.933	4665.5
904.171	4483.5
904.409	4417.5
904.646	4399.5
904.884	4315.5
905.121	4352.5
905.359	4257.5
905.596	4209.5
905.833	4125.5
906.071	4099.5
906.308	4164.5
906.545	4146.5
906.783	4085.5
907.02	4074.5
907.257	4063.5
907.494	4097.5
907.731	4057.5
907.968	4082.5
908.205	3994.5
908.442	4010.5
908.679	4005.5
908.915	3917.5
909.152	3919.5
909.389	3812.5
909.626	3826.5
909.862	3835.5
910.099	3786.5
910.335	3798.5
910.572	3689.5
910.808	3747.5
911.045	3719.5
911.281	3680.5
911.518	3767.5
911.754	3667.5
911.99	3644.5
912.226	3617.5
912.463	3568.5
912.699	3585.5
912.935	3535.5
913.171	3599.5
913.407	3488.5
913.643	3505.5
913.879	3474.5
914.114	3427.5
914.35	3407.5
914.586	3361.5
914.822	3320.5
915.057	3385.5
915.293	3293.5
915.529	3298.5
915.764	3328.5
916	3319.5
916.235	3281.5
916.471	3270.5
916.706	3209.5
916.941	3204.5
917.177	3210.5
917.412	3224.5
917.647	3254.5
917.882	3182.5
918.117	3242.5
918.352	3192.5
918.588	3205.5
918.823	3140.5
919.057	3141.5
919.292	3034.5
919.527	3121.5
919.762	3028.5
919.997	3067.5
920.232	3001.5
920.466	3030.5
920.701	2872.5
920.935	2925.5
921.17	2883.5
921.405	2885.5
921.639	2949.5
921.873	2864.5
922.108	2900.5
922.342	2897.5
922.576	2827.5
922.811	2837.5
923.045	2873.5
923.279	2900.5
923.513	2748.5
923.747	2819.5
923.981	2792.5
924.215	2726.5
924.449	2713.5
924.683	2703.5
924.917	2697.5
925.151	2695.5
925.385	2728.5
925.618	2701.5
925.852	2681.5
926.086	2613.5
926.319	2669.5
926.553	2662.5
926.786	2680.5
927.02	2679.5
927.253	2708.5
927.486	2649.5
927.72	2601.5
927.953	2689.5
928.186	2616.5
928.42	2645.5
928.653	2599.5
928.886	2584.5
929.119	2581.5
929.352	2594.5
929.585	2595.5
929.818	2516.5
930.051	2500.5
930.284	2519.5
930.516	2426.5
930.749	2462.5
930.982	2552.5
931.215	2483.5
931.447	2411.5
931.68	2423.5
931.912	2430.5
932.145	2401.5
932.377	2435.5
932.61	2579.5
932.842	2384.5
933.074	2428.5
933.307	2361.5
933.539	2461.5
933.771	2490.5
934.003	2408.5
934.236	2487.5
934.468	2492.5
934.7	2362.5
934.932	2409.5
935.164	2339.5
935.395	2341.5
935.627	2375.5
935.859	2391.5
936.091	2342.5
936.323	2389.5
936.554	2424.5
936.786	2370.5
937.017	2276.5
937.249	2361.5
937.481	2243.5
937.712	2327.5
937.943	2279.5
938.175	2313.5
938.406	2273.5
938.637	2347.5
938.869	2236.5
939.1	2304.5
939.331	2297.5
939.562	2294.5
939.793	2296.5
940.024	2323.5
940.255	2316.5
940.486	2253.5
940.717	2237.5
940.948	2240.5
941.179	2185.5
941.409	2228.5
941.64	2224.5
941.871	2224.5
942.102	2200.5
942.332	2202.5
942.563	2236.5
942.793	2209.5
943.024	2175.5
943.254	2188.5
943.484	2237.5
943.715	2201.5
943.945	2198.5
944.175	2133.5
944.405	2127.5
944.636	2159.5
944.866	2183.5
945.096	2182.5
945.326	2114.5
945.556	2190.5
945.786	2208.5
946.016	2155.5
946.245	2081.5
946.475	2120.5
946.705	2094.5
946.935	2133.5
947.164	2113.5
947.394	2073.5
947.624	2064.5
947.853	2110.5
948.083	2085.5
948.312	2046.5
948.542	1982.5
948.771	1968.5
949	1986.5
949.23	2018.5
949.459	2020.5
949.688	2076.5
949.917	2042.5
950.146	2010.5
950.375	2049.5
950.604	1996.5
950.833	2019.5
951.062	2041.5
951.291	1997.5
951.52	1955.5
951.749	2002.5
951.978	1951.5
952.206	1971.5
952.435	1947.5
952.664	1956.5
952.892	1976.5
953.121	1964.5
953.349	1991.5
953.578	1981.5
953.806	1945.5
954.035	1884.5
954.263	1906.5
954.491	1840.5
954.719	1932.5
954.948	1845.5
955.176	1871.5
955.404	1800.5
955.632	1874.5
955.86	1906.5
956.088	1862.5
956.316	1877.5
956.544	1923.5
956.772	1846.5
956.999	1787.5
957.227	1888.5
957.455	1786.5
957.683	1833.5
957.91	1770.5
958.138	1767.5
958.365	1778.5
958.593	1777.5
958.82	1714.5
959.048	1791.5
959.275	1782.5
959.502	1757.5
959.73	1718.5
959.957	1760.5
960.184	1801.5
960.411	1724.5
960.638	1806.5
960.865	1749.5
961.092	1790.5
961.319	1666.5
961.546	1778.5
961.773	1779.5
962	1754.5
962.227	1785.5
962.454	1738.5
962.68	1739.5
962.907	1718.5
963.134	1715.5
963.36	1743.5
963.587	1735.5
963.813	1671.5
964.04	1690.5
964.266	1673.5
964.493	1743.5
964.719	1717.5
964.945	1734.5
965.171	1599.5
965.398	1662.5
965.624	1672.5
965.85	1615.5
966.076	1602.5
966.302	1678.5
966.528	1626.5
966.754	1647.5
966.98	1640.5
967.206	1649.5
967.431	1563.5
967.657	1647.5
967.883	1628.5
968.109	1612.5
968.334	1573.5
968.56	1553.5
968.785	1563.5
969.011	1542.5
969.236	1602.5
969.462	1550.5
969.687	1573.5
969.912	1572.5
970.138	1646.5
970.363	1539.5
970.588	1553.5
970.813	1542.5
971.038	1515.5
971.263	1552.5
971.488	1582.5
971.713	1570.5
971.938	1545.5
972.163	1488.5
972.388	1502.5
972.613	1504.5
972.838	1490.5
973.062	1490.5
973.287	1513.5
973.512	1412.5
973.736	1480.5
973.961	1474.5
974.185	1468.5
974.41	1498.5
974.634	1415.5
974.858	1412.5
975.083	1463.5
975.307	1483.5
975.531	1400.5
975.755	1359.5
975.98	1403.5
976.204	1337.5
976.428	1350.5
976.652	1342.5
976.876	1329.5
977.1	1345.5
977.324	1307.5
977.547	1372.5
977.771	1406.5
977.995	1361.5
978.219	1293.5
978.442	1412.5
978.666	1385.5
978.89	1356.5
979.113	1391.5
979.337	1362.5
979.56	1320.5
979.783	1417.5
980.007	1296.5
980.23	1350.5
980.453	1320.5
980.677	1349.5
980.9	1306.5
981.123	1229.5
981.346	1318.5
981.569	1313.5
981.792	1352.5
982.015	1317.5
982.238	1267.5
982.461	1276.5
982.684	1288.5
982.907	1260.5
983.129	1231.5
983.352	1302.5
983.575	1293.5
983.797	1299.5
984.02	1245.5
984.242	1255.5
984.465	1271.5
984.687	1270.5
984.91	1329.5
985.132	1279.5
985.354	1312.5
985.577	1271.5
985.799	1246.5
986.021	1209.5
986.243	1246.5
986.465	1247.5
986.687	1298.5
986.909	1330.5
987.131	1247.5
987.353	1245.5
987.575	1269.5
987.797	1211.5
988.019	1139.5
988.241	1209.5
988.462	1172.5
988.684	1244.5
988.906	1280.5
989.127	1279.5
989.349	1192.5
989.57	1215.5
989.792	1239.5
990.013	1271.5
990.234	1282.5
990.456	1303.5
990.677	1300.5
990.898	1230.5
991.119	1213.5
991.341	1244.5
991.562	1204.5
991.783	1258.5
992.004	1176.5
992.225	1169.5
992.446	1247.5
992.667	1131.5
992.887	1247.5
993.108	1113.5
993.329	1260.5
993.55	1213.5
993.77	1163.5
993.991	1171.5
994.212	1200.5
994.432	1187.5
994.653	1184.5
994.873	1194.5
995.093	1079.5
995.314	1142.5
995.534	1222.5
995.754	1210.5
995.975	1245.5
996.195	1135.5
996.415	1219.5
996.635	1197.5
996.855	1228.5
997.075	1194.5
997.295	1175.5
997.515	1180.5
997.735	1229.5
997.955	1199.5
998.174	1203.5
998.394	1162.5
998.614	1201.5
998.834	1164.5
999.053	1262.5
999.273	1209.5
999.492	1232.5
999.712	1200.5
999.931	1150.5
1000.151	1197.5
1000.37	1171.5
1000.589	1241.5
1000.809	1157.5
1001.028	1274.5
1001.247	1197.5
1001.466	1093.5
1001.685	1257.5
1001.904	1174.5
1002.123	1163.5
1002.342	1188.5
1002.561	1110.5
1002.78	1154.5
1002.999	1223.5
1003.218	1151.5
1003.436	1137.5
1003.655	1193.5
1003.874	1139.5
1004.092	1154.5
1004.311	1226.5
1004.53	1172.5
1004.748	1258.5
1004.966	1170.5
1005.185	1221.5
1005.403	1206.5
1005.622	1192.5
1005.84	1254.5
1006.058	1177.5
1006.276	1205.5
1006.494	1701.5
1006.712	1201.5
1006.931	1283.5
1007.149	1200.5
1007.367	1190.5
1007.584	1243.5
1007.802	1314.5
1008.02	1240.5
1008.238	1354.5
1008.456	1355.5
1008.673	1273.5
1008.891	1399.5
1009.109	1349.5
1009.326	1450.5
1009.544	1574.5
1009.761	1494.5
1009.979	1650.5
1010.196	1687.5
1010.413	1846.5
1010.631	1984.5
1010.848	2040.5
1011.065	2073.5
1011.282	2030.5
1011.5	1924.5
1011.717	2067.5
1011.934	1990.5
1012.151	2017.5
1012.368	1952.5
1012.585	1928.5
1012.801	1941.5
1013.018	1944.5
1013.235	1908.5
1013.452	1958.5
1013.669	1981.5
1013.885	1963.5
1014.102	2021.5
1014.318	2006.5
1014.535	1962.5
1014.751	2026.5
1014.968	1996.5
1015.184	1995.5
1015.401	1886.5
1015.617	1899.5
1015.833	1872.5
1016.049	1846.5
1016.266	1802.5
1016.482	1801.5
1016.698	1719.5
1016.914	1760.5
1017.13	1694.5
1017.346	1674.5
1017.562	1721.5
1017.778	1636.5
1017.993	1618.5
1018.209	1645.5
1018.425	1610.5
1018.641	1607.5
1018.856	1588.5
1019.072	1610.5
1019.288	1635.5
1019.503	1589.5
1019.719	1494.5
1019.934	1521.5
1020.149	1572.5
1020.365	1510.5
1020.58	1441.5
1020.795	1457.5
1021.011	1400.5
1021.226	1366.5
1021.441	1343.5
1021.656	1284.5
1021.871	1177.5
1022.086	1194.5
1022.301	1162.5
1022.516	1155.5
1022.731	1210.5
1022.946	1122.5
1023.16	1082.5
1023.375	1058.5
1023.59	1045.5
1023.804	985.5
1024.019	1107.5
1024.234	947.5
1024.448	964.5
1024.663	902.5
1024.877	895.5
1025.092	917.5
1025.306	901.5
1025.52	795.5
1025.734	920.5
1025.949	816.5
1026.163	790.5
1026.377	733.5
1026.591	795.5
1026.805	697.5
1027.019	710.5
1027.233	678.5
1027.447	620.5
1027.661	721.5
1027.875	646.5
1028.088	674.5
1028.302	597.5
1028.516	580.5
1028.73	585.5
1028.943	591.5
1029.157	543.5
1029.37	503.5
1029.584	-2.5
1029.797	-2.5
1030.011	-0.5
1030.224	-0.5
