Data from QEP037381__81__13-47-14-641.txt Node

Date: Fri Apr 28 13:47:14 EDT 2023
User: dcclab
Spectrometer: QEP03738
Trigger mode: 4
Integration Time (sec): 1.000000E1
Scans to average: 1
Electric dark correction enabled: true
Nonlinearity correction enabled: false
Boxcar width: 0
XAxis mode: Wavelengths
Number of Pixels in Spectrum: 1044
>>>>>Begin Spectral Data<<<<<
784.041	11.75
784.3	-3.25
784.558	-3.25
784.817	-3.25
785.075	69957.75
785.334	14088.75
785.592	7352.75
785.851	5173.75
786.109	3935.75
786.368	3069.75
786.626	2423.75
786.884	2006.75
787.143	1701.75
787.401	1415.75
787.659	1270.75
787.917	1077.75
788.175	1015.75
788.433	901.75
788.691	797.75
788.949	758.75
789.207	701.75
789.465	629.75
789.723	613.75
789.98	556.75
790.238	587.75
790.496	552.75
790.753	537.75
791.011	583.75
791.268	522.75
791.526	491.75
791.783	529.75
792.041	506.75
792.298	422.75
792.556	492.75
792.813	460.75
793.07	439.75
793.327	442.75
793.584	513.75
793.841	445.75
794.099	463.75
794.356	520.75
794.613	423.75
794.869	466.75
795.126	420.75
795.383	418.75
795.64	437.75
795.897	386.75
796.153	436.75
796.41	427.75
796.667	410.75
796.923	424.75
797.18	421.75
797.436	450.75
797.693	408.75
797.949	465.75
798.206	494.75
798.462	426.75
798.718	472.75
798.974	442.75
799.231	488.75
799.487	478.75
799.743	477.75
799.999	522.75
800.255	507.75
800.511	497.75
800.767	550.75
801.023	545.75
801.279	579.75
801.534	617.75
801.79	685.75
802.046	721.75
802.302	897.75
802.557	1024.75
802.813	1353.75
803.068	1725.75
803.324	2431.75
803.579	3473.75
803.835	4788.75
804.09	6523.75
804.345	8406.75
804.601	10190.75
804.856	11880.75
805.111	13186.75
805.366	13848.75
805.621	14475.75
805.876	14901.75
806.131	15125.75
806.386	15423.75
806.641	15626.75
806.896	15929.75
807.151	16188.75
807.406	16421.75
807.661	16746.75
807.915	17046.75
808.17	17334.75
808.425	17512.75
808.679	17718.75
808.934	18086.75
809.188	18252.75
809.443	18369.75
809.697	18712.75
809.951	18800.75
810.206	18984.75
810.46	19095.75
810.714	19337.75
810.968	19461.75
811.223	19576.75
811.477	19731.75
811.731	19908.75
811.985	19949.75
812.239	20101.75
812.493	20088.75
812.747	20250.75
813	20252.75
813.254	20437.75
813.508	20638.75
813.762	20761.75
814.015	20785.75
814.269	20903.75
814.522	21133.75
814.776	21307.75
815.03	21641.75
815.283	21836.75
815.536	22198.75
815.79	22545.75
816.043	22831.75
816.296	23176.75
816.55	23396.75
816.803	23682.75
817.056	24009.75
817.309	24268.75
817.562	24624.75
817.815	24835.75
818.068	25228.75
818.321	25507.75
818.574	25655.75
818.827	26230.75
819.079	26493.75
819.332	26962.75
819.585	27205.75
819.838	27660.75
820.09	27913.75
820.343	28043.75
820.595	28272.75
820.848	28330.75
821.1	28488.75
821.353	28486.75
821.605	28512.75
821.857	28525.75
822.11	28249.75
822.362	28372.75
822.614	28219.75
822.866	28164.75
823.118	28289.75
823.37	28394.75
823.622	28366.75
823.874	28479.75
824.126	28585.75
824.378	28485.75
824.63	28670.75
824.882	28898.75
825.134	28690.75
825.385	28683.75
825.637	28588.75
825.888	28571.75
826.14	28458.75
826.392	28315.75
826.643	28137.75
826.895	28154.75
827.146	28020.75
827.397	27899.75
827.649	27891.75
827.9	28000.75
828.151	28061.75
828.402	28006.75
828.653	28008.75
828.905	28005.75
829.156	28245.75
829.407	27901.75
829.658	28116.75
829.909	28070.75
830.159	27959.75
830.41	27807.75
830.661	27694.75
830.912	27551.75
831.162	27450.75
831.413	27375.75
831.664	27436.75
831.914	27365.75
832.165	27332.75
832.415	27293.75
832.666	27363.75
832.916	27291.75
833.167	27180.75
833.417	27166.75
833.667	27225.75
833.917	26920.75
834.168	26954.75
834.418	26911.75
834.668	26764.75
834.918	26555.75
835.168	26420.75
835.418	26297.75
835.668	26389.75
835.918	26298.75
836.167	26131.75
836.417	26110.75
836.667	26068.75
836.917	26024.75
837.166	25921.75
837.416	25838.75
837.666	25809.75
837.915	25786.75
838.165	25680.75
838.414	25596.75
838.663	25502.75
838.913	25610.75
839.162	25289.75
839.411	25518.75
839.661	25358.75
839.91	25301.75
840.159	25221.75
840.408	25272.75
840.657	25208.75
840.906	25229.75
841.155	25222.75
841.404	25123.75
841.653	25171.75
841.902	25082.75
842.15	25144.75
842.399	25282.75
842.648	24970.75
842.897	24824.75
843.145	24793.75
843.394	24650.75
843.642	24522.75
843.891	24435.75
844.139	24261.75
844.388	24075.75
844.636	24061.75
844.884	23942.75
845.133	23948.75
845.381	23967.75
845.629	23956.75
845.877	23848.75
846.125	23909.75
846.373	23873.75
846.621	23722.75
846.869	23601.75
847.117	23537.75
847.365	23499.75
847.613	23178.75
847.861	23215.75
848.108	23184.75
848.356	23135.75
848.604	23074.75
848.851	23029.75
849.099	23199.75
849.346	23143.75
849.594	23350.75
849.841	23345.75
850.089	23298.75
850.336	23321.75
850.583	23269.75
850.831	23192.75
851.078	23042.75
851.325	23011.75
851.572	22928.75
851.819	22685.75
852.066	22241.75
852.313	21889.75
852.56	21782.75
852.807	21767.75
853.054	21615.75
853.301	21593.75
853.548	21620.75
853.794	21893.75
854.041	21839.75
854.288	21843.75
854.534	22099.75
854.781	22029.75
855.028	21808.75
855.274	21836.75
855.52	21678.75
855.767	21635.75
856.013	21534.75
856.26	21770.75
856.506	21294.75
856.752	21371.75
856.998	21343.75
857.244	21350.75
857.49	21528.75
857.736	21310.75
857.982	21430.75
858.228	21252.75
858.474	21156.75
858.72	21115.75
858.966	20960.75
859.212	20662.75
859.458	20472.75
859.703	20266.75
859.949	20102.75
860.195	19872.75
860.44	19835.75
860.686	19819.75
860.931	19682.75
861.177	19455.75
861.422	19512.75
861.667	19521.75
861.913	19498.75
862.158	19436.75
862.403	19531.75
862.648	19709.75
862.893	19602.75
863.138	19668.75
863.384	19528.75
863.629	19546.75
863.873	19495.75
864.118	19288.75
864.363	19147.75
864.608	19147.75
864.853	19003.75
865.098	18955.75
865.342	18818.75
865.587	18739.75
865.832	18851.75
866.076	18644.75
866.321	18621.75
866.565	18583.75
866.81	18413.75
867.054	18469.75
867.298	18451.75
867.543	18332.75
867.787	18289.75
868.031	18296.75
868.275	18251.75
868.519	18302.75
868.764	18309.75
869.008	18124.75
869.252	18135.75
869.496	18084.75
869.739	18011.75
869.983	18060.75
870.227	18085.75
870.471	17989.75
870.715	17974.75
870.958	18061.75
871.202	17997.75
871.446	18077.75
871.689	17987.75
871.933	17997.75
872.176	17963.75
872.42	17905.75
872.663	17844.75
872.906	17818.75
873.15	17671.75
873.393	17620.75
873.636	17478.75
873.879	17250.75
874.122	17168.75
874.366	16950.75
874.609	16888.75
874.852	16775.75
875.095	16707.75
875.337	16620.75
875.58	16571.75
875.823	16576.75
876.066	16495.75
876.309	16495.75
876.551	16238.75
876.794	16227.75
877.037	16329.75
877.279	16088.75
877.522	16130.75
877.764	16220.75
878.007	16136.75
878.249	16142.75
878.491	16183.75
878.734	16209.75
878.976	16037.75
879.218	15847.75
879.46	15795.75
879.702	15752.75
879.945	15593.75
880.187	15428.75
880.429	15324.75
880.671	15251.75
880.912	15227.75
881.154	15174.75
881.396	15056.75
881.638	15046.75
881.88	15008.75
882.121	14949.75
882.363	15014.75
882.605	14957.75
882.846	14946.75
883.088	14871.75
883.329	14839.75
883.571	14810.75
883.812	14857.75
884.053	14993.75
884.295	15112.75
884.536	15297.75
884.777	15140.75
885.018	15150.75
885.259	15153.75
885.5	14949.75
885.742	15076.75
885.982	14874.75
886.223	14702.75
886.464	14717.75
886.705	14515.75
886.946	14496.75
887.187	14260.75
887.428	14111.75
887.668	14011.75
887.909	13840.75
888.15	13757.75
888.39	13637.75
888.631	13630.75
888.871	13480.75
889.111	13358.75
889.352	13272.75
889.592	13070.75
889.833	13092.75
890.073	13011.75
890.313	12924.75
890.553	12778.75
890.793	12837.75
891.033	12735.75
891.273	12676.75
891.513	12622.75
891.753	12645.75
891.993	12531.75
892.233	12524.75
892.473	12690.75
892.713	12594.75
892.952	12543.75
893.192	12553.75
893.432	12557.75
893.671	12577.75
893.911	12402.75
894.15	12331.75
894.39	12203.75
894.629	12119.75
894.869	12148.75
895.108	12032.75
895.347	11916.75
895.587	11961.75
895.826	11835.75
896.065	11904.75
896.304	11828.75
896.543	11767.75
896.782	11688.75
897.021	11622.75
897.26	11705.75
897.499	11675.75
897.738	11728.75
897.977	11515.75
898.216	11468.75
898.454	11443.75
898.693	11386.75
898.932	11297.75
899.17	11200.75
899.409	11181.75
899.647	11161.75
899.886	11138.75
900.124	11133.75
900.363	11165.75
900.601	11152.75
900.839	11084.75
901.078	11165.75
901.316	11169.75
901.554	11249.75
901.792	11238.75
902.03	11277.75
902.268	11172.75
902.506	11141.75
902.744	10972.75
902.982	11006.75
903.22	10861.75
903.458	10675.75
903.695	10656.75
903.933	10394.75
904.171	10259.75
904.409	10089.75
904.646	10028.75
904.884	9909.75
905.121	9860.75
905.359	9753.75
905.596	9650.75
905.833	9616.75
906.071	9446.75
906.308	9591.75
906.545	9464.75
906.783	9430.75
907.02	9473.75
907.257	9388.75
907.494	9380.75
907.731	9367.75
907.968	9348.75
908.205	9298.75
908.442	9267.75
908.679	9145.75
908.915	9024.75
909.152	9018.75
909.389	8886.75
909.626	8833.75
909.862	8742.75
910.099	8758.75
910.335	8785.75
910.572	8662.75
910.808	8667.75
911.045	8623.75
911.281	8552.75
911.518	8547.75
911.754	8394.75
911.99	8429.75
912.226	8333.75
912.463	8336.75
912.699	8216.75
912.935	8167.75
913.171	8112.75
913.407	8039.75
913.643	8036.75
913.879	7977.75
914.114	7860.75
914.35	7797.75
914.586	7729.75
914.822	7595.75
915.057	7666.75
915.293	7472.75
915.529	7480.75
915.764	7467.75
916	7497.75
916.235	7461.75
916.471	7451.75
916.706	7408.75
916.941	7370.75
917.177	7403.75
917.412	7396.75
917.647	7388.75
917.882	7370.75
918.117	7353.75
918.352	7322.75
918.588	7288.75
918.823	7180.75
919.057	7206.75
919.292	6967.75
919.527	6957.75
919.762	6927.75
919.997	6904.75
920.232	6819.75
920.466	6751.75
920.701	6606.75
920.935	6648.75
921.17	6559.75
921.405	6534.75
921.639	6611.75
921.873	6497.75
922.108	6527.75
922.342	6479.75
922.576	6350.75
922.811	6398.75
923.045	6409.75
923.279	6417.75
923.513	6234.75
923.747	6284.75
923.981	6291.75
924.215	6218.75
924.449	6110.75
924.683	6085.75
924.917	6010.75
925.151	6047.75
925.385	6091.75
925.618	6019.75
925.852	6022.75
926.086	5945.75
926.319	5957.75
926.553	5973.75
926.786	5958.75
927.02	5949.75
927.253	5983.75
927.486	6045.75
927.72	5869.75
927.953	5902.75
928.186	5817.75
928.42	5889.75
928.653	5778.75
928.886	5770.75
929.119	5805.75
929.352	5784.75
929.585	5705.75
929.818	5623.75
930.051	5656.75
930.284	5591.75
930.516	5498.75
930.749	5427.75
930.982	5476.75
931.215	5419.75
931.447	5328.75
931.68	5378.75
931.912	5320.75
932.145	5324.75
932.377	5398.75
932.61	5474.75
932.842	5283.75
933.074	5356.75
933.307	5295.75
933.539	5345.75
933.771	5408.75
934.003	5326.75
934.236	5391.75
934.468	5399.75
934.7	5298.75
934.932	5305.75
935.164	5311.75
935.395	5245.75
935.627	5212.75
935.859	5225.75
936.091	5113.75
936.323	5191.75
936.554	5193.75
936.786	5130.75
937.017	5059.75
937.249	5070.75
937.481	5057.75
937.712	5087.75
937.943	5042.75
938.175	5051.75
938.406	4976.75
938.637	5110.75
938.869	4984.75
939.1	5022.75
939.331	4985.75
939.562	4987.75
939.793	4971.75
940.024	4919.75
940.255	4938.75
940.486	4901.75
940.717	4856.75
940.948	4801.75
941.179	4745.75
941.409	4824.75
941.64	4807.75
941.871	4785.75
942.102	4810.75
942.332	4764.75
942.563	4810.75
942.793	4771.75
943.024	4753.75
943.254	4746.75
943.484	4789.75
943.715	4786.75
943.945	4752.75
944.175	4704.75
944.405	4681.75
944.636	4659.75
944.866	4674.75
945.096	4712.75
945.326	4632.75
945.556	4699.75
945.786	4660.75
946.016	4570.75
946.245	4532.75
946.475	4522.75
946.705	4457.75
946.935	4451.75
947.164	4516.75
947.394	4425.75
947.624	4395.75
947.853	4468.75
948.083	4443.75
948.312	4318.75
948.542	4319.75
948.771	4250.75
949	4306.75
949.23	4276.75
949.459	4281.75
949.688	4382.75
949.917	4334.75
950.146	4279.75
950.375	4348.75
950.604	4240.75
950.833	4319.75
951.062	4329.75
951.291	4263.75
951.52	4218.75
951.749	4215.75
951.978	4174.75
952.206	4171.75
952.435	4159.75
952.664	4177.75
952.892	4234.75
953.121	4166.75
953.349	4201.75
953.578	4127.75
953.806	4128.75
954.035	4003.75
954.263	4047.75
954.491	3965.75
954.719	4047.75
954.948	4004.75
955.176	3950.75
955.404	3909.75
955.632	3953.75
955.86	3955.75
956.088	3935.75
956.316	3892.75
956.544	3891.75
956.772	3836.75
956.999	3841.75
957.227	3921.75
957.455	3762.75
957.683	3762.75
957.91	3723.75
958.138	3694.75
958.365	3690.75
958.593	3711.75
958.82	3641.75
959.048	3706.75
959.275	3691.75
959.502	3694.75
959.73	3586.75
959.957	3654.75
960.184	3710.75
960.411	3639.75
960.638	3694.75
960.865	3588.75
961.092	3627.75
961.319	3568.75
961.546	3655.75
961.773	3586.75
962	3612.75
962.227	3664.75
962.454	3585.75
962.68	3540.75
962.907	3565.75
963.134	3517.75
963.36	3510.75
963.587	3554.75
963.813	3346.75
964.04	3428.75
964.266	3372.75
964.493	3454.75
964.719	3440.75
964.945	3403.75
965.171	3310.75
965.398	3334.75
965.624	3381.75
965.85	3272.75
966.076	3260.75
966.302	3318.75
966.528	3264.75
966.754	3293.75
966.98	3294.75
967.206	3228.75
967.431	3157.75
967.657	3239.75
967.883	3245.75
968.109	3245.75
968.334	3126.75
968.56	3158.75
968.785	3157.75
969.011	3104.75
969.236	3191.75
969.462	3088.75
969.687	3122.75
969.912	3178.75
970.138	3163.75
970.363	3090.75
970.588	3123.75
970.813	3055.75
971.038	3070.75
971.263	3085.75
971.488	3055.75
971.713	3071.75
971.938	3065.75
972.163	2927.75
972.388	2954.75
972.613	2943.75
972.838	3019.75
973.062	2920.75
973.287	2932.75
973.512	2871.75
973.736	2877.75
973.961	2895.75
974.185	2818.75
974.41	2855.75
974.634	2747.75
974.858	2769.75
975.083	2793.75
975.307	2817.75
975.531	2797.75
975.755	2712.75
975.98	2692.75
976.204	2633.75
976.428	2636.75
976.652	2682.75
976.876	2639.75
977.1	2693.75
977.324	2617.75
977.547	2656.75
977.771	2657.75
977.995	2645.75
978.219	2586.75
978.442	2677.75
978.666	2609.75
978.89	2580.75
979.113	2625.75
979.337	2593.75
979.56	2516.75
979.783	2628.75
980.007	2510.75
980.23	2520.75
980.453	2509.75
980.677	2551.75
980.9	2517.75
981.123	2425.75
981.346	2511.75
981.569	2483.75
981.792	2514.75
982.015	2462.75
982.238	2411.75
982.461	2415.75
982.684	2375.75
982.907	2347.75
983.129	2338.75
983.352	2377.75
983.575	2349.75
983.797	2340.75
984.02	2284.75
984.242	2342.75
984.465	2299.75
984.687	2345.75
984.91	2331.75
985.132	2309.75
985.354	2344.75
985.577	2324.75
985.799	2305.75
986.021	2201.75
986.243	2242.75
986.465	2227.75
986.687	2265.75
986.909	2320.75
987.131	2235.75
987.353	2198.75
987.575	2252.75
987.797	2218.75
988.019	2135.75
988.241	2222.75
988.462	2158.75
988.684	2179.75
988.906	2222.75
989.127	2231.75
989.349	2091.75
989.57	2145.75
989.792	2197.75
990.013	2208.75
990.234	2187.75
990.456	2190.75
990.677	2206.75
990.898	2108.75
991.119	2110.75
991.341	2150.75
991.562	2076.75
991.783	2115.75
992.004	2053.75
992.225	2010.75
992.446	2067.75
992.667	1994.75
992.887	2065.75
993.108	1938.75
993.329	2065.75
993.55	1986.75
993.77	1957.75
993.991	1936.75
994.212	2011.75
994.432	1984.75
994.653	1983.75
994.873	1998.75
995.093	1841.75
995.314	1842.75
995.534	1958.75
995.754	1972.75
995.975	1956.75
996.195	1842.75
996.415	1906.75
996.635	1906.75
996.855	1869.75
997.075	1872.75
997.295	1870.75
997.515	1835.75
997.735	1907.75
997.955	1884.75
998.174	1889.75
998.394	1845.75
998.614	1906.75
998.834	1850.75
999.053	1905.75
999.273	1855.75
999.492	1888.75
999.712	1849.75
999.931	1828.75
1000.151	1855.75
1000.37	1842.75
1000.589	1901.75
1000.809	1801.75
1001.028	1914.75
1001.247	1846.75
1001.466	1749.75
1001.685	1847.75
1001.904	1792.75
1002.123	1801.75
1002.342	1800.75
1002.561	1731.75
1002.78	1777.75
1002.999	1800.75
1003.218	1791.75
1003.436	1730.75
1003.655	1767.75
1003.874	1721.75
1004.092	1715.75
1004.311	1790.75
1004.53	1744.75
1004.748	1805.75
1004.966	1729.75
1005.185	1779.75
1005.403	1768.75
1005.622	1726.75
1005.84	1796.75
1006.058	1683.75
1006.276	1703.75
1006.494	2090.75
1006.712	1707.75
1006.931	1807.75
1007.149	1678.75
1007.367	1668.75
1007.584	1714.75
1007.802	1751.75
1008.02	1690.75
1008.238	1791.75
1008.456	1774.75
1008.673	1663.75
1008.891	1754.75
1009.109	1726.75
1009.326	1782.75
1009.544	1815.75
1009.761	1746.75
1009.979	1796.75
1010.196	1827.75
1010.413	1895.75
1010.631	1934.75
1010.848	1928.75
1011.065	1987.75
1011.282	1881.75
1011.5	1846.75
1011.717	1936.75
1011.934	1913.75
1012.151	1904.75
1012.368	1912.75
1012.585	1830.75
1012.801	1889.75
1013.018	1890.75
1013.235	1831.75
1013.452	1850.75
1013.669	1849.75
1013.885	1851.75
1014.102	1902.75
1014.318	1860.75
1014.535	1814.75
1014.751	1868.75
1014.968	1832.75
1015.184	1850.75
1015.401	1747.75
1015.617	1802.75
1015.833	1735.75
1016.049	1756.75
1016.266	1704.75
1016.482	1719.75
1016.698	1674.75
1016.914	1713.75
1017.13	1670.75
1017.346	1653.75
1017.562	1726.75
1017.778	1652.75
1017.993	1632.75
1018.209	1688.75
1018.425	1659.75
1018.641	1661.75
1018.856	1641.75
1019.072	1648.75
1019.288	1698.75
1019.503	1630.75
1019.719	1534.75
1019.934	1560.75
1020.149	1640.75
1020.365	1566.75
1020.58	1534.75
1020.795	1552.75
1021.011	1495.75
1021.226	1476.75
1021.441	1495.75
1021.656	1407.75
1021.871	1355.75
1022.086	1340.75
1022.301	1342.75
1022.516	1305.75
1022.731	1381.75
1022.946	1288.75
1023.16	1296.75
1023.375	1240.75
1023.59	1255.75
1023.804	1196.75
1024.019	1276.75
1024.234	1166.75
1024.448	1176.75
1024.663	1098.75
1024.877	1140.75
1025.092	1131.75
1025.306	1176.75
1025.52	1036.75
1025.734	1143.75
1025.949	1075.75
1026.163	1036.75
1026.377	971.75
1026.591	1013.75
1026.805	953.75
1027.019	965.75
1027.233	902.75
1027.447	851.75
1027.661	955.75
1027.875	883.75
1028.088	885.75
1028.302	813.75
1028.516	802.75
1028.73	799.75
1028.943	803.75
1029.157	740.75
1029.37	698.75
1029.584	-2.25
1029.797	2.75
1030.011	-3.25
1030.224	0.75
