Data from QEP037381__86__13-48-04-641.txt Node

Date: Fri Apr 28 13:48:04 EDT 2023
User: dcclab
Spectrometer: QEP03738
Trigger mode: 4
Integration Time (sec): 1.000000E1
Scans to average: 1
Electric dark correction enabled: true
Nonlinearity correction enabled: false
Boxcar width: 0
XAxis mode: Wavelengths
Number of Pixels in Spectrum: 1044
>>>>>Begin Spectral Data<<<<<
784.041	15.75
784.3	2.75
784.558	-3.25
784.817	-5.25
785.075	70771.75
785.334	13960.75
785.592	7177.75
785.851	5044.75
786.109	3820.75
786.368	3019.75
786.626	2440.75
786.884	2036.75
787.143	1688.75
787.401	1368.75
787.659	1262.75
787.917	1084.75
788.175	1004.75
788.433	886.75
788.691	801.75
788.949	759.75
789.207	726.75
789.465	628.75
789.723	616.75
789.98	563.75
790.238	598.75
790.496	538.75
790.753	543.75
791.011	590.75
791.268	497.75
791.526	493.75
791.783	520.75
792.041	495.75
792.298	416.75
792.556	489.75
792.813	455.75
793.07	450.75
793.327	426.75
793.584	507.75
793.841	431.75
794.099	451.75
794.356	514.75
794.613	416.75
794.869	464.75
795.126	414.75
795.383	405.75
795.64	418.75
795.897	372.75
796.153	441.75
796.41	430.75
796.667	401.75
796.923	409.75
797.18	420.75
797.436	431.75
797.693	402.75
797.949	456.75
798.206	498.75
798.462	399.75
798.718	466.75
798.974	434.75
799.231	484.75
799.487	466.75
799.743	477.75
799.999	505.75
800.255	490.75
800.511	489.75
800.767	515.75
801.023	531.75
801.279	551.75
801.534	594.75
801.79	642.75
802.046	669.75
802.302	840.75
802.557	942.75
802.813	1213.75
803.068	1525.75
803.324	2116.75
803.579	2971.75
803.835	4206.75
804.09	5800.75
804.345	7490.75
804.601	9213.75
804.856	10733.75
805.111	11947.75
805.366	12679.75
805.621	13228.75
805.876	13547.75
806.131	13801.75
806.386	14023.75
806.641	14171.75
806.896	14429.75
807.151	14778.75
807.406	14976.75
807.661	15106.75
807.915	15473.75
808.17	15764.75
808.425	15917.75
808.679	15985.75
808.934	16294.75
809.188	16492.75
809.443	16774.75
809.697	16849.75
809.951	16976.75
810.206	17166.75
810.46	17323.75
810.714	17488.75
810.968	17585.75
811.223	17802.75
811.477	17885.75
811.731	17979.75
811.985	18049.75
812.239	18124.75
812.493	18299.75
812.747	18349.75
813	18423.75
813.254	18512.75
813.508	18554.75
813.762	18675.75
814.015	18666.75
814.269	18843.75
814.522	19027.75
814.776	19324.75
815.03	19513.75
815.283	19652.75
815.536	20085.75
815.79	20241.75
816.043	20624.75
816.296	20943.75
816.55	21116.75
816.803	21404.75
817.056	21730.75
817.309	21858.75
817.562	22039.75
817.815	22494.75
818.068	22587.75
818.321	22806.75
818.574	23248.75
818.827	23623.75
819.079	23855.75
819.332	24247.75
819.585	24549.75
819.838	24889.75
820.09	24934.75
820.343	25291.75
820.595	25372.75
820.848	25549.75
821.1	25660.75
821.353	25571.75
821.605	25502.75
821.857	25598.75
822.11	25472.75
822.362	25408.75
822.614	25384.75
822.866	25436.75
823.118	25375.75
823.37	25562.75
823.622	25562.75
823.874	25491.75
824.126	25791.75
824.378	25837.75
824.63	25882.75
824.882	25912.75
825.134	25816.75
825.385	25847.75
825.637	25689.75
825.888	25773.75
826.14	25536.75
826.392	25432.75
826.643	25198.75
826.895	25183.75
827.146	25166.75
827.397	25020.75
827.649	25085.75
827.9	25044.75
828.151	24985.75
828.402	25054.75
828.653	25083.75
828.905	25197.75
829.156	25260.75
829.407	25198.75
829.658	25118.75
829.909	25146.75
830.159	25081.75
830.41	24994.75
830.661	24779.75
830.912	24652.75
831.162	24562.75
831.413	24595.75
831.664	24597.75
831.914	24574.75
832.165	24480.75
832.415	24420.75
832.666	24482.75
832.916	24536.75
833.167	24283.75
833.417	24404.75
833.667	24180.75
833.917	24170.75
834.168	24154.75
834.418	24015.75
834.668	23891.75
834.918	23831.75
835.168	23702.75
835.418	23599.75
835.668	23621.75
835.918	23718.75
836.167	23466.75
836.417	23528.75
836.667	23376.75
836.917	23353.75
837.166	23309.75
837.416	23279.75
837.666	23143.75
837.915	23110.75
838.165	23073.75
838.414	22962.75
838.663	22845.75
838.913	22846.75
839.162	22773.75
839.411	22810.75
839.661	22643.75
839.91	22609.75
840.159	22629.75
840.408	22501.75
840.657	22664.75
840.906	22601.75
841.155	22607.75
841.404	22541.75
841.653	22599.75
841.902	22574.75
842.15	22557.75
842.399	22539.75
842.648	22415.75
842.897	22330.75
843.145	22177.75
843.394	22217.75
843.642	21932.75
843.891	21914.75
844.139	21769.75
844.388	21571.75
844.636	21407.75
844.884	21506.75
845.133	21390.75
845.381	21477.75
845.629	21443.75
845.877	21355.75
846.125	21433.75
846.373	21320.75
846.621	21200.75
846.869	21224.75
847.117	21011.75
847.365	20955.75
847.613	20804.75
847.861	20725.75
848.108	20763.75
848.356	20772.75
848.604	20722.75
848.851	20764.75
849.099	20789.75
849.346	20748.75
849.594	20859.75
849.841	20788.75
850.089	20915.75
850.336	20837.75
850.583	20832.75
850.831	20756.75
851.078	20524.75
851.325	20632.75
851.572	20586.75
851.819	20188.75
852.066	19895.75
852.313	19762.75
852.56	19536.75
852.807	19524.75
853.054	19362.75
853.301	19394.75
853.548	19369.75
853.794	19554.75
854.041	19560.75
854.288	19622.75
854.534	19790.75
854.781	19753.75
855.028	19554.75
855.274	19552.75
855.52	19464.75
855.767	19270.75
856.013	19279.75
856.26	19472.75
856.506	19115.75
856.752	19040.75
856.998	19094.75
857.244	19067.75
857.49	19235.75
857.736	19141.75
857.982	19193.75
858.228	19171.75
858.474	19022.75
858.72	18859.75
858.966	18663.75
859.212	18510.75
859.458	18332.75
859.703	18287.75
859.949	17988.75
860.195	17907.75
860.44	17774.75
860.686	17681.75
860.931	17610.75
861.177	17507.75
861.422	17577.75
861.667	17503.75
861.913	17521.75
862.158	17505.75
862.403	17567.75
862.648	17628.75
862.893	17703.75
863.138	17509.75
863.384	17526.75
863.629	17510.75
863.873	17426.75
864.118	17301.75
864.363	17199.75
864.608	17205.75
864.853	17129.75
865.098	16984.75
865.342	16858.75
865.587	16831.75
865.832	16768.75
866.076	16778.75
866.321	16630.75
866.565	16678.75
866.81	16560.75
867.054	16573.75
867.298	16499.75
867.543	16498.75
867.787	16439.75
868.031	16513.75
868.275	16359.75
868.519	16355.75
868.764	16365.75
869.008	16261.75
869.252	16263.75
869.496	16128.75
869.739	16132.75
869.983	16199.75
870.227	16168.75
870.471	16091.75
870.715	16201.75
870.958	16138.75
871.202	16199.75
871.446	16202.75
871.689	16088.75
871.933	16122.75
872.176	16099.75
872.42	16103.75
872.663	15993.75
872.906	15881.75
873.15	15763.75
873.393	15718.75
873.636	15670.75
873.879	15555.75
874.122	15467.75
874.366	15163.75
874.609	15175.75
874.852	15012.75
875.095	14990.75
875.337	14939.75
875.58	14849.75
875.823	14758.75
876.066	14784.75
876.309	14743.75
876.551	14572.75
876.794	14610.75
877.037	14617.75
877.279	14470.75
877.522	14495.75
877.764	14537.75
878.007	14475.75
878.249	14438.75
878.491	14346.75
878.734	14519.75
878.976	14396.75
879.218	14205.75
879.46	14141.75
879.702	14105.75
879.945	13989.75
880.187	13902.75
880.429	13730.75
880.671	13658.75
880.912	13675.75
881.154	13587.75
881.396	13528.75
881.638	13512.75
881.88	13574.75
882.121	13549.75
882.363	13442.75
882.605	13495.75
882.846	13417.75
883.088	13457.75
883.329	13334.75
883.571	13304.75
883.812	13294.75
884.053	13442.75
884.295	13526.75
884.536	13711.75
884.777	13586.75
885.018	13547.75
885.259	13565.75
885.5	13385.75
885.742	13537.75
885.982	13396.75
886.223	13260.75
886.464	13185.75
886.705	13095.75
886.946	13083.75
887.187	12832.75
887.428	12723.75
887.668	12552.75
887.909	12418.75
888.15	12295.75
888.39	12319.75
888.631	12275.75
888.871	12116.75
889.111	12030.75
889.352	11936.75
889.592	11858.75
889.833	11743.75
890.073	11634.75
890.313	11706.75
890.553	11491.75
890.793	11521.75
891.033	11512.75
891.273	11375.75
891.513	11279.75
891.753	11284.75
891.993	11319.75
892.233	11271.75
892.473	11334.75
892.713	11384.75
892.952	11278.75
893.192	11335.75
893.432	11293.75
893.671	11243.75
893.911	11202.75
894.15	11116.75
894.39	10950.75
894.629	10921.75
894.869	10850.75
895.108	10809.75
895.347	10691.75
895.587	10729.75
895.826	10693.75
896.065	10549.75
896.304	10624.75
896.543	10659.75
896.782	10542.75
897.021	10575.75
897.26	10523.75
897.499	10520.75
897.738	10500.75
897.977	10368.75
898.216	10297.75
898.454	10303.75
898.693	10036.75
898.932	10154.75
899.17	10048.75
899.409	10061.75
899.647	10038.75
899.886	10025.75
900.124	10056.75
900.363	9973.75
900.601	9981.75
900.839	10002.75
901.078	10011.75
901.316	10057.75
901.554	10139.75
901.792	10080.75
902.03	10011.75
902.268	10090.75
902.506	10072.75
902.744	9937.75
902.982	9904.75
903.22	9707.75
903.458	9593.75
903.695	9495.75
903.933	9420.75
904.171	9209.75
904.409	9098.75
904.646	9085.75
904.884	8860.75
905.121	8844.75
905.359	8779.75
905.596	8708.75
905.833	8609.75
906.071	8600.75
906.308	8661.75
906.545	8581.75
906.783	8454.75
907.02	8534.75
907.257	8511.75
907.494	8462.75
907.731	8428.75
907.968	8386.75
908.205	8344.75
908.442	8278.75
908.679	8277.75
908.915	8201.75
909.152	8111.75
909.389	8053.75
909.626	7962.75
909.862	7949.75
910.099	7910.75
910.335	7862.75
910.572	7768.75
910.808	7782.75
911.045	7791.75
911.281	7713.75
911.518	7795.75
911.754	7674.75
911.99	7631.75
912.226	7560.75
912.463	7499.75
912.699	7499.75
912.935	7432.75
913.171	7447.75
913.407	7255.75
913.643	7317.75
913.879	7197.75
914.114	7090.75
914.35	7071.75
914.586	6982.75
914.822	6843.75
915.057	6939.75
915.293	6759.75
915.529	6737.75
915.764	6786.75
916	6827.75
916.235	6757.75
916.471	6844.75
916.706	6670.75
916.941	6710.75
917.177	6696.75
917.412	6779.75
917.647	6762.75
917.882	6647.75
918.117	6726.75
918.352	6627.75
918.588	6669.75
918.823	6571.75
919.057	6437.75
919.292	6382.75
919.527	6366.75
919.762	6234.75
919.997	6286.75
920.232	6144.75
920.466	6169.75
920.701	5939.75
920.935	6007.75
921.17	5960.75
921.405	5887.75
921.639	5922.75
921.873	5897.75
922.108	5916.75
922.342	5911.75
922.576	5815.75
922.811	5808.75
923.045	5842.75
923.279	5808.75
923.513	5693.75
923.747	5772.75
923.981	5717.75
924.215	5603.75
924.449	5638.75
924.683	5505.75
924.917	5527.75
925.151	5480.75
925.385	5536.75
925.618	5564.75
925.852	5463.75
926.086	5381.75
926.319	5457.75
926.553	5389.75
926.786	5452.75
927.02	5436.75
927.253	5419.75
927.486	5424.75
927.72	5338.75
927.953	5421.75
928.186	5341.75
928.42	5313.75
928.653	5279.75
928.886	5244.75
929.119	5228.75
929.352	5214.75
929.585	5184.75
929.818	5103.75
930.051	5124.75
930.284	5089.75
930.516	4994.75
930.749	4934.75
930.982	5028.75
931.215	4976.75
931.447	4860.75
931.68	4885.75
931.912	4823.75
932.145	4898.75
932.377	4901.75
932.61	4988.75
932.842	4792.75
933.074	4893.75
933.307	4783.75
933.539	4905.75
933.771	4884.75
934.003	4859.75
934.236	4916.75
934.468	4939.75
934.7	4806.75
934.932	4876.75
935.164	4782.75
935.395	4744.75
935.627	4789.75
935.859	4768.75
936.091	4643.75
936.323	4738.75
936.554	4745.75
936.786	4671.75
937.017	4576.75
937.249	4631.75
937.481	4531.75
937.712	4630.75
937.943	4579.75
938.175	4581.75
938.406	4581.75
938.637	4573.75
938.869	4476.75
939.1	4550.75
939.331	4522.75
939.562	4520.75
939.793	4510.75
940.024	4503.75
940.255	4566.75
940.486	4483.75
940.717	4407.75
940.948	4398.75
941.179	4379.75
941.409	4413.75
941.64	4360.75
941.871	4369.75
942.102	4346.75
942.332	4357.75
942.563	4403.75
942.793	4332.75
943.024	4341.75
943.254	4288.75
943.484	4372.75
943.715	4385.75
943.945	4331.75
944.175	4269.75
944.405	4289.75
944.636	4291.75
944.866	4281.75
945.096	4289.75
945.326	4217.75
945.556	4267.75
945.786	4306.75
946.016	4178.75
946.245	4153.75
946.475	4108.75
946.705	4112.75
946.935	4069.75
947.164	4083.75
947.394	4005.75
947.624	4022.75
947.853	4062.75
948.083	4027.75
948.312	4012.75
948.542	3928.75
948.771	3914.75
949	3909.75
949.23	3951.75
949.459	3956.75
949.688	3960.75
949.917	3963.75
950.146	3936.75
950.375	4006.75
950.604	3870.75
950.833	3962.75
951.062	3935.75
951.291	3900.75
951.52	3863.75
951.749	3863.75
951.978	3840.75
952.206	3836.75
952.435	3799.75
952.664	3843.75
952.892	3843.75
953.121	3822.75
953.349	3791.75
953.578	3828.75
953.806	3758.75
954.035	3677.75
954.263	3716.75
954.491	3647.75
954.719	3700.75
954.948	3651.75
955.176	3611.75
955.404	3538.75
955.632	3620.75
955.86	3626.75
956.088	3610.75
956.316	3583.75
956.544	3603.75
956.772	3547.75
956.999	3481.75
957.227	3548.75
957.455	3442.75
957.683	3528.75
957.91	3427.75
958.138	3386.75
958.365	3421.75
958.593	3374.75
958.82	3328.75
959.048	3398.75
959.275	3327.75
959.502	3328.75
959.73	3324.75
959.957	3365.75
960.184	3392.75
960.411	3356.75
960.638	3383.75
960.865	3312.75
961.092	3341.75
961.319	3240.75
961.546	3332.75
961.773	3353.75
962	3285.75
962.227	3322.75
962.454	3282.75
962.68	3284.75
962.907	3265.75
963.134	3189.75
963.36	3217.75
963.587	3232.75
963.813	3156.75
964.04	3214.75
964.266	3106.75
964.493	3196.75
964.719	3165.75
964.945	3145.75
965.171	3029.75
965.398	3097.75
965.624	3100.75
965.85	3001.75
966.076	3034.75
966.302	3016.75
966.528	3016.75
966.754	3003.75
966.98	3020.75
967.206	3000.75
967.431	2933.75
967.657	3026.75
967.883	2952.75
968.109	2922.75
968.334	2918.75
968.56	2895.75
968.785	2924.75
969.011	2867.75
969.236	2919.75
969.462	2847.75
969.687	2893.75
969.912	2920.75
970.138	2923.75
970.363	2824.75
970.588	2856.75
970.813	2834.75
971.038	2789.75
971.263	2849.75
971.488	2828.75
971.713	2818.75
971.938	2849.75
972.163	2689.75
972.388	2752.75
972.613	2730.75
972.838	2722.75
973.062	2712.75
973.287	2705.75
973.512	2622.75
973.736	2645.75
973.961	2645.75
974.185	2626.75
974.41	2659.75
974.634	2585.75
974.858	2571.75
975.083	2581.75
975.307	2586.75
975.531	2552.75
975.755	2512.75
975.98	2512.75
976.204	2457.75
976.428	2466.75
976.652	2451.75
976.876	2451.75
977.1	2451.75
977.324	2404.75
977.547	2466.75
977.771	2459.75
977.995	2433.75
978.219	2381.75
978.442	2504.75
978.666	2433.75
978.89	2418.75
979.113	2404.75
979.337	2409.75
979.56	2348.75
979.783	2434.75
980.007	2286.75
980.23	2376.75
980.453	2334.75
980.677	2364.75
980.9	2331.75
981.123	2245.75
981.346	2328.75
981.569	2313.75
981.792	2317.75
982.015	2281.75
982.238	2203.75
982.461	2249.75
982.684	2177.75
982.907	2202.75
983.129	2164.75
983.352	2234.75
983.575	2214.75
983.797	2201.75
984.02	2128.75
984.242	2152.75
984.465	2168.75
984.687	2165.75
984.91	2174.75
985.132	2112.75
985.354	2147.75
985.577	2150.75
985.799	2108.75
986.021	2047.75
986.243	2072.75
986.465	2076.75
986.687	2141.75
986.909	2149.75
987.131	2098.75
987.353	2075.75
987.575	2058.75
987.797	2005.75
988.019	1990.75
988.241	2029.75
988.462	1988.75
988.684	2048.75
988.906	2089.75
989.127	2071.75
989.349	1977.75
989.57	2024.75
989.792	2039.75
990.013	2035.75
990.234	2006.75
990.456	2056.75
990.677	2041.75
990.898	1955.75
991.119	1935.75
991.341	2012.75
991.562	1930.75
991.783	1993.75
992.004	1879.75
992.225	1868.75
992.446	1894.75
992.667	1819.75
992.887	1916.75
993.108	1806.75
993.329	1965.75
993.55	1858.75
993.77	1844.75
993.991	1820.75
994.212	1870.75
994.432	1813.75
994.653	1834.75
994.873	1842.75
995.093	1706.75
995.314	1729.75
995.534	1861.75
995.754	1854.75
995.975	1882.75
996.195	1768.75
996.415	1789.75
996.635	1785.75
996.855	1804.75
997.075	1770.75
997.295	1763.75
997.515	1724.75
997.735	1796.75
997.955	1745.75
998.174	1739.75
998.394	1696.75
998.614	1788.75
998.834	1717.75
999.053	1794.75
999.273	1735.75
999.492	1767.75
999.712	1729.75
999.931	1678.75
1000.151	1749.75
1000.37	1709.75
1000.589	1770.75
1000.809	1694.75
1001.028	1819.75
1001.247	1716.75
1001.466	1640.75
1001.685	1748.75
1001.904	1690.75
1002.123	1682.75
1002.342	1692.75
1002.561	1629.75
1002.78	1670.75
1002.999	1735.75
1003.218	1668.75
1003.436	1620.75
1003.655	1696.75
1003.874	1628.75
1004.092	1643.75
1004.311	1653.75
1004.53	1610.75
1004.748	1704.75
1004.966	1609.75
1005.185	1685.75
1005.403	1646.75
1005.622	1660.75
1005.84	1695.75
1006.058	1605.75
1006.276	1635.75
1006.494	1984.75
1006.712	1614.75
1006.931	1673.75
1007.149	1566.75
1007.367	1590.75
1007.584	1599.75
1007.802	1667.75
1008.02	1602.75
1008.238	1707.75
1008.456	1698.75
1008.673	1533.75
1008.891	1633.75
1009.109	1594.75
1009.326	1647.75
1009.544	1717.75
1009.761	1629.75
1009.979	1713.75
1010.196	1705.75
1010.413	1763.75
1010.631	1815.75
1010.848	1816.75
1011.065	1846.75
1011.282	1756.75
1011.5	1689.75
1011.717	1802.75
1011.934	1774.75
1012.151	1781.75
1012.368	1749.75
1012.585	1722.75
1012.801	1767.75
1013.018	1740.75
1013.235	1697.75
1013.452	1718.75
1013.669	1727.75
1013.885	1697.75
1014.102	1765.75
1014.318	1703.75
1014.535	1646.75
1014.751	1697.75
1014.968	1696.75
1015.184	1729.75
1015.401	1644.75
1015.617	1630.75
1015.833	1616.75
1016.049	1613.75
1016.266	1614.75
1016.482	1592.75
1016.698	1530.75
1016.914	1584.75
1017.13	1543.75
1017.346	1537.75
1017.562	1591.75
1017.778	1526.75
1017.993	1507.75
1018.209	1546.75
1018.425	1530.75
1018.641	1511.75
1018.856	1485.75
1019.072	1513.75
1019.288	1566.75
1019.503	1499.75
1019.719	1417.75
1019.934	1439.75
1020.149	1494.75
1020.365	1432.75
1020.58	1414.75
1020.795	1443.75
1021.011	1379.75
1021.226	1364.75
1021.441	1402.75
1021.656	1309.75
1021.871	1240.75
1022.086	1262.75
1022.301	1260.75
1022.516	1231.75
1022.731	1318.75
1022.946	1180.75
1023.16	1193.75
1023.375	1156.75
1023.59	1112.75
1023.804	1103.75
1024.019	1180.75
1024.234	1081.75
1024.448	1105.75
1024.663	1019.75
1024.877	1036.75
1025.092	1060.75
1025.306	1050.75
1025.52	972.75
1025.734	1063.75
1025.949	964.75
1026.163	967.75
1026.377	902.75
1026.591	955.75
1026.805	890.75
1027.019	866.75
1027.233	832.75
1027.447	786.75
1027.661	895.75
1027.875	839.75
1028.088	846.75
1028.302	771.75
1028.516	748.75
1028.73	750.75
1028.943	743.75
1029.157	700.75
1029.37	653.75
1029.584	-0.25
1029.797	-2.25
1030.011	-4.25
1030.224	-3.25
