Data from QEP037381__107__13-51-34-644.txt Node

Date: Fri Apr 28 13:51:34 EDT 2023
User: dcclab
Spectrometer: QEP03738
Trigger mode: 4
Integration Time (sec): 1.000000E1
Scans to average: 1
Electric dark correction enabled: true
Nonlinearity correction enabled: false
Boxcar width: 0
XAxis mode: Wavelengths
Number of Pixels in Spectrum: 1044
>>>>>Begin Spectral Data<<<<<
784.041	12.5
784.3	-0.5
784.558	-2.5
784.817	-4.5
785.075	72628.5
785.334	14487.5
785.592	7528.5
785.851	5342.5
786.109	4040.5
786.368	3174.5
786.626	2576.5
786.884	2109.5
787.143	1772.5
787.401	1469.5
787.659	1297.5
787.917	1123.5
788.175	1022.5
788.433	900.5
788.691	831.5
788.949	766.5
789.207	741.5
789.465	613.5
789.723	610.5
789.98	557.5
790.238	599.5
790.496	550.5
790.753	535.5
791.011	581.5
791.268	511.5
791.526	486.5
791.783	503.5
792.041	491.5
792.298	406.5
792.556	460.5
792.813	462.5
793.07	425.5
793.327	419.5
793.584	503.5
793.841	420.5
794.099	440.5
794.356	497.5
794.613	393.5
794.869	435.5
795.126	400.5
795.383	394.5
795.64	417.5
795.897	370.5
796.153	417.5
796.41	411.5
796.667	387.5
796.923	409.5
797.18	391.5
797.436	431.5
797.693	393.5
797.949	443.5
798.206	458.5
798.462	376.5
798.718	444.5
798.974	404.5
799.231	450.5
799.487	453.5
799.743	430.5
799.999	455.5
800.255	447.5
800.511	429.5
800.767	491.5
801.023	453.5
801.279	490.5
801.534	517.5
801.79	559.5
802.046	543.5
802.302	665.5
802.557	751.5
802.813	917.5
803.068	1073.5
803.324	1508.5
803.579	2009.5
803.835	2793.5
804.09	3821.5
804.345	4925.5
804.601	6074.5
804.856	7254.5
805.111	8069.5
805.366	8615.5
805.621	8975.5
805.876	9204.5
806.131	9349.5
806.386	9421.5
806.641	9685.5
806.896	9841.5
807.151	10029.5
807.406	10157.5
807.661	10331.5
807.915	10457.5
808.17	10680.5
808.425	10803.5
808.679	10883.5
808.934	11058.5
809.188	11109.5
809.443	11347.5
809.697	11438.5
809.951	11473.5
810.206	11623.5
810.46	11734.5
810.714	11865.5
810.968	12019.5
811.223	12061.5
811.477	12160.5
811.731	12235.5
811.985	12290.5
812.239	12325.5
812.493	12390.5
812.747	12465.5
813	12431.5
813.254	12518.5
813.508	12654.5
813.762	12694.5
814.015	12766.5
814.269	12835.5
814.522	13009.5
814.776	13099.5
815.03	13295.5
815.283	13451.5
815.536	13723.5
815.79	13831.5
816.043	14042.5
816.296	14214.5
816.55	14346.5
816.803	14533.5
817.056	14846.5
817.309	14879.5
817.562	15015.5
817.815	15208.5
818.068	15341.5
818.321	15527.5
818.574	15741.5
818.827	16089.5
819.079	16124.5
819.332	16564.5
819.585	16703.5
819.838	16918.5
820.09	17100.5
820.343	17231.5
820.595	17224.5
820.848	17339.5
821.1	17570.5
821.353	17513.5
821.605	17484.5
821.857	17470.5
822.11	17341.5
822.362	17286.5
822.614	17391.5
822.866	17323.5
823.118	17306.5
823.37	17550.5
823.622	17487.5
823.874	17537.5
824.126	17599.5
824.378	17624.5
824.63	17696.5
824.882	17696.5
825.134	17640.5
825.385	17640.5
825.637	17557.5
825.888	17565.5
826.14	17427.5
826.392	17343.5
826.643	17226.5
826.895	17308.5
827.146	17226.5
827.397	17150.5
827.649	17246.5
827.9	17102.5
828.151	17065.5
828.402	17166.5
828.653	17300.5
828.905	17152.5
829.156	17238.5
829.407	17203.5
829.658	17236.5
829.909	17185.5
830.159	17176.5
830.41	17027.5
830.661	16942.5
830.912	16878.5
831.162	16839.5
831.413	16892.5
831.664	16766.5
831.914	16828.5
832.165	16722.5
832.415	16840.5
832.666	16766.5
832.916	16765.5
833.167	16722.5
833.417	16695.5
833.667	16592.5
833.917	16662.5
834.168	16604.5
834.418	16575.5
834.668	16349.5
834.918	16228.5
835.168	16287.5
835.418	16290.5
835.668	16164.5
835.918	16232.5
836.167	16218.5
836.417	16055.5
836.667	16097.5
836.917	16011.5
837.166	16088.5
837.416	15986.5
837.666	15958.5
837.915	15798.5
838.165	15840.5
838.414	15774.5
838.663	15656.5
838.913	15587.5
839.162	15579.5
839.411	15673.5
839.661	15502.5
839.91	15592.5
840.159	15463.5
840.408	15554.5
840.657	15546.5
840.906	15521.5
841.155	15560.5
841.404	15378.5
841.653	15545.5
841.902	15417.5
842.15	15461.5
842.399	15537.5
842.648	15397.5
842.897	15379.5
843.145	15245.5
843.394	15188.5
843.642	15033.5
843.891	15131.5
844.139	14957.5
844.388	14884.5
844.636	14707.5
844.884	14798.5
845.133	14727.5
845.381	14766.5
845.629	14804.5
845.877	14755.5
846.125	14634.5
846.373	14741.5
846.621	14611.5
846.869	14576.5
847.117	14536.5
847.365	14435.5
847.613	14372.5
847.861	14347.5
848.108	14324.5
848.356	14233.5
848.604	14213.5
848.851	14267.5
849.099	14263.5
849.346	14257.5
849.594	14292.5
849.841	14374.5
850.089	14399.5
850.336	14403.5
850.583	14319.5
850.831	14265.5
851.078	14255.5
851.325	14230.5
851.572	14181.5
851.819	13972.5
852.066	13742.5
852.313	13539.5
852.56	13417.5
852.807	13382.5
853.054	13395.5
853.301	13369.5
853.548	13373.5
853.794	13549.5
854.041	13502.5
854.288	13499.5
854.534	13647.5
854.781	13594.5
855.028	13593.5
855.274	13497.5
855.52	13432.5
855.767	13302.5
856.013	13242.5
856.26	13475.5
856.506	13173.5
856.752	13099.5
856.998	13074.5
857.244	13137.5
857.49	13196.5
857.736	13245.5
857.982	13221.5
858.228	13182.5
858.474	13106.5
858.72	13091.5
858.966	12930.5
859.212	12851.5
859.458	12652.5
859.703	12578.5
859.949	12442.5
860.195	12395.5
860.44	12336.5
860.686	12170.5
860.931	12181.5
861.177	12036.5
861.422	12197.5
861.667	12055.5
861.913	12142.5
862.158	12127.5
862.403	12269.5
862.648	12229.5
862.893	12247.5
863.138	12245.5
863.384	12164.5
863.629	12155.5
863.873	12078.5
864.118	12041.5
864.363	11985.5
864.608	11870.5
864.853	11823.5
865.098	11699.5
865.342	11694.5
865.587	11728.5
865.832	11715.5
866.076	11687.5
866.321	11584.5
866.565	11571.5
866.81	11551.5
867.054	11520.5
867.298	11469.5
867.543	11406.5
867.787	11473.5
868.031	11441.5
868.275	11440.5
868.519	11378.5
868.764	11345.5
869.008	11292.5
869.252	11361.5
869.496	11220.5
869.739	11262.5
869.983	11227.5
870.227	11214.5
870.471	11201.5
870.715	11217.5
870.958	11151.5
871.202	11178.5
871.446	11183.5
871.689	11192.5
871.933	11231.5
872.176	11191.5
872.42	11146.5
872.663	11112.5
872.906	11076.5
873.15	10997.5
873.393	10862.5
873.636	10873.5
873.879	10785.5
874.122	10735.5
874.366	10564.5
874.609	10630.5
874.852	10471.5
875.095	10379.5
875.337	10356.5
875.58	10273.5
875.823	10293.5
876.066	10324.5
876.309	10306.5
876.551	10194.5
876.794	10141.5
877.037	10175.5
877.279	10113.5
877.522	10183.5
877.764	10113.5
878.007	10170.5
878.249	10118.5
878.491	10119.5
878.734	10114.5
878.976	10127.5
879.218	9913.5
879.46	9927.5
879.702	9862.5
879.945	9756.5
880.187	9725.5
880.429	9602.5
880.671	9569.5
880.912	9546.5
881.154	9543.5
881.396	9424.5
881.638	9459.5
881.88	9478.5
882.121	9425.5
882.363	9426.5
882.605	9423.5
882.846	9431.5
883.088	9374.5
883.329	9357.5
883.571	9246.5
883.812	9288.5
884.053	9356.5
884.295	9473.5
884.536	9515.5
884.777	9427.5
885.018	9349.5
885.259	9392.5
885.5	9389.5
885.742	9511.5
885.982	9337.5
886.223	9112.5
886.464	9185.5
886.705	9101.5
886.946	9091.5
887.187	8961.5
887.428	8903.5
887.668	8806.5
887.909	8752.5
888.15	8595.5
888.39	8600.5
888.631	8594.5
888.871	8514.5
889.111	8456.5
889.352	8424.5
889.592	8290.5
889.833	8363.5
890.073	8179.5
890.313	8282.5
890.553	8055.5
890.793	8111.5
891.033	7997.5
891.273	7996.5
891.513	7967.5
891.753	8039.5
891.993	7949.5
892.233	7953.5
892.473	8009.5
892.713	7941.5
892.952	7932.5
893.192	8006.5
893.432	7911.5
893.671	7965.5
893.911	7847.5
894.15	7780.5
894.39	7683.5
894.629	7731.5
894.869	7664.5
895.108	7633.5
895.347	7525.5
895.587	7605.5
895.826	7573.5
896.065	7447.5
896.304	7530.5
896.543	7487.5
896.782	7429.5
897.021	7456.5
897.26	7351.5
897.499	7444.5
897.738	7476.5
897.977	7288.5
898.216	7295.5
898.454	7220.5
898.693	7161.5
898.932	7164.5
899.17	7110.5
899.409	7031.5
899.647	7066.5
899.886	7082.5
900.124	7006.5
900.363	7032.5
900.601	7031.5
900.839	7120.5
901.078	7075.5
901.316	7093.5
901.554	7054.5
901.792	7061.5
902.03	7097.5
902.268	7042.5
902.506	7049.5
902.744	6981.5
902.982	6975.5
903.22	6825.5
903.458	6788.5
903.695	6728.5
903.933	6715.5
904.171	6520.5
904.409	6491.5
904.646	6478.5
904.884	6293.5
905.121	6329.5
905.359	6254.5
905.596	6209.5
905.833	6108.5
906.071	6067.5
906.308	6123.5
906.545	6114.5
906.783	6046.5
907.02	6095.5
907.257	5993.5
907.494	6045.5
907.731	6011.5
907.968	5982.5
908.205	5964.5
908.442	5933.5
908.679	5887.5
908.915	5798.5
909.152	5776.5
909.389	5669.5
909.626	5685.5
909.862	5651.5
910.099	5593.5
910.335	5627.5
910.572	5534.5
910.808	5574.5
911.045	5514.5
911.281	5521.5
911.518	5547.5
911.754	5480.5
911.99	5433.5
912.226	5403.5
912.463	5340.5
912.699	5321.5
912.935	5290.5
913.171	5264.5
913.407	5232.5
913.643	5225.5
913.879	5132.5
914.114	5087.5
914.35	5065.5
914.586	4996.5
914.822	4954.5
915.057	5024.5
915.293	4830.5
915.529	4829.5
915.764	4883.5
916	4897.5
916.235	4823.5
916.471	4841.5
916.706	4767.5
916.941	4777.5
917.177	4802.5
917.412	4827.5
917.647	4858.5
917.882	4825.5
918.117	4814.5
918.352	4774.5
918.588	4840.5
918.823	4675.5
919.057	4646.5
919.292	4556.5
919.527	4633.5
919.762	4495.5
919.997	4529.5
920.232	4422.5
920.466	4420.5
920.701	4266.5
920.935	4307.5
921.17	4279.5
921.405	4232.5
921.639	4248.5
921.873	4236.5
922.108	4244.5
922.342	4221.5
922.576	4197.5
922.811	4186.5
923.045	4218.5
923.279	4199.5
923.513	4096.5
923.747	4123.5
923.981	4092.5
924.215	4047.5
924.449	4023.5
924.683	3957.5
924.917	4002.5
925.151	4001.5
925.385	4031.5
925.618	3988.5
925.852	3966.5
926.086	3883.5
926.319	3947.5
926.553	3977.5
926.786	3901.5
927.02	3884.5
927.253	3927.5
927.486	3939.5
927.72	3858.5
927.953	3910.5
928.186	3859.5
928.42	3866.5
928.653	3853.5
928.886	3789.5
929.119	3825.5
929.352	3796.5
929.585	3696.5
929.818	3686.5
930.051	3703.5
930.284	3716.5
930.516	3584.5
930.749	3586.5
930.982	3610.5
931.215	3612.5
931.447	3509.5
931.68	3513.5
931.912	3501.5
932.145	3543.5
932.377	3577.5
932.61	3661.5
932.842	3491.5
933.074	3555.5
933.307	3448.5
933.539	3626.5
933.771	3525.5
934.003	3495.5
934.236	3544.5
934.468	3584.5
934.7	3511.5
934.932	3541.5
935.164	3446.5
935.395	3440.5
935.627	3475.5
935.859	3488.5
936.091	3398.5
936.323	3458.5
936.554	3478.5
936.786	3386.5
937.017	3313.5
937.249	3380.5
937.481	3262.5
937.712	3337.5
937.943	3348.5
938.175	3319.5
938.406	3320.5
938.637	3365.5
938.869	3264.5
939.1	3315.5
939.331	3299.5
939.562	3333.5
939.793	3307.5
940.024	3345.5
940.255	3293.5
940.486	3263.5
940.717	3271.5
940.948	3253.5
941.179	3187.5
941.409	3157.5
941.64	3166.5
941.871	3211.5
942.102	3170.5
942.332	3205.5
942.563	3234.5
942.793	3174.5
943.024	3103.5
943.254	3184.5
943.484	3180.5
943.715	3212.5
943.945	3210.5
944.175	3095.5
944.405	3114.5
944.636	3114.5
944.866	3168.5
945.096	3134.5
945.326	3051.5
945.556	3102.5
945.786	3123.5
946.016	3075.5
946.245	3016.5
946.475	3025.5
946.705	3007.5
946.935	3017.5
947.164	3015.5
947.394	2973.5
947.624	2976.5
947.853	3017.5
948.083	2956.5
948.312	2942.5
948.542	2871.5
948.771	2876.5
949	2901.5
949.23	2871.5
949.459	2899.5
949.688	2941.5
949.917	2934.5
950.146	2892.5
950.375	2958.5
950.604	2865.5
950.833	2921.5
951.062	2923.5
951.291	2877.5
951.52	2853.5
951.749	2853.5
951.978	2792.5
952.206	2846.5
952.435	2839.5
952.664	2843.5
952.892	2850.5
953.121	2814.5
953.349	2862.5
953.578	2811.5
953.806	2802.5
954.035	2738.5
954.263	2772.5
954.491	2691.5
954.719	2743.5
954.948	2648.5
955.176	2650.5
955.404	2618.5
955.632	2684.5
955.86	2677.5
956.088	2616.5
956.316	2658.5
956.544	2655.5
956.772	2619.5
956.999	2604.5
957.227	2647.5
957.455	2575.5
957.683	2606.5
957.91	2554.5
958.138	2533.5
958.365	2525.5
958.593	2516.5
958.82	2447.5
959.048	2550.5
959.275	2513.5
959.502	2507.5
959.73	2495.5
959.957	2484.5
960.184	2520.5
960.411	2445.5
960.638	2487.5
960.865	2461.5
961.092	2495.5
961.319	2399.5
961.546	2501.5
961.773	2519.5
962	2439.5
962.227	2509.5
962.454	2479.5
962.68	2418.5
962.907	2451.5
963.134	2378.5
963.36	2376.5
963.587	2427.5
963.813	2349.5
964.04	2394.5
964.266	2299.5
964.493	2385.5
964.719	2344.5
964.945	2343.5
965.171	2276.5
965.398	2324.5
965.624	2347.5
965.85	2243.5
966.076	2279.5
966.302	2302.5
966.528	2272.5
966.754	2281.5
966.98	2279.5
967.206	2273.5
967.431	2190.5
967.657	2270.5
967.883	2274.5
968.109	2235.5
968.334	2173.5
968.56	2186.5
968.785	2205.5
969.011	2148.5
969.236	2238.5
969.462	2133.5
969.687	2177.5
969.912	2181.5
970.138	2246.5
970.363	2135.5
970.588	2155.5
970.813	2142.5
971.038	2103.5
971.263	2146.5
971.488	2150.5
971.713	2170.5
971.938	2179.5
972.163	2074.5
972.388	2101.5
972.613	2052.5
972.838	2076.5
973.062	2053.5
973.287	2050.5
973.512	2020.5
973.736	2036.5
973.961	2020.5
974.185	1963.5
974.41	2070.5
974.634	1915.5
974.858	1944.5
975.083	1957.5
975.307	1978.5
975.531	1933.5
975.755	1886.5
975.98	1888.5
976.204	1853.5
976.428	1849.5
976.652	1839.5
976.876	1832.5
977.1	1877.5
977.324	1794.5
977.547	1870.5
977.771	1883.5
977.995	1874.5
978.219	1787.5
978.442	1908.5
978.666	1828.5
978.89	1838.5
979.113	1862.5
979.337	1842.5
979.56	1795.5
979.783	1909.5
980.007	1763.5
980.23	1793.5
980.453	1789.5
980.677	1803.5
980.9	1806.5
981.123	1683.5
981.346	1793.5
981.569	1773.5
981.792	1776.5
982.015	1759.5
982.238	1697.5
982.461	1750.5
982.684	1706.5
982.907	1688.5
983.129	1651.5
983.352	1687.5
983.575	1681.5
983.797	1691.5
984.02	1638.5
984.242	1658.5
984.465	1690.5
984.687	1712.5
984.91	1693.5
985.132	1672.5
985.354	1690.5
985.577	1657.5
985.799	1669.5
986.021	1554.5
986.243	1588.5
986.465	1624.5
986.687	1664.5
986.909	1681.5
987.131	1627.5
987.353	1612.5
987.575	1651.5
987.797	1585.5
988.019	1513.5
988.241	1601.5
988.462	1544.5
988.684	1622.5
988.906	1632.5
989.127	1634.5
989.349	1518.5
989.57	1557.5
989.792	1585.5
990.013	1613.5
990.234	1593.5
990.456	1654.5
990.677	1595.5
990.898	1551.5
991.119	1536.5
991.341	1579.5
991.562	1519.5
991.783	1547.5
992.004	1506.5
992.225	1468.5
992.446	1548.5
992.667	1439.5
992.887	1542.5
993.108	1427.5
993.329	1544.5
993.55	1519.5
993.77	1440.5
993.991	1431.5
994.212	1452.5
994.432	1452.5
994.653	1453.5
994.873	1453.5
995.093	1360.5
995.314	1414.5
995.534	1450.5
995.754	1484.5
995.975	1489.5
996.195	1384.5
996.415	1430.5
996.635	1421.5
996.855	1454.5
997.075	1404.5
997.295	1401.5
997.515	1402.5
997.735	1423.5
997.955	1397.5
998.174	1400.5
998.394	1353.5
998.614	1409.5
998.834	1390.5
999.053	1458.5
999.273	1377.5
999.492	1440.5
999.712	1398.5
999.931	1371.5
1000.151	1399.5
1000.37	1393.5
1000.589	1451.5
1000.809	1354.5
1001.028	1463.5
1001.247	1405.5
1001.466	1315.5
1001.685	1444.5
1001.904	1400.5
1002.123	1370.5
1002.342	1398.5
1002.561	1352.5
1002.78	1369.5
1002.999	1417.5
1003.218	1361.5
1003.436	1330.5
1003.655	1377.5
1003.874	1336.5
1004.092	1356.5
1004.311	1392.5
1004.53	1352.5
1004.748	1406.5
1004.966	1351.5
1005.185	1408.5
1005.403	1406.5
1005.622	1371.5
1005.84	1451.5
1006.058	1328.5
1006.276	1356.5
1006.494	1722.5
1006.712	1360.5
1006.931	1427.5
1007.149	1313.5
1007.367	1326.5
1007.584	1343.5
1007.802	1388.5
1008.02	1334.5
1008.238	1409.5
1008.456	1387.5
1008.673	1261.5
1008.891	1407.5
1009.109	1343.5
1009.326	1334.5
1009.544	1454.5
1009.761	1334.5
1009.979	1404.5
1010.196	1399.5
1010.413	1459.5
1010.631	1477.5
1010.848	1513.5
1011.065	1485.5
1011.282	1445.5
1011.5	1361.5
1011.717	1490.5
1011.934	1414.5
1012.151	1458.5
1012.368	1460.5
1012.585	1378.5
1012.801	1433.5
1013.018	1406.5
1013.235	1347.5
1013.452	1385.5
1013.669	1407.5
1013.885	1374.5
1014.102	1393.5
1014.318	1364.5
1014.535	1335.5
1014.751	1361.5
1014.968	1366.5
1015.184	1384.5
1015.401	1307.5
1015.617	1389.5
1015.833	1311.5
1016.049	1283.5
1016.266	1290.5
1016.482	1296.5
1016.698	1257.5
1016.914	1263.5
1017.13	1247.5
1017.346	1225.5
1017.562	1309.5
1017.778	1239.5
1017.993	1214.5
1018.209	1259.5
1018.425	1252.5
1018.641	1220.5
1018.856	1185.5
1019.072	1223.5
1019.288	1253.5
1019.503	1225.5
1019.719	1129.5
1019.934	1171.5
1020.149	1244.5
1020.365	1190.5
1020.58	1124.5
1020.795	1180.5
1021.011	1124.5
1021.226	1126.5
1021.441	1148.5
1021.656	1068.5
1021.871	998.5
1022.086	1018.5
1022.301	1001.5
1022.516	1009.5
1022.731	1115.5
1022.946	982.5
1023.16	974.5
1023.375	943.5
1023.59	940.5
1023.804	903.5
1024.019	1000.5
1024.234	892.5
1024.448	938.5
1024.663	872.5
1024.877	874.5
1025.092	892.5
1025.306	902.5
1025.52	814.5
1025.734	922.5
1025.949	836.5
1026.163	822.5
1026.377	761.5
1026.591	815.5
1026.805	727.5
1027.019	749.5
1027.233	699.5
1027.447	657.5
1027.661	756.5
1027.875	714.5
1028.088	720.5
1028.302	635.5
1028.516	625.5
1028.73	640.5
1028.943	634.5
1029.157	597.5
1029.37	564.5
1029.584	-0.5
1029.797	-2.5
1030.011	-0.5
1030.224	-1.5
