Data from QEP037381__85__13-47-54-641.txt Node

Date: Fri Apr 28 13:47:54 EDT 2023
User: dcclab
Spectrometer: QEP03738
Trigger mode: 4
Integration Time (sec): 1.000000E1
Scans to average: 1
Electric dark correction enabled: true
Nonlinearity correction enabled: false
Boxcar width: 0
XAxis mode: Wavelengths
Number of Pixels in Spectrum: 1044
>>>>>Begin Spectral Data<<<<<
784.041	14.38
784.3	-2.62
784.558	0.38
784.817	-4.62
785.075	71859.38
785.334	14510.38
785.592	7450.38
785.851	5241.38
786.109	3980.38
786.368	3130.38
786.626	2555.38
786.884	2146.38
787.143	1821.38
787.401	1503.38
787.659	1318.38
787.917	1154.38
788.175	1069.38
788.433	928.38
788.691	841.38
788.949	778.38
789.207	725.38
789.465	630.38
789.723	627.38
789.98	559.38
790.238	590.38
790.496	573.38
790.753	540.38
791.011	591.38
791.268	523.38
791.526	508.38
791.783	514.38
792.041	496.38
792.298	425.38
792.556	502.38
792.813	479.38
793.07	458.38
793.327	434.38
793.584	524.38
793.841	427.38
794.099	461.38
794.356	522.38
794.613	429.38
794.869	470.38
795.126	425.38
795.383	390.38
795.64	420.38
795.897	373.38
796.153	447.38
796.41	428.38
796.667	424.38
796.923	411.38
797.18	418.38
797.436	441.38
797.693	414.38
797.949	445.38
798.206	491.38
798.462	397.38
798.718	482.38
798.974	451.38
799.231	483.38
799.487	484.38
799.743	492.38
799.999	506.38
800.255	518.38
800.511	473.38
800.767	547.38
801.023	529.38
801.279	562.38
801.534	603.38
801.79	661.38
802.046	693.38
802.302	871.38
802.557	981.38
802.813	1238.38
803.068	1618.38
803.324	2286.38
803.579	3147.38
803.835	4416.38
804.09	6051.38
804.345	7847.38
804.601	9629.38
804.856	11273.38
805.111	12510.38
805.366	13338.38
805.621	13961.38
805.876	14291.38
806.131	14557.38
806.386	14852.38
806.641	15114.38
806.896	15317.38
807.151	15628.38
807.406	15771.38
807.661	16144.38
807.915	16440.38
808.17	16643.38
808.425	16881.38
808.679	16992.38
808.934	17355.38
809.188	17511.38
809.443	17757.38
809.697	17989.38
809.951	18030.38
810.206	18244.38
810.46	18376.38
810.714	18594.38
810.968	18705.38
811.223	18869.38
811.477	19032.38
811.731	19208.38
811.985	19230.38
812.239	19309.38
812.493	19491.38
812.747	19584.38
813	19631.38
813.254	19756.38
813.508	19832.38
813.762	19881.38
814.015	20024.38
814.269	20079.38
814.522	20285.38
814.776	20490.38
815.03	20853.38
815.283	21119.38
815.536	21522.38
815.79	21743.38
816.043	22053.38
816.296	22338.38
816.55	22687.38
816.803	22857.38
817.056	23257.38
817.309	23385.38
817.562	23700.38
817.815	23930.38
818.068	24188.38
818.321	24610.38
818.574	24865.38
818.827	25221.38
819.079	25535.38
819.332	26054.38
819.585	26266.38
819.838	26631.38
820.09	26786.38
820.343	27199.38
820.595	27224.38
820.848	27465.38
821.1	27596.38
821.353	27484.38
821.605	27476.38
821.857	27488.38
822.11	27427.38
822.362	27242.38
822.614	27177.38
822.866	27316.38
823.118	27277.38
823.37	27482.38
823.622	27504.38
823.874	27546.38
824.126	27698.38
824.378	27615.38
824.63	27825.38
824.882	27802.38
825.134	27798.38
825.385	27736.38
825.637	27739.38
825.888	27685.38
826.14	27453.38
826.392	27419.38
826.643	27253.38
826.895	27062.38
827.146	27226.38
827.397	26974.38
827.649	27011.38
827.9	26903.38
828.151	26956.38
828.402	27176.38
828.653	27125.38
828.905	27136.38
829.156	27138.38
829.407	27100.38
829.658	27032.38
829.909	27038.38
830.159	26970.38
830.41	26811.38
830.661	26666.38
830.912	26549.38
831.162	26406.38
831.413	26378.38
831.664	26450.38
831.914	26429.38
832.165	26359.38
832.415	26374.38
832.666	26464.38
832.916	26359.38
833.167	26172.38
833.417	26347.38
833.667	26108.38
833.917	26050.38
834.168	25861.38
834.418	25804.38
834.668	25837.38
834.918	25677.38
835.168	25544.38
835.418	25491.38
835.668	25380.38
835.918	25278.38
836.167	25356.38
836.417	25178.38
836.667	25187.38
836.917	25170.38
837.166	24894.38
837.416	24984.38
837.666	24983.38
837.915	24827.38
838.165	24854.38
838.414	24682.38
838.663	24574.38
838.913	24549.38
839.162	24422.38
839.411	24506.38
839.661	24453.38
839.91	24339.38
840.159	24204.38
840.408	24345.38
840.657	24337.38
840.906	24300.38
841.155	24276.38
841.404	24200.38
841.653	24298.38
841.902	24212.38
842.15	24313.38
842.399	24284.38
842.648	24149.38
842.897	23970.38
843.145	23766.38
843.394	23693.38
843.642	23653.38
843.891	23596.38
844.139	23361.38
844.388	23222.38
844.636	23125.38
844.884	23186.38
845.133	23100.38
845.381	23100.38
845.629	22993.38
845.877	23027.38
846.125	22957.38
846.373	22970.38
846.621	22855.38
846.869	22765.38
847.117	22613.38
847.365	22521.38
847.613	22507.38
847.861	22442.38
848.108	22359.38
848.356	22302.38
848.604	22162.38
848.851	22149.38
849.099	22287.38
849.346	22338.38
849.594	22435.38
849.841	22436.38
850.089	22397.38
850.336	22419.38
850.583	22340.38
850.831	22311.38
851.078	22124.38
851.325	22119.38
851.572	21967.38
851.819	21768.38
852.066	21363.38
852.313	21149.38
852.56	21040.38
852.807	20911.38
853.054	20836.38
853.301	20743.38
853.548	20800.38
853.794	20921.38
854.041	20935.38
854.288	21056.38
854.534	21332.38
854.781	21219.38
855.028	21148.38
855.274	21087.38
855.52	20899.38
855.767	20667.38
856.013	20575.38
856.26	20703.38
856.506	20572.38
856.752	20378.38
856.998	20401.38
857.244	20453.38
857.49	20613.38
857.736	20609.38
857.982	20607.38
858.228	20515.38
858.474	20354.38
858.72	20331.38
858.966	20135.38
859.212	19811.38
859.458	19635.38
859.703	19505.38
859.949	19382.38
860.195	19200.38
860.44	19067.38
860.686	18943.38
860.931	18989.38
861.177	18744.38
861.422	18801.38
861.667	18732.38
861.913	18752.38
862.158	18898.38
862.403	19025.38
862.648	19047.38
862.893	18961.38
863.138	18965.38
863.384	18924.38
863.629	18825.38
863.873	18872.38
864.118	18618.38
864.363	18508.38
864.608	18482.38
864.853	18400.38
865.098	18219.38
865.342	18122.38
865.587	18096.38
865.832	18038.38
866.076	18084.38
866.321	17881.38
866.565	17855.38
866.81	17838.38
867.054	17767.38
867.298	17702.38
867.543	17694.38
867.787	17783.38
868.031	17558.38
868.275	17691.38
868.519	17623.38
868.764	17612.38
869.008	17548.38
869.252	17501.38
869.496	17423.38
869.739	17450.38
869.983	17451.38
870.227	17317.38
870.471	17195.38
870.715	17302.38
870.958	17335.38
871.202	17305.38
871.446	17352.38
871.689	17259.38
871.933	17347.38
872.176	17250.38
872.42	17168.38
872.663	17117.38
872.906	17022.38
873.15	17011.38
873.393	16630.38
873.636	16772.38
873.879	16668.38
874.122	16450.38
874.366	16323.38
874.609	16197.38
874.852	16095.38
875.095	15991.38
875.337	16009.38
875.58	15909.38
875.823	15950.38
876.066	15878.38
876.309	15790.38
876.551	15672.38
876.794	15586.38
877.037	15592.38
877.279	15455.38
877.522	15578.38
877.764	15687.38
878.007	15624.38
878.249	15566.38
878.491	15501.38
878.734	15554.38
878.976	15461.38
879.218	15373.38
879.46	15350.38
879.702	15163.38
879.945	15023.38
880.187	14967.38
880.429	14865.38
880.671	14752.38
880.912	14639.38
881.154	14629.38
881.396	14461.38
881.638	14584.38
881.88	14466.38
882.121	14447.38
882.363	14401.38
882.605	14491.38
882.846	14428.38
883.088	14366.38
883.329	14266.38
883.571	14263.38
883.812	14227.38
884.053	14297.38
884.295	14353.38
884.536	14514.38
884.777	14373.38
885.018	14506.38
885.259	14351.38
885.5	14210.38
885.742	14507.38
885.982	14305.38
886.223	14166.38
886.464	14033.38
886.705	13976.38
886.946	13942.38
887.187	13709.38
887.428	13657.38
887.668	13482.38
887.909	13353.38
888.15	13233.38
888.39	13209.38
888.631	13200.38
888.871	13015.38
889.111	12973.38
889.352	12902.38
889.592	12730.38
889.833	12692.38
890.073	12602.38
890.313	12513.38
890.553	12359.38
890.793	12300.38
891.033	12331.38
891.273	12223.38
891.513	12211.38
891.753	12160.38
891.993	12070.38
892.233	12223.38
892.473	12303.38
892.713	12188.38
892.952	12180.38
893.192	12236.38
893.432	12143.38
893.671	12137.38
893.911	12058.38
894.15	11970.38
894.39	11879.38
894.629	11724.38
894.869	11727.38
895.108	11589.38
895.347	11538.38
895.587	11620.38
895.826	11535.38
896.065	11380.38
896.304	11406.38
896.543	11413.38
896.782	11240.38
897.021	11343.38
897.26	11348.38
897.499	11324.38
897.738	11260.38
897.977	11156.38
898.216	11088.38
898.454	10947.38
898.693	10871.38
898.932	10927.38
899.17	10848.38
899.409	10836.38
899.647	10817.38
899.886	10798.38
900.124	10798.38
900.363	10663.38
900.601	10734.38
900.839	10736.38
901.078	10725.38
901.316	10736.38
901.554	10759.38
901.792	10783.38
902.03	10674.38
902.268	10751.38
902.506	10741.38
902.744	10535.38
902.982	10522.38
903.22	10398.38
903.458	10294.38
903.695	10278.38
903.933	10076.38
904.171	9937.38
904.409	9796.38
904.646	9754.38
904.884	9551.38
905.121	9487.38
905.359	9442.38
905.596	9295.38
905.833	9246.38
906.071	9237.38
906.308	9282.38
906.545	9190.38
906.783	9128.38
907.02	9210.38
907.257	9138.38
907.494	9375.38
907.731	9165.38
907.968	9071.38
908.205	9064.38
908.442	8997.38
908.679	8916.38
908.915	8812.38
909.152	8779.38
909.389	8592.38
909.626	8581.38
909.862	8529.38
910.099	8494.38
910.335	8451.38
910.572	8385.38
910.808	8389.38
911.045	8335.38
911.281	8357.38
911.518	8403.38
911.754	8238.38
911.99	8214.38
912.226	8111.38
912.463	8037.38
912.699	8040.38
912.935	7938.38
913.171	7980.38
913.407	7825.38
913.643	7803.38
913.879	7700.38
914.114	7576.38
914.35	7569.38
914.586	7496.38
914.822	7396.38
915.057	7496.38
915.293	7285.38
915.529	7272.38
915.764	7376.38
916	7315.38
916.235	7283.38
916.471	7242.38
916.706	7202.38
916.941	7213.38
917.177	7173.38
917.412	7175.38
917.647	7242.38
917.882	7109.38
918.117	7224.38
918.352	7158.38
918.588	7173.38
918.823	6999.38
919.057	6910.38
919.292	6831.38
919.527	6898.38
919.762	6741.38
919.997	6717.38
920.232	6600.38
920.466	6605.38
920.701	6395.38
920.935	6467.38
921.17	6421.38
921.405	6310.38
921.639	6420.38
921.873	6287.38
922.108	6315.38
922.342	6319.38
922.576	6288.38
922.811	6234.38
923.045	6254.38
923.279	6297.38
923.513	6157.38
923.747	6185.38
923.981	6125.38
924.215	6039.38
924.449	6031.38
924.683	5954.38
924.917	5932.38
925.151	5907.38
925.385	5909.38
925.618	5909.38
925.852	5910.38
926.086	5794.38
926.319	5854.38
926.553	5883.38
926.786	5776.38
927.02	5750.38
927.253	5791.38
927.486	5847.38
927.72	5733.38
927.953	5752.38
928.186	5728.38
928.42	5743.38
928.653	5661.38
928.886	5637.38
929.119	5665.38
929.352	5611.38
929.585	5529.38
929.818	5477.38
930.051	5488.38
930.284	5444.38
930.516	5320.38
930.749	5308.38
930.982	5375.38
931.215	5340.38
931.447	5207.38
931.68	5230.38
931.912	5195.38
932.145	5237.38
932.377	5243.38
932.61	5331.38
932.842	5166.38
933.074	5257.38
933.307	5158.38
933.539	5234.38
933.771	5281.38
934.003	5218.38
934.236	5317.38
934.468	5261.38
934.7	5231.38
934.932	5201.38
935.164	5183.38
935.395	5204.38
935.627	5168.38
935.859	5086.38
936.091	5046.38
936.323	5094.38
936.554	5040.38
936.786	4986.38
937.017	4950.38
937.249	4984.38
937.481	4876.38
937.712	4972.38
937.943	4912.38
938.175	4854.38
938.406	4904.38
938.637	4906.38
938.869	4868.38
939.1	4889.38
939.331	4847.38
939.562	4868.38
939.793	4823.38
940.024	4841.38
940.255	4846.38
940.486	4879.38
940.717	4846.38
940.948	4838.38
941.179	4749.38
941.409	4726.38
941.64	4677.38
941.871	4678.38
942.102	4682.38
942.332	4704.38
942.563	4729.38
942.793	4669.38
943.024	4629.38
943.254	4602.38
943.484	4645.38
943.715	4664.38
943.945	4638.38
944.175	4526.38
944.405	4565.38
944.636	4559.38
944.866	4588.38
945.096	4600.38
945.326	4519.38
945.556	4573.38
945.786	4540.38
946.016	4469.38
946.245	4424.38
946.475	4412.38
946.705	4410.38
946.935	4351.38
947.164	4375.38
947.394	4276.38
947.624	4285.38
947.853	4347.38
948.083	4307.38
948.312	4302.38
948.542	4218.38
948.771	4192.38
949	4238.38
949.23	4209.38
949.459	4182.38
949.688	4213.38
949.917	4180.38
950.146	4218.38
950.375	4245.38
950.604	4138.38
950.833	4285.38
951.062	4204.38
951.291	4142.38
951.52	4146.38
951.749	4163.38
951.978	4112.38
952.206	4110.38
952.435	4063.38
952.664	4098.38
952.892	4101.38
953.121	4066.38
953.349	4057.38
953.578	4036.38
953.806	3996.38
954.035	3955.38
954.263	3937.38
954.491	3907.38
954.719	3990.38
954.948	3884.38
955.176	3861.38
955.404	3828.38
955.632	3897.38
955.86	3824.38
956.088	3841.38
956.316	3850.38
956.544	3895.38
956.772	3753.38
956.999	3748.38
957.227	3824.38
957.455	3697.38
957.683	3738.38
957.91	3629.38
958.138	3646.38
958.365	3643.38
958.593	3645.38
958.82	3577.38
959.048	3642.38
959.275	3614.38
959.502	3557.38
959.73	3576.38
959.957	3599.38
960.184	3615.38
960.411	3522.38
960.638	3601.38
960.865	3547.38
961.092	3565.38
961.319	3484.38
961.546	3549.38
961.773	3574.38
962	3536.38
962.227	3548.38
962.454	3500.38
962.68	3501.38
962.907	3478.38
963.134	3438.38
963.36	3421.38
963.587	3443.38
963.813	3385.38
964.04	3385.38
964.266	3361.38
964.493	3405.38
964.719	3365.38
964.945	3353.38
965.171	3211.38
965.398	3281.38
965.624	3297.38
965.85	3202.38
966.076	3244.38
966.302	3270.38
966.528	3197.38
966.754	3190.38
966.98	3213.38
967.206	3184.38
967.431	3145.38
967.657	3199.38
967.883	3192.38
968.109	3159.38
968.334	3078.38
968.56	3131.38
968.785	3124.38
969.011	3085.38
969.236	3125.38
969.462	3042.38
969.687	3021.38
969.912	3124.38
970.138	3149.38
970.363	2976.38
970.588	3033.38
970.813	3035.38
971.038	2985.38
971.263	3013.38
971.488	2999.38
971.713	3012.38
971.938	3018.38
972.163	2869.38
972.388	2893.38
972.613	2852.38
972.838	2898.38
973.062	2861.38
973.287	2869.38
973.512	2831.38
973.736	2863.38
973.961	2839.38
974.185	2788.38
974.41	2816.38
974.634	2718.38
974.858	2763.38
975.083	2773.38
975.307	2781.38
975.531	2702.38
975.755	2674.38
975.98	2669.38
976.204	2623.38
976.428	2607.38
976.652	2578.38
976.876	2588.38
977.1	2591.38
977.324	2563.38
977.547	2637.38
977.771	2602.38
977.995	2567.38
978.219	2500.38
978.442	2622.38
978.666	2596.38
978.89	2546.38
979.113	2538.38
979.337	2538.38
979.56	2480.38
979.783	2628.38
980.007	2456.38
980.23	2487.38
980.453	2478.38
980.677	2503.38
980.9	2447.38
981.123	2378.38
981.346	2459.38
981.569	2403.38
981.792	2451.38
982.015	2427.38
982.238	2377.38
982.461	2388.38
982.684	2335.38
982.907	2355.38
983.129	2314.38
983.352	2359.38
983.575	2310.38
983.797	2314.38
984.02	2270.38
984.242	2266.38
984.465	2249.38
984.687	2321.38
984.91	2316.38
985.132	2258.38
985.354	2267.38
985.577	2304.38
985.799	2236.38
986.021	2181.38
986.243	2187.38
986.465	2213.38
986.687	2245.38
986.909	2277.38
987.131	2204.38
987.353	2149.38
987.575	2205.38
987.797	2165.38
988.019	2096.38
988.241	2165.38
988.462	2112.38
988.684	2183.38
988.906	2174.38
989.127	2211.38
989.349	2097.38
989.57	2093.38
989.792	2162.38
990.013	2159.38
990.234	2157.38
990.456	2164.38
990.677	2143.38
990.898	2086.38
991.119	2059.38
991.341	2108.38
991.562	2012.38
991.783	2083.38
992.004	2020.38
992.225	1991.38
992.446	2054.38
992.667	1937.38
992.887	2036.38
993.108	1921.38
993.329	2061.38
993.55	1969.38
993.77	1904.38
993.991	1930.38
994.212	1939.38
994.432	1959.38
994.653	1935.38
994.873	1927.38
995.093	1803.38
995.314	1854.38
995.534	1958.38
995.754	1919.38
995.975	1955.38
996.195	1828.38
996.415	1911.38
996.635	1865.38
996.855	1883.38
997.075	1845.38
997.295	1832.38
997.515	1815.38
997.735	1866.38
997.955	1864.38
998.174	1838.38
998.394	1819.38
998.614	1845.38
998.834	1786.38
999.053	1876.38
999.273	1809.38
999.492	1884.38
999.712	1822.38
999.931	1787.38
1000.151	1841.38
1000.37	1813.38
1000.589	1843.38
1000.809	1771.38
1001.028	1836.38
1001.247	1786.38
1001.466	1688.38
1001.685	1828.38
1001.904	1741.38
1002.123	1741.38
1002.342	1762.38
1002.561	1695.38
1002.78	1727.38
1002.999	1789.38
1003.218	1709.38
1003.436	1674.38
1003.655	1758.38
1003.874	1697.38
1004.092	1704.38
1004.311	1762.38
1004.53	1685.38
1004.748	1772.38
1004.966	1678.38
1005.185	1763.38
1005.403	1731.38
1005.622	1715.38
1005.84	1764.38
1006.058	1660.38
1006.276	1699.38
1006.494	2061.38
1006.712	1713.38
1006.931	1739.38
1007.149	1672.38
1007.367	1646.38
1007.584	1708.38
1007.802	1718.38
1008.02	1678.38
1008.238	1757.38
1008.456	1745.38
1008.673	1588.38
1008.891	1682.38
1009.109	1627.38
1009.326	1722.38
1009.544	1756.38
1009.761	1646.38
1009.979	1721.38
1010.196	1732.38
1010.413	1807.38
1010.631	1817.38
1010.848	1859.38
1011.065	1835.38
1011.282	1781.38
1011.5	1725.38
1011.717	1839.38
1011.934	1750.38
1012.151	1777.38
1012.368	1778.38
1012.585	1703.38
1012.801	1791.38
1013.018	1752.38
1013.235	1707.38
1013.452	1714.38
1013.669	1728.38
1013.885	1725.38
1014.102	1741.38
1014.318	1746.38
1014.535	1676.38
1014.751	1720.38
1014.968	1690.38
1015.184	1726.38
1015.401	1620.38
1015.617	1683.38
1015.833	1590.38
1016.049	1608.38
1016.266	1615.38
1016.482	1621.38
1016.698	1526.38
1016.914	1586.38
1017.13	1542.38
1017.346	1540.38
1017.562	1611.38
1017.778	1541.38
1017.993	1522.38
1018.209	1572.38
1018.425	1563.38
1018.641	1520.38
1018.856	1492.38
1019.072	1511.38
1019.288	1556.38
1019.503	1554.38
1019.719	1456.38
1019.934	1444.38
1020.149	1515.38
1020.365	1461.38
1020.58	1434.38
1020.795	1456.38
1021.011	1408.38
1021.226	1402.38
1021.441	1390.38
1021.656	1339.38
1021.871	1256.38
1022.086	1285.38
1022.301	1243.38
1022.516	1229.38
1022.731	1301.38
1022.946	1204.38
1023.16	1199.38
1023.375	1183.38
1023.59	1169.38
1023.804	1162.38
1024.019	1239.38
1024.234	1076.38
1024.448	1131.38
1024.663	1066.38
1024.877	1080.38
1025.092	1088.38
1025.306	1116.38
1025.52	1012.38
1025.734	1103.38
1025.949	994.38
1026.163	1003.38
1026.377	925.38
1026.591	962.38
1026.805	906.38
1027.019	915.38
1027.233	876.38
1027.447	807.38
1027.661	926.38
1027.875	867.38
1028.088	853.38
1028.302	790.38
1028.516	780.38
1028.73	763.38
1028.943	780.38
1029.157	744.38
1029.37	673.38
1029.584	-1.62
1029.797	1.38
1030.011	-3.62
1030.224	-3.62
