Data from QEP037381__87__13-48-14-641.txt Node

Date: Fri Apr 28 13:48:14 EDT 2023
User: dcclab
Spectrometer: QEP03738
Trigger mode: 4
Integration Time (sec): 1.000000E1
Scans to average: 1
Electric dark correction enabled: true
Nonlinearity correction enabled: false
Boxcar width: 0
XAxis mode: Wavelengths
Number of Pixels in Spectrum: 1044
>>>>>Begin Spectral Data<<<<<
784.041	11.88
784.3	-1.12
784.558	1.88
784.817	-6.12
785.075	73225.88
785.334	14611.88
785.592	7519.88
785.851	5371.88
786.109	4083.88
786.368	3150.88
786.626	2494.88
786.884	2098.88
787.143	1784.88
787.401	1478.88
787.659	1322.88
787.917	1131.88
788.175	1047.88
788.433	919.88
788.691	829.88
788.949	786.88
789.207	723.88
789.465	626.88
789.723	618.88
789.98	572.88
790.238	606.88
790.496	559.88
790.753	537.88
791.011	588.88
791.268	514.88
791.526	496.88
791.783	519.88
792.041	489.88
792.298	410.88
792.556	487.88
792.813	466.88
793.07	452.88
793.327	423.88
793.584	506.88
793.841	428.88
794.099	452.88
794.356	513.88
794.613	408.88
794.869	435.88
795.126	410.88
795.383	389.88
795.64	420.88
795.897	367.88
796.153	447.88
796.41	408.88
796.667	390.88
796.923	390.88
797.18	402.88
797.436	438.88
797.693	398.88
797.949	449.88
798.206	462.88
798.462	385.88
798.718	435.88
798.974	415.88
799.231	453.88
799.487	431.88
799.743	439.88
799.999	471.88
800.255	469.88
800.511	445.88
800.767	485.88
801.023	468.88
801.279	487.88
801.534	528.88
801.79	582.88
802.046	590.88
802.302	709.88
802.557	810.88
802.813	1018.88
803.068	1221.88
803.324	1700.88
803.579	2322.88
803.835	3193.88
804.09	4296.88
804.345	5437.88
804.601	6629.88
804.856	7643.88
805.111	8429.88
805.366	9122.88
805.621	9358.88
805.876	9699.88
806.131	9870.88
806.386	9972.88
806.641	10141.88
806.896	10269.88
807.151	10543.88
807.406	10547.88
807.661	10820.88
807.915	10950.88
808.17	11198.88
808.425	11345.88
808.679	11400.88
808.934	11685.88
809.188	11692.88
809.443	11894.88
809.697	12036.88
809.951	12060.88
810.206	12271.88
810.46	12388.88
810.714	12350.88
810.968	12647.88
811.223	12509.88
811.477	12713.88
811.731	12795.88
811.985	12919.88
812.239	12815.88
812.493	12963.88
812.747	13044.88
813	13081.88
813.254	13167.88
813.508	13225.88
813.762	13299.88
814.015	13306.88
814.269	13428.88
814.522	13594.88
814.776	13751.88
815.03	13802.88
815.283	14019.88
815.536	14315.88
815.79	14550.88
816.043	14744.88
816.296	14851.88
816.55	15045.88
816.803	15254.88
817.056	15522.88
817.309	15501.88
817.562	15746.88
817.815	15989.88
818.068	15978.88
818.321	16264.88
818.574	16549.88
818.827	16642.88
819.079	16934.88
819.332	17259.88
819.585	17395.88
819.838	17690.88
820.09	17683.88
820.343	17946.88
820.595	17986.88
820.848	18089.88
821.1	18200.88
821.353	18150.88
821.605	18092.88
821.857	18205.88
822.11	18014.88
822.362	17932.88
822.614	17992.88
822.866	18038.88
823.118	18047.88
823.37	18216.88
823.622	18101.88
823.874	18221.88
824.126	18386.88
824.378	18349.88
824.63	18446.88
824.882	18410.88
825.134	18340.88
825.385	18376.88
825.637	18360.88
825.888	18147.88
826.14	18143.88
826.392	18135.88
826.643	17921.88
826.895	17897.88
827.146	17883.88
827.397	17772.88
827.649	17811.88
827.9	17705.88
828.151	17761.88
828.402	17792.88
828.653	17961.88
828.905	17900.88
829.156	18031.88
829.407	17888.88
829.658	17948.88
829.909	17909.88
830.159	17935.88
830.41	17767.88
830.661	17650.88
830.912	17530.88
831.162	17458.88
831.413	17485.88
831.664	17545.88
831.914	17409.88
832.165	17470.88
832.415	17498.88
832.666	17442.88
832.916	17396.88
833.167	17395.88
833.417	17394.88
833.667	17335.88
833.917	17184.88
834.168	17247.88
834.418	17277.88
834.668	17127.88
834.918	16979.88
835.168	16947.88
835.418	16725.88
835.668	16742.88
835.918	16812.88
836.167	16716.88
836.417	16645.88
836.667	16634.88
836.917	16680.88
837.166	16601.88
837.416	16532.88
837.666	16495.88
837.915	16447.88
838.165	16437.88
838.414	16332.88
838.663	16271.88
838.913	16403.88
839.162	16188.88
839.411	16345.88
839.661	16194.88
839.91	16170.88
840.159	16171.88
840.408	16148.88
840.657	16213.88
840.906	16147.88
841.155	16157.88
841.404	16079.88
841.653	16130.88
841.902	16061.88
842.15	16180.88
842.399	16213.88
842.648	16052.88
842.897	15938.88
843.145	15890.88
843.394	15783.88
843.642	15757.88
843.891	15692.88
844.139	15646.88
844.388	15480.88
844.636	15351.88
844.884	15483.88
845.133	15414.88
845.381	15358.88
845.629	15364.88
845.877	15252.88
846.125	15298.88
846.373	15370.88
846.621	15227.88
846.869	15270.88
847.117	15178.88
847.365	15041.88
847.613	15021.88
847.861	14918.88
848.108	14974.88
848.356	14920.88
848.604	14821.88
848.851	14828.88
849.099	14874.88
849.346	14935.88
849.594	14956.88
849.841	15032.88
850.089	15019.88
850.336	14939.88
850.583	15126.88
850.831	14874.88
851.078	14803.88
851.325	14830.88
851.572	14838.88
851.819	14644.88
852.066	14290.88
852.313	14185.88
852.56	13991.88
852.807	14033.88
853.054	14025.88
853.301	13958.88
853.548	13991.88
853.794	14090.88
854.041	14068.88
854.288	14178.88
854.534	14357.88
854.781	14229.88
855.028	14138.88
855.274	14133.88
855.52	14025.88
855.767	13961.88
856.013	13915.88
856.26	14084.88
856.506	13785.88
856.752	13807.88
856.998	13798.88
857.244	13775.88
857.49	13846.88
857.736	13856.88
857.982	13855.88
858.228	13823.88
858.474	13688.88
858.72	13662.88
858.966	13516.88
859.212	13382.88
859.458	13265.88
859.703	13064.88
859.949	13002.88
860.195	12926.88
860.44	12889.88
860.686	12825.88
860.931	12807.88
861.177	12617.88
861.422	12629.88
861.667	12625.88
861.913	12561.88
862.158	12727.88
862.403	12723.88
862.648	12725.88
862.893	12810.88
863.138	12679.88
863.384	12645.88
863.629	12663.88
863.873	12666.88
864.118	12561.88
864.363	12353.88
864.608	12398.88
864.853	12301.88
865.098	12247.88
865.342	12207.88
865.587	12184.88
865.832	12199.88
866.076	12044.88
866.321	12120.88
866.565	12075.88
866.81	11944.88
867.054	11948.88
867.298	12017.88
867.543	11894.88
867.787	11975.88
868.031	11929.88
868.275	11857.88
868.519	11923.88
868.764	11875.88
869.008	11830.88
869.252	11828.88
869.496	11844.88
869.739	11777.88
869.983	11811.88
870.227	11833.88
870.471	11722.88
870.715	11821.88
870.958	11822.88
871.202	11768.88
871.446	11862.88
871.689	11802.88
871.933	11852.88
872.176	11802.88
872.42	11716.88
872.663	11684.88
872.906	11678.88
873.15	11543.88
873.393	11457.88
873.636	11508.88
873.879	11370.88
874.122	11281.88
874.366	11113.88
874.609	11070.88
874.852	10960.88
875.095	10961.88
875.337	10928.88
875.58	10809.88
875.823	10888.88
876.066	10837.88
876.309	10814.88
876.551	10701.88
876.794	10685.88
877.037	10678.88
877.279	10600.88
877.522	10595.88
877.764	10567.88
878.007	10667.88
878.249	10569.88
878.491	10521.88
878.734	10530.88
878.976	10526.88
879.218	10404.88
879.46	10360.88
879.702	10276.88
879.945	10190.88
880.187	10137.88
880.429	10098.88
880.671	9938.88
880.912	10036.88
881.154	9944.88
881.396	9858.88
881.638	9963.88
881.88	9879.88
882.121	9824.88
882.363	9844.88
882.605	9836.88
882.846	9841.88
883.088	9767.88
883.329	9852.88
883.571	9791.88
883.812	9757.88
884.053	9968.88
884.295	10019.88
884.536	10239.88
884.777	10132.88
885.018	10017.88
885.259	9996.88
885.5	9948.88
885.742	10151.88
885.982	9919.88
886.223	9756.88
886.464	9727.88
886.705	9563.88
886.946	9612.88
887.187	9423.88
887.428	9448.88
887.668	9206.88
887.909	9106.88
888.15	8981.88
888.39	8961.88
888.631	8932.88
888.871	8901.88
889.111	8771.88
889.352	8808.88
889.592	8647.88
889.833	8606.88
890.073	8575.88
890.313	8582.88
890.553	8417.88
890.793	8431.88
891.033	8345.88
891.273	8287.88
891.513	8284.88
891.753	8373.88
891.993	8332.88
892.233	8361.88
892.473	8373.88
892.713	8340.88
892.952	8261.88
893.192	8327.88
893.432	8267.88
893.671	8301.88
893.911	8187.88
894.15	8122.88
894.39	8042.88
894.629	8088.88
894.869	8029.88
895.108	7919.88
895.347	7860.88
895.587	7923.88
895.826	7837.88
896.065	7817.88
896.304	7824.88
896.543	7858.88
896.782	7755.88
897.021	7804.88
897.26	7798.88
897.499	7762.88
897.738	7729.88
897.977	7711.88
898.216	7599.88
898.454	7627.88
898.693	7495.88
898.932	7534.88
899.17	7471.88
899.409	7414.88
899.647	7406.88
899.886	7377.88
900.124	7467.88
900.363	7403.88
900.601	7420.88
900.839	7481.88
901.078	7518.88
901.316	7441.88
901.554	7465.88
901.792	7610.88
902.03	7536.88
902.268	7530.88
902.506	7485.88
902.744	7417.88
902.982	7381.88
903.22	7163.88
903.458	7179.88
903.695	7111.88
903.933	7025.88
904.171	6836.88
904.409	6788.88
904.646	6771.88
904.884	6664.88
905.121	6604.88
905.359	6482.88
905.596	6495.88
905.833	6377.88
906.071	6397.88
906.308	6445.88
906.545	6357.88
906.783	6310.88
907.02	6331.88
907.257	6218.88
907.494	6299.88
907.731	6261.88
907.968	6266.88
908.205	6205.88
908.442	6161.88
908.679	6099.88
908.915	6094.88
909.152	6030.88
909.389	5909.88
909.626	5916.88
909.862	5853.88
910.099	5883.88
910.335	5835.88
910.572	5745.88
910.808	5830.88
911.045	5763.88
911.281	5725.88
911.518	5753.88
911.754	5691.88
911.99	5694.88
912.226	5650.88
912.463	5536.88
912.699	5526.88
912.935	5505.88
913.171	5413.88
913.407	5387.88
913.643	5422.88
913.879	5317.88
914.114	5213.88
914.35	5241.88
914.586	5234.88
914.822	5151.88
915.057	5162.88
915.293	5027.88
915.529	4983.88
915.764	5144.88
916	5053.88
916.235	5004.88
916.471	5093.88
916.706	4982.88
916.941	4976.88
917.177	4978.88
917.412	5043.88
917.647	4983.88
917.882	4936.88
918.117	4931.88
918.352	4915.88
918.588	4999.88
918.823	4858.88
919.057	4848.88
919.292	4672.88
919.527	4776.88
919.762	4689.88
919.997	4682.88
920.232	4553.88
920.466	4643.88
920.701	4443.88
920.935	4478.88
921.17	4434.88
921.405	4425.88
921.639	4476.88
921.873	4431.88
922.108	4417.88
922.342	4406.88
922.576	4332.88
922.811	4304.88
923.045	4393.88
923.279	4372.88
923.513	4217.88
923.747	4308.88
923.981	4304.88
924.215	4180.88
924.449	4211.88
924.683	4152.88
924.917	4101.88
925.151	4118.88
925.385	4159.88
925.618	4086.88
925.852	4145.88
926.086	4034.88
926.319	4068.88
926.553	4094.88
926.786	4047.88
927.02	4030.88
927.253	4061.88
927.486	4097.88
927.72	4008.88
927.953	4051.88
928.186	3988.88
928.42	4026.88
928.653	3927.88
928.886	3922.88
929.119	3954.88
929.352	3917.88
929.585	3883.88
929.818	3807.88
930.051	3861.88
930.284	3844.88
930.516	3735.88
930.749	3714.88
930.982	3770.88
931.215	3757.88
931.447	3637.88
931.68	3694.88
931.912	3636.88
932.145	3632.88
932.377	3700.88
932.61	3807.88
932.842	3620.88
933.074	3690.88
933.307	3596.88
933.539	3744.88
933.771	3725.88
934.003	3652.88
934.236	3736.88
934.468	3763.88
934.7	3688.88
934.932	3615.88
935.164	3580.88
935.395	3591.88
935.627	3612.88
935.859	3545.88
936.091	3552.88
936.323	3586.88
936.554	3605.88
936.786	3533.88
937.017	3472.88
937.249	3522.88
937.481	3422.88
937.712	3490.88
937.943	3493.88
938.175	3446.88
938.406	3454.88
938.637	3542.88
938.869	3405.88
939.1	3471.88
939.331	3432.88
939.562	3426.88
939.793	3394.88
940.024	3422.88
940.255	3437.88
940.486	3361.88
940.717	3337.88
940.948	3353.88
941.179	3276.88
941.409	3293.88
941.64	3329.88
941.871	3312.88
942.102	3269.88
942.332	3309.88
942.563	3367.88
942.793	3311.88
943.024	3254.88
943.254	3290.88
943.484	3358.88
943.715	3332.88
943.945	3324.88
944.175	3239.88
944.405	3215.88
944.636	3198.88
944.866	3268.88
945.096	3295.88
945.326	3172.88
945.556	3250.88
945.786	3226.88
946.016	3179.88
946.245	3157.88
946.475	3109.88
946.705	3118.88
946.935	3122.88
947.164	3132.88
947.394	3030.88
947.624	3073.88
947.853	3081.88
948.083	3057.88
948.312	3044.88
948.542	3011.88
948.771	2941.88
949	2996.88
949.23	2993.88
949.459	2982.88
949.688	3031.88
949.917	2983.88
950.146	3019.88
950.375	3038.88
950.604	2924.88
950.833	2999.88
951.062	3004.88
951.291	2959.88
951.52	2910.88
951.749	2970.88
951.978	2879.88
952.206	2905.88
952.435	2896.88
952.664	2889.88
952.892	2932.88
953.121	2921.88
953.349	2944.88
953.578	2938.88
953.806	2879.88
954.035	2800.88
954.263	2845.88
954.491	2804.88
954.719	2854.88
954.948	2760.88
955.176	2762.88
955.404	2721.88
955.632	2773.88
955.86	2754.88
956.088	2739.88
956.316	2777.88
956.544	2761.88
956.772	2716.88
956.999	2690.88
957.227	2747.88
957.455	2650.88
957.683	2642.88
957.91	2646.88
958.138	2594.88
958.365	2586.88
958.593	2568.88
958.82	2565.88
959.048	2618.88
959.275	2581.88
959.502	2556.88
959.73	2555.88
959.957	2588.88
960.184	2603.88
960.411	2537.88
960.638	2606.88
960.865	2537.88
961.092	2567.88
961.319	2474.88
961.546	2581.88
961.773	2580.88
962	2522.88
962.227	2559.88
962.454	2535.88
962.68	2506.88
962.907	2526.88
963.134	2466.88
963.36	2503.88
963.587	2477.88
963.813	2448.88
964.04	2450.88
964.266	2395.88
964.493	2469.88
964.719	2416.88
964.945	2411.88
965.171	2322.88
965.398	2378.88
965.624	2413.88
965.85	2336.88
966.076	2345.88
966.302	2357.88
966.528	2294.88
966.754	2357.88
966.98	2337.88
967.206	2318.88
967.431	2269.88
967.657	2308.88
967.883	2328.88
968.109	2303.88
968.334	2271.88
968.56	2234.88
968.785	2240.88
969.011	2206.88
969.236	2270.88
969.462	2226.88
969.687	2225.88
969.912	2256.88
970.138	2290.88
970.363	2191.88
970.588	2202.88
970.813	2225.88
971.038	2150.88
971.263	2206.88
971.488	2204.88
971.713	2248.88
971.938	2198.88
972.163	2080.88
972.388	2179.88
972.613	2110.88
972.838	2127.88
973.062	2130.88
973.287	2093.88
973.512	2055.88
973.736	2098.88
973.961	2068.88
974.185	2033.88
974.41	2072.88
974.634	1975.88
974.858	1999.88
975.083	2021.88
975.307	2076.88
975.531	1973.88
975.755	1949.88
975.98	1972.88
976.204	1870.88
976.428	1917.88
976.652	1908.88
976.876	1880.88
977.1	1938.88
977.324	1899.88
977.547	1950.88
977.771	1921.88
977.995	1902.88
978.219	1848.88
978.442	1968.88
978.666	1877.88
978.89	1884.88
979.113	1895.88
979.337	1910.88
979.56	1845.88
979.783	1926.88
980.007	1813.88
980.23	1836.88
980.453	1830.88
980.677	1871.88
980.9	1837.88
981.123	1720.88
981.346	1823.88
981.569	1793.88
981.792	1832.88
982.015	1802.88
982.238	1752.88
982.461	1759.88
982.684	1742.88
982.907	1702.88
983.129	1755.88
983.352	1755.88
983.575	1708.88
983.797	1733.88
984.02	1679.88
984.242	1672.88
984.465	1683.88
984.687	1706.88
984.91	1733.88
985.132	1724.88
985.354	1741.88
985.577	1694.88
985.799	1674.88
986.021	1635.88
986.243	1653.88
986.465	1679.88
986.687	1702.88
986.909	1747.88
987.131	1704.88
987.353	1637.88
987.575	1660.88
987.797	1624.88
988.019	1588.88
988.241	1651.88
988.462	1603.88
988.684	1637.88
988.906	1690.88
989.127	1699.88
989.349	1591.88
989.57	1607.88
989.792	1645.88
990.013	1658.88
990.234	1665.88
990.456	1685.88
990.677	1644.88
990.898	1575.88
991.119	1598.88
991.341	1614.88
991.562	1573.88
991.783	1575.88
992.004	1528.88
992.225	1498.88
992.446	1566.88
992.667	1486.88
992.887	1553.88
993.108	1451.88
993.329	1573.88
993.55	1539.88
993.77	1453.88
993.991	1481.88
994.212	1525.88
994.432	1463.88
994.653	1518.88
994.873	1511.88
995.093	1403.88
995.314	1422.88
995.534	1500.88
995.754	1519.88
995.975	1527.88
996.195	1418.88
996.415	1465.88
996.635	1450.88
996.855	1470.88
997.075	1482.88
997.295	1434.88
997.515	1422.88
997.735	1467.88
997.955	1431.88
998.174	1431.88
998.394	1402.88
998.614	1441.88
998.834	1395.88
999.053	1479.88
999.273	1448.88
999.492	1502.88
999.712	1429.88
999.931	1387.88
1000.151	1442.88
1000.37	1432.88
1000.589	1499.88
1000.809	1410.88
1001.028	1500.88
1001.247	1446.88
1001.466	1356.88
1001.685	1494.88
1001.904	1413.88
1002.123	1404.88
1002.342	1398.88
1002.561	1352.88
1002.78	1397.88
1002.999	1443.88
1003.218	1407.88
1003.436	1364.88
1003.655	1422.88
1003.874	1333.88
1004.092	1412.88
1004.311	1418.88
1004.53	1357.88
1004.748	1451.88
1004.966	1371.88
1005.185	1429.88
1005.403	1420.88
1005.622	1399.88
1005.84	1455.88
1006.058	1365.88
1006.276	1388.88
1006.494	1735.88
1006.712	1368.88
1006.931	1456.88
1007.149	1348.88
1007.367	1355.88
1007.584	1412.88
1007.802	1443.88
1008.02	1368.88
1008.238	1466.88
1008.456	1455.88
1008.673	1318.88
1008.891	1427.88
1009.109	1362.88
1009.326	1422.88
1009.544	1515.88
1009.761	1417.88
1009.979	1513.88
1010.196	1487.88
1010.413	1562.88
1010.631	1590.88
1010.848	1618.88
1011.065	1617.88
1011.282	1585.88
1011.5	1498.88
1011.717	1610.88
1011.934	1584.88
1012.151	1592.88
1012.368	1553.88
1012.585	1534.88
1012.801	1575.88
1013.018	1531.88
1013.235	1512.88
1013.452	1541.88
1013.669	1514.88
1013.885	1496.88
1014.102	1544.88
1014.318	1499.88
1014.535	1438.88
1014.751	1512.88
1014.968	1500.88
1015.184	1532.88
1015.401	1447.88
1015.617	1493.88
1015.833	1423.88
1016.049	1431.88
1016.266	1424.88
1016.482	1451.88
1016.698	1358.88
1016.914	1422.88
1017.13	1363.88
1017.346	1376.88
1017.562	1432.88
1017.778	1371.88
1017.993	1355.88
1018.209	1405.88
1018.425	1387.88
1018.641	1350.88
1018.856	1348.88
1019.072	1365.88
1019.288	1384.88
1019.503	1371.88
1019.719	1286.88
1019.934	1278.88
1020.149	1388.88
1020.365	1290.88
1020.58	1254.88
1020.795	1302.88
1021.011	1241.88
1021.226	1229.88
1021.441	1252.88
1021.656	1173.88
1021.871	1116.88
1022.086	1107.88
1022.301	1093.88
1022.516	1097.88
1022.731	1163.88
1022.946	1065.88
1023.16	1065.88
1023.375	1014.88
1023.59	992.88
1023.804	997.88
1024.019	1088.88
1024.234	953.88
1024.448	950.88
1024.663	913.88
1024.877	942.88
1025.092	972.88
1025.306	963.88
1025.52	861.88
1025.734	962.88
1025.949	879.88
1026.163	833.88
1026.377	790.88
1026.591	851.88
1026.805	776.88
1027.019	759.88
1027.233	747.88
1027.447	696.88
1027.661	800.88
1027.875	735.88
1028.088	728.88
1028.302	676.88
1028.516	663.88
1028.73	646.88
1028.943	663.88
1029.157	616.88
1029.37	572.88
1029.584	-1.12
1029.797	-2.12
1030.011	-1.12
1030.224	-2.12
