Data from QEP037381__95__13-49-34-642.txt Node

Date: Fri Apr 28 13:49:34 EDT 2023
User: dcclab
Spectrometer: QEP03738
Trigger mode: 4
Integration Time (sec): 1.000000E1
Scans to average: 1
Electric dark correction enabled: true
Nonlinearity correction enabled: false
Boxcar width: 0
XAxis mode: Wavelengths
Number of Pixels in Spectrum: 1044
>>>>>Begin Spectral Data<<<<<
784.041	13.62
784.3	1.62
784.558	-3.38
784.817	-1.38
785.075	72221.62
785.334	14250.62
785.592	7220.62
785.851	5126.62
786.109	3865.62
786.368	3002.62
786.626	2446.62
786.884	2035.62
787.143	1759.62
787.401	1463.62
787.659	1329.62
787.917	1159.62
788.175	1045.62
788.433	901.62
788.691	807.62
788.949	740.62
789.207	726.62
789.465	620.62
789.723	613.62
789.98	564.62
790.238	571.62
790.496	575.62
790.753	537.62
791.011	585.62
791.268	516.62
791.526	501.62
791.783	527.62
792.041	506.62
792.298	431.62
792.556	497.62
792.813	466.62
793.07	454.62
793.327	439.62
793.584	510.62
793.841	443.62
794.099	450.62
794.356	508.62
794.613	415.62
794.869	441.62
795.126	412.62
795.383	395.62
795.64	427.62
795.897	371.62
796.153	449.62
796.41	405.62
796.667	418.62
796.923	423.62
797.18	413.62
797.436	425.62
797.693	398.62
797.949	458.62
798.206	477.62
798.462	379.62
798.718	443.62
798.974	431.62
799.231	462.62
799.487	460.62
799.743	472.62
799.999	483.62
800.255	486.62
800.511	469.62
800.767	511.62
801.023	502.62
801.279	527.62
801.534	549.62
801.79	627.62
802.046	634.62
802.302	772.62
802.557	871.62
802.813	1061.62
803.068	1333.62
803.324	1876.62
803.579	2577.62
803.835	3596.62
804.09	4965.62
804.345	6477.62
804.601	8060.62
804.856	9476.62
805.111	10559.62
805.366	11224.62
805.621	11753.62
805.876	12082.62
806.131	12325.62
806.386	12499.62
806.641	12645.62
806.896	12778.62
807.151	13063.62
807.406	13264.62
807.661	13514.62
807.915	13789.62
808.17	14021.62
808.425	14223.62
808.679	14361.62
808.934	14569.62
809.188	14793.62
809.443	14998.62
809.697	15159.62
809.951	15231.62
810.206	15380.62
810.46	15452.62
810.714	15539.62
810.968	15731.62
811.223	15734.62
811.477	15933.62
811.731	16052.62
811.985	16181.62
812.239	16218.62
812.493	16382.62
812.747	16435.62
813	16490.62
813.254	16594.62
813.508	16705.62
813.762	16704.62
814.015	16734.62
814.269	16941.62
814.522	17040.62
814.776	17195.62
815.03	17493.62
815.283	17767.62
815.536	18049.62
815.79	18152.62
816.043	18498.62
816.296	18743.62
816.55	18932.62
816.803	19142.62
817.056	19527.62
817.309	19684.62
817.562	19882.62
817.815	20178.62
818.068	20330.62
818.321	20580.62
818.574	20819.62
818.827	21227.62
819.079	21453.62
819.332	21813.62
819.585	22071.62
819.838	22423.62
820.09	22509.62
820.343	22835.62
820.595	22883.62
820.848	22980.62
821.1	23191.62
821.353	23123.62
821.605	22994.62
821.857	23057.62
822.11	22910.62
822.362	22909.62
822.614	22897.62
822.866	22945.62
823.118	22961.62
823.37	22999.62
823.622	23097.62
823.874	23133.62
824.126	23266.62
824.378	23286.62
824.63	23311.62
824.882	23410.62
825.134	23453.62
825.385	23320.62
825.637	23298.62
825.888	23276.62
826.14	23032.62
826.392	23020.62
826.643	22906.62
826.895	22807.62
827.146	22748.62
827.397	22703.62
827.649	22607.62
827.9	22622.62
828.151	22642.62
828.402	22603.62
828.653	22759.62
828.905	22744.62
829.156	22917.62
829.407	22750.62
829.658	22663.62
829.909	22728.62
830.159	22629.62
830.41	22511.62
830.661	22374.62
830.912	22237.62
831.162	22207.62
831.413	22206.62
831.664	22173.62
831.914	22199.62
832.165	22150.62
832.415	22175.62
832.666	22143.62
832.916	22172.62
833.167	22137.62
833.417	21975.62
833.667	22007.62
833.917	21894.62
834.168	21802.62
834.418	21678.62
834.668	21614.62
834.918	21541.62
835.168	21400.62
835.418	21359.62
835.668	21361.62
835.918	21437.62
836.167	21315.62
836.417	21161.62
836.667	21220.62
836.917	21140.62
837.166	21017.62
837.416	21072.62
837.666	21014.62
837.915	20935.62
838.165	20818.62
838.414	20690.62
838.663	20693.62
838.913	20694.62
839.162	20650.62
839.411	20681.62
839.661	20486.62
839.91	20420.62
840.159	20457.62
840.408	20358.62
840.657	20435.62
840.906	20494.62
841.155	20566.62
841.404	20482.62
841.653	20333.62
841.902	20416.62
842.15	20401.62
842.399	20388.62
842.648	20320.62
842.897	20202.62
843.145	20130.62
843.394	20091.62
843.642	19876.62
843.891	19808.62
844.139	19646.62
844.388	19587.62
844.636	19484.62
844.884	19526.62
845.133	19412.62
845.381	19388.62
845.629	19380.62
845.877	19419.62
846.125	19259.62
846.373	19269.62
846.621	19229.62
846.869	19199.62
847.117	19060.62
847.365	18913.62
847.613	18858.62
847.861	18899.62
848.108	18830.62
848.356	18810.62
848.604	18637.62
848.851	18686.62
849.099	18784.62
849.346	18826.62
849.594	18827.62
849.841	18933.62
850.089	18856.62
850.336	18931.62
850.583	18860.62
850.831	18772.62
851.078	18698.62
851.325	18675.62
851.572	18566.62
851.819	18365.62
852.066	18032.62
852.313	17760.62
852.56	17711.62
852.807	17651.62
853.054	17563.62
853.301	17464.62
853.548	17550.62
853.794	17610.62
854.041	17719.62
854.288	17827.62
854.534	17859.62
854.781	17801.62
855.028	17730.62
855.274	17813.62
855.52	17526.62
855.767	17485.62
856.013	17420.62
856.26	17584.62
856.506	17240.62
856.752	17336.62
856.998	17222.62
857.244	17112.62
857.49	17327.62
857.736	17351.62
857.982	17299.62
858.228	17310.62
858.474	17197.62
858.72	17119.62
858.966	16928.62
859.212	16913.62
859.458	16623.62
859.703	16386.62
859.949	16184.62
860.195	16184.62
860.44	16070.62
860.686	15949.62
860.931	15967.62
861.177	15825.62
861.422	15834.62
861.667	15740.62
861.913	15827.62
862.158	15895.62
862.403	15838.62
862.648	15979.62
862.893	15995.62
863.138	15988.62
863.384	15853.62
863.629	15951.62
863.873	15849.62
864.118	15832.62
864.363	15598.62
864.608	15647.62
864.853	15476.62
865.098	15514.62
865.342	15364.62
865.587	15246.62
865.832	15238.62
866.076	15212.62
866.321	15131.62
866.565	15155.62
866.81	15017.62
867.054	15047.62
867.298	15007.62
867.543	14938.62
867.787	14972.62
868.031	15013.62
868.275	14852.62
868.519	14887.62
868.764	14837.62
869.008	14693.62
869.252	14727.62
869.496	14660.62
869.739	14637.62
869.983	14659.62
870.227	14594.62
870.471	14532.62
870.715	14628.62
870.958	14650.62
871.202	14612.62
871.446	14605.62
871.689	14549.62
871.933	14584.62
872.176	14579.62
872.42	14580.62
872.663	14471.62
872.906	14463.62
873.15	14293.62
873.393	14199.62
873.636	14232.62
873.879	13994.62
874.122	13936.62
874.366	13745.62
874.609	13715.62
874.852	13660.62
875.095	13612.62
875.337	13498.62
875.58	13418.62
875.823	13408.62
876.066	13418.62
876.309	13347.62
876.551	13286.62
876.794	13185.62
877.037	13238.62
877.279	13144.62
877.522	13129.62
877.764	13238.62
878.007	13144.62
878.249	13226.62
878.491	13117.62
878.734	13165.62
878.976	13070.62
879.218	12973.62
879.46	12937.62
879.702	12774.62
879.945	12792.62
880.187	12606.62
880.429	12568.62
880.671	12490.62
880.912	12473.62
881.154	12413.62
881.396	12213.62
881.638	12373.62
881.88	12306.62
882.121	12335.62
882.363	12245.62
882.605	12245.62
882.846	12176.62
883.088	12155.62
883.329	12003.62
883.571	12021.62
883.812	12093.62
884.053	12083.62
884.295	12242.62
884.536	12310.62
884.777	12180.62
885.018	12203.62
885.259	12119.62
885.5	12141.62
885.742	12254.62
885.982	12020.62
886.223	12003.62
886.464	11872.62
886.705	11809.62
886.946	11736.62
887.187	11569.62
887.428	11532.62
887.668	11406.62
887.909	11322.62
888.15	11173.62
888.39	11219.62
888.631	11130.62
888.871	11081.62
889.111	11007.62
889.352	10855.62
889.592	10801.62
889.833	10724.62
890.073	10603.62
890.313	10747.62
890.553	10484.62
890.793	10494.62
891.033	10443.62
891.273	10458.62
891.513	10449.62
891.753	10291.62
891.993	10284.62
892.233	10357.62
892.473	10489.62
892.713	10385.62
892.952	10293.62
893.192	10300.62
893.432	10209.62
893.671	10310.62
893.911	10200.62
894.15	10117.62
894.39	10036.62
894.629	9975.62
894.869	9950.62
895.108	9922.62
895.347	9819.62
895.587	9835.62
895.826	9695.62
896.065	9685.62
896.304	9686.62
896.543	9703.62
896.782	9600.62
897.021	9641.62
897.26	9626.62
897.499	9594.62
897.738	9605.62
897.977	9573.62
898.216	9428.62
898.454	9385.62
898.693	9255.62
898.932	9226.62
899.17	9172.62
899.409	9146.62
899.647	9067.62
899.886	9153.62
900.124	9077.62
900.363	9065.62
900.601	9035.62
900.839	9147.62
901.078	9119.62
901.316	9156.62
901.554	9210.62
901.792	9148.62
902.03	9102.62
902.268	9182.62
902.506	9118.62
902.744	9051.62
902.982	8998.62
903.22	8861.62
903.458	8761.62
903.695	8678.62
903.933	8545.62
904.171	8432.62
904.409	8374.62
904.646	8294.62
904.884	8102.62
905.121	8125.62
905.359	8023.62
905.596	7901.62
905.833	7818.62
906.071	7831.62
906.308	7918.62
906.545	7848.62
906.783	7819.62
907.02	7879.62
907.257	7728.62
907.494	7751.62
907.731	7774.62
907.968	7716.62
908.205	7655.62
908.442	7600.62
908.679	7585.62
908.915	7531.62
909.152	7477.62
909.389	7303.62
909.626	7326.62
909.862	7259.62
910.099	7287.62
910.335	7268.62
910.572	7219.62
910.808	7150.62
911.045	7169.62
911.281	7110.62
911.518	7131.62
911.754	7028.62
911.99	7024.62
912.226	6952.62
912.463	6868.62
912.699	6814.62
912.935	6788.62
913.171	6713.62
913.407	6647.62
913.643	6692.62
913.879	6597.62
914.114	6489.62
914.35	6459.62
914.586	6375.62
914.822	6270.62
915.057	6370.62
915.293	6182.62
915.529	6245.62
915.764	6258.62
916	6252.62
916.235	6268.62
916.471	6212.62
916.706	6100.62
916.941	6188.62
917.177	6163.62
917.412	6127.62
917.647	6154.62
917.882	6063.62
918.117	6148.62
918.352	6084.62
918.588	6126.62
918.823	5957.62
919.057	6004.62
919.292	5836.62
919.527	5906.62
919.762	5768.62
919.997	5781.62
920.232	5632.62
920.466	5632.62
920.701	5482.62
920.935	5498.62
921.17	5471.62
921.405	5436.62
921.639	5431.62
921.873	5435.62
922.108	5408.62
922.342	5461.62
922.576	5387.62
922.811	5272.62
923.045	5362.62
923.279	5335.62
923.513	5286.62
923.747	5309.62
923.981	5313.62
924.215	5182.62
924.449	5135.62
924.683	5087.62
924.917	5085.62
925.151	5039.62
925.385	5109.62
925.618	5048.62
925.852	5091.62
926.086	4956.62
926.319	5055.62
926.553	5033.62
926.786	4993.62
927.02	4978.62
927.253	5018.62
927.486	5017.62
927.72	4889.62
927.953	4934.62
928.186	4865.62
928.42	4893.62
928.653	4874.62
928.886	4832.62
929.119	4890.62
929.352	4817.62
929.585	4784.62
929.818	4736.62
930.051	4730.62
930.284	4666.62
930.516	4593.62
930.749	4573.62
930.982	4593.62
931.215	4527.62
931.447	4445.62
931.68	4473.62
931.912	4486.62
932.145	4473.62
932.377	4495.62
932.61	4612.62
932.842	4394.62
933.074	4513.62
933.307	4443.62
933.539	4577.62
933.771	4496.62
934.003	4466.62
934.236	4528.62
934.468	4553.62
934.7	4440.62
934.932	4457.62
935.164	4394.62
935.395	4387.62
935.627	4393.62
935.859	4354.62
936.091	4323.62
936.323	4352.62
936.554	4376.62
936.786	4329.62
937.017	4221.62
937.249	4268.62
937.481	4185.62
937.712	4308.62
937.943	4227.62
938.175	4182.62
938.406	4137.62
938.637	4279.62
938.869	4159.62
939.1	4181.62
939.331	4138.62
939.562	4156.62
939.793	4139.62
940.024	4188.62
940.255	4193.62
940.486	4119.62
940.717	4067.62
940.948	4065.62
941.179	4017.62
941.409	4050.62
941.64	3993.62
941.871	4014.62
942.102	3999.62
942.332	4030.62
942.563	4068.62
942.793	4004.62
943.024	3971.62
943.254	4004.62
943.484	4049.62
943.715	4045.62
943.945	4003.62
944.175	3925.62
944.405	3955.62
944.636	3899.62
944.866	3954.62
945.096	3989.62
945.326	3897.62
945.556	3950.62
945.786	3949.62
946.016	3856.62
946.245	3810.62
946.475	3821.62
946.705	3765.62
946.935	3778.62
947.164	3740.62
947.394	3738.62
947.624	3758.62
947.853	3785.62
948.083	3741.62
948.312	3686.62
948.542	3664.62
948.771	3593.62
949	3610.62
949.23	3635.62
949.459	3629.62
949.688	3696.62
949.917	3666.62
950.146	3640.62
950.375	3652.62
950.604	3645.62
950.833	3675.62
951.062	3715.62
951.291	3623.62
951.52	3569.62
951.749	3595.62
951.978	3548.62
952.206	3517.62
952.435	3518.62
952.664	3564.62
952.892	3555.62
953.121	3527.62
953.349	3522.62
953.578	3510.62
953.806	3471.62
954.035	3426.62
954.263	3414.62
954.491	3371.62
954.719	3398.62
954.948	3368.62
955.176	3351.62
955.404	3256.62
955.632	3353.62
955.86	3355.62
956.088	3331.62
956.316	3309.62
956.544	3328.62
956.772	3242.62
956.999	3277.62
957.227	3336.62
957.455	3230.62
957.683	3242.62
957.91	3150.62
958.138	3161.62
958.365	3149.62
958.593	3159.62
958.82	3076.62
959.048	3173.62
959.275	3147.62
959.502	3159.62
959.73	3119.62
959.957	3107.62
960.184	3162.62
960.411	3061.62
960.638	3138.62
960.865	3112.62
961.092	3077.62
961.319	2958.62
961.546	3095.62
961.773	3089.62
962	3050.62
962.227	3113.62
962.454	3028.62
962.68	3036.62
962.907	3066.62
963.134	3005.62
963.36	2987.62
963.587	2963.62
963.813	2934.62
964.04	2963.62
964.266	2871.62
964.493	2962.62
964.719	2916.62
964.945	2892.62
965.171	2767.62
965.398	2871.62
965.624	2890.62
965.85	2768.62
966.076	2829.62
966.302	2830.62
966.528	2830.62
966.754	2823.62
966.98	2806.62
967.206	2837.62
967.431	2747.62
967.657	2797.62
967.883	2790.62
968.109	2776.62
968.334	2710.62
968.56	2737.62
968.785	2694.62
969.011	2666.62
969.236	2716.62
969.462	2692.62
969.687	2691.62
969.912	2703.62
970.138	2718.62
970.363	2645.62
970.588	2665.62
970.813	2614.62
971.038	2609.62
971.263	2611.62
971.488	2640.62
971.713	2654.62
971.938	2653.62
972.163	2497.62
972.388	2549.62
972.613	2571.62
972.838	2562.62
973.062	2514.62
973.287	2474.62
973.512	2475.62
973.736	2485.62
973.961	2474.62
974.185	2466.62
974.41	2474.62
974.634	2384.62
974.858	2380.62
975.083	2424.62
975.307	2416.62
975.531	2327.62
975.755	2315.62
975.98	2342.62
976.204	2272.62
976.428	2288.62
976.652	2286.62
976.876	2268.62
977.1	2290.62
977.324	2262.62
977.547	2337.62
977.771	2338.62
977.995	2286.62
978.219	2196.62
978.442	2286.62
978.666	2255.62
978.89	2238.62
979.113	2223.62
979.337	2246.62
979.56	2172.62
979.783	2270.62
980.007	2164.62
980.23	2194.62
980.453	2152.62
980.677	2202.62
980.9	2184.62
981.123	2103.62
981.346	2200.62
981.569	2159.62
981.792	2201.62
982.015	2132.62
982.238	2069.62
982.461	2127.62
982.684	2066.62
982.907	2050.62
983.129	2036.62
983.352	2091.62
983.575	2055.62
983.797	2026.62
984.02	2027.62
984.242	2018.62
984.465	2030.62
984.687	2034.62
984.91	2050.62
985.132	2075.62
985.354	2057.62
985.577	2006.62
985.799	1983.62
986.021	1902.62
986.243	1947.62
986.465	1921.62
986.687	2002.62
986.909	2021.62
987.131	1956.62
987.353	1936.62
987.575	1918.62
987.797	1889.62
988.019	1848.62
988.241	1929.62
988.462	1855.62
988.684	1929.62
988.906	1948.62
989.127	1940.62
989.349	1856.62
989.57	1899.62
989.792	1942.62
990.013	1957.62
990.234	1916.62
990.456	1963.62
990.677	1909.62
990.898	1834.62
991.119	1840.62
991.341	1917.62
991.562	1815.62
991.783	1851.62
992.004	1779.62
992.225	1761.62
992.446	1792.62
992.667	1750.62
992.887	1809.62
993.108	1736.62
993.329	1841.62
993.55	1749.62
993.77	1718.62
993.991	1717.62
994.212	1764.62
994.432	1731.62
994.653	1737.62
994.873	1743.62
995.093	1615.62
995.314	1641.62
995.534	1736.62
995.754	1748.62
995.975	1744.62
996.195	1669.62
996.415	1669.62
996.635	1669.62
996.855	1658.62
997.075	1639.62
997.295	1637.62
997.515	1610.62
997.735	1681.62
997.955	1651.62
998.174	1636.62
998.394	1608.62
998.614	1670.62
998.834	1629.62
999.053	1703.62
999.273	1646.62
999.492	1727.62
999.712	1650.62
999.931	1614.62
1000.151	1651.62
1000.37	1596.62
1000.589	1680.62
1000.809	1588.62
1001.028	1734.62
1001.247	1638.62
1001.466	1543.62
1001.685	1670.62
1001.904	1608.62
1002.123	1584.62
1002.342	1604.62
1002.561	1538.62
1002.78	1575.62
1002.999	1604.62
1003.218	1574.62
1003.436	1555.62
1003.655	1587.62
1003.874	1533.62
1004.092	1560.62
1004.311	1580.62
1004.53	1545.62
1004.748	1618.62
1004.966	1553.62
1005.185	1599.62
1005.403	1592.62
1005.622	1578.62
1005.84	1632.62
1006.058	1512.62
1006.276	1535.62
1006.494	1903.62
1006.712	1553.62
1006.931	1634.62
1007.149	1506.62
1007.367	1503.62
1007.584	1570.62
1007.802	1571.62
1008.02	1501.62
1008.238	1604.62
1008.456	1606.62
1008.673	1448.62
1008.891	1547.62
1009.109	1488.62
1009.326	1538.62
1009.544	1620.62
1009.761	1509.62
1009.979	1594.62
1010.196	1587.62
1010.413	1645.62
1010.631	1671.62
1010.848	1682.62
1011.065	1688.62
1011.282	1643.62
1011.5	1560.62
1011.717	1680.62
1011.934	1600.62
1012.151	1667.62
1012.368	1624.62
1012.585	1575.62
1012.801	1629.62
1013.018	1598.62
1013.235	1546.62
1013.452	1576.62
1013.669	1590.62
1013.885	1535.62
1014.102	1586.62
1014.318	1544.62
1014.535	1503.62
1014.751	1552.62
1014.968	1543.62
1015.184	1561.62
1015.401	1481.62
1015.617	1532.62
1015.833	1460.62
1016.049	1492.62
1016.266	1462.62
1016.482	1471.62
1016.698	1431.62
1016.914	1452.62
1017.13	1421.62
1017.346	1409.62
1017.562	1477.62
1017.778	1403.62
1017.993	1393.62
1018.209	1420.62
1018.425	1430.62
1018.641	1373.62
1018.856	1357.62
1019.072	1390.62
1019.288	1439.62
1019.503	1382.62
1019.719	1302.62
1019.934	1347.62
1020.149	1407.62
1020.365	1354.62
1020.58	1303.62
1020.795	1337.62
1021.011	1306.62
1021.226	1293.62
1021.441	1289.62
1021.656	1215.62
1021.871	1155.62
1022.086	1177.62
1022.301	1170.62
1022.516	1138.62
1022.731	1204.62
1022.946	1118.62
1023.16	1102.62
1023.375	1084.62
1023.59	1056.62
1023.804	1022.62
1024.019	1138.62
1024.234	1000.62
1024.448	1041.62
1024.663	978.62
1024.877	1007.62
1025.092	1010.62
1025.306	1011.62
1025.52	938.62
1025.734	1001.62
1025.949	936.62
1026.163	916.62
1026.377	885.62
1026.591	898.62
1026.805	825.62
1027.019	837.62
1027.233	792.62
1027.447	748.62
1027.661	851.62
1027.875	784.62
1028.088	795.62
1028.302	738.62
1028.516	738.62
1028.73	712.62
1028.943	697.62
1029.157	651.62
1029.37	606.62
1029.584	-1.38
1029.797	-1.38
1030.011	-2.38
1030.224	-5.38
