Data from QEP037381__41__15-16-05-857.txt Node

Date: Fri Dec 16 15:16:05 EST 2022
User: dcclab
Spectrometer: QEP03738
Trigger mode: 4
Integration Time (sec): 1.000000E1
Scans to average: 1
Electric dark correction enabled: true
Nonlinearity correction enabled: false
Boxcar width: 0
XAxis mode: Wavelengths
Number of Pixels in Spectrum: 1044
>>>>>Begin Spectral Data<<<<<
784.041	13.62
784.3	-1.38
784.558	-5.38
784.817	-4.38
785.075	89399.62
785.334	15464.62
785.592	7226.62
785.851	5048.62
786.109	3746.62
786.368	3037.62
786.626	2390.62
786.884	1983.62
787.143	1696.62
787.401	1410.62
787.659	1268.62
787.917	1110.62
788.175	1013.62
788.433	892.62
788.691	808.62
788.949	781.62
789.207	717.62
789.465	633.62
789.723	601.62
789.98	575.62
790.238	604.62
790.496	559.62
790.753	545.62
791.011	592.62
791.268	521.62
791.526	512.62
791.783	534.62
792.041	519.62
792.298	428.62
792.556	495.62
792.813	491.62
793.07	460.62
793.327	448.62
793.584	535.62
793.841	458.62
794.099	477.62
794.356	527.62
794.613	433.62
794.869	462.62
795.126	445.62
795.383	416.62
795.64	437.62
795.897	407.62
796.153	457.62
796.41	442.62
796.667	425.62
796.923	442.62
797.18	446.62
797.436	457.62
797.693	431.62
797.949	483.62
798.206	522.62
798.462	413.62
798.718	488.62
798.974	464.62
799.231	510.62
799.487	485.62
799.743	500.62
799.999	550.62
800.255	536.62
800.511	516.62
800.767	566.62
801.023	569.62
801.279	597.62
801.534	649.62
801.79	710.62
802.046	727.62
802.302	888.62
802.557	1046.62
802.813	1275.62
803.068	1606.62
803.324	2225.62
803.579	3047.62
803.835	4227.62
804.09	5889.62
804.345	7764.62
804.601	9928.62
804.856	12021.62
805.111	13836.62
805.366	15318.62
805.621	16488.62
805.876	17240.62
806.131	17650.62
806.386	18030.62
806.641	18341.62
806.896	18744.62
807.151	19079.62
807.406	19375.62
807.661	19797.62
807.915	20019.62
808.17	20339.62
808.425	20747.62
808.679	20767.62
808.934	21226.62
809.188	21419.62
809.443	21707.62
809.697	21983.62
809.951	22116.62
810.206	22346.62
810.46	22587.62
810.714	22820.62
810.968	23123.62
811.223	23276.62
811.477	23533.62
811.731	23752.62
811.985	23755.62
812.239	23931.62
812.493	24118.62
812.747	24292.62
813	24234.62
813.254	24486.62
813.508	24559.62
813.762	24579.62
814.015	24753.62
814.269	25013.62
814.522	25252.62
814.776	25549.62
815.03	25994.62
815.283	26353.62
815.536	26846.62
815.79	27186.62
816.043	27616.62
816.296	28020.62
816.55	28364.62
816.803	28726.62
817.056	29110.62
817.309	29460.62
817.562	29696.62
817.815	30100.62
818.068	30415.62
818.321	30694.62
818.574	31036.62
818.827	31476.62
819.079	31798.62
819.332	32589.62
819.585	32947.62
819.838	33383.62
820.09	33551.62
820.343	33934.62
820.595	33973.62
820.848	34358.62
821.1	34508.62
821.353	34439.62
821.605	34443.62
821.857	34323.62
822.11	34337.62
822.362	34228.62
822.614	34215.62
822.866	34229.62
823.118	34172.62
823.37	34416.62
823.622	34540.62
823.874	34577.62
824.126	34774.62
824.378	34719.62
824.63	34912.62
824.882	35052.62
825.134	35010.62
825.385	34983.62
825.637	34952.62
825.888	34888.62
826.14	34878.62
826.392	34625.62
826.643	34504.62
826.895	34369.62
827.146	34318.62
827.397	34276.62
827.649	34303.62
827.9	34303.62
828.151	34227.62
828.402	34431.62
828.653	34566.62
828.905	34638.62
829.156	34778.62
829.407	34807.62
829.658	34658.62
829.909	34646.62
830.159	34730.62
830.41	34558.62
830.661	34227.62
830.912	34013.62
831.162	34131.62
831.413	34112.62
831.664	34059.62
831.914	34041.62
832.165	34123.62
832.415	34036.62
832.666	34048.62
832.916	34205.62
833.167	34133.62
833.417	34070.62
833.667	33953.62
833.917	33843.62
834.168	33741.62
834.418	33717.62
834.668	33686.62
834.918	33414.62
835.168	33351.62
835.418	33187.62
835.668	33222.62
835.918	33029.62
836.167	32894.62
836.417	32922.62
836.667	32814.62
836.917	32846.62
837.166	32783.62
837.416	32747.62
837.666	32814.62
837.915	32811.62
838.165	32873.62
838.414	32579.62
838.663	32690.62
838.913	32551.62
839.162	32495.62
839.411	32559.62
839.661	32372.62
839.91	32368.62
840.159	32159.62
840.408	32175.62
840.657	32430.62
840.906	32247.62
841.155	32302.62
841.404	32227.62
841.653	32252.62
841.902	32344.62
842.15	32425.62
842.399	32394.62
842.648	32296.62
842.897	32249.62
843.145	32003.62
843.394	31841.62
843.642	31692.62
843.891	31504.62
844.139	31450.62
844.388	31352.62
844.636	31112.62
844.884	31087.62
845.133	31095.62
845.381	31169.62
845.629	31091.62
845.877	31081.62
846.125	31004.62
846.373	30961.62
846.621	31001.62
846.869	30766.62
847.117	30768.62
847.365	30634.62
847.613	30433.62
847.861	30349.62
848.108	30205.62
848.356	30296.62
848.604	30069.62
848.851	30248.62
849.099	30246.62
849.346	30291.62
849.594	30433.62
849.841	30552.62
850.089	30556.62
850.336	30638.62
850.583	30611.62
850.831	30488.62
851.078	30374.62
851.325	30478.62
851.572	30548.62
851.819	30352.62
852.066	29696.62
852.313	29239.62
852.56	29033.62
852.807	28871.62
853.054	28829.62
853.301	28889.62
853.548	28840.62
853.794	28927.62
854.041	29002.62
854.288	29192.62
854.534	29381.62
854.781	29401.62
855.028	29283.62
855.274	29294.62
855.52	28992.62
855.767	28956.62
856.013	29007.62
856.26	29224.62
856.506	28647.62
856.752	28714.62
856.998	28773.62
857.244	28797.62
857.49	28913.62
857.736	28943.62
857.982	29040.62
858.228	29086.62
858.474	28742.62
858.72	28654.62
858.966	28336.62
859.212	28146.62
859.458	27813.62
859.703	27574.62
859.949	27335.62
860.195	27190.62
860.44	26968.62
860.686	26916.62
860.931	26947.62
861.177	26704.62
861.422	26709.62
861.667	26560.62
861.913	26536.62
862.158	26719.62
862.403	26770.62
862.648	26847.62
862.893	26922.62
863.138	26882.62
863.384	26818.62
863.629	26741.62
863.873	26721.62
864.118	26742.62
864.363	26522.62
864.608	26537.62
864.853	26371.62
865.098	26310.62
865.342	26177.62
865.587	26154.62
865.832	26123.62
866.076	26029.62
866.321	25978.62
866.565	25870.62
866.81	25864.62
867.054	25715.62
867.298	25722.62
867.543	25492.62
867.787	25531.62
868.031	25507.62
868.275	25483.62
868.519	25575.62
868.764	25590.62
869.008	25393.62
869.252	25417.62
869.496	25396.62
869.739	25262.62
869.983	25294.62
870.227	25283.62
870.471	25309.62
870.715	25319.62
870.958	25445.62
871.202	25537.62
871.446	25553.62
871.689	25548.62
871.933	25670.62
872.176	25609.62
872.42	25441.62
872.663	25435.62
872.906	25368.62
873.15	25176.62
873.393	24972.62
873.636	24892.62
873.879	24680.62
874.122	24592.62
874.366	24334.62
874.609	24194.62
874.852	24034.62
875.095	23963.62
875.337	23857.62
875.58	23754.62
875.823	23739.62
876.066	23589.62
876.309	23747.62
876.551	23418.62
876.794	23297.62
877.037	23310.62
877.279	23291.62
877.522	23216.62
877.764	23251.62
878.007	23142.62
878.249	23312.62
878.491	23124.62
878.734	23088.62
878.976	23010.62
879.218	22904.62
879.46	22762.62
879.702	22595.62
879.945	22474.62
880.187	22243.62
880.429	22284.62
880.671	22040.62
880.912	22053.62
881.154	21965.62
881.396	21909.62
881.638	22002.62
881.88	21844.62
882.121	21900.62
882.363	21815.62
882.605	21931.62
882.846	21909.62
883.088	21839.62
883.329	21738.62
883.571	21714.62
883.812	21800.62
884.053	22018.62
884.295	22371.62
884.536	22558.62
884.777	22439.62
885.018	22455.62
885.259	22385.62
885.5	22439.62
885.742	22543.62
885.982	22321.62
886.223	22055.62
886.464	21909.62
886.705	21677.62
886.946	21517.62
887.187	21136.62
887.428	21003.62
887.668	20652.62
887.909	20540.62
888.15	20284.62
888.39	20259.62
888.631	20099.62
888.871	19936.62
889.111	19767.62
889.352	19683.62
889.592	19524.62
889.833	19467.62
890.073	19292.62
890.313	19194.62
890.553	19072.62
890.793	18992.62
891.033	18960.62
891.273	18867.62
891.513	18811.62
891.753	18678.62
891.993	18766.62
892.233	18807.62
892.473	18892.62
892.713	18900.62
892.952	18839.62
893.192	18929.62
893.432	18833.62
893.671	18944.62
893.911	18799.62
894.15	18736.62
894.39	18494.62
894.629	18511.62
894.869	18389.62
895.108	18328.62
895.347	18150.62
895.587	18223.62
895.826	18139.62
896.065	18135.62
896.304	18168.62
896.543	18099.62
896.782	18010.62
897.021	18088.62
897.26	18075.62
897.499	18041.62
897.738	18102.62
897.977	17947.62
898.216	17771.62
898.454	17626.62
898.693	17528.62
898.932	17551.62
899.17	17512.62
899.409	17407.62
899.647	17387.62
899.886	17381.62
900.124	17402.62
900.363	17469.62
900.601	17459.62
900.839	17566.62
901.078	17610.62
901.316	17697.62
901.554	17792.62
901.792	17873.62
902.03	17880.62
902.268	17884.62
902.506	17893.62
902.744	17618.62
902.982	17539.62
903.22	17332.62
903.458	17052.62
903.695	16706.62
903.933	16459.62
904.171	16273.62
904.409	15910.62
904.646	15827.62
904.884	15698.62
905.121	15421.62
905.359	15270.62
905.596	15132.62
905.833	14959.62
906.071	14947.62
906.308	14806.62
906.545	14702.62
906.783	14717.62
907.02	14682.62
907.257	14519.62
907.494	14611.62
907.731	14555.62
907.968	14459.62
908.205	14413.62
908.442	14192.62
908.679	14202.62
908.915	14095.62
909.152	13964.62
909.389	13833.62
909.626	13778.62
909.862	13601.62
910.099	13680.62
910.335	13609.62
910.572	13511.62
910.808	13485.62
911.045	13459.62
911.281	13319.62
911.518	13307.62
911.754	13190.62
911.99	13213.62
912.226	13019.62
912.463	12896.62
912.699	12929.62
912.935	12893.62
913.171	12671.62
913.407	12571.62
913.643	12569.62
913.879	12408.62
914.114	12334.62
914.35	12212.62
914.586	12079.62
914.822	12014.62
915.057	11990.62
915.293	11819.62
915.529	11728.62
915.764	11750.62
916	11787.62
916.235	11706.62
916.471	11733.62
916.706	11572.62
916.941	11621.62
917.177	11691.62
917.412	11663.62
917.647	11639.62
917.882	11556.62
918.117	11571.62
918.352	11489.62
918.588	11620.62
918.823	11351.62
919.057	11257.62
919.292	11088.62
919.527	11109.62
919.762	10944.62
919.997	10930.62
920.232	10724.62
920.466	10664.62
920.701	10570.62
920.935	10568.62
921.17	10422.62
921.405	10406.62
921.639	10326.62
921.873	10371.62
922.108	10267.62
922.342	10339.62
922.576	10202.62
922.811	10205.62
923.045	10191.62
923.279	10211.62
923.513	10062.62
923.747	10075.62
923.981	9909.62
924.215	9860.62
924.449	9831.62
924.683	9804.62
924.917	9683.62
925.151	9672.62
925.385	9672.62
925.618	9644.62
925.852	9632.62
926.086	9530.62
926.319	9564.62
926.553	9578.62
926.786	9593.62
927.02	9528.62
927.253	9571.62
927.486	9563.62
927.72	9478.62
927.953	9537.62
928.186	9429.62
928.42	9449.62
928.653	9420.62
928.886	9334.62
929.119	9294.62
929.352	9213.62
929.585	9261.62
929.818	9095.62
930.051	9064.62
930.284	9011.62
930.516	8914.62
930.749	8861.62
930.982	8849.62
931.215	8762.62
931.447	8770.62
931.68	8763.62
931.912	8664.62
932.145	8726.62
932.377	8671.62
932.61	8823.62
932.842	8567.62
933.074	8739.62
933.307	8614.62
933.539	8673.62
933.771	8691.62
934.003	8625.62
934.236	8687.62
934.468	8777.62
934.7	8560.62
934.932	8624.62
935.164	8536.62
935.395	8449.62
935.627	8579.62
935.859	8569.62
936.091	8339.62
936.323	8444.62
936.554	8441.62
936.786	8418.62
937.017	8263.62
937.249	8324.62
937.481	8260.62
937.712	8321.62
937.943	8234.62
938.175	8203.62
938.406	8252.62
938.637	8270.62
938.869	8155.62
939.1	8238.62
939.331	8095.62
939.562	8131.62
939.793	8106.62
940.024	8056.62
940.255	8033.62
940.486	7964.62
940.717	7945.62
940.948	7915.62
941.179	7886.62
941.409	7891.62
941.64	7824.62
941.871	7807.62
942.102	7792.62
942.332	7836.62
942.563	7894.62
942.793	7894.62
943.024	7761.62
943.254	7808.62
943.484	7842.62
943.715	7911.62
943.945	7768.62
944.175	7723.62
944.405	7753.62
944.636	7767.62
944.866	7751.62
945.096	7787.62
945.326	7611.62
945.556	7728.62
945.786	7694.62
946.016	7550.62
946.245	7487.62
946.475	7442.62
946.705	7509.62
946.935	7360.62
947.164	7344.62
947.394	7357.62
947.624	7318.62
947.853	7313.62
948.083	7259.62
948.312	7244.62
948.542	7117.62
948.771	7172.62
949	7124.62
949.23	7095.62
949.459	7078.62
949.688	7141.62
949.917	7059.62
950.146	7045.62
950.375	7086.62
950.604	7042.62
950.833	7092.62
951.062	7077.62
951.291	7034.62
951.52	6958.62
951.749	6960.62
951.978	6859.62
952.206	6861.62
952.435	6907.62
952.664	6861.62
952.892	6856.62
953.121	6792.62
953.349	6815.62
953.578	6795.62
953.806	6732.62
954.035	6648.62
954.263	6647.62
954.491	6555.62
954.719	6620.62
954.948	6591.62
955.176	6470.62
955.404	6415.62
955.632	6524.62
955.86	6448.62
956.088	6415.62
956.316	6470.62
956.544	6387.62
956.772	6278.62
956.999	6311.62
957.227	6356.62
957.455	6223.62
957.683	6179.62
957.91	6129.62
958.138	6115.62
958.365	6124.62
958.593	6061.62
958.82	5994.62
959.048	6094.62
959.275	5991.62
959.502	6012.62
959.73	5970.62
959.957	5936.62
960.184	5949.62
960.411	5929.62
960.638	6015.62
960.865	5924.62
961.092	5871.62
961.319	5837.62
961.546	5895.62
961.773	5893.62
962	5800.62
962.227	5883.62
962.454	5868.62
962.68	5796.62
962.907	5774.62
963.134	5751.62
963.36	5682.62
963.587	5713.62
963.813	5576.62
964.04	5607.62
964.266	5521.62
964.493	5630.62
964.719	5578.62
964.945	5530.62
965.171	5413.62
965.398	5459.62
965.624	5440.62
965.85	5350.62
966.076	5339.62
966.302	5440.62
966.528	5269.62
966.754	5325.62
966.98	5301.62
967.206	5226.62
967.431	5172.62
967.657	5288.62
967.883	5227.62
968.109	5190.62
968.334	5175.62
968.56	5110.62
968.785	5138.62
969.011	5084.62
969.236	5159.62
969.462	5060.62
969.687	5068.62
969.912	5074.62
970.138	5136.62
970.363	4997.62
970.588	4998.62
970.813	4995.62
971.038	4923.62
971.263	4964.62
971.488	4939.62
971.713	4934.62
971.938	4913.62
972.163	4815.62
972.388	4868.62
972.613	4766.62
972.838	4841.62
973.062	4817.62
973.287	4718.62
973.512	4654.62
973.736	4706.62
973.961	4662.62
974.185	4622.62
974.41	4639.62
974.634	4534.62
974.858	4516.62
975.083	4549.62
975.307	4567.62
975.531	4521.62
975.755	4401.62
975.98	4403.62
976.204	4307.62
976.428	4362.62
976.652	4337.62
976.876	4314.62
977.1	4355.62
977.324	4291.62
977.547	4294.62
977.771	4303.62
977.995	4286.62
978.219	4187.62
978.442	4273.62
978.666	4212.62
978.89	4186.62
979.113	4182.62
979.337	4167.62
979.56	4078.62
979.783	4238.62
980.007	4139.62
980.23	4086.62
980.453	4058.62
980.677	4058.62
980.9	4058.62
981.123	3994.62
981.346	4043.62
981.569	4077.62
981.792	4036.62
982.015	3996.62
982.238	3896.62
982.461	3932.62
982.684	3884.62
982.907	3842.62
983.129	3803.62
983.352	3866.62
983.575	3851.62
983.797	3797.62
984.02	3784.62
984.242	3780.62
984.465	3741.62
984.687	3719.62
984.91	3749.62
985.132	3694.62
985.354	3662.62
985.577	3673.62
985.799	3661.62
986.021	3531.62
986.243	3561.62
986.465	3578.62
986.687	3592.62
986.909	3618.62
987.131	3593.62
987.353	3527.62
987.575	3571.62
987.797	3494.62
988.019	3439.62
988.241	3477.62
988.462	3436.62
988.684	3503.62
988.906	3508.62
989.127	3525.62
989.349	3387.62
989.57	3406.62
989.792	3452.62
990.013	3475.62
990.234	3456.62
990.456	3469.62
990.677	3425.62
990.898	3338.62
991.119	3350.62
991.341	3386.62
991.562	3262.62
991.783	3302.62
992.004	3241.62
992.225	3178.62
992.446	3245.62
992.667	3173.62
992.887	3218.62
993.108	3104.62
993.329	3265.62
993.55	3174.62
993.77	3086.62
993.991	3073.62
994.212	3101.62
994.432	3074.62
994.653	3045.62
994.873	3061.62
995.093	2930.62
995.314	2969.62
995.534	3037.62
995.754	3035.62
995.975	3042.62
996.195	2914.62
996.415	3012.62
996.635	2941.62
996.855	2936.62
997.075	2913.62
997.295	2924.62
997.515	2899.62
997.735	2970.62
997.955	2936.62
998.174	2913.62
998.394	2865.62
998.614	2906.62
998.834	2825.62
999.053	2935.62
999.273	2862.62
999.492	2910.62
999.712	2838.62
999.931	2818.62
1000.151	2827.62
1000.37	2804.62
1000.589	2832.62
1000.809	2726.62
1001.028	2857.62
1001.247	2796.62
1001.466	2664.62
1001.685	2830.62
1001.904	2723.62
1002.123	2709.62
1002.342	2711.62
1002.561	2642.62
1002.78	2649.62
1002.999	2694.62
1003.218	2627.62
1003.436	2626.62
1003.655	2649.62
1003.874	2580.62
1004.092	2622.62
1004.311	2654.62
1004.53	2550.62
1004.748	2657.62
1004.966	2567.62
1005.185	2620.62
1005.403	2584.62
1005.622	2559.62
1005.84	2625.62
1006.058	2550.62
1006.276	2578.62
1006.494	3019.62
1006.712	2504.62
1006.931	2620.62
1007.149	2500.62
1007.367	2514.62
1007.584	2541.62
1007.802	2575.62
1008.02	2565.62
1008.238	2640.62
1008.456	2662.62
1008.673	2527.62
1008.891	2598.62
1009.109	2587.62
1009.326	2692.62
1009.544	2755.62
1009.761	2660.62
1009.979	2796.62
1010.196	2871.62
1010.413	2934.62
1010.631	3067.62
1010.848	3158.62
1011.065	3165.62
1011.282	3094.62
1011.5	3073.62
1011.717	3147.62
1011.934	3095.62
1012.151	3097.62
1012.368	3128.62
1012.585	3049.62
1012.801	3099.62
1013.018	3080.62
1013.235	3048.62
1013.452	3088.62
1013.669	3120.62
1013.885	3086.62
1014.102	3124.62
1014.318	3142.62
1014.535	3084.62
1014.751	3107.62
1014.968	3080.62
1015.184	3077.62
1015.401	2993.62
1015.617	3064.62
1015.833	2969.62
1016.049	2997.62
1016.266	2935.62
1016.482	2921.62
1016.698	2841.62
1016.914	2878.62
1017.13	2859.62
1017.346	2825.62
1017.562	2915.62
1017.778	2831.62
1017.993	2797.62
1018.209	2841.62
1018.425	2847.62
1018.641	2848.62
1018.856	2791.62
1019.072	2832.62
1019.288	2833.62
1019.503	2800.62
1019.719	2726.62
1019.934	2724.62
1020.149	2808.62
1020.365	2726.62
1020.58	2680.62
1020.795	2670.62
1021.011	2613.62
1021.226	2543.62
1021.441	2526.62
1021.656	2434.62
1021.871	2337.62
1022.086	2333.62
1022.301	2284.62
1022.516	2245.62
1022.731	2322.62
1022.946	2177.62
1023.16	2151.62
1023.375	2093.62
1023.59	2073.62
1023.804	2041.62
1024.019	2063.62
1024.234	1940.62
1024.448	1954.62
1024.663	1880.62
1024.877	1884.62
1025.092	1863.62
1025.306	1819.62
1025.52	1722.62
1025.734	1758.62
1025.949	1695.62
1026.163	1652.62
1026.377	1525.62
1026.591	1605.62
1026.805	1494.62
1027.019	1510.62
1027.233	1431.62
1027.447	1370.62
1027.661	1503.62
1027.875	1384.62
1028.088	1416.62
1028.302	1282.62
1028.516	1302.62
1028.73	1268.62
1028.943	1226.62
1029.157	1165.62
1029.37	1082.62
1029.584	-2.38
1029.797	-2.38
1030.011	0.62
1030.224	1.62
