Data from QEP037381__6__15-10-15-854.txt Node

Date: Fri Dec 16 15:10:15 EST 2022
User: dcclab
Spectrometer: QEP03738
Trigger mode: 4
Integration Time (sec): 1.000000E1
Scans to average: 1
Electric dark correction enabled: true
Nonlinearity correction enabled: false
Boxcar width: 0
XAxis mode: Wavelengths
Number of Pixels in Spectrum: 1044
>>>>>Begin Spectral Data<<<<<
784.041	14.75
784.3	0.75
784.558	-4.25
784.817	-5.25
785.075	92307.75
785.334	15637.75
785.592	7407.75
785.851	5077.75
786.109	3872.75
786.368	3013.75
786.626	2436.75
786.884	2032.75
787.143	1720.75
787.401	1403.75
787.659	1275.75
787.917	1095.75
788.175	1015.75
788.433	893.75
788.691	816.75
788.949	775.75
789.207	729.75
789.465	652.75
789.723	630.75
789.98	578.75
790.238	625.75
790.496	568.75
790.753	557.75
791.011	601.75
791.268	540.75
791.526	520.75
791.783	538.75
792.041	528.75
792.298	437.75
792.556	501.75
792.813	482.75
793.07	469.75
793.327	464.75
793.584	546.75
793.841	477.75
794.099	490.75
794.356	549.75
794.613	447.75
794.869	480.75
795.126	439.75
795.383	417.75
795.64	439.75
795.897	400.75
796.153	455.75
796.41	437.75
796.667	427.75
796.923	430.75
797.18	433.75
797.436	467.75
797.693	432.75
797.949	478.75
798.206	513.75
798.462	425.75
798.718	488.75
798.974	459.75
799.231	505.75
799.487	499.75
799.743	518.75
799.999	553.75
800.255	550.75
800.511	539.75
800.767	614.75
801.023	593.75
801.279	615.75
801.534	646.75
801.79	722.75
802.046	726.75
802.302	909.75
802.557	1069.75
802.813	1306.75
803.068	1655.75
803.324	2335.75
803.579	3182.75
803.835	4437.75
804.09	6040.75
804.345	8022.75
804.601	10125.75
804.856	12225.75
805.111	14059.75
805.366	15423.75
805.621	16445.75
805.876	17192.75
806.131	17666.75
806.386	17985.75
806.641	18368.75
806.896	18692.75
807.151	19182.75
807.406	19401.75
807.661	19782.75
807.915	20112.75
808.17	20534.75
808.425	20744.75
808.679	21054.75
808.934	21310.75
809.188	21523.75
809.443	21831.75
809.697	22099.75
809.951	22232.75
810.206	22421.75
810.46	22788.75
810.714	22992.75
810.968	23271.75
811.223	23390.75
811.477	23530.75
811.731	23693.75
811.985	23857.75
812.239	24085.75
812.493	24210.75
812.747	24358.75
813	24442.75
813.254	24549.75
813.508	24594.75
813.762	24808.75
814.015	24887.75
814.269	25167.75
814.522	25380.75
814.776	25761.75
815.03	26006.75
815.283	26428.75
815.536	26781.75
815.79	27326.75
816.043	27702.75
816.296	28084.75
816.55	28591.75
816.803	28703.75
817.056	29213.75
817.309	29576.75
817.562	29806.75
817.815	30125.75
818.068	30400.75
818.321	30779.75
818.574	31169.75
818.827	31670.75
819.079	31926.75
819.332	32744.75
819.585	32911.75
819.838	33395.75
820.09	33668.75
820.343	34034.75
820.595	34139.75
820.848	34413.75
821.1	34522.75
821.353	34548.75
821.605	34610.75
821.857	34612.75
822.11	34500.75
822.362	34339.75
822.614	34393.75
822.866	34517.75
823.118	34383.75
823.37	34525.75
823.622	34603.75
823.874	34631.75
824.126	35028.75
824.378	34886.75
824.63	35171.75
824.882	35259.75
825.134	35204.75
825.385	35290.75
825.637	35143.75
825.888	35087.75
826.14	34921.75
826.392	34878.75
826.643	34694.75
826.895	34586.75
827.146	34481.75
827.397	34488.75
827.649	34425.75
827.9	34560.75
828.151	34717.75
828.402	34664.75
828.653	34615.75
828.905	34796.75
829.156	35058.75
829.407	34991.75
829.658	35025.75
829.909	35115.75
830.159	34940.75
830.41	34761.75
830.661	34540.75
830.912	34493.75
831.162	34402.75
831.413	34339.75
831.664	34391.75
831.914	34322.75
832.165	34261.75
832.415	34352.75
832.666	34198.75
832.916	34367.75
833.167	34165.75
833.417	34314.75
833.667	34066.75
833.917	34041.75
834.168	34168.75
834.418	33924.75
834.668	33822.75
834.918	33686.75
835.168	33633.75
835.418	33403.75
835.668	33420.75
835.918	33452.75
836.167	33220.75
836.417	33119.75
836.667	33152.75
836.917	33042.75
837.166	33067.75
837.416	33128.75
837.666	33056.75
837.915	33150.75
838.165	33081.75
838.414	32853.75
838.663	32793.75
838.913	32762.75
839.162	32861.75
839.411	32925.75
839.661	32628.75
839.91	32609.75
840.159	32556.75
840.408	32619.75
840.657	32412.75
840.906	32607.75
841.155	32643.75
841.404	32620.75
841.653	32712.75
841.902	32776.75
842.15	32634.75
842.399	32672.75
842.648	32622.75
842.897	32514.75
843.145	32343.75
843.394	32111.75
843.642	31968.75
843.891	31854.75
844.139	31700.75
844.388	31585.75
844.636	31397.75
844.884	31511.75
845.133	31439.75
845.381	31391.75
845.629	31356.75
845.877	31308.75
846.125	31425.75
846.373	31407.75
846.621	31154.75
846.869	31158.75
847.117	31012.75
847.365	30750.75
847.613	30627.75
847.861	30688.75
848.108	30561.75
848.356	30509.75
848.604	30425.75
848.851	30511.75
849.099	30548.75
849.346	30625.75
849.594	30761.75
849.841	31023.75
850.089	31024.75
850.336	30858.75
850.583	31015.75
850.831	30879.75
851.078	30544.75
851.325	30645.75
851.572	30871.75
851.819	30510.75
852.066	29883.75
852.313	29610.75
852.56	29429.75
852.807	29124.75
853.054	29019.75
853.301	28966.75
853.548	29096.75
853.794	29193.75
854.041	29376.75
854.288	29437.75
854.534	29640.75
854.781	29617.75
855.028	29536.75
855.274	29575.75
855.52	29373.75
855.767	29230.75
856.013	29209.75
856.26	29435.75
856.506	28860.75
856.752	28958.75
856.998	28879.75
857.244	29105.75
857.49	29274.75
857.736	29180.75
857.982	29184.75
858.228	29117.75
858.474	28880.75
858.72	28927.75
858.966	28588.75
859.212	28262.75
859.458	28058.75
859.703	27816.75
859.949	27540.75
860.195	27351.75
860.44	27308.75
860.686	27044.75
860.931	27082.75
861.177	26856.75
861.422	26838.75
861.667	26642.75
861.913	26855.75
862.158	26899.75
862.403	26957.75
862.648	27062.75
862.893	27041.75
863.138	27112.75
863.384	26846.75
863.629	26939.75
863.873	26961.75
864.118	26726.75
864.363	26747.75
864.608	26698.75
864.853	26510.75
865.098	26385.75
865.342	26431.75
865.587	26323.75
865.832	26374.75
866.076	26282.75
866.321	26116.75
866.565	26045.75
866.81	26040.75
867.054	25863.75
867.298	25850.75
867.543	25721.75
867.787	25841.75
868.031	25726.75
868.275	25590.75
868.519	25644.75
868.764	25629.75
869.008	25592.75
869.252	25535.75
869.496	25389.75
869.739	25346.75
869.983	25462.75
870.227	25522.75
870.471	25426.75
870.715	25561.75
870.958	25686.75
871.202	25737.75
871.446	25719.75
871.689	25707.75
871.933	25747.75
872.176	25713.75
872.42	25522.75
872.663	25378.75
872.906	25424.75
873.15	25246.75
873.393	25124.75
873.636	25103.75
873.879	24868.75
874.122	24656.75
874.366	24430.75
874.609	24308.75
874.852	24094.75
875.095	23905.75
875.337	23972.75
875.58	23852.75
875.823	23731.75
876.066	23739.75
876.309	23788.75
876.551	23469.75
876.794	23362.75
877.037	23392.75
877.279	23320.75
877.522	23357.75
877.764	23295.75
878.007	23262.75
878.249	23391.75
878.491	23132.75
878.734	23223.75
878.976	23115.75
879.218	22919.75
879.46	22851.75
879.702	22776.75
879.945	22597.75
880.187	22351.75
880.429	22242.75
880.671	22135.75
880.912	22059.75
881.154	22068.75
881.396	21952.75
881.638	22051.75
881.88	21967.75
882.121	21963.75
882.363	21916.75
882.605	21834.75
882.846	21903.75
883.088	21777.75
883.329	21768.75
883.571	21729.75
883.812	21787.75
884.053	22065.75
884.295	22445.75
884.536	22623.75
884.777	22583.75
885.018	22489.75
885.259	22451.75
885.5	22287.75
885.742	22543.75
885.982	22266.75
886.223	22017.75
886.464	22013.75
886.705	21664.75
886.946	21587.75
887.187	21323.75
887.428	21141.75
887.668	20647.75
887.909	20502.75
888.15	20260.75
888.39	20230.75
888.631	20146.75
888.871	19923.75
889.111	19710.75
889.352	19787.75
889.592	19630.75
889.833	19413.75
890.073	19366.75
890.313	19307.75
890.553	19113.75
890.793	18978.75
891.033	18918.75
891.273	18895.75
891.513	18757.75
891.753	18772.75
891.993	18788.75
892.233	18837.75
892.473	18977.75
892.713	18795.75
892.952	18773.75
893.192	18858.75
893.432	18760.75
893.671	18842.75
893.911	18784.75
894.15	18727.75
894.39	18433.75
894.629	18486.75
894.869	18424.75
895.108	18233.75
895.347	18128.75
895.587	18270.75
895.826	18174.75
896.065	18173.75
896.304	18120.75
896.543	18226.75
896.782	18024.75
897.021	18044.75
897.26	17989.75
897.499	18080.75
897.738	18002.75
897.977	17903.75
898.216	17661.75
898.454	17586.75
898.693	17575.75
898.932	17471.75
899.17	17384.75
899.409	17398.75
899.647	17417.75
899.886	17415.75
900.124	17431.75
900.363	17365.75
900.601	17533.75
900.839	17553.75
901.078	17613.75
901.316	17717.75
901.554	17794.75
901.792	17939.75
902.03	17852.75
902.268	17933.75
902.506	17817.75
902.744	17657.75
902.982	17595.75
903.22	17295.75
903.458	17020.75
903.695	16744.75
903.933	16520.75
904.171	16272.75
904.409	16061.75
904.646	15800.75
904.884	15595.75
905.121	15470.75
905.359	15324.75
905.596	15111.75
905.833	15003.75
906.071	14866.75
906.308	14831.75
906.545	14747.75
906.783	14731.75
907.02	14722.75
907.257	14585.75
907.494	14637.75
907.731	14609.75
907.968	14488.75
908.205	14328.75
908.442	14240.75
908.679	14231.75
908.915	14113.75
909.152	14027.75
909.389	13771.75
909.626	13818.75
909.862	13644.75
910.099	13629.75
910.335	13610.75
910.572	13569.75
910.808	13546.75
911.045	13458.75
911.281	13348.75
911.518	13446.75
911.754	13268.75
911.99	13266.75
912.226	13124.75
912.463	13043.75
912.699	12995.75
912.935	12881.75
913.171	12717.75
913.407	12539.75
913.643	12508.75
913.879	12472.75
914.114	12324.75
914.35	12255.75
914.586	12139.75
914.822	12016.75
915.057	12034.75
915.293	11847.75
915.529	11771.75
915.764	11823.75
916	11707.75
916.235	11766.75
916.471	11809.75
916.706	11616.75
916.941	11655.75
917.177	11583.75
917.412	11631.75
917.647	11592.75
917.882	11551.75
918.117	11647.75
918.352	11528.75
918.588	11613.75
918.823	11414.75
919.057	11365.75
919.292	11085.75
919.527	11159.75
919.762	11044.75
919.997	10904.75
920.232	10832.75
920.466	10836.75
920.701	10555.75
920.935	10580.75
921.17	10516.75
921.405	10416.75
921.639	10519.75
921.873	10464.75
922.108	10351.75
922.342	10297.75
922.576	10250.75
922.811	10282.75
923.045	10197.75
923.279	10262.75
923.513	10044.75
923.747	10095.75
923.981	10022.75
924.215	9917.75
924.449	9854.75
924.683	9777.75
924.917	9755.75
925.151	9696.75
925.385	9730.75
925.618	9719.75
925.852	9688.75
926.086	9554.75
926.319	9549.75
926.553	9686.75
926.786	9616.75
927.02	9690.75
927.253	9595.75
927.486	9695.75
927.72	9517.75
927.953	9610.75
928.186	9487.75
928.42	9503.75
928.653	9429.75
928.886	9300.75
929.119	9283.75
929.352	9239.75
929.585	9255.75
929.818	9076.75
930.051	9040.75
930.284	9025.75
930.516	8925.75
930.749	8872.75
930.982	8894.75
931.215	8908.75
931.447	8739.75
931.68	8759.75
931.912	8684.75
932.145	8658.75
932.377	8727.75
932.61	8831.75
932.842	8651.75
933.074	8735.75
933.307	8647.75
933.539	8732.75
933.771	8751.75
934.003	8657.75
934.236	8784.75
934.468	8729.75
934.7	8647.75
934.932	8629.75
935.164	8574.75
935.395	8555.75
935.627	8567.75
935.859	8560.75
936.091	8415.75
936.323	8487.75
936.554	8471.75
936.786	8431.75
937.017	8274.75
937.249	8325.75
937.481	8285.75
937.712	8284.75
937.943	8312.75
938.175	8306.75
938.406	8263.75
938.637	8305.75
938.869	8193.75
939.1	8147.75
939.331	8131.75
939.562	8153.75
939.793	8134.75
940.024	8118.75
940.255	8046.75
940.486	8022.75
940.717	7973.75
940.948	7909.75
941.179	7959.75
941.409	7907.75
941.64	7918.75
941.871	7908.75
942.102	7872.75
942.332	7836.75
942.563	7888.75
942.793	7949.75
943.024	7789.75
943.254	7807.75
943.484	7844.75
943.715	7838.75
943.945	7833.75
944.175	7695.75
944.405	7681.75
944.636	7766.75
944.866	7735.75
945.096	7778.75
945.326	7680.75
945.556	7617.75
945.786	7655.75
946.016	7683.75
946.245	7561.75
946.475	7432.75
946.705	7446.75
946.935	7430.75
947.164	7453.75
947.394	7280.75
947.624	7261.75
947.853	7284.75
948.083	7266.75
948.312	7224.75
948.542	7198.75
948.771	7109.75
949	7152.75
949.23	7080.75
949.459	7109.75
949.688	7146.75
949.917	7084.75
950.146	7073.75
950.375	7174.75
950.604	7018.75
950.833	7067.75
951.062	7127.75
951.291	6991.75
951.52	7012.75
951.749	6977.75
951.978	6909.75
952.206	6951.75
952.435	6866.75
952.664	6920.75
952.892	6909.75
953.121	6825.75
953.349	6802.75
953.578	6747.75
953.806	6766.75
954.035	6699.75
954.263	6696.75
954.491	6674.75
954.719	6613.75
954.948	6535.75
955.176	6576.75
955.404	6414.75
955.632	6508.75
955.86	6478.75
956.088	6416.75
956.316	6451.75
956.544	6378.75
956.772	6359.75
956.999	6234.75
957.227	6381.75
957.455	6155.75
957.683	6254.75
957.91	6127.75
958.138	6106.75
958.365	6122.75
958.593	6088.75
958.82	5998.75
959.048	6071.75
959.275	6010.75
959.502	6004.75
959.73	5963.75
959.957	6001.75
960.184	5975.75
960.411	5940.75
960.638	5973.75
960.865	5942.75
961.092	5930.75
961.319	5832.75
961.546	5950.75
961.773	5937.75
962	5876.75
962.227	5934.75
962.454	5820.75
962.68	5843.75
962.907	5843.75
963.134	5715.75
963.36	5749.75
963.587	5747.75
963.813	5629.75
964.04	5626.75
964.266	5560.75
964.493	5657.75
964.719	5597.75
964.945	5550.75
965.171	5465.75
965.398	5497.75
965.624	5481.75
965.85	5340.75
966.076	5366.75
966.302	5408.75
966.528	5327.75
966.754	5314.75
966.98	5270.75
967.206	5269.75
967.431	5211.75
967.657	5316.75
967.883	5263.75
968.109	5245.75
968.334	5177.75
968.56	5108.75
968.785	5179.75
969.011	5107.75
969.236	5168.75
969.462	5069.75
969.687	5087.75
969.912	5093.75
970.138	5091.75
970.363	5071.75
970.588	5023.75
970.813	4986.75
971.038	4965.75
971.263	5009.75
971.488	4968.75
971.713	5020.75
971.938	4963.75
972.163	4813.75
972.388	4893.75
972.613	4780.75
972.838	4800.75
973.062	4818.75
973.287	4775.75
973.512	4634.75
973.736	4713.75
973.961	4701.75
974.185	4673.75
974.41	4663.75
974.634	4590.75
974.858	4545.75
975.083	4573.75
975.307	4596.75
975.531	4504.75
975.755	4436.75
975.98	4453.75
976.204	4369.75
976.428	4356.75
976.652	4338.75
976.876	4306.75
977.1	4305.75
977.324	4265.75
977.547	4309.75
977.771	4304.75
977.995	4263.75
978.219	4198.75
978.442	4267.75
978.666	4258.75
978.89	4214.75
979.113	4229.75
979.337	4179.75
979.56	4110.75
979.783	4251.75
980.007	4099.75
980.23	4144.75
980.453	4081.75
980.677	4076.75
980.9	4041.75
981.123	3960.75
981.346	4041.75
981.569	4018.75
981.792	4025.75
982.015	3960.75
982.238	3933.75
982.461	3928.75
982.684	3943.75
982.907	3818.75
983.129	3796.75
983.352	3871.75
983.575	3830.75
983.797	3844.75
984.02	3753.75
984.242	3733.75
984.465	3730.75
984.687	3747.75
984.91	3713.75
985.132	3691.75
985.354	3694.75
985.577	3661.75
985.799	3612.75
986.021	3560.75
986.243	3608.75
986.465	3563.75
986.687	3635.75
986.909	3641.75
987.131	3573.75
987.353	3521.75
987.575	3563.75
987.797	3526.75
988.019	3457.75
988.241	3476.75
988.462	3459.75
988.684	3505.75
988.906	3519.75
989.127	3508.75
989.349	3400.75
989.57	3405.75
989.792	3439.75
990.013	3445.75
990.234	3399.75
990.456	3439.75
990.677	3431.75
990.898	3373.75
991.119	3360.75
991.341	3375.75
991.562	3280.75
991.783	3359.75
992.004	3238.75
992.225	3177.75
992.446	3236.75
992.667	3161.75
992.887	3204.75
993.108	3106.75
993.329	3238.75
993.55	3151.75
993.77	3082.75
993.991	3083.75
994.212	3107.75
994.432	3082.75
994.653	3046.75
994.873	3078.75
995.093	2962.75
995.314	2949.75
995.534	3057.75
995.754	3021.75
995.975	3035.75
996.195	2928.75
996.415	2957.75
996.635	2970.75
996.855	2974.75
997.075	2952.75
997.295	2943.75
997.515	2895.75
997.735	2917.75
997.955	2902.75
998.174	2897.75
998.394	2878.75
998.614	2924.75
998.834	2859.75
999.053	2933.75
999.273	2907.75
999.492	2932.75
999.712	2863.75
999.931	2795.75
1000.151	2852.75
1000.37	2801.75
1000.589	2883.75
1000.809	2760.75
1001.028	2864.75
1001.247	2745.75
1001.466	2641.75
1001.685	2803.75
1001.904	2714.75
1002.123	2678.75
1002.342	2722.75
1002.561	2596.75
1002.78	2652.75
1002.999	2735.75
1003.218	2611.75
1003.436	2583.75
1003.655	2657.75
1003.874	2567.75
1004.092	2580.75
1004.311	2643.75
1004.53	2549.75
1004.748	2620.75
1004.966	2542.75
1005.185	2608.75
1005.403	2558.75
1005.622	2538.75
1005.84	2599.75
1006.058	2500.75
1006.276	2556.75
1006.494	3021.75
1006.712	2532.75
1006.931	2596.75
1007.149	2494.75
1007.367	2494.75
1007.584	2555.75
1007.802	2566.75
1008.02	2558.75
1008.238	2636.75
1008.456	2609.75
1008.673	2492.75
1008.891	2602.75
1009.109	2572.75
1009.326	2625.75
1009.544	2725.75
1009.761	2687.75
1009.979	2777.75
1010.196	2811.75
1010.413	2957.75
1010.631	3036.75
1010.848	3062.75
1011.065	3120.75
1011.282	3094.75
1011.5	3033.75
1011.717	3110.75
1011.934	3075.75
1012.151	3049.75
1012.368	3026.75
1012.585	3002.75
1012.801	3057.75
1013.018	3038.75
1013.235	3100.75
1013.452	3174.75
1013.669	3195.75
1013.885	3154.75
1014.102	3109.75
1014.318	3071.75
1014.535	3011.75
1014.751	3025.75
1014.968	3013.75
1015.184	3039.75
1015.401	2968.75
1015.617	2966.75
1015.833	2897.75
1016.049	2898.75
1016.266	2864.75
1016.482	2820.75
1016.698	2772.75
1016.914	2783.75
1017.13	2748.75
1017.346	2759.75
1017.562	2787.75
1017.778	2712.75
1017.993	2708.75
1018.209	2792.75
1018.425	2778.75
1018.641	2753.75
1018.856	2713.75
1019.072	2752.75
1019.288	2789.75
1019.503	2744.75
1019.719	2623.75
1019.934	2669.75
1020.149	2716.75
1020.365	2671.75
1020.58	2599.75
1020.795	2605.75
1021.011	2515.75
1021.226	2456.75
1021.441	2450.75
1021.656	2360.75
1021.871	2296.75
1022.086	2266.75
1022.301	2229.75
1022.516	2200.75
1022.731	2207.75
1022.946	2150.75
1023.16	2107.75
1023.375	2072.75
1023.59	2028.75
1023.804	1985.75
1024.019	2046.75
1024.234	1901.75
1024.448	1917.75
1024.663	1825.75
1024.877	1812.75
1025.092	1808.75
1025.306	1824.75
1025.52	1690.75
1025.734	1760.75
1025.949	1636.75
1026.163	1598.75
1026.377	1516.75
1026.591	1590.75
1026.805	1480.75
1027.019	1470.75
1027.233	1403.75
1027.447	1338.75
1027.661	1444.75
1027.875	1384.75
1028.088	1385.75
1028.302	1266.75
1028.516	1225.75
1028.73	1228.75
1028.943	1226.75
1029.157	1119.75
1029.37	1045.75
1029.584	-0.25
1029.797	-2.25
1030.011	-1.25
1030.224	-2.25
