Data from QEP037381__14__15-11-35-854.txt Node

Date: Fri Dec 16 15:11:35 EST 2022
User: dcclab
Spectrometer: QEP03738
Trigger mode: 4
Integration Time (sec): 1.000000E1
Scans to average: 1
Electric dark correction enabled: true
Nonlinearity correction enabled: false
Boxcar width: 0
XAxis mode: Wavelengths
Number of Pixels in Spectrum: 1044
>>>>>Begin Spectral Data<<<<<
784.041	12.38
784.3	-0.62
784.558	-0.62
784.817	-2.62
785.075	91268.38
785.334	15583.38
785.592	7302.38
785.851	5050.38
786.109	3802.38
786.368	2980.38
786.626	2406.38
786.884	2006.38
787.143	1694.38
787.401	1393.38
787.659	1261.38
787.917	1098.38
788.175	1040.38
788.433	866.38
788.691	809.38
788.949	754.38
789.207	724.38
789.465	634.38
789.723	627.38
789.98	565.38
790.238	609.38
790.496	586.38
790.753	538.38
791.011	610.38
791.268	544.38
791.526	508.38
791.783	540.38
792.041	524.38
792.298	435.38
792.556	505.38
792.813	490.38
793.07	469.38
793.327	463.38
793.584	545.38
793.841	468.38
794.099	492.38
794.356	559.38
794.613	440.38
794.869	471.38
795.126	441.38
795.383	418.38
795.64	458.38
795.897	402.38
796.153	454.38
796.41	438.38
796.667	439.38
796.923	434.38
797.18	430.38
797.436	473.38
797.693	438.38
797.949	486.38
798.206	502.38
798.462	433.38
798.718	487.38
798.974	462.38
799.231	510.38
799.487	515.38
799.743	537.38
799.999	554.38
800.255	558.38
800.511	541.38
800.767	603.38
801.023	611.38
801.279	617.38
801.534	663.38
801.79	721.38
802.046	766.38
802.302	914.38
802.557	1045.38
802.813	1320.38
803.068	1662.38
803.324	2321.38
803.579	3188.38
803.835	4418.38
804.09	6051.38
804.345	8050.38
804.601	10162.38
804.856	12272.38
805.111	14319.38
805.366	15717.38
805.621	16818.38
805.876	17642.38
806.131	18104.38
806.386	18454.38
806.641	18906.38
806.896	19261.38
807.151	19652.38
807.406	19991.38
807.661	20374.38
807.915	20681.38
808.17	21002.38
808.425	21238.38
808.679	21525.38
808.934	21957.38
809.188	22174.38
809.443	22366.38
809.697	22691.38
809.951	22799.38
810.206	23149.38
810.46	23411.38
810.714	23648.38
810.968	23916.38
811.223	23993.38
811.477	24206.38
811.731	24429.38
811.985	24567.38
812.239	24726.38
812.493	24889.38
812.747	24960.38
813	25193.38
813.254	25192.38
813.508	25493.38
813.762	25530.38
814.015	25624.38
814.269	25886.38
814.522	26127.38
814.776	26431.38
815.03	26807.38
815.283	27214.38
815.536	27690.38
815.79	28146.38
816.043	28520.38
816.296	28967.38
816.55	29490.38
816.803	29669.38
817.056	30118.38
817.309	30445.38
817.562	30687.38
817.815	31160.38
818.068	31439.38
818.321	31745.38
818.574	32254.38
818.827	32459.38
819.079	33018.38
819.332	33686.38
819.585	34125.38
819.838	34461.38
820.09	34740.38
820.343	35048.38
820.595	35356.38
820.848	35490.38
821.1	35778.38
821.353	35755.38
821.605	35669.38
821.857	35615.38
822.11	35549.38
822.362	35621.38
822.614	35393.38
822.866	35502.38
823.118	35358.38
823.37	35578.38
823.622	35587.38
823.874	35763.38
824.126	36044.38
824.378	35959.38
824.63	36156.38
824.882	36201.38
825.134	36244.38
825.385	36227.38
825.637	36144.38
825.888	36049.38
826.14	35955.38
826.392	35936.38
826.643	35722.38
826.895	35676.38
827.146	35408.38
827.397	35390.38
827.649	35561.38
827.9	35278.38
828.151	35464.38
828.402	35541.38
828.653	35826.38
828.905	35877.38
829.156	35870.38
829.407	35966.38
829.658	35799.38
829.909	35977.38
830.159	35928.38
830.41	35686.38
830.661	35676.38
830.912	35221.38
831.162	35231.38
831.413	35201.38
831.664	35277.38
831.914	35194.38
832.165	35076.38
832.415	35143.38
832.666	35156.38
832.916	35053.38
833.167	35145.38
833.417	35142.38
833.667	34930.38
833.917	34939.38
834.168	34874.38
834.418	34703.38
834.668	34609.38
834.918	34586.38
835.168	34321.38
835.418	34180.38
835.668	34167.38
835.918	34050.38
836.167	33924.38
836.417	33922.38
836.667	33823.38
836.917	33933.38
837.166	33818.38
837.416	33910.38
837.666	33909.38
837.915	33652.38
838.165	33748.38
838.414	33572.38
838.663	33497.38
838.913	33414.38
839.162	33494.38
839.411	33479.38
839.661	33347.38
839.91	33297.38
840.159	33180.38
840.408	33155.38
840.657	33200.38
840.906	33075.38
841.155	33303.38
841.404	33276.38
841.653	33323.38
841.902	33322.38
842.15	33252.38
842.399	33411.38
842.648	33174.38
842.897	33143.38
843.145	33094.38
843.394	32785.38
843.642	32447.38
843.891	32515.38
844.139	32252.38
844.388	32076.38
844.636	31959.38
844.884	31942.38
845.133	31952.38
845.381	31800.38
845.629	31929.38
845.877	32015.38
846.125	31828.38
846.373	31741.38
846.621	31580.38
846.869	31589.38
847.117	31447.38
847.365	31361.38
847.613	31192.38
847.861	31003.38
848.108	31046.38
848.356	30897.38
848.604	30889.38
848.851	30929.38
849.099	31000.38
849.346	31081.38
849.594	31073.38
849.841	31235.38
850.089	31407.38
850.336	31377.38
850.583	31388.38
850.831	31187.38
851.078	31087.38
851.325	31237.38
851.572	31236.38
851.819	30824.38
852.066	30333.38
852.313	29935.38
852.56	29705.38
852.807	29570.38
853.054	29459.38
853.301	29428.38
853.548	29391.38
853.794	29584.38
854.041	29630.38
854.288	29862.38
854.534	30057.38
854.781	30101.38
855.028	29840.38
855.274	29852.38
855.52	29642.38
855.767	29533.38
856.013	29439.38
856.26	29781.38
856.506	29246.38
856.752	29265.38
856.998	29354.38
857.244	29405.38
857.49	29478.38
857.736	29506.38
857.982	29585.38
858.228	29497.38
858.474	29241.38
858.72	29186.38
858.966	28876.38
859.212	28568.38
859.458	28444.38
859.703	28110.38
859.949	27850.38
860.195	27682.38
860.44	27618.38
860.686	27461.38
860.931	27307.38
861.177	27252.38
861.422	27160.38
861.667	27072.38
861.913	27248.38
862.158	27278.38
862.403	27170.38
862.648	27381.38
862.893	27367.38
863.138	27313.38
863.384	27258.38
863.629	27272.38
863.873	27103.38
864.118	27120.38
864.363	26967.38
864.608	26924.38
864.853	26876.38
865.098	26779.38
865.342	26612.38
865.587	26640.38
865.832	26603.38
866.076	26476.38
866.321	26374.38
866.565	26318.38
866.81	26199.38
867.054	26167.38
867.298	26118.38
867.543	25986.38
867.787	25968.38
868.031	25910.38
868.275	25847.38
868.519	25869.38
868.764	25747.38
869.008	25671.38
869.252	25623.38
869.496	25523.38
869.739	25600.38
869.983	25520.38
870.227	25508.38
870.471	25536.38
870.715	25610.38
870.958	25753.38
871.202	25786.38
871.446	25792.38
871.689	25781.38
871.933	25785.38
872.176	25722.38
872.42	25648.38
872.663	25685.38
872.906	25524.38
873.15	25436.38
873.393	25373.38
873.636	25204.38
873.879	24925.38
874.122	24790.38
874.366	24539.38
874.609	24328.38
874.852	24124.38
875.095	24109.38
875.337	23970.38
875.58	23963.38
875.823	23870.38
876.066	23815.38
876.309	23777.38
876.551	23551.38
876.794	23490.38
877.037	23489.38
877.279	23261.38
877.522	23377.38
877.764	23383.38
878.007	23526.38
878.249	23343.38
878.491	23280.38
878.734	23391.38
878.976	23182.38
879.218	23037.38
879.46	22980.38
879.702	22821.38
879.945	22647.38
880.187	22444.38
880.429	22398.38
880.671	22231.38
880.912	22145.38
881.154	22112.38
881.396	22042.38
881.638	22206.38
881.88	22143.38
882.121	21962.38
882.363	21918.38
882.605	21933.38
882.846	21885.38
883.088	21898.38
883.329	21826.38
883.571	21783.38
883.812	21835.38
884.053	22156.38
884.295	22369.38
884.536	22526.38
884.777	22473.38
885.018	22347.38
885.259	22443.38
885.5	22152.38
885.742	22536.38
885.982	22154.38
886.223	22007.38
886.464	21780.38
886.705	21672.38
886.946	21604.38
887.187	21313.38
887.428	21149.38
887.668	20877.38
887.909	20639.38
888.15	20378.38
888.39	20286.38
888.631	20203.38
888.871	19965.38
889.111	19863.38
889.352	19663.38
889.592	19554.38
889.833	19555.38
890.073	19379.38
890.313	19339.38
890.553	19152.38
890.793	19140.38
891.033	18908.38
891.273	18936.38
891.513	18892.38
891.753	18845.38
891.993	18836.38
892.233	18989.38
892.473	19006.38
892.713	18916.38
892.952	18862.38
893.192	18951.38
893.432	18997.38
893.671	18901.38
893.911	18915.38
894.15	18719.38
894.39	18539.38
894.629	18570.38
894.869	18411.38
895.108	18354.38
895.347	18248.38
895.587	18245.38
895.826	18075.38
896.065	18058.38
896.304	18264.38
896.543	18146.38
896.782	18050.38
897.021	18078.38
897.26	18026.38
897.499	17970.38
897.738	17987.38
897.977	17773.38
898.216	17639.38
898.454	17479.38
898.693	17498.38
898.932	17545.38
899.17	17363.38
899.409	17276.38
899.647	17287.38
899.886	17280.38
900.124	17343.38
900.363	17187.38
900.601	17326.38
900.839	17330.38
901.078	17360.38
901.316	17412.38
901.554	17454.38
901.792	17579.38
902.03	17526.38
902.268	17542.38
902.506	17443.38
902.744	17222.38
902.982	17261.38
903.22	16880.38
903.458	16703.38
903.695	16569.38
903.933	16282.38
904.171	15912.38
904.409	15721.38
904.646	15642.38
904.884	15476.38
905.121	15316.38
905.359	15140.38
905.596	15010.38
905.833	14791.38
906.071	14713.38
906.308	14720.38
906.545	14685.38
906.783	14587.38
907.02	14486.38
907.257	14433.38
907.494	14432.38
907.731	14414.38
907.968	14388.38
908.205	14173.38
908.442	14108.38
908.679	14071.38
908.915	13959.38
909.152	13785.38
909.389	13658.38
909.626	13634.38
909.862	13585.38
910.099	13607.38
910.335	13517.38
910.572	13384.38
910.808	13360.38
911.045	13410.38
911.281	13247.38
911.518	13355.38
911.754	13184.38
911.99	13134.38
912.226	13011.38
912.463	12890.38
912.699	12813.38
912.935	12668.38
913.171	12502.38
913.407	12545.38
913.643	12427.38
913.879	12241.38
914.114	12174.38
914.35	12198.38
914.586	12011.38
914.822	11897.38
915.057	11901.38
915.293	11665.38
915.529	11669.38
915.764	11738.38
916	11699.38
916.235	11578.38
916.471	11595.38
916.706	11487.38
916.941	11439.38
917.177	11531.38
917.412	11525.38
917.647	11469.38
917.882	11409.38
918.117	11456.38
918.352	11404.38
918.588	11421.38
918.823	11281.38
919.057	11137.38
919.292	11007.38
919.527	10975.38
919.762	10879.38
919.997	10816.38
920.232	10661.38
920.466	10575.38
920.701	10472.38
920.935	10398.38
921.17	10286.38
921.405	10253.38
921.639	10299.38
921.873	10210.38
922.108	10165.38
922.342	10228.38
922.576	10095.38
922.811	10017.38
923.045	10018.38
923.279	9988.38
923.513	9787.38
923.747	9956.38
923.981	9877.38
924.215	9707.38
924.449	9690.38
924.683	9560.38
924.917	9583.38
925.151	9565.38
925.385	9551.38
925.618	9487.38
925.852	9480.38
926.086	9339.38
926.319	9379.38
926.553	9378.38
926.786	9407.38
927.02	9440.38
927.253	9405.38
927.486	9417.38
927.72	9263.38
927.953	9383.38
928.186	9311.38
928.42	9289.38
928.653	9193.38
928.886	9132.38
929.119	9200.38
929.352	9097.38
929.585	9024.38
929.818	8929.38
930.051	8885.38
930.284	8888.38
930.516	8700.38
930.749	8674.38
930.982	8638.38
931.215	8678.38
931.447	8503.38
931.68	8523.38
931.912	8476.38
932.145	8547.38
932.377	8549.38
932.61	8610.38
932.842	8451.38
933.074	8498.38
933.307	8448.38
933.539	8505.38
933.771	8483.38
934.003	8478.38
934.236	8557.38
934.468	8552.38
934.7	8526.38
934.932	8539.38
935.164	8408.38
935.395	8394.38
935.627	8371.38
935.859	8338.38
936.091	8199.38
936.323	8266.38
936.554	8273.38
936.786	8157.38
937.017	8116.38
937.249	8102.38
937.481	8006.38
937.712	8015.38
937.943	8058.38
938.175	8018.38
938.406	7963.38
938.637	8097.38
938.869	7967.38
939.1	7985.38
939.331	7940.38
939.562	7920.38
939.793	7914.38
940.024	7817.38
940.255	7969.38
940.486	7986.38
940.717	8128.38
940.948	8080.38
941.179	7949.38
941.409	7958.38
941.64	7822.38
941.871	7797.38
942.102	7655.38
942.332	7679.38
942.563	7697.38
942.793	7626.38
943.024	7546.38
943.254	7604.38
943.484	7611.38
943.715	7585.38
943.945	7647.38
944.175	7504.38
944.405	7485.38
944.636	7503.38
944.866	7553.38
945.096	7488.38
945.326	7373.38
945.556	7438.38
945.786	7449.38
946.016	7338.38
946.245	7304.38
946.475	7218.38
946.705	7184.38
946.935	7201.38
947.164	7140.38
947.394	7028.38
947.624	7029.38
947.853	7092.38
948.083	6971.38
948.312	6942.38
948.542	6840.38
948.771	6851.38
949	6866.38
949.23	6836.38
949.459	6873.38
949.688	6895.38
949.917	6854.38
950.146	6832.38
950.375	6844.38
950.604	6764.38
950.833	6811.38
951.062	6790.38
951.291	6819.38
951.52	6695.38
951.749	6718.38
951.978	6609.38
952.206	6699.38
952.435	6603.38
952.664	6646.38
952.892	6621.38
953.121	6549.38
953.349	6584.38
953.578	6553.38
953.806	6427.38
954.035	6435.38
954.263	6441.38
954.491	6364.38
954.719	6333.38
954.948	6286.38
955.176	6220.38
955.404	6180.38
955.632	6221.38
955.86	6124.38
956.088	6159.38
956.316	6173.38
956.544	6134.38
956.772	6109.38
956.999	5983.38
957.227	6078.38
957.455	5974.38
957.683	5949.38
957.91	5882.38
958.138	5899.38
958.365	5858.38
958.593	5820.38
958.82	5766.38
959.048	5854.38
959.275	5732.38
959.502	5785.38
959.73	5701.38
959.957	5691.38
960.184	5754.38
960.411	5582.38
960.638	5709.38
960.865	5664.38
961.092	5668.38
961.319	5555.38
961.546	5652.38
961.773	5626.38
962	5639.38
962.227	5667.38
962.454	5576.38
962.68	5560.38
962.907	5546.38
963.134	5455.38
963.36	5458.38
963.587	5440.38
963.813	5331.38
964.04	5328.38
964.266	5314.38
964.493	5369.38
964.719	5301.38
964.945	5354.38
965.171	5174.38
965.398	5222.38
965.624	5179.38
965.85	5142.38
966.076	5132.38
966.302	5095.38
966.528	5066.38
966.754	5093.38
966.98	5045.38
967.206	5058.38
967.431	4986.38
967.657	5015.38
967.883	5007.38
968.109	4954.38
968.334	4919.38
968.56	4948.38
968.785	4898.38
969.011	4831.38
969.236	4919.38
969.462	4858.38
969.687	4812.38
969.912	4850.38
970.138	4853.38
970.363	4761.38
970.588	4780.38
970.813	4763.38
971.038	4710.38
971.263	4787.38
971.488	4737.38
971.713	4739.38
971.938	4726.38
972.163	4614.38
972.388	4617.38
972.613	4617.38
972.838	4612.38
973.062	4522.38
973.287	4581.38
973.512	4495.38
973.736	4527.38
973.961	4490.38
974.185	4453.38
974.41	4431.38
974.634	4322.38
974.858	4319.38
975.083	4327.38
975.307	4322.38
975.531	4272.38
975.755	4203.38
975.98	4181.38
976.204	4114.38
976.428	4115.38
976.652	4089.38
976.876	4119.38
977.1	4148.38
977.324	4058.38
977.547	4089.38
977.771	4099.38
977.995	4066.38
978.219	4028.38
978.442	4077.38
978.666	4005.38
978.89	3984.38
979.113	3980.38
979.337	3974.38
979.56	3926.38
979.783	4019.38
980.007	3879.38
980.23	3874.38
980.453	3856.38
980.677	3886.38
980.9	3909.38
981.123	3741.38
981.346	3789.38
981.569	3766.38
981.792	3819.38
982.015	3771.38
982.238	3697.38
982.461	3702.38
982.684	3658.38
982.907	3663.38
983.129	3612.38
983.352	3617.38
983.575	3628.38
983.797	3641.38
984.02	3499.38
984.242	3543.38
984.465	3510.38
984.687	3568.38
984.91	3546.38
985.132	3508.38
985.354	3514.38
985.577	3455.38
985.799	3473.38
986.021	3380.38
986.243	3333.38
986.465	3348.38
986.687	3408.38
986.909	3469.38
987.131	3374.38
987.353	3354.38
987.575	3377.38
987.797	3293.38
988.019	3284.38
988.241	3293.38
988.462	3255.38
988.684	3282.38
988.906	3304.38
989.127	3317.38
989.349	3169.38
989.57	3238.38
989.792	3256.38
990.013	3256.38
990.234	3242.38
990.456	3268.38
990.677	3221.38
990.898	3141.38
991.119	3148.38
991.341	3188.38
991.562	3103.38
991.783	3103.38
992.004	3112.38
992.225	3034.38
992.446	3084.38
992.667	2964.38
992.887	3074.38
993.108	2927.38
993.329	3041.38
993.55	3006.38
993.77	2909.38
993.991	2899.38
994.212	2912.38
994.432	2919.38
994.653	2909.38
994.873	2888.38
995.093	2753.38
995.314	2786.38
995.534	2828.38
995.754	2883.38
995.975	2876.38
996.195	2721.38
996.415	2831.38
996.635	2759.38
996.855	2758.38
997.075	2755.38
997.295	2720.38
997.515	2713.38
997.735	2778.38
997.955	2706.38
998.174	2725.38
998.394	2672.38
998.614	2740.38
998.834	2662.38
999.053	2740.38
999.273	2711.38
999.492	2729.38
999.712	2668.38
999.931	2647.38
1000.151	2668.38
1000.37	2617.38
1000.589	2675.38
1000.809	2580.38
1001.028	2693.38
1001.247	2624.38
1001.466	2493.38
1001.685	2636.38
1001.904	2582.38
1002.123	2549.38
1002.342	2539.38
1002.561	2459.38
1002.78	2458.38
1002.999	2525.38
1003.218	2505.38
1003.436	2435.38
1003.655	2473.38
1003.874	2406.38
1004.092	2411.38
1004.311	2467.38
1004.53	2431.38
1004.748	2476.38
1004.966	2400.38
1005.185	2450.38
1005.403	2436.38
1005.622	2385.38
1005.84	2488.38
1006.058	2344.38
1006.276	2393.38
1006.494	2896.38
1006.712	2361.38
1006.931	2436.38
1007.149	2330.38
1007.367	2341.38
1007.584	2391.38
1007.802	2432.38
1008.02	2366.38
1008.238	2456.38
1008.456	2474.38
1008.673	2339.38
1008.891	2444.38
1009.109	2403.38
1009.326	2421.38
1009.544	2546.38
1009.761	2472.38
1009.979	2546.38
1010.196	2592.38
1010.413	2724.38
1010.631	2794.38
1010.848	2861.38
1011.065	2871.38
1011.282	2818.38
1011.5	2771.38
1011.717	2825.38
1011.934	2808.38
1012.151	2848.38
1012.368	2814.38
1012.585	2756.38
1012.801	2840.38
1013.018	2817.38
1013.235	2797.38
1013.452	2919.38
1013.669	2888.38
1013.885	2842.38
1014.102	2858.38
1014.318	2755.38
1014.535	2730.38
1014.751	2765.38
1014.968	2742.38
1015.184	2719.38
1015.401	2680.38
1015.617	2684.38
1015.833	2646.38
1016.049	2569.38
1016.266	2566.38
1016.482	2588.38
1016.698	2505.38
1016.914	2504.38
1017.13	2520.38
1017.346	2462.38
1017.562	2540.38
1017.778	2468.38
1017.993	2428.38
1018.209	2474.38
1018.425	2487.38
1018.641	2446.38
1018.856	2394.38
1019.072	2453.38
1019.288	2501.38
1019.503	2409.38
1019.719	2351.38
1019.934	2366.38
1020.149	2438.38
1020.365	2373.38
1020.58	2281.38
1020.795	2306.38
1021.011	2251.38
1021.226	2213.38
1021.441	2216.38
1021.656	2085.38
1021.871	2011.38
1022.086	2016.38
1022.301	1991.38
1022.516	1973.38
1022.731	2011.38
1022.946	1904.38
1023.16	1897.38
1023.375	1839.38
1023.59	1789.38
1023.804	1753.38
1024.019	1852.38
1024.234	1695.38
1024.448	1692.38
1024.663	1635.38
1024.877	1650.38
1025.092	1644.38
1025.306	1615.38
1025.52	1526.38
1025.734	1589.38
1025.949	1501.38
1026.163	1434.38
1026.377	1385.38
1026.591	1442.38
1026.805	1324.38
1027.019	1313.38
1027.233	1269.38
1027.447	1213.38
1027.661	1304.38
1027.875	1229.38
1028.088	1231.38
1028.302	1170.38
1028.516	1134.38
1028.73	1136.38
1028.943	1088.38
1029.157	1028.38
1029.37	958.38
1029.584	-4.62
1029.797	2.38
1030.011	-3.62
1030.224	-2.62
