Data from QEP037381__73__15-21-25-862.txt Node

Date: Fri Dec 16 15:21:25 EST 2022
User: dcclab
Spectrometer: QEP03738
Trigger mode: 4
Integration Time (sec): 1.000000E1
Scans to average: 1
Electric dark correction enabled: true
Nonlinearity correction enabled: false
Boxcar width: 0
XAxis mode: Wavelengths
Number of Pixels in Spectrum: 1044
>>>>>Begin Spectral Data<<<<<
784.041	10.88
784.3	-6.12
784.558	0.88
784.817	1.88
785.075	90870.88
785.334	15704.88
785.592	7370.88
785.851	5061.88
786.109	3795.88
786.368	3000.88
786.626	2416.88
786.884	1991.88
787.143	1696.88
787.401	1410.88
787.659	1287.88
787.917	1081.88
788.175	1032.88
788.433	881.88
788.691	814.88
788.949	754.88
789.207	735.88
789.465	637.88
789.723	607.88
789.98	555.88
790.238	598.88
790.496	564.88
790.753	545.88
791.011	586.88
791.268	524.88
791.526	514.88
791.783	527.88
792.041	499.88
792.298	423.88
792.556	500.88
792.813	472.88
793.07	459.88
793.327	443.88
793.584	516.88
793.841	445.88
794.099	451.88
794.356	527.88
794.613	412.88
794.869	468.88
795.126	422.88
795.383	418.88
795.64	429.88
795.897	394.88
796.153	448.88
796.41	420.88
796.667	415.88
796.923	414.88
797.18	420.88
797.436	453.88
797.693	429.88
797.949	468.88
798.206	498.88
798.462	401.88
798.718	454.88
798.974	443.88
799.231	505.88
799.487	484.88
799.743	495.88
799.999	526.88
800.255	507.88
800.511	485.88
800.767	521.88
801.023	543.88
801.279	567.88
801.534	593.88
801.79	650.88
802.046	673.88
802.302	828.88
802.557	916.88
802.813	1150.88
803.068	1421.88
803.324	1963.88
803.579	2632.88
803.835	3664.88
804.09	5072.88
804.345	6634.88
804.601	8374.88
804.856	10167.88
805.111	11764.88
805.366	12910.88
805.621	13774.88
805.876	14385.88
806.131	14816.88
806.386	15041.88
806.641	15290.88
806.896	15567.88
807.151	15940.88
807.406	16235.88
807.661	16516.88
807.915	16819.88
808.17	17090.88
808.425	17263.88
808.679	17540.88
808.934	17755.88
809.188	17795.88
809.443	18121.88
809.697	18418.88
809.951	18412.88
810.206	18677.88
810.46	18930.88
810.714	19026.88
810.968	19227.88
811.223	19377.88
811.477	19564.88
811.731	19760.88
811.985	19775.88
812.239	19841.88
812.493	19951.88
812.747	20068.88
813	20172.88
813.254	20315.88
813.508	20397.88
813.762	20642.88
814.015	20640.88
814.269	20833.88
814.522	20973.88
814.776	21186.88
815.03	21568.88
815.283	21729.88
815.536	22167.88
815.79	22484.88
816.043	22864.88
816.296	23208.88
816.55	23432.88
816.803	23715.88
817.056	24043.88
817.309	24423.88
817.562	24598.88
817.815	24677.88
818.068	24925.88
818.321	25252.88
818.574	25479.88
818.827	26007.88
819.079	26282.88
819.332	26636.88
819.585	26988.88
819.838	27460.88
820.09	27397.88
820.343	27662.88
820.595	27831.88
820.848	27988.88
821.1	28174.88
821.353	28209.88
821.605	28188.88
821.857	28216.88
822.11	28078.88
822.362	28011.88
822.614	28014.88
822.866	27980.88
823.118	27820.88
823.37	28149.88
823.622	28165.88
823.874	28254.88
824.126	28403.88
824.378	28449.88
824.63	28624.88
824.882	28667.88
825.134	28517.88
825.385	28484.88
825.637	28464.88
825.888	28447.88
826.14	28399.88
826.392	28278.88
826.643	28174.88
826.895	28144.88
827.146	27924.88
827.397	27914.88
827.649	27947.88
827.9	27969.88
828.151	27846.88
828.402	27950.88
828.653	28101.88
828.905	28283.88
829.156	28268.88
829.407	28213.88
829.658	28259.88
829.909	28291.88
830.159	28296.88
830.41	28259.88
830.661	28011.88
830.912	27899.88
831.162	27850.88
831.413	27789.88
831.664	27839.88
831.914	27806.88
832.165	27603.88
832.415	27666.88
832.666	27703.88
832.916	27784.88
833.167	27661.88
833.417	27619.88
833.667	27678.88
833.917	27566.88
834.168	27504.88
834.418	27431.88
834.668	27279.88
834.918	27112.88
835.168	27041.88
835.418	26869.88
835.668	26909.88
835.918	26763.88
836.167	26849.88
836.417	26766.88
836.667	26784.88
836.917	26664.88
837.166	26727.88
837.416	26661.88
837.666	26640.88
837.915	26664.88
838.165	26618.88
838.414	26573.88
838.663	26498.88
838.913	26558.88
839.162	26470.88
839.411	26412.88
839.661	26385.88
839.91	26199.88
840.159	26284.88
840.408	26220.88
840.657	26278.88
840.906	26210.88
841.155	26267.88
841.404	26137.88
841.653	26335.88
841.902	26269.88
842.15	26286.88
842.399	26336.88
842.648	26413.88
842.897	26173.88
843.145	26087.88
843.394	25935.88
843.642	25782.88
843.891	25648.88
844.139	25469.88
844.388	25343.88
844.636	25209.88
844.884	25240.88
845.133	25190.88
845.381	25172.88
845.629	25271.88
845.877	25196.88
846.125	25183.88
846.373	25171.88
846.621	25108.88
846.869	24965.88
847.117	24921.88
847.365	24739.88
847.613	24583.88
847.861	24550.88
848.108	24512.88
848.356	24503.88
848.604	24414.88
848.851	24454.88
849.099	24493.88
849.346	24543.88
849.594	24626.88
849.841	24733.88
850.089	24617.88
850.336	24694.88
850.583	24743.88
850.831	24669.88
851.078	24478.88
851.325	24705.88
851.572	24682.88
851.819	24444.88
852.066	23925.88
852.313	23686.88
852.56	23493.88
852.807	23411.88
853.054	23299.88
853.301	23314.88
853.548	23386.88
853.794	23549.88
854.041	23527.88
854.288	23586.88
854.534	23896.88
854.781	23765.88
855.028	23842.88
855.274	23770.88
855.52	23683.88
855.767	23522.88
856.013	23556.88
856.26	23785.88
856.506	23307.88
856.752	23253.88
856.998	23290.88
857.244	23356.88
857.49	23510.88
857.736	23479.88
857.982	23559.88
858.228	23550.88
858.474	23415.88
858.72	23118.88
858.966	22794.88
859.212	22771.88
859.458	22572.88
859.703	22214.88
859.949	22034.88
860.195	21952.88
860.44	21961.88
860.686	21843.88
860.931	21847.88
861.177	21652.88
861.422	21639.88
861.667	21508.88
861.913	21465.88
862.158	21606.88
862.403	21592.88
862.648	21638.88
862.893	21814.88
863.138	21706.88
863.384	21549.88
863.629	21462.88
863.873	21540.88
864.118	21475.88
864.363	21291.88
864.608	21400.88
864.853	21224.88
865.098	21263.88
865.342	21134.88
865.587	21072.88
865.832	21007.88
866.076	20895.88
866.321	20947.88
866.565	20933.88
866.81	20727.88
867.054	20759.88
867.298	20719.88
867.543	20622.88
867.787	20643.88
868.031	20651.88
868.275	20561.88
868.519	20550.88
868.764	20463.88
869.008	20480.88
869.252	20440.88
869.496	20405.88
869.739	20402.88
869.983	20457.88
870.227	20410.88
870.471	20361.88
870.715	20513.88
870.958	20545.88
871.202	20569.88
871.446	20675.88
871.689	20614.88
871.933	20672.88
872.176	20583.88
872.42	20548.88
872.663	20535.88
872.906	20524.88
873.15	20408.88
873.393	20262.88
873.636	20347.88
873.879	20168.88
874.122	19884.88
874.366	19746.88
874.609	19445.88
874.852	19365.88
875.095	19289.88
875.337	19268.88
875.58	19166.88
875.823	19151.88
876.066	19059.88
876.309	18955.88
876.551	18864.88
876.794	18844.88
877.037	18805.88
877.279	18689.88
877.522	18818.88
877.764	18748.88
878.007	18589.88
878.249	18617.88
878.491	18629.88
878.734	18678.88
878.976	18438.88
879.218	18373.88
879.46	18365.88
879.702	18143.88
879.945	18081.88
880.187	17907.88
880.429	17847.88
880.671	17744.88
880.912	17784.88
881.154	17518.88
881.396	17615.88
881.638	17592.88
881.88	17572.88
882.121	17630.88
882.363	17593.88
882.605	17520.88
882.846	17520.88
883.088	17514.88
883.329	17478.88
883.571	17469.88
883.812	17600.88
884.053	17899.88
884.295	18179.88
884.536	18364.88
884.777	18394.88
885.018	18379.88
885.259	18264.88
885.5	18176.88
885.742	18258.88
885.982	18060.88
886.223	17994.88
886.464	17818.88
886.705	17559.88
886.946	17401.88
887.187	17128.88
887.428	17043.88
887.668	16706.88
887.909	16449.88
888.15	16337.88
888.39	16151.88
888.631	16152.88
888.871	15952.88
889.111	15808.88
889.352	15734.88
889.592	15608.88
889.833	15562.88
890.073	15393.88
890.313	15395.88
890.553	15317.88
890.793	15219.88
891.033	15071.88
891.273	15134.88
891.513	15076.88
891.753	15041.88
891.993	14994.88
892.233	14985.88
892.473	15185.88
892.713	15157.88
892.952	14961.88
893.192	15093.88
893.432	15114.88
893.671	15112.88
893.911	14993.88
894.15	14952.88
894.39	14865.88
894.629	14746.88
894.869	14694.88
895.108	14664.88
895.347	14555.88
895.587	14636.88
895.826	14563.88
896.065	14477.88
896.304	14620.88
896.543	14562.88
896.782	14414.88
897.021	14456.88
897.26	14458.88
897.499	14472.88
897.738	14452.88
897.977	14390.88
898.216	14280.88
898.454	14175.88
898.693	14074.88
898.932	14114.88
899.17	14043.88
899.409	13937.88
899.647	13962.88
899.886	13911.88
900.124	14026.88
900.363	13958.88
900.601	14049.88
900.839	14097.88
901.078	14157.88
901.316	14172.88
901.554	14295.88
901.792	14424.88
902.03	14277.88
902.268	14384.88
902.506	14391.88
902.744	14191.88
902.982	14141.88
903.22	13883.88
903.458	13660.88
903.695	13505.88
903.933	13248.88
904.171	12998.88
904.409	12792.88
904.646	12584.88
904.884	12467.88
905.121	12387.88
905.359	12205.88
905.596	11993.88
905.833	11929.88
906.071	11824.88
906.308	11885.88
906.545	11810.88
906.783	11720.88
907.02	11651.88
907.257	11568.88
907.494	11591.88
907.731	11650.88
907.968	11592.88
908.205	11473.88
908.442	11430.88
908.679	11349.88
908.915	11268.88
909.152	11164.88
909.389	10951.88
909.626	11028.88
909.862	10868.88
910.099	10822.88
910.335	10842.88
910.572	10654.88
910.808	10714.88
911.045	10673.88
911.281	10626.88
911.518	10603.88
911.754	10520.88
911.99	10457.88
912.226	10369.88
912.463	10216.88
912.699	10190.88
912.935	10160.88
913.171	10116.88
913.407	9987.88
913.643	9942.88
913.879	9868.88
914.114	9776.88
914.35	9736.88
914.586	9575.88
914.822	9528.88
915.057	9520.88
915.293	9337.88
915.529	9367.88
915.764	9368.88
916	9373.88
916.235	9375.88
916.471	9319.88
916.706	9294.88
916.941	9253.88
917.177	9205.88
917.412	9248.88
917.647	9257.88
917.882	9118.88
918.117	9184.88
918.352	9230.88
918.588	9201.88
918.823	9044.88
919.057	8994.88
919.292	8808.88
919.527	8903.88
919.762	8723.88
919.997	8742.88
920.232	8527.88
920.466	8503.88
920.701	8374.88
920.935	8436.88
921.17	8358.88
921.405	8214.88
921.639	8310.88
921.873	8221.88
922.108	8251.88
922.342	8207.88
922.576	8107.88
922.811	8111.88
923.045	8109.88
923.279	8117.88
923.513	7960.88
923.747	8030.88
923.981	7948.88
924.215	7839.88
924.449	7840.88
924.683	7780.88
924.917	7734.88
925.151	7745.88
925.385	7719.88
925.618	7643.88
925.852	7648.88
926.086	7621.88
926.319	7588.88
926.553	7633.88
926.786	7654.88
927.02	7519.88
927.253	7606.88
927.486	7594.88
927.72	7477.88
927.953	7590.88
928.186	7495.88
928.42	7521.88
928.653	7405.88
928.886	7426.88
929.119	7505.88
929.352	7364.88
929.585	7339.88
929.818	7237.88
930.051	7218.88
930.284	7170.88
930.516	7053.88
930.749	7025.88
930.982	7062.88
931.215	7024.88
931.447	6907.88
931.68	6894.88
931.912	6878.88
932.145	6863.88
932.377	6922.88
932.61	7022.88
932.842	6862.88
933.074	6925.88
933.307	6901.88
933.539	6996.88
933.771	6959.88
934.003	6859.88
934.236	6907.88
934.468	6927.88
934.7	6838.88
934.932	6878.88
935.164	6789.88
935.395	6783.88
935.627	6791.88
935.859	6759.88
936.091	6694.88
936.323	6745.88
936.554	6740.88
936.786	6665.88
937.017	6583.88
937.249	6643.88
937.481	6539.88
937.712	6620.88
937.943	6550.88
938.175	6520.88
938.406	6541.88
938.637	6584.88
938.869	6478.88
939.1	6568.88
939.331	6474.88
939.562	6494.88
939.793	6495.88
940.024	6468.88
940.255	6464.88
940.486	6368.88
940.717	6311.88
940.948	6279.88
941.179	6250.88
941.409	6242.88
941.64	6284.88
941.871	6239.88
942.102	6142.88
942.332	6251.88
942.563	6278.88
942.793	6307.88
943.024	6151.88
943.254	6237.88
943.484	6203.88
943.715	6222.88
943.945	6145.88
944.175	6174.88
944.405	6134.88
944.636	6143.88
944.866	6162.88
945.096	6168.88
945.326	6065.88
945.556	6137.88
945.786	6071.88
946.016	6055.88
946.245	5945.88
946.475	5947.88
946.705	5921.88
946.935	5840.88
947.164	5835.88
947.394	5746.88
947.624	5767.88
947.853	5829.88
948.083	5752.88
948.312	5680.88
948.542	5610.88
948.771	5621.88
949	5597.88
949.23	5649.88
949.459	5602.88
949.688	5733.88
949.917	5589.88
950.146	5628.88
950.375	5654.88
950.604	5581.88
950.833	5654.88
951.062	5630.88
951.291	5536.88
951.52	5516.88
951.749	5503.88
951.978	5490.88
952.206	5440.88
952.435	5458.88
952.664	5456.88
952.892	5464.88
953.121	5398.88
953.349	5382.88
953.578	5385.88
953.806	5380.88
954.035	5285.88
954.263	5309.88
954.491	5194.88
954.719	5271.88
954.948	5202.88
955.176	5227.88
955.404	5092.88
955.632	5148.88
955.86	5155.88
956.088	5074.88
956.316	5078.88
956.544	5028.88
956.772	4992.88
956.999	4953.88
957.227	4996.88
957.455	4912.88
957.683	4892.88
957.91	4832.88
958.138	4811.88
958.365	4839.88
958.593	4832.88
958.82	4756.88
959.048	4804.88
959.275	4795.88
959.502	4767.88
959.73	4714.88
959.957	4743.88
960.184	4733.88
960.411	4681.88
960.638	4754.88
960.865	4681.88
961.092	4722.88
961.319	4614.88
961.546	4728.88
961.773	4719.88
962	4618.88
962.227	4699.88
962.454	4637.88
962.68	4626.88
962.907	4608.88
963.134	4484.88
963.36	4545.88
963.587	4559.88
963.813	4462.88
964.04	4485.88
964.266	4409.88
964.493	4463.88
964.719	4395.88
964.945	4427.88
965.171	4269.88
965.398	4354.88
965.624	4323.88
965.85	4264.88
966.076	4234.88
966.302	4281.88
966.528	4191.88
966.754	4267.88
966.98	4207.88
967.206	4202.88
967.431	4133.88
967.657	4190.88
967.883	4157.88
968.109	4202.88
968.334	4105.88
968.56	4084.88
968.785	4111.88
969.011	3997.88
969.236	4120.88
969.462	4061.88
969.687	4033.88
969.912	4019.88
970.138	4090.88
970.363	3993.88
970.588	3988.88
970.813	3956.88
971.038	3931.88
971.263	3936.88
971.488	3953.88
971.713	3929.88
971.938	3927.88
972.163	3828.88
972.388	3845.88
972.613	3817.88
972.838	3815.88
973.062	3764.88
973.287	3774.88
973.512	3690.88
973.736	3757.88
973.961	3732.88
974.185	3681.88
974.41	3686.88
974.634	3618.88
974.858	3583.88
975.083	3623.88
975.307	3622.88
975.531	3532.88
975.755	3514.88
975.98	3486.88
976.204	3454.88
976.428	3400.88
976.652	3412.88
976.876	3387.88
977.1	3436.88
977.324	3353.88
977.547	3446.88
977.771	3430.88
977.995	3369.88
978.219	3326.88
978.442	3428.88
978.666	3323.88
978.89	3326.88
979.113	3352.88
979.337	3303.88
979.56	3261.88
979.783	3334.88
980.007	3239.88
980.23	3274.88
980.453	3270.88
980.677	3260.88
980.9	3256.88
981.123	3110.88
981.346	3196.88
981.569	3224.88
981.792	3176.88
982.015	3158.88
982.238	3065.88
982.461	3109.88
982.684	3053.88
982.907	3045.88
983.129	3036.88
983.352	3088.88
983.575	3018.88
983.797	3025.88
984.02	2986.88
984.242	2970.88
984.465	2948.88
984.687	3015.88
984.91	3004.88
985.132	2953.88
985.354	2976.88
985.577	2958.88
985.799	2951.88
986.021	2859.88
986.243	2843.88
986.465	2860.88
986.687	2884.88
986.909	2914.88
987.131	2848.88
987.353	2797.88
987.575	2854.88
987.797	2859.88
988.019	2727.88
988.241	2778.88
988.462	2752.88
988.684	2789.88
988.906	2828.88
989.127	2828.88
989.349	2693.88
989.57	2742.88
989.792	2772.88
990.013	2755.88
990.234	2772.88
990.456	2812.88
990.677	2748.88
990.898	2720.88
991.119	2723.88
991.341	2724.88
991.562	2648.88
991.783	2696.88
992.004	2585.88
992.225	2578.88
992.446	2612.88
992.667	2524.88
992.887	2604.88
993.108	2495.88
993.329	2646.88
993.55	2565.88
993.77	2469.88
993.991	2466.88
994.212	2514.88
994.432	2498.88
994.653	2478.88
994.873	2501.88
995.093	2334.88
995.314	2432.88
995.534	2492.88
995.754	2500.88
995.975	2480.88
996.195	2380.88
996.415	2437.88
996.635	2409.88
996.855	2422.88
997.075	2383.88
997.295	2403.88
997.515	2384.88
997.735	2426.88
997.955	2397.88
998.174	2393.88
998.394	2320.88
998.614	2415.88
998.834	2298.88
999.053	2411.88
999.273	2355.88
999.492	2398.88
999.712	2322.88
999.931	2283.88
1000.151	2342.88
1000.37	2267.88
1000.589	2345.88
1000.809	2268.88
1001.028	2374.88
1001.247	2289.88
1001.466	2191.88
1001.685	2293.88
1001.904	2255.88
1002.123	2226.88
1002.342	2211.88
1002.561	2173.88
1002.78	2175.88
1002.999	2227.88
1003.218	2180.88
1003.436	2132.88
1003.655	2209.88
1003.874	2135.88
1004.092	2196.88
1004.311	2188.88
1004.53	2157.88
1004.748	2225.88
1004.966	2117.88
1005.185	2176.88
1005.403	2160.88
1005.622	2144.88
1005.84	2207.88
1006.058	2085.88
1006.276	2107.88
1006.494	2623.88
1006.712	2117.88
1006.931	2177.88
1007.149	2120.88
1007.367	2098.88
1007.584	2129.88
1007.802	2191.88
1008.02	2111.88
1008.238	2219.88
1008.456	2249.88
1008.673	2113.88
1008.891	2237.88
1009.109	2217.88
1009.326	2272.88
1009.544	2361.88
1009.761	2271.88
1009.979	2419.88
1010.196	2482.88
1010.413	2576.88
1010.631	2716.88
1010.848	2745.88
1011.065	2787.88
1011.282	2723.88
1011.5	2667.88
1011.717	2750.88
1011.934	2712.88
1012.151	2756.88
1012.368	2694.88
1012.585	2658.88
1012.801	2742.88
1013.018	2671.88
1013.235	2681.88
1013.452	2694.88
1013.669	2721.88
1013.885	2707.88
1014.102	2738.88
1014.318	2713.88
1014.535	2677.88
1014.751	2699.88
1014.968	2705.88
1015.184	2720.88
1015.401	2619.88
1015.617	2616.88
1015.833	2552.88
1016.049	2576.88
1016.266	2579.88
1016.482	2547.88
1016.698	2469.88
1016.914	2500.88
1017.13	2434.88
1017.346	2428.88
1017.562	2504.88
1017.778	2431.88
1017.993	2381.88
1018.209	2436.88
1018.425	2430.88
1018.641	2383.88
1018.856	2367.88
1019.072	2443.88
1019.288	2467.88
1019.503	2391.88
1019.719	2335.88
1019.934	2348.88
1020.149	2417.88
1020.365	2290.88
1020.58	2283.88
1020.795	2286.88
1021.011	2207.88
1021.226	2157.88
1021.441	2169.88
1021.656	2058.88
1021.871	1961.88
1022.086	1965.88
1022.301	1915.88
1022.516	1923.88
1022.731	1935.88
1022.946	1850.88
1023.16	1848.88
1023.375	1783.88
1023.59	1775.88
1023.804	1697.88
1024.019	1770.88
1024.234	1652.88
1024.448	1669.88
1024.663	1558.88
1024.877	1533.88
1025.092	1576.88
1025.306	1574.88
1025.52	1447.88
1025.734	1524.88
1025.949	1419.88
1026.163	1386.88
1026.377	1302.88
1026.591	1345.88
1026.805	1268.88
1027.019	1268.88
1027.233	1219.88
1027.447	1160.88
1027.661	1261.88
1027.875	1214.88
1028.088	1162.88
1028.302	1127.88
1028.516	1100.88
1028.73	1079.88
1028.943	1052.88
1029.157	961.88
1029.37	938.88
1029.584	-2.12
1029.797	-1.12
1030.011	-4.12
1030.224	-0.12
