Data from QEP037381__79__15-22-25-863.txt Node

Date: Fri Dec 16 15:22:25 EST 2022
User: dcclab
Spectrometer: QEP03738
Trigger mode: 4
Integration Time (sec): 1.000000E1
Scans to average: 1
Electric dark correction enabled: true
Nonlinearity correction enabled: false
Boxcar width: 0
XAxis mode: Wavelengths
Number of Pixels in Spectrum: 1044
>>>>>Begin Spectral Data<<<<<
784.041	11.88
784.3	-2.12
784.558	1.88
784.817	-6.12
785.075	87479.88
785.334	15450.88
785.592	7267.88
785.851	5037.88
786.109	3807.88
786.368	2970.88
786.626	2397.88
786.884	2021.88
787.143	1678.88
787.401	1382.88
787.659	1282.88
787.917	1095.88
788.175	1010.88
788.433	901.88
788.691	795.88
788.949	739.88
789.207	734.88
789.465	630.88
789.723	614.88
789.98	562.88
790.238	613.88
790.496	566.88
790.753	535.88
791.011	593.88
791.268	527.88
791.526	499.88
791.783	514.88
792.041	502.88
792.298	439.88
792.556	494.88
792.813	476.88
793.07	460.88
793.327	437.88
793.584	508.88
793.841	448.88
794.099	452.88
794.356	519.88
794.613	421.88
794.869	456.88
795.126	421.88
795.383	408.88
795.64	433.88
795.897	390.88
796.153	440.88
796.41	425.88
796.667	411.88
796.923	421.88
797.18	417.88
797.436	455.88
797.693	403.88
797.949	463.88
798.206	491.88
798.462	407.88
798.718	466.88
798.974	427.88
799.231	481.88
799.487	478.88
799.743	483.88
799.999	511.88
800.255	498.88
800.511	487.88
800.767	536.88
801.023	533.88
801.279	540.88
801.534	610.88
801.79	661.88
802.046	691.88
802.302	820.88
802.557	920.88
802.813	1162.88
803.068	1414.88
803.324	1883.88
803.579	2585.88
803.835	3609.88
804.09	4888.88
804.345	6426.88
804.601	8170.88
804.856	9917.88
805.111	11530.88
805.366	12712.88
805.621	13622.88
805.876	14240.88
806.131	14650.88
806.386	14926.88
806.641	15260.88
806.896	15418.88
807.151	15930.88
807.406	16075.88
807.661	16325.88
807.915	16757.88
808.17	17002.88
808.425	17159.88
808.679	17352.88
808.934	17523.88
809.188	17827.88
809.443	18025.88
809.697	18170.88
809.951	18324.88
810.206	18531.88
810.46	18764.88
810.714	18931.88
810.968	19174.88
811.223	19303.88
811.477	19515.88
811.731	19632.88
811.985	19761.88
812.239	19836.88
812.493	19961.88
812.747	20155.88
813	20057.88
813.254	20241.88
813.508	20429.88
813.762	20385.88
814.015	20588.88
814.269	20722.88
814.522	20943.88
814.776	21139.88
815.03	21419.88
815.283	21725.88
815.536	22232.88
815.79	22483.88
816.043	22824.88
816.296	23092.88
816.55	23366.88
816.803	23694.88
817.056	24049.88
817.309	24361.88
817.562	24473.88
817.815	24747.88
818.068	25013.88
818.321	25347.88
818.574	25618.88
818.827	26013.88
819.079	26247.88
819.332	26674.88
819.585	27089.88
819.838	27424.88
820.09	27677.88
820.343	27656.88
820.595	27968.88
820.848	28250.88
821.1	28246.88
821.353	28371.88
821.605	28289.88
821.857	28314.88
822.11	28119.88
822.362	28136.88
822.614	28157.88
822.866	28232.88
823.118	28171.88
823.37	28365.88
823.622	28359.88
823.874	28465.88
824.126	28544.88
824.378	28709.88
824.63	28668.88
824.882	28721.88
825.134	28731.88
825.385	28682.88
825.637	28630.88
825.888	28560.88
826.14	28621.88
826.392	28420.88
826.643	28297.88
826.895	28275.88
827.146	28092.88
827.397	28064.88
827.649	27922.88
827.9	28079.88
828.151	28076.88
828.402	28229.88
828.653	28184.88
828.905	28348.88
829.156	28382.88
829.407	28308.88
829.658	28352.88
829.909	28492.88
830.159	28535.88
830.41	28339.88
830.661	28139.88
830.912	27956.88
831.162	27991.88
831.413	28013.88
831.664	28033.88
831.914	28025.88
832.165	27932.88
832.415	27988.88
832.666	27876.88
832.916	28070.88
833.167	27871.88
833.417	27979.88
833.667	27862.88
833.917	27728.88
834.168	27688.88
834.418	27600.88
834.668	27548.88
834.918	27431.88
835.168	27359.88
835.418	27116.88
835.668	27178.88
835.918	27069.88
836.167	26925.88
836.417	26827.88
836.667	26884.88
836.917	26808.88
837.166	26925.88
837.416	27047.88
837.666	26920.88
837.915	26908.88
838.165	26828.88
838.414	26774.88
838.663	26718.88
838.913	26904.88
839.162	26748.88
839.411	26790.88
839.661	26614.88
839.91	26418.88
840.159	26463.88
840.408	26538.88
840.657	26517.88
840.906	26564.88
841.155	26544.88
841.404	26391.88
841.653	26496.88
841.902	26534.88
842.15	26643.88
842.399	26602.88
842.648	26348.88
842.897	26513.88
843.145	26425.88
843.394	26224.88
843.642	26027.88
843.891	25891.88
844.139	25765.88
844.388	25615.88
844.636	25528.88
844.884	25504.88
845.133	25490.88
845.381	25639.88
845.629	25493.88
845.877	25566.88
846.125	25528.88
846.373	25409.88
846.621	25390.88
846.869	25335.88
847.117	25196.88
847.365	25105.88
847.613	24951.88
847.861	24878.88
848.108	24922.88
848.356	24709.88
848.604	24806.88
848.851	24861.88
849.099	24796.88
849.346	24814.88
849.594	24971.88
849.841	25122.88
850.089	25092.88
850.336	25008.88
850.583	25152.88
850.831	24985.88
851.078	24900.88
851.325	24929.88
851.572	25065.88
851.819	24766.88
852.066	24259.88
852.313	23953.88
852.56	23686.88
852.807	23610.88
853.054	23727.88
853.301	23548.88
853.548	23666.88
853.794	23902.88
854.041	23912.88
854.288	23883.88
854.534	24242.88
854.781	24098.88
855.028	24070.88
855.274	24011.88
855.52	23928.88
855.767	23743.88
856.013	23892.88
856.26	24132.88
856.506	23715.88
856.752	23623.88
856.998	23654.88
857.244	23640.88
857.49	23892.88
857.736	23879.88
857.982	23930.88
858.228	23834.88
858.474	23661.88
858.72	23493.88
858.966	23250.88
859.212	23137.88
859.458	22883.88
859.703	22566.88
859.949	22406.88
860.195	22404.88
860.44	22199.88
860.686	22077.88
860.931	22079.88
861.177	21885.88
861.422	21899.88
861.667	21723.88
861.913	21861.88
862.158	21833.88
862.403	21925.88
862.648	21977.88
862.893	22074.88
863.138	22026.88
863.384	21941.88
863.629	21852.88
863.873	21963.88
864.118	21863.88
864.363	21580.88
864.608	21764.88
864.853	21681.88
865.098	21479.88
865.342	21532.88
865.587	21525.88
865.832	21378.88
866.076	21325.88
866.321	21281.88
866.565	21282.88
866.81	21174.88
867.054	21053.88
867.298	20967.88
867.543	20853.88
867.787	20859.88
868.031	20883.88
868.275	20953.88
868.519	20827.88
868.764	20820.88
869.008	20784.88
869.252	20823.88
869.496	20757.88
869.739	20735.88
869.983	20752.88
870.227	20742.88
870.471	20832.88
870.715	20936.88
870.958	21054.88
871.202	20959.88
871.446	21089.88
871.689	20974.88
871.933	20991.88
872.176	20947.88
872.42	20827.88
872.663	20986.88
872.906	20846.88
873.15	20817.88
873.393	20696.88
873.636	20622.88
873.879	20388.88
874.122	20333.88
874.366	20059.88
874.609	19877.88
874.852	19777.88
875.095	19665.88
875.337	19599.88
875.58	19485.88
875.823	19400.88
876.066	19451.88
876.309	19392.88
876.551	19221.88
876.794	19157.88
877.037	19119.88
877.279	19043.88
877.522	19129.88
877.764	19091.88
878.007	18925.88
878.249	18999.88
878.491	18753.88
878.734	18924.88
878.976	18944.88
879.218	18686.88
879.46	18682.88
879.702	18448.88
879.945	18406.88
880.187	18309.88
880.429	18144.88
880.671	18094.88
880.912	18060.88
881.154	17971.88
881.396	17832.88
881.638	17966.88
881.88	18003.88
882.121	17953.88
882.363	17952.88
882.605	17836.88
882.846	17964.88
883.088	17852.88
883.329	17793.88
883.571	17869.88
883.812	17964.88
884.053	18201.88
884.295	18545.88
884.536	18805.88
884.777	18658.88
885.018	18549.88
885.259	18615.88
885.5	18582.88
885.742	18696.88
885.982	18416.88
886.223	18292.88
886.464	18160.88
886.705	17918.88
886.946	17831.88
887.187	17496.88
887.428	17299.88
887.668	17167.88
887.909	16804.88
888.15	16632.88
888.39	16539.88
888.631	16454.88
888.871	16279.88
889.111	16168.88
889.352	16045.88
889.592	15936.88
889.833	15883.88
890.073	15738.88
890.313	15733.88
890.553	15500.88
890.793	15544.88
891.033	15479.88
891.273	15438.88
891.513	15386.88
891.753	15364.88
891.993	15286.88
892.233	15374.88
892.473	15485.88
892.713	15394.88
892.952	15405.88
893.192	15443.88
893.432	15367.88
893.671	15412.88
893.911	15305.88
894.15	15223.88
894.39	15120.88
894.629	15090.88
894.869	15064.88
895.108	14949.88
895.347	14873.88
895.587	14854.88
895.826	14772.88
896.065	14811.88
896.304	14918.88
896.543	14903.88
896.782	14779.88
897.021	14736.88
897.26	14725.88
897.499	14783.88
897.738	14876.88
897.977	14625.88
898.216	14669.88
898.454	14474.88
898.693	14470.88
898.932	14544.88
899.17	14327.88
899.409	14320.88
899.647	14267.88
899.886	14271.88
900.124	14384.88
900.363	14354.88
900.601	14329.88
900.839	14438.88
901.078	14449.88
901.316	14494.88
901.554	14646.88
901.792	14712.88
902.03	14745.88
902.268	14714.88
902.506	14746.88
902.744	14593.88
902.982	14488.88
903.22	14085.88
903.458	14012.88
903.695	13847.88
903.933	13602.88
904.171	13373.88
904.409	13074.88
904.646	12906.88
904.884	12717.88
905.121	12622.88
905.359	12370.88
905.596	12341.88
905.833	12198.88
906.071	12126.88
906.308	12070.88
906.545	12042.88
906.783	11972.88
907.02	11935.88
907.257	11908.88
907.494	11889.88
907.731	11843.88
907.968	11806.88
908.205	11687.88
908.442	11589.88
908.679	11535.88
908.915	11476.88
909.152	11365.88
909.389	11246.88
909.626	11184.88
909.862	11078.88
910.099	11077.88
910.335	11101.88
910.572	10898.88
910.808	10954.88
911.045	10828.88
911.281	10924.88
911.518	10799.88
911.754	10762.88
911.99	10690.88
912.226	10650.88
912.463	10555.88
912.699	10457.88
912.935	10332.88
913.171	10366.88
913.407	10248.88
913.643	10165.88
913.879	10081.88
914.114	10008.88
914.35	9896.88
914.586	9790.88
914.822	9692.88
915.057	9682.88
915.293	9593.88
915.529	9511.88
915.764	9626.88
916	9560.88
916.235	9550.88
916.471	9474.88
916.706	9437.88
916.941	9389.88
917.177	9385.88
917.412	9431.88
917.647	9403.88
917.882	9300.88
918.117	9433.88
918.352	9313.88
918.588	9378.88
918.823	9269.88
919.057	9133.88
919.292	9000.88
919.527	9094.88
919.762	8946.88
919.997	8941.88
920.232	8727.88
920.466	8805.88
920.701	8563.88
920.935	8576.88
921.17	8515.88
921.405	8425.88
921.639	8460.88
921.873	8411.88
922.108	8368.88
922.342	8385.88
922.576	8267.88
922.811	8300.88
923.045	8305.88
923.279	8223.88
923.513	8163.88
923.747	8158.88
923.981	8129.88
924.215	8102.88
924.449	8034.88
924.683	7870.88
924.917	7871.88
925.151	7899.88
925.385	7919.88
925.618	7837.88
925.852	7814.88
926.086	7721.88
926.319	7753.88
926.553	7814.88
926.786	7732.88
927.02	7743.88
927.253	7809.88
927.486	7806.88
927.72	7715.88
927.953	7737.88
928.186	7729.88
928.42	7623.88
928.653	7617.88
928.886	7542.88
929.119	7577.88
929.352	7476.88
929.585	7482.88
929.818	7356.88
930.051	7389.88
930.284	7372.88
930.516	7226.88
930.749	7222.88
930.982	7202.88
931.215	7233.88
931.447	7099.88
931.68	7074.88
931.912	7103.88
932.145	7094.88
932.377	7033.88
932.61	7189.88
932.842	6961.88
933.074	7064.88
933.307	7004.88
933.539	7115.88
933.771	7086.88
934.003	7058.88
934.236	7086.88
934.468	7076.88
934.7	6965.88
934.932	6965.88
935.164	6968.88
935.395	6935.88
935.627	6977.88
935.859	6926.88
936.091	6841.88
936.323	6874.88
936.554	6896.88
936.786	6841.88
937.017	6705.88
937.249	6771.88
937.481	6669.88
937.712	6819.88
937.943	6686.88
938.175	6693.88
938.406	6650.88
938.637	6740.88
938.869	6602.88
939.1	6631.88
939.331	6574.88
939.562	6634.88
939.793	6544.88
940.024	6599.88
940.255	6569.88
940.486	6502.88
940.717	6455.88
940.948	6470.88
941.179	6380.88
941.409	6442.88
941.64	6388.88
941.871	6390.88
942.102	6376.88
942.332	6366.88
942.563	6418.88
942.793	6393.88
943.024	6335.88
943.254	6279.88
943.484	6353.88
943.715	6405.88
943.945	6340.88
944.175	6247.88
944.405	6278.88
944.636	6331.88
944.866	6308.88
945.096	6284.88
945.326	6185.88
945.556	6235.88
945.786	6210.88
946.016	6207.88
946.245	6110.88
946.475	6082.88
946.705	6036.88
946.935	6058.88
947.164	6038.88
947.394	5876.88
947.624	5938.88
947.853	5930.88
948.083	5921.88
948.312	5829.88
948.542	5764.88
948.771	5785.88
949	5738.88
949.23	5703.88
949.459	5772.88
949.688	5827.88
949.917	5700.88
950.146	5737.88
950.375	5782.88
950.604	5652.88
950.833	5742.88
951.062	5701.88
951.291	5732.88
951.52	5628.88
951.749	5627.88
951.978	5580.88
952.206	5580.88
952.435	5578.88
952.664	5628.88
952.892	5616.88
953.121	5520.88
953.349	5560.88
953.578	5513.88
953.806	5489.88
954.035	5434.88
954.263	5416.88
954.491	5363.88
954.719	5406.88
954.948	5299.88
955.176	5319.88
955.404	5194.88
955.632	5264.88
955.86	5234.88
956.088	5261.88
956.316	5236.88
956.544	5163.88
956.772	5150.88
956.999	5086.88
957.227	5115.88
957.455	5000.88
957.683	5069.88
957.91	4957.88
958.138	4967.88
958.365	4921.88
958.593	4945.88
958.82	4851.88
959.048	4945.88
959.275	4887.88
959.502	4907.88
959.73	4809.88
959.957	4931.88
960.184	4884.88
960.411	4834.88
960.638	4844.88
960.865	4783.88
961.092	4826.88
961.319	4690.88
961.546	4825.88
961.773	4853.88
962	4775.88
962.227	4780.88
962.454	4739.88
962.68	4735.88
962.907	4734.88
963.134	4685.88
963.36	4635.88
963.587	4619.88
963.813	4536.88
964.04	4588.88
964.266	4484.88
964.493	4554.88
964.719	4548.88
964.945	4476.88
965.171	4430.88
965.398	4466.88
965.624	4457.88
965.85	4356.88
966.076	4361.88
966.302	4381.88
966.528	4296.88
966.754	4325.88
966.98	4300.88
967.206	4287.88
967.431	4230.88
967.657	4291.88
967.883	4299.88
968.109	4242.88
968.334	4191.88
968.56	4206.88
968.785	4194.88
969.011	4118.88
969.236	4209.88
969.462	4115.88
969.687	4163.88
969.912	4141.88
970.138	4160.88
970.363	4085.88
970.588	4106.88
970.813	4042.88
971.038	4014.88
971.263	3999.88
971.488	4037.88
971.713	4038.88
971.938	4023.88
972.163	3928.88
972.388	3939.88
972.613	3888.88
972.838	3916.88
973.062	3867.88
973.287	3868.88
973.512	3752.88
973.736	3839.88
973.961	3806.88
974.185	3741.88
974.41	3795.88
974.634	3689.88
974.858	3706.88
975.083	3770.88
975.307	3714.88
975.531	3641.88
975.755	3607.88
975.98	3613.88
976.204	3565.88
976.428	3512.88
976.652	3532.88
976.876	3520.88
977.1	3533.88
977.324	3467.88
977.547	3539.88
977.771	3493.88
977.995	3459.88
978.219	3395.88
978.442	3526.88
978.666	3467.88
978.89	3467.88
979.113	3414.88
979.337	3415.88
979.56	3368.88
979.783	3453.88
980.007	3310.88
980.23	3396.88
980.453	3353.88
980.677	3344.88
980.9	3312.88
981.123	3216.88
981.346	3331.88
981.569	3259.88
981.792	3303.88
982.015	3263.88
982.238	3217.88
982.461	3241.88
982.684	3161.88
982.907	3146.88
983.129	3097.88
983.352	3166.88
983.575	3165.88
983.797	3127.88
984.02	3063.88
984.242	3067.88
984.465	3101.88
984.687	3094.88
984.91	3081.88
985.132	3018.88
985.354	3064.88
985.577	3011.88
985.799	3030.88
986.021	2937.88
986.243	2925.88
986.465	2960.88
986.687	2963.88
986.909	2987.88
987.131	2910.88
987.353	2882.88
987.575	2931.88
987.797	2890.88
988.019	2832.88
988.241	2893.88
988.462	2823.88
988.684	2867.88
988.906	2906.88
989.127	2902.88
989.349	2803.88
989.57	2819.88
989.792	2877.88
990.013	2870.88
990.234	2836.88
990.456	2881.88
990.677	2805.88
990.898	2769.88
991.119	2766.88
991.341	2815.88
991.562	2728.88
991.783	2747.88
992.004	2681.88
992.225	2634.88
992.446	2713.88
992.667	2562.88
992.887	2667.88
993.108	2564.88
993.329	2671.88
993.55	2596.88
993.77	2608.88
993.991	2548.88
994.212	2556.88
994.432	2558.88
994.653	2575.88
994.873	2547.88
995.093	2398.88
995.314	2473.88
995.534	2535.88
995.754	2540.88
995.975	2542.88
996.195	2464.88
996.415	2439.88
996.635	2518.88
996.855	2500.88
997.075	2461.88
997.295	2466.88
997.515	2439.88
997.735	2494.88
997.955	2483.88
998.174	2416.88
998.394	2418.88
998.614	2480.88
998.834	2416.88
999.053	2454.88
999.273	2419.88
999.492	2465.88
999.712	2353.88
999.931	2355.88
1000.151	2382.88
1000.37	2344.88
1000.589	2424.88
1000.809	2341.88
1001.028	2419.88
1001.247	2341.88
1001.466	2254.88
1001.685	2389.88
1001.904	2307.88
1002.123	2301.88
1002.342	2291.88
1002.561	2219.88
1002.78	2255.88
1002.999	2337.88
1003.218	2208.88
1003.436	2219.88
1003.655	2238.88
1003.874	2177.88
1004.092	2207.88
1004.311	2259.88
1004.53	2202.88
1004.748	2259.88
1004.966	2183.88
1005.185	2209.88
1005.403	2208.88
1005.622	2210.88
1005.84	2253.88
1006.058	2153.88
1006.276	2168.88
1006.494	2633.88
1006.712	2183.88
1006.931	2281.88
1007.149	2142.88
1007.367	2157.88
1007.584	2201.88
1007.802	2241.88
1008.02	2206.88
1008.238	2284.88
1008.456	2294.88
1008.673	2165.88
1008.891	2304.88
1009.109	2265.88
1009.326	2351.88
1009.544	2424.88
1009.761	2340.88
1009.979	2488.88
1010.196	2547.88
1010.413	2685.88
1010.631	2763.88
1010.848	2817.88
1011.065	2869.88
1011.282	2835.88
1011.5	2762.88
1011.717	2882.88
1011.934	2762.88
1012.151	2786.88
1012.368	2800.88
1012.585	2725.88
1012.801	2827.88
1013.018	2781.88
1013.235	2767.88
1013.452	2787.88
1013.669	2808.88
1013.885	2802.88
1014.102	2822.88
1014.318	2807.88
1014.535	2792.88
1014.751	2782.88
1014.968	2782.88
1015.184	2785.88
1015.401	2666.88
1015.617	2730.88
1015.833	2674.88
1016.049	2637.88
1016.266	2639.88
1016.482	2611.88
1016.698	2552.88
1016.914	2597.88
1017.13	2552.88
1017.346	2523.88
1017.562	2615.88
1017.778	2512.88
1017.993	2500.88
1018.209	2574.88
1018.425	2518.88
1018.641	2488.88
1018.856	2521.88
1019.072	2491.88
1019.288	2552.88
1019.503	2491.88
1019.719	2422.88
1019.934	2409.88
1020.149	2491.88
1020.365	2425.88
1020.58	2373.88
1020.795	2345.88
1021.011	2250.88
1021.226	2240.88
1021.441	2217.88
1021.656	2121.88
1021.871	2047.88
1022.086	1998.88
1022.301	2006.88
1022.516	1990.88
1022.731	2009.88
1022.946	1940.88
1023.16	1887.88
1023.375	1846.88
1023.59	1808.88
1023.804	1768.88
1024.019	1845.88
1024.234	1701.88
1024.448	1702.88
1024.663	1644.88
1024.877	1638.88
1025.092	1613.88
1025.306	1635.88
1025.52	1494.88
1025.734	1570.88
1025.949	1472.88
1026.163	1431.88
1026.377	1357.88
1026.591	1417.88
1026.805	1314.88
1027.019	1290.88
1027.233	1267.88
1027.447	1213.88
1027.661	1297.88
1027.875	1237.88
1028.088	1211.88
1028.302	1157.88
1028.516	1121.88
1028.73	1098.88
1028.943	1079.88
1029.157	1008.88
1029.37	960.88
1029.584	-2.12
1029.797	-4.12
1030.011	-0.12
1030.224	0.88
