Data from QEP037381__108__15-27-15-867.txt Node

Date: Fri Dec 16 15:27:15 EST 2022
User: dcclab
Spectrometer: QEP03738
Trigger mode: 4
Integration Time (sec): 1.000000E1
Scans to average: 1
Electric dark correction enabled: true
Nonlinearity correction enabled: false
Boxcar width: 0
XAxis mode: Wavelengths
Number of Pixels in Spectrum: 1044
>>>>>Begin Spectral Data<<<<<
784.041	13.38
784.3	-1.62
784.558	-1.62
784.817	-6.62
785.075	91078.38
785.334	15833.38
785.592	7449.38
785.851	5179.38
786.109	3878.38
786.368	3061.38
786.626	2457.38
786.884	2049.38
787.143	1718.38
787.401	1420.38
787.659	1295.38
787.917	1100.38
788.175	1017.38
788.433	896.38
788.691	808.38
788.949	747.38
789.207	746.38
789.465	640.38
789.723	629.38
789.98	552.38
790.238	612.38
790.496	562.38
790.753	537.38
791.011	581.38
791.268	533.38
791.526	531.38
791.783	523.38
792.041	530.38
792.298	432.38
792.556	493.38
792.813	473.38
793.07	473.38
793.327	444.38
793.584	517.38
793.841	437.38
794.099	455.38
794.356	538.38
794.613	432.38
794.869	476.38
795.126	429.38
795.383	420.38
795.64	439.38
795.897	384.38
796.153	455.38
796.41	432.38
796.667	422.38
796.923	422.38
797.18	432.38
797.436	455.38
797.693	411.38
797.949	482.38
798.206	494.38
798.462	423.38
798.718	467.38
798.974	462.38
799.231	490.38
799.487	492.38
799.743	480.38
799.999	530.38
800.255	520.38
800.511	507.38
800.767	556.38
801.023	558.38
801.279	575.38
801.534	617.38
801.79	660.38
802.046	700.38
802.302	857.38
802.557	970.38
802.813	1211.38
803.068	1519.38
803.324	2056.38
803.579	2835.38
803.835	3912.38
804.09	5398.38
804.345	7097.38
804.601	8982.38
804.856	10874.38
805.111	12553.38
805.366	13865.38
805.621	14805.38
805.876	15493.38
806.131	15953.38
806.386	16162.38
806.641	16490.38
806.896	16689.38
807.151	17225.38
807.406	17388.38
807.661	17788.38
807.915	18103.38
808.17	18354.38
808.425	18554.38
808.679	18652.38
808.934	19000.38
809.188	19167.38
809.443	19458.38
809.697	19675.38
809.951	19767.38
810.206	19965.38
810.46	20255.38
810.714	20412.38
810.968	20674.38
811.223	20681.38
811.477	20954.38
811.731	21091.38
811.985	21318.38
812.239	21372.38
812.493	21460.38
812.747	21581.38
813	21647.38
813.254	21736.38
813.508	21822.38
813.762	22044.38
814.015	22084.38
814.269	22270.38
814.522	22510.38
814.776	22680.38
815.03	23057.38
815.283	23354.38
815.536	23776.38
815.79	24159.38
816.043	24447.38
816.296	24907.38
816.55	25136.38
816.803	25350.38
817.056	25821.38
817.309	25996.38
817.562	26293.38
817.815	26564.38
818.068	26791.38
818.321	27019.38
818.574	27450.38
818.827	27759.38
819.079	28114.38
819.332	28609.38
819.585	28985.38
819.838	29307.38
820.09	29512.38
820.343	29828.38
820.595	29897.38
820.848	30081.38
821.1	30344.38
821.353	30355.38
821.605	30281.38
821.857	30332.38
822.11	30228.38
822.362	30008.38
822.614	30092.38
822.866	30047.38
823.118	30039.38
823.37	30250.38
823.622	30330.38
823.874	30482.38
824.126	30535.38
824.378	30579.38
824.63	30707.38
824.882	30772.38
825.134	30645.38
825.385	30796.38
825.637	30730.38
825.888	30487.38
826.14	30456.38
826.392	30451.38
826.643	30236.38
826.895	30278.38
827.146	30166.38
827.397	30005.38
827.649	30117.38
827.9	30091.38
828.151	30012.38
828.402	30191.38
828.653	30242.38
828.905	30255.38
829.156	30340.38
829.407	30278.38
829.658	30342.38
829.909	30538.38
830.159	30480.38
830.41	30353.38
830.661	30134.38
830.912	29947.38
831.162	29833.38
831.413	29673.38
831.664	29888.38
831.914	29768.38
832.165	29867.38
832.415	29826.38
832.666	29773.38
832.916	29701.38
833.167	29940.38
833.417	29768.38
833.667	29692.38
833.917	29636.38
834.168	29549.38
834.418	29468.38
834.668	29423.38
834.918	29255.38
835.168	29201.38
835.418	29070.38
835.668	29068.38
835.918	29084.38
836.167	28852.38
836.417	28821.38
836.667	28827.38
836.917	28834.38
837.166	28790.38
837.416	28839.38
837.666	28822.38
837.915	28681.38
838.165	28629.38
838.414	28574.38
838.663	28472.38
838.913	28528.38
839.162	28416.38
839.411	28588.38
839.661	28320.38
839.91	28263.38
840.159	28227.38
840.408	28229.38
840.657	28304.38
840.906	28189.38
841.155	28386.38
841.404	28179.38
841.653	28233.38
841.902	28190.38
842.15	28455.38
842.399	28421.38
842.648	28314.38
842.897	28152.38
843.145	27993.38
843.394	27819.38
843.642	27738.38
843.891	27787.38
844.139	27541.38
844.388	27332.38
844.636	27167.38
844.884	27174.38
845.133	27352.38
845.381	27118.38
845.629	27212.38
845.877	27096.38
846.125	27201.38
846.373	27144.38
846.621	27034.38
846.869	27001.38
847.117	26737.38
847.365	26658.38
847.613	26661.38
847.861	26447.38
848.108	26491.38
848.356	26389.38
848.604	26366.38
848.851	26347.38
849.099	26391.38
849.346	26496.38
849.594	26566.38
849.841	26649.38
850.089	26735.38
850.336	26762.38
850.583	26638.38
850.831	26546.38
851.078	26499.38
851.325	26477.38
851.572	26592.38
851.819	26319.38
852.066	25913.38
852.313	25644.38
852.56	25361.38
852.807	25371.38
853.054	25178.38
853.301	25112.38
853.548	25214.38
853.794	25405.38
854.041	25427.38
854.288	25461.38
854.534	25789.38
854.781	25728.38
855.028	25687.38
855.274	25722.38
855.52	25402.38
855.767	25303.38
856.013	25412.38
856.26	25572.38
856.506	25128.38
856.752	25159.38
856.998	25176.38
857.244	25233.38
857.49	25385.38
857.736	25351.38
857.982	25562.38
858.228	25292.38
858.474	25230.38
858.72	24956.38
858.966	24825.38
859.212	24606.38
859.458	24389.38
859.703	24096.38
859.949	23914.38
860.195	23718.38
860.44	23677.38
860.686	23617.38
860.931	23639.38
861.177	23430.38
861.422	23361.38
861.667	23311.38
861.913	23226.38
862.158	23303.38
862.403	23363.38
862.648	23423.38
862.893	23483.38
863.138	23437.38
863.384	23335.38
863.629	23392.38
863.873	23261.38
864.118	23239.38
864.363	23123.38
864.608	23134.38
864.853	23015.38
865.098	23009.38
865.342	22902.38
865.587	22800.38
865.832	22749.38
866.076	22704.38
866.321	22652.38
866.565	22681.38
866.81	22522.38
867.054	22534.38
867.298	22442.38
867.543	22278.38
867.787	22385.38
868.031	22264.38
868.275	22132.38
868.519	22224.38
868.764	22268.38
869.008	22162.38
869.252	22152.38
869.496	22134.38
869.739	22029.38
869.983	21999.38
870.227	22115.38
870.471	22047.38
870.715	22174.38
870.958	22095.38
871.202	22212.38
871.446	22332.38
871.689	22308.38
871.933	22353.38
872.176	22270.38
872.42	22225.38
872.663	22134.38
872.906	22125.38
873.15	22003.38
873.393	22023.38
873.636	21958.38
873.879	21771.38
874.122	21527.38
874.366	21321.38
874.609	21160.38
874.852	21002.38
875.095	20826.38
875.337	20803.38
875.58	20688.38
875.823	20585.38
876.066	20587.38
876.309	20591.38
876.551	20368.38
876.794	20379.38
877.037	20323.38
877.279	20240.38
877.522	20152.38
877.764	20369.38
878.007	20186.38
878.249	20206.38
878.491	20127.38
878.734	20218.38
878.976	20106.38
879.218	19903.38
879.46	19890.38
879.702	19749.38
879.945	19616.38
880.187	19337.38
880.429	19407.38
880.671	19181.38
880.912	19268.38
881.154	19153.38
881.396	19075.38
881.638	19041.38
881.88	19147.38
882.121	19050.38
882.363	18942.38
882.605	19133.38
882.846	19016.38
883.088	18865.38
883.329	19063.38
883.571	19052.38
883.812	19135.38
884.053	19427.38
884.295	19713.38
884.536	20063.38
884.777	19803.38
885.018	19727.38
885.259	19609.38
885.5	19500.38
885.742	19791.38
885.982	19473.38
886.223	19359.38
886.464	19186.38
886.705	19013.38
886.946	18848.38
887.187	18619.38
887.428	18388.38
887.668	18122.38
887.909	17925.38
888.15	17763.38
888.39	17677.38
888.631	17613.38
888.871	17403.38
889.111	17294.38
889.352	17240.38
889.592	17044.38
889.833	16965.38
890.073	16833.38
890.313	16826.38
890.553	16559.38
890.793	16563.38
891.033	16597.38
891.273	16426.38
891.513	16427.38
891.753	16408.38
891.993	16367.38
892.233	16411.38
892.473	16489.38
892.713	16455.38
892.952	16431.38
893.192	16529.38
893.432	16440.38
893.671	16443.38
893.911	16364.38
894.15	16315.38
894.39	16198.38
894.629	16127.38
894.869	16030.38
895.108	15963.38
895.347	15943.38
895.587	15984.38
895.826	15901.38
896.065	15844.38
896.304	15924.38
896.543	15844.38
896.782	15794.38
897.021	15777.38
897.26	15839.38
897.499	15808.38
897.738	15817.38
897.977	15694.38
898.216	15445.38
898.454	15473.38
898.693	15314.38
898.932	15403.38
899.17	15358.38
899.409	15272.38
899.647	15284.38
899.886	15287.38
900.124	15301.38
900.363	15282.38
900.601	15291.38
900.839	15375.38
901.078	15433.38
901.316	15520.38
901.554	15580.38
901.792	15593.38
902.03	15600.38
902.268	15632.38
902.506	15604.38
902.744	15401.38
902.982	15354.38
903.22	15100.38
903.458	14831.38
903.695	14630.38
903.933	14561.38
904.171	14148.38
904.409	13995.38
904.646	13789.38
904.884	13608.38
905.121	13466.38
905.359	13276.38
905.596	13250.38
905.833	13046.38
906.071	12965.38
906.308	12977.38
906.545	12967.38
906.783	12912.38
907.02	12796.38
907.257	12702.38
907.494	12719.38
907.731	12711.38
907.968	12609.38
908.205	12579.38
908.442	12448.38
908.679	12414.38
908.915	12250.38
909.152	12310.38
909.389	12099.38
909.626	12083.38
909.862	11870.38
910.099	11917.38
910.335	11908.38
910.572	11816.38
910.808	11783.38
911.045	11674.38
911.281	11666.38
911.518	11652.38
911.754	11567.38
911.99	11478.38
912.226	11399.38
912.463	11235.38
912.699	11288.38
912.935	11108.38
913.171	11035.38
913.407	10914.38
913.643	10881.38
913.879	10816.38
914.114	10705.38
914.35	10643.38
914.586	10542.38
914.822	10457.38
915.057	10385.38
915.293	10251.38
915.529	10324.38
915.764	10407.38
916	10273.38
916.235	10237.38
916.471	10199.38
916.706	10130.38
916.941	10161.38
917.177	10139.38
917.412	10126.38
917.647	10198.38
917.882	9979.38
918.117	10117.38
918.352	10080.38
918.588	10111.38
918.823	9950.38
919.057	9853.38
919.292	9691.38
919.527	9771.38
919.762	9513.38
919.997	9538.38
920.232	9444.38
920.466	9365.38
920.701	9151.38
920.935	9213.38
921.17	9161.38
921.405	9049.38
921.639	9050.38
921.873	8982.38
922.108	9003.38
922.342	8999.38
922.576	8967.38
922.811	8893.38
923.045	8879.38
923.279	8895.38
923.513	8684.38
923.747	8747.38
923.981	8753.38
924.215	8673.38
924.449	8557.38
924.683	8558.38
924.917	8468.38
925.151	8406.38
925.385	8481.38
925.618	8395.38
925.852	8447.38
926.086	8429.38
926.319	8436.38
926.553	8359.38
926.786	8378.38
927.02	8297.38
927.253	8370.38
927.486	8399.38
927.72	8237.38
927.953	8328.38
928.186	8239.38
928.42	8248.38
928.653	8152.38
928.886	8080.38
929.119	8108.38
929.352	8132.38
929.585	8065.38
929.818	7934.38
930.051	7967.38
930.284	7905.38
930.516	7778.38
930.749	7731.38
930.982	7776.38
931.215	7694.38
931.447	7609.38
931.68	7597.38
931.912	7576.38
932.145	7569.38
932.377	7633.38
932.61	7769.38
932.842	7532.38
933.074	7642.38
933.307	7531.38
933.539	7608.38
933.771	7610.38
934.003	7538.38
934.236	7642.38
934.468	7643.38
934.7	7544.38
934.932	7596.38
935.164	7488.38
935.395	7420.38
935.627	7508.38
935.859	7512.38
936.091	7360.38
936.323	7411.38
936.554	7384.38
936.786	7318.38
937.017	7277.38
937.249	7228.38
937.481	7270.38
937.712	7213.38
937.943	7212.38
938.175	7205.38
938.406	7191.38
938.637	7242.38
938.869	7131.38
939.1	7209.38
939.331	7175.38
939.562	7099.38
939.793	7143.38
940.024	7060.38
940.255	7024.38
940.486	7037.38
940.717	6973.38
940.948	6976.38
941.179	6922.38
941.409	6892.38
941.64	6888.38
941.871	6856.38
942.102	6846.38
942.332	6799.38
942.563	6889.38
942.793	6906.38
943.024	6787.38
943.254	6882.38
943.484	6861.38
943.715	6864.38
943.945	6849.38
944.175	6741.38
944.405	6756.38
944.636	6770.38
944.866	6784.38
945.096	6826.38
945.326	6666.38
945.556	6755.38
945.786	6746.38
946.016	6611.38
946.245	6577.38
946.475	6535.38
946.705	6496.38
946.935	6477.38
947.164	6443.38
947.394	6390.38
947.624	6366.38
947.853	6370.38
948.083	6375.38
948.312	6286.38
948.542	6239.38
948.771	6216.38
949	6241.38
949.23	6209.38
949.459	6183.38
949.688	6263.38
949.917	6147.38
950.146	6199.38
950.375	6241.38
950.604	6099.38
950.833	6214.38
951.062	6168.38
951.291	6113.38
951.52	6121.38
951.749	6105.38
951.978	6076.38
952.206	6085.38
952.435	6011.38
952.664	6036.38
952.892	5970.38
953.121	6018.38
953.349	5942.38
953.578	5938.38
953.806	5955.38
954.035	5840.38
954.263	5836.38
954.491	5765.38
954.719	5793.38
954.948	5760.38
955.176	5687.38
955.404	5616.38
955.632	5671.38
955.86	5740.38
956.088	5642.38
956.316	5580.38
956.544	5593.38
956.772	5558.38
956.999	5453.38
957.227	5579.38
957.455	5387.38
957.683	5446.38
957.91	5399.38
958.138	5405.38
958.365	5367.38
958.593	5283.38
958.82	5265.38
959.048	5304.38
959.275	5275.38
959.502	5259.38
959.73	5189.38
959.957	5239.38
960.184	5229.38
960.411	5169.38
960.638	5237.38
960.865	5209.38
961.092	5210.38
961.319	5064.38
961.546	5130.38
961.773	5163.38
962	5137.38
962.227	5166.38
962.454	5091.38
962.68	5077.38
962.907	5075.38
963.134	5001.38
963.36	5011.38
963.587	5050.38
963.813	4917.38
964.04	4929.38
964.266	4862.38
964.493	4932.38
964.719	4825.38
964.945	4859.38
965.171	4747.38
965.398	4782.38
965.624	4777.38
965.85	4659.38
966.076	4673.38
966.302	4679.38
966.528	4667.38
966.754	4698.38
966.98	4619.38
967.206	4615.38
967.431	4566.38
967.657	4640.38
967.883	4620.38
968.109	4520.38
968.334	4477.38
968.56	4475.38
968.785	4527.38
969.011	4470.38
969.236	4536.38
969.462	4397.38
969.687	4451.38
969.912	4447.38
970.138	4470.38
970.363	4396.38
970.588	4396.38
970.813	4367.38
971.038	4338.38
971.263	4405.38
971.488	4364.38
971.713	4403.38
971.938	4340.38
972.163	4254.38
972.388	4284.38
972.613	4195.38
972.838	4232.38
973.062	4189.38
973.287	4182.38
973.512	4110.38
973.736	4138.38
973.961	4137.38
974.185	4069.38
974.41	4080.38
974.634	3972.38
974.858	3994.38
975.083	4004.38
975.307	4016.38
975.531	3918.38
975.755	3866.38
975.98	3877.38
976.204	3812.38
976.428	3802.38
976.652	3804.38
976.876	3794.38
977.1	3793.38
977.324	3761.38
977.547	3779.38
977.771	3808.38
977.995	3777.38
978.219	3642.38
978.442	3798.38
978.666	3722.38
978.89	3689.38
979.113	3665.38
979.337	3670.38
979.56	3624.38
979.783	3714.38
980.007	3580.38
980.23	3632.38
980.453	3556.38
980.677	3662.38
980.9	3594.38
981.123	3485.38
981.346	3549.38
981.569	3533.38
981.792	3547.38
982.015	3492.38
982.238	3445.38
982.461	3482.38
982.684	3423.38
982.907	3381.38
983.129	3388.38
983.352	3380.38
983.575	3394.38
983.797	3342.38
984.02	3301.38
984.242	3322.38
984.465	3278.38
984.687	3309.38
984.91	3329.38
985.132	3295.38
985.354	3231.38
985.577	3261.38
985.799	3215.38
986.021	3128.38
986.243	3167.38
986.465	3196.38
986.687	3177.38
986.909	3232.38
987.131	3160.38
987.353	3089.38
987.575	3182.38
987.797	3136.38
988.019	3059.38
988.241	3112.38
988.462	3034.38
988.684	3055.38
988.906	3120.38
989.127	3136.38
989.349	2996.38
989.57	3056.38
989.792	3043.38
990.013	3104.38
990.234	3065.38
990.456	3067.38
990.677	3037.38
990.898	2967.38
991.119	3001.38
991.341	2994.38
991.562	2897.38
991.783	2892.38
992.004	2882.38
992.225	2839.38
992.446	2923.38
992.667	2818.38
992.887	2870.38
993.108	2788.38
993.329	2905.38
993.55	2815.38
993.77	2759.38
993.991	2715.38
994.212	2762.38
994.432	2788.38
994.653	2742.38
994.873	2726.38
995.093	2612.38
995.314	2662.38
995.534	2733.38
995.754	2731.38
995.975	2762.38
996.195	2633.38
996.415	2675.38
996.635	2657.38
996.855	2652.38
997.075	2651.38
997.295	2600.38
997.515	2622.38
997.735	2687.38
997.955	2602.38
998.174	2596.38
998.394	2611.38
998.614	2607.38
998.834	2572.38
999.053	2628.38
999.273	2589.38
999.492	2591.38
999.712	2550.38
999.931	2542.38
1000.151	2564.38
1000.37	2492.38
1000.589	2599.38
1000.809	2484.38
1001.028	2572.38
1001.247	2496.38
1001.466	2416.38
1001.685	2551.38
1001.904	2459.38
1002.123	2425.38
1002.342	2436.38
1002.561	2362.38
1002.78	2387.38
1002.999	2452.38
1003.218	2389.38
1003.436	2345.38
1003.655	2392.38
1003.874	2337.38
1004.092	2335.38
1004.311	2378.38
1004.53	2349.38
1004.748	2442.38
1004.966	2342.38
1005.185	2371.38
1005.403	2377.38
1005.622	2318.38
1005.84	2371.38
1006.058	2291.38
1006.276	2317.38
1006.494	2839.38
1006.712	2312.38
1006.931	2373.38
1007.149	2295.38
1007.367	2290.38
1007.584	2379.38
1007.802	2363.38
1008.02	2344.38
1008.238	2455.38
1008.456	2443.38
1008.673	2300.38
1008.891	2435.38
1009.109	2412.38
1009.326	2482.38
1009.544	2586.38
1009.761	2511.38
1009.979	2625.38
1010.196	2651.38
1010.413	2792.38
1010.631	2896.38
1010.848	3008.38
1011.065	3026.38
1011.282	2949.38
1011.5	2892.38
1011.717	3008.38
1011.934	2959.38
1012.151	2981.38
1012.368	2920.38
1012.585	2870.38
1012.801	2981.38
1013.018	2944.38
1013.235	2902.38
1013.452	2924.38
1013.669	2961.38
1013.885	2950.38
1014.102	2989.38
1014.318	2937.38
1014.535	2897.38
1014.751	2942.38
1014.968	2945.38
1015.184	2941.38
1015.401	2799.38
1015.617	2855.38
1015.833	2791.38
1016.049	2750.38
1016.266	2769.38
1016.482	2730.38
1016.698	2660.38
1016.914	2698.38
1017.13	2675.38
1017.346	2638.38
1017.562	2694.38
1017.778	2624.38
1017.993	2559.38
1018.209	2660.38
1018.425	2638.38
1018.641	2591.38
1018.856	2551.38
1019.072	2605.38
1019.288	2633.38
1019.503	2582.38
1019.719	2520.38
1019.934	2508.38
1020.149	2605.38
1020.365	2462.38
1020.58	2439.38
1020.795	2445.38
1021.011	2350.38
1021.226	2334.38
1021.441	2319.38
1021.656	2226.38
1021.871	2143.38
1022.086	2115.38
1022.301	2100.38
1022.516	2053.38
1022.731	2110.38
1022.946	2016.38
1023.16	1987.38
1023.375	1919.38
1023.59	1893.38
1023.804	1850.38
1024.019	1941.38
1024.234	1796.38
1024.448	1780.38
1024.663	1716.38
1024.877	1697.38
1025.092	1682.38
1025.306	1712.38
1025.52	1613.38
1025.734	1639.38
1025.949	1546.38
1026.163	1505.38
1026.377	1436.38
1026.591	1466.38
1026.805	1395.38
1027.019	1352.38
1027.233	1332.38
1027.447	1270.38
1027.661	1373.38
1027.875	1309.38
1028.088	1283.38
1028.302	1238.38
1028.516	1148.38
1028.73	1150.38
1028.943	1123.38
1029.157	1083.38
1029.37	1012.38
1029.584	-1.62
1029.797	0.38
1030.011	0.38
1030.224	-2.62
