Data from QEP037381__75__15-21-45-863.txt Node

Date: Fri Dec 16 15:21:45 EST 2022
User: dcclab
Spectrometer: QEP03738
Trigger mode: 4
Integration Time (sec): 1.000000E1
Scans to average: 1
Electric dark correction enabled: true
Nonlinearity correction enabled: false
Boxcar width: 0
XAxis mode: Wavelengths
Number of Pixels in Spectrum: 1044
>>>>>Begin Spectral Data<<<<<
784.041	12.62
784.3	0.62
784.558	-0.38
784.817	-3.38
785.075	88798.62
785.334	15378.62
785.592	7205.62
785.851	5055.62
786.109	3811.62
786.368	2965.62
786.626	2405.62
786.884	1992.62
787.143	1693.62
787.401	1414.62
787.659	1290.62
787.917	1111.62
788.175	1012.62
788.433	919.62
788.691	807.62
788.949	765.62
789.207	724.62
789.465	621.62
789.723	612.62
789.98	556.62
790.238	598.62
790.496	573.62
790.753	552.62
791.011	586.62
791.268	532.62
791.526	524.62
791.783	518.62
792.041	510.62
792.298	437.62
792.556	497.62
792.813	472.62
793.07	467.62
793.327	436.62
793.584	523.62
793.841	436.62
794.099	459.62
794.356	530.62
794.613	434.62
794.869	454.62
795.126	439.62
795.383	403.62
795.64	436.62
795.897	400.62
796.153	439.62
796.41	445.62
796.667	418.62
796.923	430.62
797.18	429.62
797.436	457.62
797.693	412.62
797.949	476.62
798.206	499.62
798.462	418.62
798.718	481.62
798.974	456.62
799.231	492.62
799.487	494.62
799.743	491.62
799.999	523.62
800.255	509.62
800.511	503.62
800.767	537.62
801.023	530.62
801.279	572.62
801.534	616.62
801.79	658.62
802.046	692.62
802.302	832.62
802.557	929.62
802.813	1171.62
803.068	1447.62
803.324	1983.62
803.579	2714.62
803.835	3764.62
804.09	5179.62
804.345	6753.62
804.601	8543.62
804.856	10414.62
805.111	12041.62
805.366	13338.62
805.621	14189.62
805.876	14831.62
806.131	15256.62
806.386	15545.62
806.641	15823.62
806.896	16094.62
807.151	16428.62
807.406	16755.62
807.661	17093.62
807.915	17379.62
808.17	17574.62
808.425	17784.62
808.679	18003.62
808.934	18231.62
809.188	18473.62
809.443	18753.62
809.697	18978.62
809.951	19024.62
810.206	19369.62
810.46	19554.62
810.714	19730.62
810.968	20000.62
811.223	20022.62
811.477	20189.62
811.731	20492.62
811.985	20519.62
812.239	20663.62
812.493	20801.62
812.747	20905.62
813	21033.62
813.254	21094.62
813.508	21245.62
813.762	21282.62
814.015	21351.62
814.269	21632.62
814.522	21897.62
814.776	22022.62
815.03	22353.62
815.283	22757.62
815.536	23289.62
815.79	23498.62
816.043	23942.62
816.296	24150.62
816.55	24676.62
816.803	24991.62
817.056	25269.62
817.309	25367.62
817.562	25715.62
817.815	26006.62
818.068	26225.62
818.321	26603.62
818.574	26902.62
818.827	27349.62
819.079	27582.62
819.332	28066.62
819.585	28373.62
819.838	28810.62
820.09	28952.62
820.343	29265.62
820.595	29517.62
820.848	29711.62
821.1	29876.62
821.353	29984.62
821.605	29693.62
821.857	29796.62
822.11	29736.62
822.362	29703.62
822.614	29698.62
822.866	29639.62
823.118	29590.62
823.37	29834.62
823.622	29876.62
823.874	30030.62
824.126	30302.62
824.378	29972.62
824.63	30407.62
824.882	30450.62
825.134	30307.62
825.385	30244.62
825.637	30370.62
825.888	30183.62
826.14	30221.62
826.392	30135.62
826.643	29955.62
826.895	29904.62
827.146	29707.62
827.397	29808.62
827.649	29827.62
827.9	29719.62
828.151	29687.62
828.402	29751.62
828.653	29977.62
828.905	29957.62
829.156	30154.62
829.407	30213.62
829.658	30147.62
829.909	30261.62
830.159	30226.62
830.41	30016.62
830.661	29952.62
830.912	29885.62
831.162	29806.62
831.413	29622.62
831.664	29761.62
831.914	29567.62
832.165	29562.62
832.415	29613.62
832.666	29569.62
832.916	29589.62
833.167	29681.62
833.417	29693.62
833.667	29602.62
833.917	29526.62
834.168	29502.62
834.418	29431.62
834.668	29377.62
834.918	29111.62
835.168	29017.62
835.418	28971.62
835.668	28877.62
835.918	28790.62
836.167	28906.62
836.417	28782.62
836.667	28773.62
836.917	28667.62
837.166	28647.62
837.416	28739.62
837.666	28728.62
837.915	28617.62
838.165	28542.62
838.414	28487.62
838.663	28453.62
838.913	28584.62
839.162	28545.62
839.411	28572.62
839.661	28413.62
839.91	28414.62
840.159	28366.62
840.408	28372.62
840.657	28241.62
840.906	28436.62
841.155	28413.62
841.404	28398.62
841.653	28376.62
841.902	28310.62
842.15	28365.62
842.399	28362.62
842.648	28315.62
842.897	28206.62
843.145	28034.62
843.394	27905.62
843.642	27860.62
843.891	27782.62
844.139	27548.62
844.388	27454.62
844.636	27361.62
844.884	27426.62
845.133	27377.62
845.381	27329.62
845.629	27368.62
845.877	27424.62
846.125	27345.62
846.373	27471.62
846.621	27213.62
846.869	27239.62
847.117	27039.62
847.365	26909.62
847.613	26761.62
847.861	26622.62
848.108	26607.62
848.356	26691.62
848.604	26460.62
848.851	26635.62
849.099	26639.62
849.346	26733.62
849.594	26966.62
849.841	27061.62
850.089	27088.62
850.336	27026.62
850.583	26929.62
850.831	26809.62
851.078	26713.62
851.325	26872.62
851.572	27005.62
851.819	26692.62
852.066	26171.62
852.313	25737.62
852.56	25592.62
852.807	25450.62
853.054	25425.62
853.301	25385.62
853.548	25518.62
853.794	25715.62
854.041	25723.62
854.288	25743.62
854.534	26030.62
854.781	25999.62
855.028	25954.62
855.274	25962.62
855.52	25687.62
855.767	25580.62
856.013	25737.62
856.26	25915.62
856.506	25503.62
856.752	25385.62
856.998	25462.62
857.244	25489.62
857.49	25770.62
857.736	25832.62
857.982	25852.62
858.228	25665.62
858.474	25373.62
858.72	25344.62
858.966	25024.62
859.212	24824.62
859.458	24597.62
859.703	24420.62
859.949	24183.62
860.195	24100.62
860.44	24030.62
860.686	24036.62
860.931	24010.62
861.177	23757.62
861.422	23626.62
861.667	23543.62
861.913	23643.62
862.158	23630.62
862.403	23707.62
862.648	23835.62
862.893	23847.62
863.138	23887.62
863.384	23679.62
863.629	23722.62
863.873	23751.62
864.118	23747.62
864.363	23717.62
864.608	23514.62
864.853	23541.62
865.098	23432.62
865.342	23415.62
865.587	23342.62
865.832	23270.62
866.076	23239.62
866.321	23131.62
866.565	23096.62
866.81	22995.62
867.054	22900.62
867.298	22872.62
867.543	22765.62
867.787	22830.62
868.031	22766.62
868.275	22679.62
868.519	22668.62
868.764	22587.62
869.008	22645.62
869.252	22576.62
869.496	22542.62
869.739	22544.62
869.983	22624.62
870.227	22528.62
870.471	22517.62
870.715	22564.62
870.958	22815.62
871.202	22848.62
871.446	22853.62
871.689	22771.62
871.933	22900.62
872.176	22760.62
872.42	22743.62
872.663	22760.62
872.906	22662.62
873.15	22558.62
873.393	22392.62
873.636	22492.62
873.879	22367.62
874.122	22029.62
874.366	21867.62
874.609	21700.62
874.852	21561.62
875.095	21543.62
875.337	21465.62
875.58	21203.62
875.823	21180.62
876.066	21205.62
876.309	21095.62
876.551	20874.62
876.794	20942.62
877.037	20990.62
877.279	20733.62
877.522	20796.62
877.764	20798.62
878.007	20739.62
878.249	20753.62
878.491	20614.62
878.734	20700.62
878.976	20570.62
879.218	20506.62
879.46	20467.62
879.702	20272.62
879.945	20150.62
880.187	20069.62
880.429	19903.62
880.671	19862.62
880.912	19827.62
881.154	19737.62
881.396	19656.62
881.638	19702.62
881.88	19733.62
882.121	19691.62
882.363	19583.62
882.605	19610.62
882.846	19474.62
883.088	19482.62
883.329	19549.62
883.571	19608.62
883.812	19673.62
884.053	19968.62
884.295	20287.62
884.536	20480.62
884.777	20388.62
885.018	20399.62
885.259	20339.62
885.5	20289.62
885.742	20336.62
885.982	20098.62
886.223	19946.62
886.464	19841.62
886.705	19646.62
886.946	19372.62
887.187	19116.62
887.428	18948.62
887.668	18752.62
887.909	18388.62
888.15	18293.62
888.39	18108.62
888.631	18170.62
888.871	17983.62
889.111	17806.62
889.352	17806.62
889.592	17545.62
889.833	17504.62
890.073	17329.62
890.313	17407.62
890.553	17222.62
890.793	17027.62
891.033	17078.62
891.273	16919.62
891.513	16887.62
891.753	16896.62
891.993	16864.62
892.233	16879.62
892.473	17067.62
892.713	17014.62
892.952	16971.62
893.192	17042.62
893.432	16993.62
893.671	16984.62
893.911	16911.62
894.15	16860.62
894.39	16745.62
894.629	16666.62
894.869	16509.62
895.108	16435.62
895.347	16399.62
895.587	16440.62
895.826	16400.62
896.065	16386.62
896.304	16435.62
896.543	16385.62
896.782	16285.62
897.021	16300.62
897.26	16379.62
897.499	16320.62
897.738	16144.62
897.977	16171.62
898.216	16058.62
898.454	16011.62
898.693	15902.62
898.932	15820.62
899.17	15741.62
899.409	15855.62
899.647	15835.62
899.886	15794.62
900.124	15784.62
900.363	15824.62
900.601	15865.62
900.839	15826.62
901.078	15886.62
901.316	15942.62
901.554	16126.62
901.792	16195.62
902.03	16211.62
902.268	16119.62
902.506	16172.62
902.744	16078.62
902.982	15840.62
903.22	15589.62
903.458	15386.62
903.695	15220.62
903.933	14993.62
904.171	14643.62
904.409	14447.62
904.646	14321.62
904.884	14038.62
905.121	14083.62
905.359	13800.62
905.596	13702.62
905.833	13569.62
906.071	13475.62
906.308	13487.62
906.545	13417.62
906.783	13315.62
907.02	13255.62
907.257	13230.62
907.494	13138.62
907.731	13199.62
907.968	13077.62
908.205	13031.62
908.442	12885.62
908.679	12856.62
908.915	12789.62
909.152	12752.62
909.389	12543.62
909.626	12536.62
909.862	12346.62
910.099	12317.62
910.335	12354.62
910.572	12183.62
910.808	12240.62
911.045	12112.62
911.281	12079.62
911.518	12097.62
911.754	11961.62
911.99	11964.62
912.226	11889.62
912.463	11663.62
912.699	11678.62
912.935	11605.62
913.171	11542.62
913.407	11442.62
913.643	11382.62
913.879	11273.62
914.114	11212.62
914.35	11125.62
914.586	11008.62
914.822	10883.62
915.057	10939.62
915.293	10690.62
915.529	10724.62
915.764	10807.62
916	10775.62
916.235	10703.62
916.471	10700.62
916.706	10554.62
916.941	10559.62
917.177	10480.62
917.412	10653.62
917.647	10559.62
917.882	10477.62
918.117	10584.62
918.352	10477.62
918.588	10501.62
918.823	10371.62
919.057	10234.62
919.292	10088.62
919.527	10191.62
919.762	9993.62
919.997	9974.62
920.232	9863.62
920.466	9798.62
920.701	9606.62
920.935	9598.62
921.17	9568.62
921.405	9508.62
921.639	9510.62
921.873	9442.62
922.108	9411.62
922.342	9364.62
922.576	9350.62
922.811	9287.62
923.045	9265.62
923.279	9312.62
923.513	9183.62
923.747	9207.62
923.981	9202.62
924.215	9093.62
924.449	9030.62
924.683	8880.62
924.917	8876.62
925.151	8857.62
925.385	8912.62
925.618	8826.62
925.852	8830.62
926.086	8788.62
926.319	8814.62
926.553	8781.62
926.786	8830.62
927.02	8702.62
927.253	8757.62
927.486	8686.62
927.72	8641.62
927.953	8705.62
928.186	8599.62
928.42	8683.62
928.653	8583.62
928.886	8517.62
929.119	8598.62
929.352	8495.62
929.585	8383.62
929.818	8366.62
930.051	8315.62
930.284	8258.62
930.516	8180.62
930.749	8172.62
930.982	8135.62
931.215	8147.62
931.447	8014.62
931.68	8013.62
931.912	8011.62
932.145	8042.62
932.377	8050.62
932.61	8202.62
932.842	7983.62
933.074	7982.62
933.307	7973.62
933.539	8044.62
933.771	7964.62
934.003	7952.62
934.236	8042.62
934.468	8034.62
934.7	7913.62
934.932	7911.62
935.164	7894.62
935.395	7851.62
935.627	7819.62
935.859	7819.62
936.091	7726.62
936.323	7766.62
936.554	7805.62
936.786	7673.62
937.017	7595.62
937.249	7704.62
937.481	7616.62
937.712	7633.62
937.943	7608.62
938.175	7593.62
938.406	7539.62
938.637	7655.62
938.869	7548.62
939.1	7539.62
939.331	7519.62
939.562	7517.62
939.793	7491.62
940.024	7471.62
940.255	7473.62
940.486	7399.62
940.717	7370.62
940.948	7300.62
941.179	7283.62
941.409	7264.62
941.64	7309.62
941.871	7269.62
942.102	7265.62
942.332	7321.62
942.563	7350.62
942.793	7272.62
943.024	7247.62
943.254	7243.62
943.484	7267.62
943.715	7282.62
943.945	7207.62
944.175	7196.62
944.405	7062.62
944.636	7123.62
944.866	7229.62
945.096	7136.62
945.326	7078.62
945.556	7098.62
945.786	7077.62
946.016	6990.62
946.245	6944.62
946.475	6927.62
946.705	6938.62
946.935	6868.62
947.164	6904.62
947.394	6767.62
947.624	6801.62
947.853	6780.62
948.083	6730.62
948.312	6707.62
948.542	6532.62
948.771	6578.62
949	6623.62
949.23	6607.62
949.459	6617.62
949.688	6673.62
949.917	6551.62
950.146	6628.62
950.375	6648.62
950.604	6517.62
950.833	6617.62
951.062	6598.62
951.291	6543.62
951.52	6474.62
951.749	6474.62
951.978	6397.62
952.206	6375.62
952.435	6421.62
952.664	6515.62
952.892	6361.62
953.121	6361.62
953.349	6337.62
953.578	6303.62
953.806	6295.62
954.035	6181.62
954.263	6220.62
954.491	6174.62
954.719	6143.62
954.948	6107.62
955.176	6093.62
955.404	6009.62
955.632	6091.62
955.86	6022.62
956.088	6005.62
956.316	6009.62
956.544	5984.62
956.772	5956.62
956.999	5833.62
957.227	5972.62
957.455	5783.62
957.683	5848.62
957.91	5714.62
958.138	5665.62
958.365	5773.62
958.593	5704.62
958.82	5625.62
959.048	5669.62
959.275	5669.62
959.502	5618.62
959.73	5565.62
959.957	5628.62
960.184	5600.62
960.411	5563.62
960.638	5592.62
960.865	5530.62
961.092	5537.62
961.319	5458.62
961.546	5539.62
961.773	5508.62
962	5523.62
962.227	5545.62
962.454	5435.62
962.68	5381.62
962.907	5434.62
963.134	5364.62
963.36	5357.62
963.587	5376.62
963.813	5265.62
964.04	5237.62
964.266	5209.62
964.493	5255.62
964.719	5202.62
964.945	5201.62
965.171	5111.62
965.398	5143.62
965.624	5103.62
965.85	5023.62
966.076	5009.62
966.302	5074.62
966.528	4968.62
966.754	5020.62
966.98	4937.62
967.206	4981.62
967.431	4887.62
967.657	4905.62
967.883	4942.62
968.109	4920.62
968.334	4814.62
968.56	4846.62
968.785	4797.62
969.011	4787.62
969.236	4852.62
969.462	4750.62
969.687	4770.62
969.912	4818.62
970.138	4796.62
970.363	4694.62
970.588	4708.62
970.813	4666.62
971.038	4678.62
971.263	4644.62
971.488	4661.62
971.713	4677.62
971.938	4657.62
972.163	4530.62
972.388	4550.62
972.613	4498.62
972.838	4555.62
973.062	4493.62
973.287	4522.62
973.512	4390.62
973.736	4450.62
973.961	4396.62
974.185	4354.62
974.41	4399.62
974.634	4293.62
974.858	4262.62
975.083	4331.62
975.307	4350.62
975.531	4234.62
975.755	4149.62
975.98	4187.62
976.204	4114.62
976.428	4079.62
976.652	4104.62
976.876	4085.62
977.1	4080.62
977.324	4024.62
977.547	4060.62
977.771	4043.62
977.995	4029.62
978.219	3951.62
978.442	4087.62
978.666	4031.62
978.89	3964.62
979.113	3972.62
979.337	4003.62
979.56	3952.62
979.783	4017.62
980.007	3868.62
980.23	3876.62
980.453	3862.62
980.677	3892.62
980.9	3890.62
981.123	3814.62
981.346	3877.62
981.569	3773.62
981.792	3804.62
982.015	3757.62
982.238	3667.62
982.461	3701.62
982.684	3698.62
982.907	3668.62
983.129	3619.62
983.352	3684.62
983.575	3562.62
983.797	3617.62
984.02	3510.62
984.242	3546.62
984.465	3518.62
984.687	3571.62
984.91	3568.62
985.132	3526.62
985.354	3515.62
985.577	3488.62
985.799	3465.62
986.021	3360.62
986.243	3348.62
986.465	3411.62
986.687	3421.62
986.909	3429.62
987.131	3396.62
987.353	3339.62
987.575	3375.62
987.797	3318.62
988.019	3275.62
988.241	3330.62
988.462	3285.62
988.684	3340.62
988.906	3361.62
989.127	3385.62
989.349	3231.62
989.57	3290.62
989.792	3313.62
990.013	3307.62
990.234	3282.62
990.456	3267.62
990.677	3244.62
990.898	3212.62
991.119	3209.62
991.341	3219.62
991.562	3132.62
991.783	3174.62
992.004	3092.62
992.225	3075.62
992.446	3091.62
992.667	3013.62
992.887	3064.62
993.108	2968.62
993.329	3059.62
993.55	3043.62
993.77	2979.62
993.991	2944.62
994.212	2940.62
994.432	2933.62
994.653	2953.62
994.873	2933.62
995.093	2786.62
995.314	2883.62
995.534	2909.62
995.754	2920.62
995.975	2912.62
996.195	2840.62
996.415	2884.62
996.635	2867.62
996.855	2863.62
997.075	2791.62
997.295	2808.62
997.515	2799.62
997.735	2850.62
997.955	2794.62
998.174	2781.62
998.394	2765.62
998.614	2802.62
998.834	2749.62
999.053	2787.62
999.273	2788.62
999.492	2792.62
999.712	2699.62
999.931	2670.62
1000.151	2720.62
1000.37	2671.62
1000.589	2719.62
1000.809	2651.62
1001.028	2755.62
1001.247	2646.62
1001.466	2558.62
1001.685	2682.62
1001.904	2645.62
1002.123	2613.62
1002.342	2602.62
1002.561	2548.62
1002.78	2590.62
1002.999	2618.62
1003.218	2521.62
1003.436	2513.62
1003.655	2557.62
1003.874	2490.62
1004.092	2497.62
1004.311	2533.62
1004.53	2457.62
1004.748	2558.62
1004.966	2481.62
1005.185	2518.62
1005.403	2525.62
1005.622	2449.62
1005.84	2532.62
1006.058	2447.62
1006.276	2446.62
1006.494	2939.62
1006.712	2433.62
1006.931	2489.62
1007.149	2409.62
1007.367	2448.62
1007.584	2482.62
1007.802	2500.62
1008.02	2477.62
1008.238	2554.62
1008.456	2531.62
1008.673	2397.62
1008.891	2523.62
1009.109	2489.62
1009.326	2605.62
1009.544	2647.62
1009.761	2597.62
1009.979	2660.62
1010.196	2734.62
1010.413	2876.62
1010.631	2939.62
1010.848	3037.62
1011.065	3031.62
1011.282	3009.62
1011.5	2921.62
1011.717	3033.62
1011.934	2975.62
1012.151	2983.62
1012.368	2970.62
1012.585	2897.62
1012.801	2954.62
1013.018	2968.62
1013.235	2947.62
1013.452	2944.62
1013.669	2971.62
1013.885	2966.62
1014.102	2977.62
1014.318	2986.62
1014.535	2936.62
1014.751	2945.62
1014.968	2924.62
1015.184	2954.62
1015.401	2876.62
1015.617	2860.62
1015.833	2812.62
1016.049	2812.62
1016.266	2799.62
1016.482	2743.62
1016.698	2717.62
1016.914	2724.62
1017.13	2709.62
1017.346	2674.62
1017.562	2779.62
1017.778	2654.62
1017.993	2634.62
1018.209	2668.62
1018.425	2657.62
1018.641	2662.62
1018.856	2599.62
1019.072	2666.62
1019.288	2706.62
1019.503	2695.62
1019.719	2587.62
1019.934	2584.62
1020.149	2619.62
1020.365	2557.62
1020.58	2513.62
1020.795	2486.62
1021.011	2440.62
1021.226	2376.62
1021.441	2394.62
1021.656	2282.62
1021.871	2224.62
1022.086	2171.62
1022.301	2170.62
1022.516	2129.62
1022.731	2153.62
1022.946	2046.62
1023.16	2033.62
1023.375	1983.62
1023.59	1933.62
1023.804	1871.62
1024.019	1953.62
1024.234	1828.62
1024.448	1862.62
1024.663	1775.62
1024.877	1738.62
1025.092	1767.62
1025.306	1726.62
1025.52	1651.62
1025.734	1708.62
1025.949	1581.62
1026.163	1533.62
1026.377	1482.62
1026.591	1497.62
1026.805	1408.62
1027.019	1427.62
1027.233	1387.62
1027.447	1307.62
1027.661	1408.62
1027.875	1314.62
1028.088	1341.62
1028.302	1218.62
1028.516	1215.62
1028.73	1186.62
1028.943	1163.62
1029.157	1086.62
1029.37	1039.62
1029.584	-2.38
1029.797	-2.38
1030.011	-0.38
1030.224	-4.38
