Data from QEP037381__119__15-29-05-869.txt Node

Date: Fri Dec 16 15:29:05 EST 2022
User: dcclab
Spectrometer: QEP03738
Trigger mode: 4
Integration Time (sec): 1.000000E1
Scans to average: 1
Electric dark correction enabled: true
Nonlinearity correction enabled: false
Boxcar width: 0
XAxis mode: Wavelengths
Number of Pixels in Spectrum: 1044
>>>>>Begin Spectral Data<<<<<
784.041	11.75
784.3	-3.25
784.558	0.75
784.817	-4.25
785.075	91849.75
785.334	16107.75
785.592	7604.75
785.851	5244.75
786.109	3975.75
786.368	3079.75
786.626	2522.75
786.884	2074.75
787.143	1757.75
787.401	1463.75
787.659	1344.75
787.917	1135.75
788.175	1049.75
788.433	933.75
788.691	827.75
788.949	771.75
789.207	747.75
789.465	632.75
789.723	632.75
789.98	572.75
790.238	600.75
790.496	565.75
790.753	552.75
791.011	594.75
791.268	529.75
791.526	518.75
791.783	535.75
792.041	528.75
792.298	431.75
792.556	510.75
792.813	487.75
793.07	466.75
793.327	445.75
793.584	526.75
793.841	458.75
794.099	458.75
794.356	530.75
794.613	439.75
794.869	482.75
795.126	431.75
795.383	427.75
795.64	443.75
795.897	412.75
796.153	462.75
796.41	439.75
796.667	438.75
796.923	446.75
797.18	444.75
797.436	464.75
797.693	425.75
797.949	486.75
798.206	516.75
798.462	425.75
798.718	482.75
798.974	464.75
799.231	515.75
799.487	514.75
799.743	518.75
799.999	543.75
800.255	518.75
800.511	540.75
800.767	564.75
801.023	555.75
801.279	610.75
801.534	642.75
801.79	685.75
802.046	706.75
802.302	870.75
802.557	1020.75
802.813	1233.75
803.068	1538.75
803.324	2143.75
803.579	2933.75
803.835	4087.75
804.09	5703.75
804.345	7485.75
804.601	9486.75
804.856	11570.75
805.111	13407.75
805.366	14819.75
805.621	15902.75
805.876	16530.75
806.131	17025.75
806.386	17417.75
806.641	17641.75
806.896	18017.75
807.151	18409.75
807.406	18755.75
807.661	18913.75
807.915	19465.75
808.17	19698.75
808.425	19957.75
808.679	20070.75
808.934	20510.75
809.188	20558.75
809.443	20992.75
809.697	21249.75
809.951	21471.75
810.206	21657.75
810.46	21940.75
810.714	22068.75
810.968	22342.75
811.223	22595.75
811.477	22727.75
811.731	22961.75
811.985	23018.75
812.239	23281.75
812.493	23340.75
812.747	23461.75
813	23525.75
813.254	23743.75
813.508	23802.75
813.762	23928.75
814.015	24075.75
814.269	24357.75
814.522	24575.75
814.776	24784.75
815.03	25230.75
815.283	25564.75
815.536	25889.75
815.79	26444.75
816.043	26805.75
816.296	27211.75
816.55	27641.75
816.803	27827.75
817.056	28278.75
817.309	28517.75
817.562	28942.75
817.815	29291.75
818.068	29429.75
818.321	29690.75
818.574	30311.75
818.827	30463.75
819.079	31101.75
819.332	31576.75
819.585	31947.75
819.838	32479.75
820.09	32589.75
820.343	32895.75
820.595	33188.75
820.848	33451.75
821.1	33432.75
821.353	33768.75
821.605	33560.75
821.857	33627.75
822.11	33537.75
822.362	33478.75
822.614	33376.75
822.866	33576.75
823.118	33555.75
823.37	33776.75
823.622	33879.75
823.874	33997.75
824.126	34177.75
824.378	34161.75
824.63	34375.75
824.882	34533.75
825.134	34365.75
825.385	34355.75
825.637	34254.75
825.888	34217.75
826.14	34183.75
826.392	34004.75
826.643	33900.75
826.895	33997.75
827.146	33732.75
827.397	33792.75
827.649	33883.75
827.9	33757.75
828.151	33804.75
828.402	33948.75
828.653	34038.75
828.905	34187.75
829.156	34389.75
829.407	34225.75
829.658	34264.75
829.909	34400.75
830.159	34307.75
830.41	34271.75
830.661	34038.75
830.912	33818.75
831.162	33777.75
831.413	33739.75
831.664	33766.75
831.914	33806.75
832.165	33746.75
832.415	33853.75
832.666	33773.75
832.916	33929.75
833.167	33874.75
833.417	33689.75
833.667	33713.75
833.917	33553.75
834.168	33550.75
834.418	33403.75
834.668	33384.75
834.918	33163.75
835.168	33029.75
835.418	33058.75
835.668	32993.75
835.918	33092.75
836.167	32884.75
836.417	32928.75
836.667	32887.75
836.917	32897.75
837.166	32868.75
837.416	32769.75
837.666	32801.75
837.915	32731.75
838.165	32576.75
838.414	32616.75
838.663	32690.75
838.913	32679.75
839.162	32515.75
839.411	32579.75
839.661	32493.75
839.91	32300.75
840.159	32330.75
840.408	32432.75
840.657	32396.75
840.906	32444.75
841.155	32453.75
841.404	32438.75
841.653	32462.75
841.902	32439.75
842.15	32686.75
842.399	32575.75
842.648	32409.75
842.897	32357.75
843.145	32251.75
843.394	32168.75
843.642	31930.75
843.891	31852.75
844.139	31699.75
844.388	31507.75
844.636	31371.75
844.884	31421.75
845.133	31440.75
845.381	31431.75
845.629	31560.75
845.877	31423.75
846.125	31373.75
846.373	31349.75
846.621	31310.75
846.869	31216.75
847.117	30977.75
847.365	30800.75
847.613	30752.75
847.861	30694.75
848.108	30599.75
848.356	30660.75
848.604	30708.75
848.851	30620.75
849.099	30737.75
849.346	30876.75
849.594	30994.75
849.841	31214.75
850.089	31213.75
850.336	31082.75
850.583	31080.75
850.831	30865.75
851.078	30953.75
851.325	30931.75
851.572	30995.75
851.819	30699.75
852.066	30275.75
852.313	29778.75
852.56	29627.75
852.807	29483.75
853.054	29519.75
853.301	29488.75
853.548	29646.75
853.794	29838.75
854.041	29872.75
854.288	29905.75
854.534	30228.75
854.781	30296.75
855.028	30120.75
855.274	30108.75
855.52	29777.75
855.767	29756.75
856.013	29717.75
856.26	30128.75
856.506	29543.75
856.752	29430.75
856.998	29545.75
857.244	29710.75
857.49	29801.75
857.736	29888.75
857.982	29919.75
858.228	29860.75
858.474	29652.75
858.72	29562.75
858.966	29145.75
859.212	28986.75
859.458	28809.75
859.703	28498.75
859.949	28255.75
860.195	28234.75
860.44	27936.75
860.686	27809.75
860.931	27862.75
861.177	27762.75
861.422	27680.75
861.667	27539.75
861.913	27564.75
862.158	27736.75
862.403	27840.75
862.648	27888.75
862.893	27879.75
863.138	27817.75
863.384	27745.75
863.629	27810.75
863.873	27852.75
864.118	27623.75
864.363	27655.75
864.608	27629.75
864.853	27494.75
865.098	27434.75
865.342	27203.75
865.587	27203.75
865.832	27084.75
866.076	27038.75
866.321	27086.75
866.565	27023.75
866.81	26827.75
867.054	26902.75
867.298	26890.75
867.543	26709.75
867.787	26764.75
868.031	26527.75
868.275	26670.75
868.519	26596.75
868.764	26577.75
869.008	26430.75
869.252	26454.75
869.496	26372.75
869.739	26294.75
869.983	26424.75
870.227	26278.75
870.471	26425.75
870.715	26402.75
870.958	26559.75
871.202	26646.75
871.446	26603.75
871.689	26588.75
871.933	26839.75
872.176	26745.75
872.42	26583.75
872.663	26502.75
872.906	26525.75
873.15	26473.75
873.393	26217.75
873.636	26355.75
873.879	26054.75
874.122	25772.75
874.366	25555.75
874.609	25393.75
874.852	25212.75
875.095	25208.75
875.337	25096.75
875.58	24835.75
875.823	24873.75
876.066	24896.75
876.309	24751.75
876.551	24584.75
876.794	24384.75
877.037	24486.75
877.279	24385.75
877.522	24483.75
877.764	24474.75
878.007	24447.75
878.249	24493.75
878.491	24451.75
878.734	24406.75
878.976	24326.75
879.218	24326.75
879.46	24083.75
879.702	24037.75
879.945	23750.75
880.187	23574.75
880.429	23472.75
880.671	23409.75
880.912	23466.75
881.154	23260.75
881.396	23246.75
881.638	23330.75
881.88	23211.75
882.121	23292.75
882.363	23222.75
882.605	23226.75
882.846	23039.75
883.088	23114.75
883.329	23031.75
883.571	23166.75
883.812	23216.75
884.053	23515.75
884.295	23734.75
884.536	24002.75
884.777	23939.75
885.018	23870.75
885.259	23712.75
885.5	23551.75
885.742	23960.75
885.982	23693.75
886.223	23586.75
886.464	23375.75
886.705	23108.75
886.946	23006.75
887.187	22643.75
887.428	22613.75
887.668	22327.75
887.909	22042.75
888.15	21756.75
888.39	21661.75
888.631	21487.75
888.871	21376.75
889.111	21310.75
889.352	21187.75
889.592	21013.75
889.833	20900.75
890.073	20767.75
890.313	20725.75
890.553	20492.75
890.793	20398.75
891.033	20459.75
891.273	20233.75
891.513	20196.75
891.753	20217.75
891.993	20237.75
892.233	20190.75
892.473	20395.75
892.713	20369.75
892.952	20404.75
893.192	20433.75
893.432	20357.75
893.671	20379.75
893.911	20314.75
894.15	20286.75
894.39	20103.75
894.629	20017.75
894.869	19850.75
895.108	19775.75
895.347	19624.75
895.587	19740.75
895.826	19703.75
896.065	19679.75
896.304	19723.75
896.543	19623.75
896.782	19569.75
897.021	19567.75
897.26	19593.75
897.499	19579.75
897.738	19549.75
897.977	19434.75
898.216	19259.75
898.454	19147.75
898.693	19068.75
898.932	19073.75
899.17	18881.75
899.409	18769.75
899.647	18918.75
899.886	18839.75
900.124	18882.75
900.363	18964.75
900.601	18900.75
900.839	18957.75
901.078	18991.75
901.316	19118.75
901.554	19149.75
901.792	19357.75
902.03	19159.75
902.268	19260.75
902.506	19221.75
902.744	19025.75
902.982	18939.75
903.22	18630.75
903.458	18442.75
903.695	18328.75
903.933	17958.75
904.171	17703.75
904.409	17512.75
904.646	17306.75
904.884	17017.75
905.121	16898.75
905.359	16759.75
905.596	16517.75
905.833	16353.75
906.071	16330.75
906.308	16290.75
906.545	16320.75
906.783	16181.75
907.02	16142.75
907.257	16004.75
907.494	16039.75
907.731	15933.75
907.968	15867.75
908.205	15703.75
908.442	15611.75
908.679	15596.75
908.915	15446.75
909.152	15444.75
909.389	15170.75
909.626	15183.75
909.862	15019.75
910.099	14996.75
910.335	14946.75
910.572	14894.75
910.808	14949.75
911.045	14816.75
911.281	14810.75
911.518	14743.75
911.754	14652.75
911.99	14543.75
912.226	14465.75
912.463	14295.75
912.699	14300.75
912.935	14267.75
913.171	14080.75
913.407	13932.75
913.643	13919.75
913.879	13777.75
914.114	13691.75
914.35	13512.75
914.586	13500.75
914.822	13224.75
915.057	13304.75
915.293	13157.75
915.529	13029.75
915.764	13155.75
916	13145.75
916.235	13072.75
916.471	13080.75
916.706	13003.75
916.941	12983.75
917.177	12885.75
917.412	12944.75
917.647	12950.75
917.882	12902.75
918.117	12918.75
918.352	12797.75
918.588	12869.75
918.823	12722.75
919.057	12620.75
919.292	12400.75
919.527	12515.75
919.762	12245.75
919.997	12241.75
920.232	12029.75
920.466	12021.75
920.701	11779.75
920.935	11767.75
921.17	11679.75
921.405	11681.75
921.639	11664.75
921.873	11523.75
922.108	11567.75
922.342	11441.75
922.576	11383.75
922.811	11484.75
923.045	11456.75
923.279	11406.75
923.513	11305.75
923.747	11239.75
923.981	11255.75
924.215	11137.75
924.449	11061.75
924.683	10904.75
924.917	10958.75
925.151	10918.75
925.385	10898.75
925.618	10905.75
925.852	10758.75
926.086	10706.75
926.319	10812.75
926.553	10821.75
926.786	10836.75
927.02	10806.75
927.253	10744.75
927.486	10772.75
927.72	10691.75
927.953	10732.75
928.186	10651.75
928.42	10697.75
928.653	10604.75
928.886	10580.75
929.119	10516.75
929.352	10494.75
929.585	10381.75
929.818	10276.75
930.051	10258.75
930.284	10263.75
930.516	10072.75
930.749	9991.75
930.982	10041.75
931.215	9969.75
931.447	9833.75
931.68	9875.75
931.912	9855.75
932.145	9804.75
932.377	9840.75
932.61	9956.75
932.842	9809.75
933.074	9863.75
933.307	9810.75
933.539	9889.75
933.771	9869.75
934.003	9723.75
934.236	9873.75
934.468	9848.75
934.7	9751.75
934.932	9758.75
935.164	9657.75
935.395	9629.75
935.627	9680.75
935.859	9720.75
936.091	9510.75
936.323	9515.75
936.554	9574.75
936.786	9492.75
937.017	9366.75
937.249	9513.75
937.481	9375.75
937.712	9440.75
937.943	9429.75
938.175	9364.75
938.406	9365.75
938.637	9387.75
938.869	9298.75
939.1	9349.75
939.331	9283.75
939.562	9204.75
939.793	9224.75
940.024	9259.75
940.255	9132.75
940.486	9044.75
940.717	8969.75
940.948	9058.75
941.179	8930.75
941.409	8949.75
941.64	9016.75
941.871	8998.75
942.102	8952.75
942.332	8990.75
942.563	8919.75
942.793	8955.75
943.024	8923.75
943.254	8864.75
943.484	8908.75
943.715	8911.75
943.945	8942.75
944.175	8832.75
944.405	8819.75
944.636	8814.75
944.866	8831.75
945.096	8831.75
945.326	8701.75
945.556	8829.75
945.786	8810.75
946.016	8626.75
946.245	8605.75
946.475	8488.75
946.705	8525.75
946.935	8435.75
947.164	8428.75
947.394	8336.75
947.624	8369.75
947.853	8412.75
948.083	8285.75
948.312	8245.75
948.542	8157.75
948.771	8124.75
949	8112.75
949.23	8140.75
949.459	8203.75
949.688	8165.75
949.917	8120.75
950.146	8091.75
950.375	8175.75
950.604	8036.75
950.833	8169.75
951.062	8096.75
951.291	8029.75
951.52	8003.75
951.749	8057.75
951.978	7948.75
952.206	7918.75
952.435	7864.75
952.664	7863.75
952.892	7884.75
953.121	7793.75
953.349	7866.75
953.578	7817.75
953.806	7719.75
954.035	7693.75
954.263	7639.75
954.491	7595.75
954.719	7610.75
954.948	7517.75
955.176	7511.75
955.404	7431.75
955.632	7462.75
955.86	7464.75
956.088	7344.75
956.316	7400.75
956.544	7342.75
956.772	7260.75
956.999	7216.75
957.227	7279.75
957.455	7126.75
957.683	7138.75
957.91	7108.75
958.138	7040.75
958.365	7007.75
958.593	6979.75
958.82	6909.75
959.048	6977.75
959.275	6962.75
959.502	6942.75
959.73	6821.75
959.957	6852.75
960.184	6922.75
960.411	6802.75
960.638	6915.75
960.865	6842.75
961.092	6757.75
961.319	6716.75
961.546	6792.75
961.773	6796.75
962	6746.75
962.227	6781.75
962.454	6736.75
962.68	6670.75
962.907	6671.75
963.134	6637.75
963.36	6588.75
963.587	6569.75
963.813	6485.75
964.04	6491.75
964.266	6431.75
964.493	6494.75
964.719	6390.75
964.945	6378.75
965.171	6231.75
965.398	6283.75
965.624	6350.75
965.85	6219.75
966.076	6193.75
966.302	6208.75
966.528	6140.75
966.754	6097.75
966.98	6119.75
967.206	6134.75
967.431	5980.75
967.657	6079.75
967.883	6097.75
968.109	6013.75
968.334	5928.75
968.56	5883.75
968.785	5919.75
969.011	5867.75
969.236	5905.75
969.462	5926.75
969.687	5883.75
969.912	5902.75
970.138	5896.75
970.363	5788.75
970.588	5803.75
970.813	5770.75
971.038	5720.75
971.263	5767.75
971.488	5688.75
971.713	5759.75
971.938	5680.75
972.163	5549.75
972.388	5598.75
972.613	5517.75
972.838	5590.75
973.062	5549.75
973.287	5512.75
973.512	5473.75
973.736	5494.75
973.961	5454.75
974.185	5357.75
974.41	5447.75
974.634	5263.75
974.858	5233.75
975.083	5248.75
975.307	5276.75
975.531	5205.75
975.755	5111.75
975.98	5167.75
976.204	5047.75
976.428	5048.75
976.652	5029.75
976.876	5000.75
977.1	4991.75
977.324	4937.75
977.547	5003.75
977.771	5025.75
977.995	4947.75
978.219	4879.75
978.442	4978.75
978.666	4905.75
978.89	4866.75
979.113	4856.75
979.337	4851.75
979.56	4803.75
979.783	4838.75
980.007	4759.75
980.23	4799.75
980.453	4744.75
980.677	4757.75
980.9	4749.75
981.123	4633.75
981.346	4666.75
981.569	4671.75
981.792	4639.75
982.015	4576.75
982.238	4531.75
982.461	4546.75
982.684	4479.75
982.907	4417.75
983.129	4400.75
983.352	4494.75
983.575	4410.75
983.797	4386.75
984.02	4334.75
984.242	4354.75
984.465	4335.75
984.687	4345.75
984.91	4318.75
985.132	4278.75
985.354	4291.75
985.577	4246.75
985.799	4201.75
986.021	4118.75
986.243	4148.75
986.465	4189.75
986.687	4216.75
986.909	4229.75
987.131	4148.75
987.353	4107.75
987.575	4116.75
987.797	4027.75
988.019	4053.75
988.241	4016.75
988.462	4013.75
988.684	4034.75
988.906	4061.75
989.127	4086.75
989.349	3936.75
989.57	3977.75
989.792	3996.75
990.013	4009.75
990.234	3981.75
990.456	4023.75
990.677	3960.75
990.898	3867.75
991.119	3891.75
991.341	3859.75
991.562	3786.75
991.783	3826.75
992.004	3739.75
992.225	3695.75
992.446	3771.75
992.667	3679.75
992.887	3743.75
993.108	3601.75
993.329	3700.75
993.55	3657.75
993.77	3554.75
993.991	3532.75
994.212	3607.75
994.432	3555.75
994.653	3562.75
994.873	3573.75
995.093	3398.75
995.314	3458.75
995.534	3540.75
995.754	3503.75
995.975	3505.75
996.195	3420.75
996.415	3453.75
996.635	3426.75
996.855	3431.75
997.075	3419.75
997.295	3404.75
997.515	3371.75
997.735	3421.75
997.955	3384.75
998.174	3339.75
998.394	3327.75
998.614	3410.75
998.834	3317.75
999.053	3349.75
999.273	3303.75
999.492	3379.75
999.712	3311.75
999.931	3279.75
1000.151	3204.75
1000.37	3210.75
1000.589	3240.75
1000.809	3150.75
1001.028	3236.75
1001.247	3162.75
1001.466	3116.75
1001.685	3184.75
1001.904	3121.75
1002.123	3057.75
1002.342	3069.75
1002.561	3053.75
1002.78	3038.75
1002.999	3082.75
1003.218	3051.75
1003.436	2972.75
1003.655	3010.75
1003.874	2945.75
1004.092	2967.75
1004.311	2997.75
1004.53	2915.75
1004.748	2993.75
1004.966	2935.75
1005.185	2992.75
1005.403	2971.75
1005.622	2911.75
1005.84	2981.75
1006.058	2886.75
1006.276	2862.75
1006.494	3398.75
1006.712	2885.75
1006.931	2941.75
1007.149	2870.75
1007.367	2859.75
1007.584	2914.75
1007.802	2927.75
1008.02	2869.75
1008.238	2996.75
1008.456	2993.75
1008.673	2854.75
1008.891	2990.75
1009.109	2982.75
1009.326	3026.75
1009.544	3149.75
1009.761	3092.75
1009.979	3207.75
1010.196	3290.75
1010.413	3408.75
1010.631	3508.75
1010.848	3578.75
1011.065	3604.75
1011.282	3561.75
1011.5	3528.75
1011.717	3604.75
1011.934	3519.75
1012.151	3527.75
1012.368	3500.75
1012.585	3427.75
1012.801	3535.75
1013.018	3491.75
1013.235	3489.75
1013.452	3510.75
1013.669	3500.75
1013.885	3461.75
1014.102	3554.75
1014.318	3469.75
1014.535	3466.75
1014.751	3461.75
1014.968	3436.75
1015.184	3476.75
1015.401	3334.75
1015.617	3362.75
1015.833	3285.75
1016.049	3304.75
1016.266	3232.75
1016.482	3236.75
1016.698	3124.75
1016.914	3183.75
1017.13	3115.75
1017.346	3109.75
1017.562	3131.75
1017.778	3079.75
1017.993	3072.75
1018.209	3103.75
1018.425	3064.75
1018.641	3053.75
1018.856	3039.75
1019.072	3036.75
1019.288	3063.75
1019.503	3043.75
1019.719	2934.75
1019.934	2924.75
1020.149	3003.75
1020.365	2944.75
1020.58	2865.75
1020.795	2894.75
1021.011	2790.75
1021.226	2736.75
1021.441	2716.75
1021.656	2625.75
1021.871	2543.75
1022.086	2509.75
1022.301	2454.75
1022.516	2433.75
1022.731	2441.75
1022.946	2329.75
1023.16	2344.75
1023.375	2293.75
1023.59	2252.75
1023.804	2191.75
1024.019	2240.75
1024.234	2099.75
1024.448	2156.75
1024.663	2008.75
1024.877	2004.75
1025.092	2013.75
1025.306	2028.75
1025.52	1889.75
1025.734	1930.75
1025.949	1850.75
1026.163	1793.75
1026.377	1716.75
1026.591	1737.75
1026.805	1664.75
1027.019	1628.75
1027.233	1559.75
1027.447	1527.75
1027.661	1613.75
1027.875	1522.75
1028.088	1542.75
1028.302	1428.75
1028.516	1366.75
1028.73	1378.75
1028.943	1339.75
1029.157	1253.75
1029.37	1200.75
1029.584	-0.25
1029.797	-0.25
1030.011	-4.25
1030.224	-0.25
