Data from QEP037381__89__15-24-05-865.txt Node

Date: Fri Dec 16 15:24:05 EST 2022
User: dcclab
Spectrometer: QEP03738
Trigger mode: 4
Integration Time (sec): 1.000000E1
Scans to average: 1
Electric dark correction enabled: true
Nonlinearity correction enabled: false
Boxcar width: 0
XAxis mode: Wavelengths
Number of Pixels in Spectrum: 1044
>>>>>Begin Spectral Data<<<<<
784.041	12.12
784.3	-0.88
784.558	-3.88
784.817	-2.88
785.075	95314.12
785.334	16311.12
785.592	7591.12
785.851	5228.12
786.109	3908.12
786.368	3038.12
786.626	2463.12
786.884	2021.12
787.143	1737.12
787.401	1446.12
787.659	1308.12
787.917	1108.12
788.175	1035.12
788.433	914.12
788.691	812.12
788.949	768.12
789.207	735.12
789.465	643.12
789.723	631.12
789.98	575.12
790.238	607.12
790.496	566.12
790.753	545.12
791.011	592.12
791.268	527.12
791.526	532.12
791.783	538.12
792.041	515.12
792.298	437.12
792.556	498.12
792.813	478.12
793.07	470.12
793.327	458.12
793.584	524.12
793.841	449.12
794.099	481.12
794.356	522.12
794.613	436.12
794.869	468.12
795.126	432.12
795.383	432.12
795.64	448.12
795.897	386.12
796.153	452.12
796.41	447.12
796.667	435.12
796.923	421.12
797.18	424.12
797.436	464.12
797.693	431.12
797.949	470.12
798.206	493.12
798.462	441.12
798.718	469.12
798.974	470.12
799.231	510.12
799.487	487.12
799.743	480.12
799.999	520.12
800.255	515.12
800.511	513.12
800.767	565.12
801.023	549.12
801.279	594.12
801.534	613.12
801.79	690.12
802.046	724.12
802.302	872.12
802.557	999.12
802.813	1267.12
803.068	1571.12
803.324	2190.12
803.579	2966.12
803.835	4095.12
804.09	5652.12
804.345	7413.12
804.601	9415.12
804.856	11370.12
805.111	13154.12
805.366	14553.12
805.621	15447.12
805.876	16148.12
806.131	16639.12
806.386	16988.12
806.641	17167.12
806.896	17605.12
807.151	17901.12
807.406	18158.12
807.661	18477.12
807.915	18753.12
808.17	19103.12
808.425	19322.12
808.679	19511.12
808.934	19835.12
809.188	20024.12
809.443	20300.12
809.697	20546.12
809.951	20647.12
810.206	20953.12
810.46	21091.12
810.714	21246.12
810.968	21459.12
811.223	21660.12
811.477	21911.12
811.731	22099.12
811.985	22252.12
812.239	22238.12
812.493	22476.12
812.747	22547.12
813	22623.12
813.254	22695.12
813.508	22894.12
813.762	22946.12
814.015	23001.12
814.269	23373.12
814.522	23494.12
814.776	23916.12
815.03	24140.12
815.283	24367.12
815.536	24863.12
815.79	25103.12
816.043	25662.12
816.296	25942.12
816.55	26267.12
816.803	26596.12
817.056	26961.12
817.309	27221.12
817.562	27441.12
817.815	27740.12
818.068	28041.12
818.321	28331.12
818.574	28577.12
818.827	28964.12
819.079	29505.12
819.332	29961.12
819.585	30207.12
819.838	30637.12
820.09	30719.12
820.343	31102.12
820.595	31193.12
820.848	31393.12
821.1	31522.12
821.353	31595.12
821.605	31562.12
821.857	31644.12
822.11	31420.12
822.362	31420.12
822.614	31303.12
822.866	31404.12
823.118	31381.12
823.37	31627.12
823.622	31518.12
823.874	31729.12
824.126	31933.12
824.378	31937.12
824.63	31998.12
824.882	32073.12
825.134	32053.12
825.385	32105.12
825.637	32008.12
825.888	31814.12
826.14	31873.12
826.392	31728.12
826.643	31507.12
826.895	31464.12
827.146	31331.12
827.397	31291.12
827.649	31412.12
827.9	31278.12
828.151	31245.12
828.402	31570.12
828.653	31509.12
828.905	31608.12
829.156	31690.12
829.407	31712.12
829.658	31731.12
829.909	31830.12
830.159	31626.12
830.41	31585.12
830.661	31567.12
830.912	31254.12
831.162	31249.12
831.413	31271.12
831.664	31306.12
831.914	31127.12
832.165	31126.12
832.415	31204.12
832.666	31104.12
832.916	31189.12
833.167	31108.12
833.417	30984.12
833.667	31042.12
833.917	31024.12
834.168	30914.12
834.418	30833.12
834.668	30735.12
834.918	30468.12
835.168	30497.12
835.418	30331.12
835.668	30339.12
835.918	30230.12
836.167	30118.12
836.417	30072.12
836.667	29999.12
836.917	30076.12
837.166	29970.12
837.416	30128.12
837.666	30176.12
837.915	30025.12
838.165	29893.12
838.414	29809.12
838.663	29770.12
838.913	29837.12
839.162	29771.12
839.411	29810.12
839.661	29572.12
839.91	29526.12
840.159	29438.12
840.408	29458.12
840.657	29490.12
840.906	29490.12
841.155	29576.12
841.404	29396.12
841.653	29516.12
841.902	29509.12
842.15	29577.12
842.399	29673.12
842.648	29501.12
842.897	29451.12
843.145	29140.12
843.394	29047.12
843.642	28896.12
843.891	28941.12
844.139	28663.12
844.388	28597.12
844.636	28314.12
844.884	28291.12
845.133	28484.12
845.381	28411.12
845.629	28364.12
845.877	28275.12
846.125	28256.12
846.373	28323.12
846.621	28139.12
846.869	28039.12
847.117	27883.12
847.365	27838.12
847.613	27669.12
847.861	27636.12
848.108	27662.12
848.356	27547.12
848.604	27493.12
848.851	27443.12
849.099	27452.12
849.346	27611.12
849.594	27678.12
849.841	27751.12
850.089	28050.12
850.336	27800.12
850.583	27863.12
850.831	27751.12
851.078	27611.12
851.325	27641.12
851.572	27648.12
851.819	27402.12
852.066	26983.12
852.313	26613.12
852.56	26404.12
852.807	26375.12
853.054	26310.12
853.301	26211.12
853.548	26309.12
853.794	26519.12
854.041	26530.12
854.288	26579.12
854.534	26870.12
854.781	26833.12
855.028	26773.12
855.274	26662.12
855.52	26495.12
855.767	26445.12
856.013	26492.12
856.26	26764.12
856.506	26265.12
856.752	26087.12
856.998	26256.12
857.244	26408.12
857.49	26416.12
857.736	26408.12
857.982	26499.12
858.228	26399.12
858.474	26208.12
858.72	26134.12
858.966	25804.12
859.212	25529.12
859.458	25360.12
859.703	25101.12
859.949	24907.12
860.195	24871.12
860.44	24745.12
860.686	24528.12
860.931	24558.12
861.177	24423.12
861.422	24280.12
861.667	24242.12
861.913	24253.12
862.158	24330.12
862.403	24398.12
862.648	24441.12
862.893	24521.12
863.138	24515.12
863.384	24389.12
863.629	24326.12
863.873	24403.12
864.118	24275.12
864.363	24176.12
864.608	24236.12
864.853	24043.12
865.098	23904.12
865.342	23847.12
865.587	23717.12
865.832	23733.12
866.076	23665.12
866.321	23554.12
866.565	23580.12
866.81	23458.12
867.054	23327.12
867.298	23372.12
867.543	23222.12
867.787	23331.12
868.031	23224.12
868.275	23200.12
868.519	23052.12
868.764	23115.12
869.008	22975.12
869.252	23080.12
869.496	22964.12
869.739	22772.12
869.983	22970.12
870.227	22839.12
870.471	22848.12
870.715	23024.12
870.958	23045.12
871.202	23131.12
871.446	23219.12
871.689	23109.12
871.933	23171.12
872.176	23184.12
872.42	23011.12
872.663	22999.12
872.906	23043.12
873.15	23038.12
873.393	22837.12
873.636	22747.12
873.879	22699.12
874.122	22380.12
874.366	22024.12
874.609	21924.12
874.852	21817.12
875.095	21764.12
875.337	21686.12
875.58	21463.12
875.823	21393.12
876.066	21338.12
876.309	21342.12
876.551	21163.12
876.794	21116.12
877.037	21099.12
877.279	21003.12
877.522	21142.12
877.764	21063.12
878.007	20954.12
878.249	21017.12
878.491	20934.12
878.734	21020.12
878.976	20917.12
879.218	20748.12
879.46	20642.12
879.702	20494.12
879.945	20404.12
880.187	20144.12
880.429	20116.12
880.671	19993.12
880.912	19947.12
881.154	19989.12
881.396	19729.12
881.638	19893.12
881.88	19828.12
882.121	19747.12
882.363	19729.12
882.605	19663.12
882.846	19691.12
883.088	19678.12
883.329	19739.12
883.571	19721.12
883.812	19920.12
884.053	20001.12
884.295	20476.12
884.536	20761.12
884.777	20548.12
885.018	20429.12
885.259	20366.12
885.5	20299.12
885.742	20487.12
885.982	20191.12
886.223	20038.12
886.464	19827.12
886.705	19773.12
886.946	19560.12
887.187	19214.12
887.428	19101.12
887.668	18826.12
887.909	18591.12
888.15	18428.12
888.39	18345.12
888.631	18186.12
888.871	18044.12
889.111	17984.12
889.352	17750.12
889.592	17770.12
889.833	17581.12
890.073	17358.12
890.313	17504.12
890.553	17199.12
890.793	17172.12
891.033	17148.12
891.273	17126.12
891.513	16980.12
891.753	17025.12
891.993	17018.12
892.233	16979.12
892.473	17070.12
892.713	17159.12
892.952	16995.12
893.192	17023.12
893.432	16990.12
893.671	17092.12
893.911	16924.12
894.15	16903.12
894.39	16715.12
894.629	16742.12
894.869	16703.12
895.108	16538.12
895.347	16433.12
895.587	16475.12
895.826	16432.12
896.065	16365.12
896.304	16455.12
896.543	16393.12
896.782	16298.12
897.021	16335.12
897.26	16389.12
897.499	16397.12
897.738	16246.12
897.977	16144.12
898.216	16184.12
898.454	16033.12
898.693	15886.12
898.932	15835.12
899.17	15757.12
899.409	15713.12
899.647	15650.12
899.886	15762.12
900.124	15728.12
900.363	15714.12
900.601	15804.12
900.839	15869.12
901.078	15884.12
901.316	15957.12
901.554	15944.12
901.792	16074.12
902.03	16049.12
902.268	16018.12
902.506	16082.12
902.744	15852.12
902.982	15805.12
903.22	15562.12
903.458	15255.12
903.695	15121.12
903.933	14911.12
904.171	14596.12
904.409	14396.12
904.646	14256.12
904.884	14007.12
905.121	13903.12
905.359	13730.12
905.596	13674.12
905.833	13421.12
906.071	13340.12
906.308	13420.12
906.545	13259.12
906.783	13211.12
907.02	13269.12
907.257	13104.12
907.494	13106.12
907.731	13140.12
907.968	12971.12
908.205	12973.12
908.442	12764.12
908.679	12817.12
908.915	12645.12
909.152	12494.12
909.389	12363.12
909.626	12438.12
909.862	12295.12
910.099	12255.12
910.335	12281.12
910.572	12123.12
910.808	12121.12
911.045	12113.12
911.281	12063.12
911.518	12036.12
911.754	11894.12
911.99	11876.12
912.226	11773.12
912.463	11706.12
912.699	11528.12
912.935	11451.12
913.171	11371.12
913.407	11319.12
913.643	11236.12
913.879	11185.12
914.114	11133.12
914.35	10934.12
914.586	10865.12
914.822	10775.12
915.057	10792.12
915.293	10570.12
915.529	10596.12
915.764	10591.12
916	10532.12
916.235	10498.12
916.471	10564.12
916.706	10370.12
916.941	10374.12
917.177	10363.12
917.412	10452.12
917.647	10431.12
917.882	10361.12
918.117	10469.12
918.352	10372.12
918.588	10359.12
918.823	10237.12
919.057	10111.12
919.292	10024.12
919.527	10046.12
919.762	9838.12
919.997	9766.12
920.232	9694.12
920.466	9648.12
920.701	9452.12
920.935	9432.12
921.17	9365.12
921.405	9347.12
921.639	9315.12
921.873	9316.12
922.108	9260.12
922.342	9242.12
922.576	9202.12
922.811	9135.12
923.045	9144.12
923.279	9165.12
923.513	8957.12
923.747	9030.12
923.981	8970.12
924.215	8927.12
924.449	8755.12
924.683	8698.12
924.917	8688.12
925.151	8689.12
925.385	8674.12
925.618	8650.12
925.852	8627.12
926.086	8519.12
926.319	8605.12
926.553	8536.12
926.786	8550.12
927.02	8525.12
927.253	8603.12
927.486	8503.12
927.72	8476.12
927.953	8503.12
928.186	8460.12
928.42	8454.12
928.653	8345.12
928.886	8350.12
929.119	8334.12
929.352	8264.12
929.585	8240.12
929.818	8126.12
930.051	8131.12
930.284	8077.12
930.516	7912.12
930.749	7913.12
930.982	7931.12
931.215	7895.12
931.447	7775.12
931.68	7798.12
931.912	7814.12
932.145	7801.12
932.377	7713.12
932.61	7998.12
932.842	7737.12
933.074	7767.12
933.307	7696.12
933.539	7821.12
933.771	7790.12
934.003	7669.12
934.236	7790.12
934.468	7805.12
934.7	7680.12
934.932	7741.12
935.164	7596.12
935.395	7628.12
935.627	7574.12
935.859	7561.12
936.091	7536.12
936.323	7591.12
936.554	7532.12
936.786	7468.12
937.017	7391.12
937.249	7437.12
937.481	7330.12
937.712	7426.12
937.943	7384.12
938.175	7304.12
938.406	7289.12
938.637	7357.12
938.869	7266.12
939.1	7342.12
939.331	7252.12
939.562	7302.12
939.793	7235.12
940.024	7158.12
940.255	7197.12
940.486	7041.12
940.717	7103.12
940.948	7079.12
941.179	7009.12
941.409	7019.12
941.64	7058.12
941.871	7004.12
942.102	6942.12
942.332	7001.12
942.563	6952.12
942.793	7018.12
943.024	6933.12
943.254	6959.12
943.484	7051.12
943.715	6972.12
943.945	6953.12
944.175	6883.12
944.405	6837.12
944.636	6811.12
944.866	6892.12
945.096	6834.12
945.326	6838.12
945.556	6796.12
945.786	6839.12
946.016	6762.12
946.245	6704.12
946.475	6631.12
946.705	6623.12
946.935	6602.12
947.164	6622.12
947.394	6463.12
947.624	6515.12
947.853	6515.12
948.083	6378.12
948.312	6411.12
948.542	6306.12
948.771	6324.12
949	6295.12
949.23	6312.12
949.459	6320.12
949.688	6309.12
949.917	6216.12
950.146	6274.12
950.375	6249.12
950.604	6230.12
950.833	6266.12
951.062	6293.12
951.291	6219.12
951.52	6179.12
951.749	6096.12
951.978	6132.12
952.206	6168.12
952.435	6046.12
952.664	6121.12
952.892	6095.12
953.121	6064.12
953.349	6061.12
953.578	6012.12
953.806	5971.12
954.035	5917.12
954.263	5910.12
954.491	5835.12
954.719	5880.12
954.948	5813.12
955.176	5748.12
955.404	5698.12
955.632	5740.12
955.86	5664.12
956.088	5730.12
956.316	5723.12
956.544	5663.12
956.772	5565.12
956.999	5510.12
957.227	5613.12
957.455	5483.12
957.683	5463.12
957.91	5423.12
958.138	5384.12
958.365	5438.12
958.593	5337.12
958.82	5323.12
959.048	5323.12
959.275	5275.12
959.502	5332.12
959.73	5238.12
959.957	5292.12
960.184	5316.12
960.411	5198.12
960.638	5273.12
960.865	5188.12
961.092	5262.12
961.319	5169.12
961.546	5240.12
961.773	5270.12
962	5150.12
962.227	5182.12
962.454	5140.12
962.68	5119.12
962.907	5125.12
963.134	5034.12
963.36	5026.12
963.587	5073.12
963.813	4963.12
964.04	4913.12
964.266	4884.12
964.493	4953.12
964.719	4911.12
964.945	4933.12
965.171	4763.12
965.398	4814.12
965.624	4861.12
965.85	4742.12
966.076	4676.12
966.302	4725.12
966.528	4713.12
966.754	4711.12
966.98	4687.12
967.206	4705.12
967.431	4597.12
967.657	4621.12
967.883	4652.12
968.109	4571.12
968.334	4544.12
968.56	4530.12
968.785	4528.12
969.011	4462.12
969.236	4547.12
969.462	4476.12
969.687	4517.12
969.912	4465.12
970.138	4512.12
970.363	4414.12
970.588	4428.12
970.813	4413.12
971.038	4363.12
971.263	4389.12
971.488	4393.12
971.713	4358.12
971.938	4351.12
972.163	4258.12
972.388	4279.12
972.613	4221.12
972.838	4216.12
973.062	4197.12
973.287	4202.12
973.512	4126.12
973.736	4154.12
973.961	4158.12
974.185	4116.12
974.41	4089.12
974.634	4031.12
974.858	3991.12
975.083	4035.12
975.307	4042.12
975.531	3892.12
975.755	3903.12
975.98	3892.12
976.204	3854.12
976.428	3803.12
976.652	3802.12
976.876	3777.12
977.1	3762.12
977.324	3766.12
977.547	3809.12
977.771	3767.12
977.995	3780.12
978.219	3714.12
978.442	3792.12
978.666	3752.12
978.89	3680.12
979.113	3712.12
979.337	3699.12
979.56	3625.12
979.783	3727.12
980.007	3591.12
980.23	3609.12
980.453	3597.12
980.677	3620.12
980.9	3583.12
981.123	3493.12
981.346	3574.12
981.569	3556.12
981.792	3556.12
982.015	3499.12
982.238	3421.12
982.461	3446.12
982.684	3382.12
982.907	3350.12
983.129	3349.12
983.352	3412.12
983.575	3343.12
983.797	3369.12
984.02	3309.12
984.242	3281.12
984.465	3278.12
984.687	3273.12
984.91	3308.12
985.132	3327.12
985.354	3303.12
985.577	3258.12
985.799	3238.12
986.021	3180.12
986.243	3158.12
986.465	3189.12
986.687	3191.12
986.909	3169.12
987.131	3161.12
987.353	3098.12
987.575	3146.12
987.797	3124.12
988.019	3011.12
988.241	3062.12
988.462	3038.12
988.684	3070.12
988.906	3091.12
989.127	3141.12
989.349	2983.12
989.57	3059.12
989.792	3041.12
990.013	3036.12
990.234	3036.12
990.456	3073.12
990.677	3013.12
990.898	2955.12
991.119	2926.12
991.341	2989.12
991.562	2901.12
991.783	2964.12
992.004	2859.12
992.225	2823.12
992.446	2878.12
992.667	2793.12
992.887	2846.12
993.108	2734.12
993.329	2872.12
993.55	2801.12
993.77	2724.12
993.991	2682.12
994.212	2794.12
994.432	2712.12
994.653	2714.12
994.873	2711.12
995.093	2578.12
995.314	2622.12
995.534	2731.12
995.754	2678.12
995.975	2768.12
996.195	2615.12
996.415	2685.12
996.635	2657.12
996.855	2629.12
997.075	2603.12
997.295	2602.12
997.515	2579.12
997.735	2658.12
997.955	2632.12
998.174	2576.12
998.394	2562.12
998.614	2564.12
998.834	2524.12
999.053	2602.12
999.273	2564.12
999.492	2592.12
999.712	2538.12
999.931	2511.12
1000.151	2510.12
1000.37	2490.12
1000.589	2545.12
1000.809	2461.12
1001.028	2559.12
1001.247	2484.12
1001.466	2371.12
1001.685	2525.12
1001.904	2439.12
1002.123	2416.12
1002.342	2402.12
1002.561	2394.12
1002.78	2381.12
1002.999	2431.12
1003.218	2356.12
1003.436	2324.12
1003.655	2367.12
1003.874	2286.12
1004.092	2316.12
1004.311	2362.12
1004.53	2306.12
1004.748	2383.12
1004.966	2317.12
1005.185	2358.12
1005.403	2312.12
1005.622	2319.12
1005.84	2408.12
1006.058	2264.12
1006.276	2297.12
1006.494	2817.12
1006.712	2296.12
1006.931	2325.12
1007.149	2281.12
1007.367	2281.12
1007.584	2315.12
1007.802	2333.12
1008.02	2267.12
1008.238	2425.12
1008.456	2413.12
1008.673	2260.12
1008.891	2426.12
1009.109	2355.12
1009.326	2425.12
1009.544	2578.12
1009.761	2494.12
1009.979	2596.12
1010.196	2668.12
1010.413	2789.12
1010.631	2915.12
1010.848	2982.12
1011.065	3010.12
1011.282	2946.12
1011.5	2841.12
1011.717	2965.12
1011.934	2875.12
1012.151	2920.12
1012.368	2897.12
1012.585	2840.12
1012.801	2891.12
1013.018	2876.12
1013.235	2833.12
1013.452	2875.12
1013.669	2886.12
1013.885	2906.12
1014.102	2906.12
1014.318	2900.12
1014.535	2860.12
1014.751	2848.12
1014.968	2850.12
1015.184	2849.12
1015.401	2786.12
1015.617	2802.12
1015.833	2734.12
1016.049	2732.12
1016.266	2720.12
1016.482	2712.12
1016.698	2633.12
1016.914	2649.12
1017.13	2591.12
1017.346	2551.12
1017.562	2611.12
1017.778	2541.12
1017.993	2523.12
1018.209	2590.12
1018.425	2562.12
1018.641	2484.12
1018.856	2513.12
1019.072	2525.12
1019.288	2609.12
1019.503	2552.12
1019.719	2423.12
1019.934	2436.12
1020.149	2517.12
1020.365	2420.12
1020.58	2374.12
1020.795	2429.12
1021.011	2306.12
1021.226	2245.12
1021.441	2259.12
1021.656	2157.12
1021.871	2057.12
1022.086	2060.12
1022.301	1992.12
1022.516	2026.12
1022.731	2059.12
1022.946	1950.12
1023.16	1913.12
1023.375	1898.12
1023.59	1821.12
1023.804	1783.12
1024.019	1872.12
1024.234	1728.12
1024.448	1765.12
1024.663	1674.12
1024.877	1665.12
1025.092	1660.12
1025.306	1644.12
1025.52	1546.12
1025.734	1615.12
1025.949	1497.12
1026.163	1454.12
1026.377	1391.12
1026.591	1449.12
1026.805	1343.12
1027.019	1325.12
1027.233	1272.12
1027.447	1265.12
1027.661	1309.12
1027.875	1260.12
1028.088	1261.12
1028.302	1173.12
1028.516	1143.12
1028.73	1124.12
1028.943	1108.12
1029.157	1034.12
1029.37	976.12
1029.584	-0.88
1029.797	-0.88
1030.011	0.12
1030.224	-2.88
