Data from QEP037381__118__15-28-55-869.txt Node

Date: Fri Dec 16 15:28:55 EST 2022
User: dcclab
Spectrometer: QEP03738
Trigger mode: 4
Integration Time (sec): 1.000000E1
Scans to average: 1
Electric dark correction enabled: true
Nonlinearity correction enabled: false
Boxcar width: 0
XAxis mode: Wavelengths
Number of Pixels in Spectrum: 1044
>>>>>Begin Spectral Data<<<<<
784.041	13.75
784.3	3.75
784.558	-3.25
784.817	-2.25
785.075	90865.75
785.334	15822.75
785.592	7467.75
785.851	5181.75
786.109	3858.75
786.368	3007.75
786.626	2454.75
786.884	2050.75
787.143	1737.75
787.401	1421.75
787.659	1301.75
787.917	1114.75
788.175	1048.75
788.433	897.75
788.691	818.75
788.949	753.75
789.207	730.75
789.465	634.75
789.723	610.75
789.98	568.75
790.238	591.75
790.496	564.75
790.753	535.75
791.011	575.75
791.268	528.75
791.526	501.75
791.783	524.75
792.041	512.75
792.298	424.75
792.556	505.75
792.813	488.75
793.07	452.75
793.327	444.75
793.584	516.75
793.841	442.75
794.099	456.75
794.356	510.75
794.613	432.75
794.869	455.75
795.126	426.75
795.383	401.75
795.64	428.75
795.897	384.75
796.153	439.75
796.41	424.75
796.667	404.75
796.923	416.75
797.18	418.75
797.436	447.75
797.693	405.75
797.949	465.75
798.206	471.75
798.462	406.75
798.718	465.75
798.974	445.75
799.231	481.75
799.487	480.75
799.743	472.75
799.999	497.75
800.255	490.75
800.511	481.75
800.767	520.75
801.023	514.75
801.279	532.75
801.534	572.75
801.79	616.75
802.046	659.75
802.302	767.75
802.557	883.75
802.813	1065.75
803.068	1299.75
803.324	1764.75
803.579	2376.75
803.835	3266.75
804.09	4466.75
804.345	5860.75
804.601	7370.75
804.856	8991.75
805.111	10315.75
805.366	11356.75
805.621	12133.75
805.876	12663.75
806.131	13070.75
806.386	13265.75
806.641	13492.75
806.896	13696.75
807.151	14055.75
807.406	14182.75
807.661	14569.75
807.915	14751.75
808.17	15006.75
808.425	15315.75
808.679	15390.75
808.934	15491.75
809.188	15725.75
809.443	15858.75
809.697	16145.75
809.951	16185.75
810.206	16335.75
810.46	16492.75
810.714	16682.75
810.968	17013.75
811.223	16953.75
811.477	17231.75
811.731	17224.75
811.985	17350.75
812.239	17480.75
812.493	17590.75
812.747	17696.75
813	17641.75
813.254	17805.75
813.508	17826.75
813.762	17928.75
814.015	18112.75
814.269	18257.75
814.522	18452.75
814.776	18557.75
815.03	18806.75
815.283	19058.75
815.536	19369.75
815.79	19620.75
816.043	20029.75
816.296	20220.75
816.55	20442.75
816.803	20746.75
817.056	21157.75
817.309	21192.75
817.562	21372.75
817.815	21648.75
818.068	21709.75
818.321	22013.75
818.574	22189.75
818.827	22637.75
819.079	22804.75
819.332	23361.75
819.585	23628.75
819.838	23858.75
820.09	23887.75
820.343	24286.75
820.595	24278.75
820.848	24533.75
821.1	24521.75
821.353	24581.75
821.605	24503.75
821.857	24607.75
822.11	24527.75
822.362	24433.75
822.614	24480.75
822.866	24402.75
823.118	24355.75
823.37	24505.75
823.622	24620.75
823.874	24767.75
824.126	24898.75
824.378	24748.75
824.63	24979.75
824.882	25083.75
825.134	25003.75
825.385	24866.75
825.637	24831.75
825.888	24722.75
826.14	24677.75
826.392	24547.75
826.643	24494.75
826.895	24458.75
827.146	24316.75
827.397	24148.75
827.649	24315.75
827.9	24237.75
828.151	24314.75
828.402	24318.75
828.653	24398.75
828.905	24477.75
829.156	24603.75
829.407	24568.75
829.658	24629.75
829.909	24668.75
830.159	24738.75
830.41	24565.75
830.661	24419.75
830.912	24201.75
831.162	24155.75
831.413	24123.75
831.664	24169.75
831.914	24080.75
832.165	24021.75
832.415	24068.75
832.666	24147.75
832.916	24058.75
833.167	24096.75
833.417	24116.75
833.667	24062.75
833.917	23986.75
834.168	23874.75
834.418	23814.75
834.668	23816.75
834.918	23658.75
835.168	23504.75
835.418	23469.75
835.668	23438.75
835.918	23394.75
836.167	23401.75
836.417	23194.75
836.667	23256.75
836.917	23179.75
837.166	23207.75
837.416	23196.75
837.666	23147.75
837.915	23080.75
838.165	23072.75
838.414	22953.75
838.663	22984.75
838.913	22854.75
839.162	22927.75
839.411	22930.75
839.661	22834.75
839.91	22752.75
840.159	22812.75
840.408	22812.75
840.657	22761.75
840.906	22764.75
841.155	22795.75
841.404	22667.75
841.653	22886.75
841.902	22739.75
842.15	22736.75
842.399	22862.75
842.648	22708.75
842.897	22656.75
843.145	22527.75
843.394	22442.75
843.642	22216.75
843.891	22293.75
844.139	22028.75
844.388	21942.75
844.636	21910.75
844.884	21888.75
845.133	21796.75
845.381	21844.75
845.629	21915.75
845.877	21774.75
846.125	21862.75
846.373	21786.75
846.621	21655.75
846.869	21620.75
847.117	21467.75
847.365	21405.75
847.613	21360.75
847.861	21294.75
848.108	21263.75
848.356	21178.75
848.604	21190.75
848.851	21157.75
849.099	21083.75
849.346	21213.75
849.594	21416.75
849.841	21444.75
850.089	21460.75
850.336	21379.75
850.583	21502.75
850.831	21384.75
851.078	21268.75
851.325	21372.75
851.572	21472.75
851.819	21261.75
852.066	20822.75
852.313	20599.75
852.56	20292.75
852.807	20150.75
853.054	20217.75
853.301	20220.75
853.548	20288.75
853.794	20429.75
854.041	20530.75
854.288	20472.75
854.534	20825.75
854.781	20725.75
855.028	20682.75
855.274	20570.75
855.52	20433.75
855.767	20453.75
856.013	20519.75
856.26	20799.75
856.506	20209.75
856.752	20277.75
856.998	20256.75
857.244	20264.75
857.49	20392.75
857.736	20394.75
857.982	20429.75
858.228	20370.75
858.474	20199.75
858.72	20095.75
858.966	19891.75
859.212	19691.75
859.458	19589.75
859.703	19345.75
859.949	19158.75
860.195	19150.75
860.44	19018.75
860.686	18930.75
860.931	18945.75
861.177	18874.75
861.422	18693.75
861.667	18751.75
861.913	18662.75
862.158	18795.75
862.403	18820.75
862.648	18834.75
862.893	18850.75
863.138	18835.75
863.384	18773.75
863.629	18791.75
863.873	18743.75
864.118	18696.75
864.363	18552.75
864.608	18543.75
864.853	18524.75
865.098	18394.75
865.342	18414.75
865.587	18310.75
865.832	18246.75
866.076	18287.75
866.321	18169.75
866.565	18223.75
866.81	18040.75
867.054	18039.75
867.298	18051.75
867.543	17865.75
867.787	17882.75
868.031	17923.75
868.275	17861.75
868.519	17796.75
868.764	17834.75
869.008	17802.75
869.252	17801.75
869.496	17759.75
869.739	17750.75
869.983	17819.75
870.227	17790.75
870.471	17766.75
870.715	17913.75
870.958	17860.75
871.202	17906.75
871.446	17954.75
871.689	17931.75
871.933	18043.75
872.176	17940.75
872.42	17876.75
872.663	17905.75
872.906	17936.75
873.15	17866.75
873.393	17740.75
873.636	17839.75
873.879	17635.75
874.122	17365.75
874.366	17204.75
874.609	17113.75
874.852	16870.75
875.095	16915.75
875.337	16696.75
875.58	16713.75
875.823	16623.75
876.066	16681.75
876.309	16639.75
876.551	16439.75
876.794	16422.75
877.037	16420.75
877.279	16205.75
877.522	16425.75
877.764	16313.75
878.007	16281.75
878.249	16305.75
878.491	16274.75
878.734	16237.75
878.976	16244.75
879.218	16096.75
879.46	16044.75
879.702	15868.75
879.945	15753.75
880.187	15632.75
880.429	15571.75
880.671	15453.75
880.912	15451.75
881.154	15436.75
881.396	15309.75
881.638	15370.75
881.88	15314.75
882.121	15380.75
882.363	15323.75
882.605	15331.75
882.846	15293.75
883.088	15405.75
883.329	15292.75
883.571	15366.75
883.812	15489.75
884.053	15744.75
884.295	16055.75
884.536	16338.75
884.777	16248.75
885.018	16047.75
885.259	16053.75
885.5	15957.75
885.742	16222.75
885.982	15993.75
886.223	15781.75
886.464	15611.75
886.705	15462.75
886.946	15299.75
887.187	14999.75
887.428	14922.75
887.668	14674.75
887.909	14478.75
888.15	14301.75
888.39	14271.75
888.631	14054.75
888.871	14036.75
889.111	13911.75
889.352	13794.75
889.592	13679.75
889.833	13615.75
890.073	13458.75
890.313	13525.75
890.553	13365.75
890.793	13436.75
891.033	13256.75
891.273	13243.75
891.513	13164.75
891.753	13218.75
891.993	13175.75
892.233	13189.75
892.473	13296.75
892.713	13276.75
892.952	13205.75
893.192	13275.75
893.432	13332.75
893.671	13216.75
893.911	13153.75
894.15	13124.75
894.39	13063.75
894.629	13002.75
894.869	12969.75
895.108	12916.75
895.347	12863.75
895.587	12878.75
895.826	12863.75
896.065	12761.75
896.304	12894.75
896.543	12838.75
896.782	12794.75
897.021	12783.75
897.26	12766.75
897.499	12871.75
897.738	12857.75
897.977	12762.75
898.216	12761.75
898.454	12538.75
898.693	12464.75
898.932	12497.75
899.17	12449.75
899.409	12461.75
899.647	12405.75
899.886	12330.75
900.124	12534.75
900.363	12441.75
900.601	12509.75
900.839	12672.75
901.078	12605.75
901.316	12692.75
901.554	12764.75
901.792	12806.75
902.03	12809.75
902.268	12840.75
902.506	12860.75
902.744	12689.75
902.982	12662.75
903.22	12316.75
903.458	12111.75
903.695	12039.75
903.933	11834.75
904.171	11466.75
904.409	11341.75
904.646	11282.75
904.884	11060.75
905.121	10979.75
905.359	10816.75
905.596	10656.75
905.833	10578.75
906.071	10498.75
906.308	10441.75
906.545	10425.75
906.783	10343.75
907.02	10387.75
907.257	10258.75
907.494	10288.75
907.731	10226.75
907.968	10253.75
908.205	10123.75
908.442	9990.75
908.679	10003.75
908.915	9939.75
909.152	9901.75
909.389	9645.75
909.626	9693.75
909.862	9516.75
910.099	9548.75
910.335	9550.75
910.572	9440.75
910.808	9471.75
911.045	9360.75
911.281	9368.75
911.518	9331.75
911.754	9316.75
911.99	9319.75
912.226	9116.75
912.463	9083.75
912.699	9020.75
912.935	9026.75
913.171	8941.75
913.407	8801.75
913.643	8786.75
913.879	8629.75
914.114	8642.75
914.35	8581.75
914.586	8446.75
914.822	8430.75
915.057	8461.75
915.293	8237.75
915.529	8263.75
915.764	8288.75
916	8270.75
916.235	8238.75
916.471	8220.75
916.706	8182.75
916.941	8098.75
917.177	8107.75
917.412	8232.75
917.647	8184.75
917.882	8137.75
918.117	8178.75
918.352	8057.75
918.588	8102.75
918.823	8049.75
919.057	7947.75
919.292	7783.75
919.527	7885.75
919.762	7646.75
919.997	7680.75
920.232	7532.75
920.466	7587.75
920.701	7392.75
920.935	7414.75
921.17	7341.75
921.405	7360.75
921.639	7322.75
921.873	7336.75
922.108	7326.75
922.342	7295.75
922.576	7186.75
922.811	7184.75
923.045	7220.75
923.279	7308.75
923.513	7019.75
923.747	7076.75
923.981	7024.75
924.215	6961.75
924.449	6971.75
924.683	6864.75
924.917	6846.75
925.151	6847.75
925.385	6880.75
925.618	6851.75
925.852	6818.75
926.086	6785.75
926.319	6809.75
926.553	6765.75
926.786	6745.75
927.02	6731.75
927.253	6744.75
927.486	6772.75
927.72	6664.75
927.953	6735.75
928.186	6675.75
928.42	6706.75
928.653	6662.75
928.886	6557.75
929.119	6635.75
929.352	6604.75
929.585	6557.75
929.818	6409.75
930.051	6454.75
930.284	6377.75
930.516	6297.75
930.749	6164.75
930.982	6297.75
931.215	6236.75
931.447	6172.75
931.68	6220.75
931.912	6194.75
932.145	6186.75
932.377	6179.75
932.61	6296.75
932.842	6120.75
933.074	6169.75
933.307	6145.75
933.539	6202.75
933.771	6220.75
934.003	6190.75
934.236	6224.75
934.468	6212.75
934.7	6122.75
934.932	6147.75
935.164	6073.75
935.395	6145.75
935.627	6092.75
935.859	6049.75
936.091	6019.75
936.323	6011.75
936.554	6042.75
936.786	6015.75
937.017	5971.75
937.249	5913.75
937.481	5873.75
937.712	5942.75
937.943	5892.75
938.175	5854.75
938.406	5861.75
938.637	5964.75
938.869	5837.75
939.1	5888.75
939.331	5785.75
939.562	5816.75
939.793	5840.75
940.024	5826.75
940.255	5757.75
940.486	5747.75
940.717	5675.75
940.948	5714.75
941.179	5659.75
941.409	5667.75
941.64	5615.75
941.871	5656.75
942.102	5604.75
942.332	5605.75
942.563	5599.75
942.793	5612.75
943.024	5593.75
943.254	5623.75
943.484	5620.75
943.715	5700.75
943.945	5552.75
944.175	5588.75
944.405	5513.75
944.636	5532.75
944.866	5554.75
945.096	5592.75
945.326	5480.75
945.556	5530.75
945.786	5495.75
946.016	5470.75
946.245	5388.75
946.475	5362.75
946.705	5367.75
946.935	5285.75
947.164	5298.75
947.394	5219.75
947.624	5237.75
947.853	5279.75
948.083	5244.75
948.312	5183.75
948.542	5086.75
948.771	5070.75
949	5097.75
949.23	5112.75
949.459	5137.75
949.688	5166.75
949.917	5078.75
950.146	5062.75
950.375	5165.75
950.604	5026.75
950.833	5114.75
951.062	5094.75
951.291	5023.75
951.52	5032.75
951.749	4993.75
951.978	4953.75
952.206	4966.75
952.435	4904.75
952.664	4933.75
952.892	4934.75
953.121	4897.75
953.349	4915.75
953.578	4845.75
953.806	4829.75
954.035	4800.75
954.263	4809.75
954.491	4724.75
954.719	4792.75
954.948	4711.75
955.176	4698.75
955.404	4614.75
955.632	4661.75
955.86	4653.75
956.088	4621.75
956.316	4606.75
956.544	4630.75
956.772	4543.75
956.999	4537.75
957.227	4555.75
957.455	4478.75
957.683	4462.75
957.91	4442.75
958.138	4379.75
958.365	4405.75
958.593	4390.75
958.82	4341.75
959.048	4393.75
959.275	4354.75
959.502	4333.75
959.73	4285.75
959.957	4299.75
960.184	4328.75
960.411	4253.75
960.638	4320.75
960.865	4268.75
961.092	4281.75
961.319	4188.75
961.546	4288.75
961.773	4287.75
962	4216.75
962.227	4291.75
962.454	4225.75
962.68	4183.75
962.907	4186.75
963.134	4118.75
963.36	4127.75
963.587	4103.75
963.813	4021.75
964.04	4122.75
964.266	4040.75
964.493	4085.75
964.719	4080.75
964.945	4025.75
965.171	3888.75
965.398	3953.75
965.624	3999.75
965.85	3857.75
966.076	3842.75
966.302	3869.75
966.528	3870.75
966.754	3841.75
966.98	3852.75
967.206	3844.75
967.431	3788.75
967.657	3859.75
967.883	3825.75
968.109	3815.75
968.334	3761.75
968.56	3720.75
968.785	3742.75
969.011	3701.75
969.236	3756.75
969.462	3662.75
969.687	3655.75
969.912	3714.75
970.138	3742.75
970.363	3653.75
970.588	3696.75
970.813	3599.75
971.038	3593.75
971.263	3626.75
971.488	3642.75
971.713	3630.75
971.938	3589.75
972.163	3509.75
972.388	3543.75
972.613	3525.75
972.838	3521.75
973.062	3451.75
973.287	3446.75
973.512	3433.75
973.736	3413.75
973.961	3399.75
974.185	3351.75
974.41	3432.75
974.634	3333.75
974.858	3298.75
975.083	3332.75
975.307	3380.75
975.531	3270.75
975.755	3212.75
975.98	3244.75
976.204	3142.75
976.428	3190.75
976.652	3176.75
976.876	3124.75
977.1	3141.75
977.324	3125.75
977.547	3209.75
977.771	3166.75
977.995	3127.75
978.219	3102.75
978.442	3195.75
978.666	3114.75
978.89	3086.75
979.113	3079.75
979.337	3100.75
979.56	3003.75
979.783	3113.75
980.007	2989.75
980.23	3040.75
980.453	2980.75
980.677	3021.75
980.9	3012.75
981.123	2918.75
981.346	2993.75
981.569	2931.75
981.792	2956.75
982.015	2930.75
982.238	2857.75
982.461	2900.75
982.684	2831.75
982.907	2817.75
983.129	2848.75
983.352	2846.75
983.575	2808.75
983.797	2850.75
984.02	2778.75
984.242	2810.75
984.465	2760.75
984.687	2781.75
984.91	2795.75
985.132	2740.75
985.354	2783.75
985.577	2719.75
985.799	2706.75
986.021	2635.75
986.243	2693.75
986.465	2697.75
986.687	2735.75
986.909	2734.75
987.131	2670.75
987.353	2620.75
987.575	2669.75
987.797	2612.75
988.019	2565.75
988.241	2642.75
988.462	2588.75
988.684	2654.75
988.906	2612.75
989.127	2661.75
989.349	2543.75
989.57	2571.75
989.792	2609.75
990.013	2639.75
990.234	2640.75
990.456	2625.75
990.677	2599.75
990.898	2522.75
991.119	2549.75
991.341	2537.75
991.562	2476.75
991.783	2521.75
992.004	2435.75
992.225	2409.75
992.446	2445.75
992.667	2381.75
992.887	2476.75
993.108	2358.75
993.329	2464.75
993.55	2403.75
993.77	2348.75
993.991	2328.75
994.212	2358.75
994.432	2331.75
994.653	2365.75
994.873	2344.75
995.093	2208.75
995.314	2257.75
995.534	2316.75
995.754	2359.75
995.975	2365.75
996.195	2237.75
996.415	2298.75
996.635	2286.75
996.855	2310.75
997.075	2317.75
997.295	2260.75
997.515	2259.75
997.735	2270.75
997.955	2279.75
998.174	2237.75
998.394	2228.75
998.614	2309.75
998.834	2188.75
999.053	2277.75
999.273	2236.75
999.492	2298.75
999.712	2215.75
999.931	2138.75
1000.151	2218.75
1000.37	2180.75
1000.589	2259.75
1000.809	2159.75
1001.028	2245.75
1001.247	2172.75
1001.466	2102.75
1001.685	2209.75
1001.904	2184.75
1002.123	2129.75
1002.342	2097.75
1002.561	2069.75
1002.78	2111.75
1002.999	2162.75
1003.218	2102.75
1003.436	2055.75
1003.655	2107.75
1003.874	2029.75
1004.092	2021.75
1004.311	2074.75
1004.53	2062.75
1004.748	2108.75
1004.966	2032.75
1005.185	2083.75
1005.403	2090.75
1005.622	2044.75
1005.84	2113.75
1006.058	2051.75
1006.276	2045.75
1006.494	2518.75
1006.712	2056.75
1006.931	2126.75
1007.149	2044.75
1007.367	1999.75
1007.584	2092.75
1007.802	2113.75
1008.02	2066.75
1008.238	2187.75
1008.456	2172.75
1008.673	2053.75
1008.891	2184.75
1009.109	2162.75
1009.326	2228.75
1009.544	2314.75
1009.761	2258.75
1009.979	2399.75
1010.196	2466.75
1010.413	2597.75
1010.631	2701.75
1010.848	2773.75
1011.065	2810.75
1011.282	2746.75
1011.5	2679.75
1011.717	2808.75
1011.934	2683.75
1012.151	2734.75
1012.368	2746.75
1012.585	2671.75
1012.801	2715.75
1013.018	2711.75
1013.235	2667.75
1013.452	2720.75
1013.669	2721.75
1013.885	2701.75
1014.102	2777.75
1014.318	2739.75
1014.535	2685.75
1014.751	2724.75
1014.968	2736.75
1015.184	2752.75
1015.401	2644.75
1015.617	2646.75
1015.833	2591.75
1016.049	2594.75
1016.266	2577.75
1016.482	2566.75
1016.698	2517.75
1016.914	2529.75
1017.13	2489.75
1017.346	2460.75
1017.562	2529.75
1017.778	2459.75
1017.993	2418.75
1018.209	2478.75
1018.425	2439.75
1018.641	2434.75
1018.856	2371.75
1019.072	2427.75
1019.288	2455.75
1019.503	2423.75
1019.719	2340.75
1019.934	2358.75
1020.149	2425.75
1020.365	2334.75
1020.58	2263.75
1020.795	2291.75
1021.011	2190.75
1021.226	2161.75
1021.441	2162.75
1021.656	2089.75
1021.871	1973.75
1022.086	1968.75
1022.301	1928.75
1022.516	1897.75
1022.731	1972.75
1022.946	1875.75
1023.16	1849.75
1023.375	1824.75
1023.59	1756.75
1023.804	1706.75
1024.019	1783.75
1024.234	1639.75
1024.448	1677.75
1024.663	1591.75
1024.877	1600.75
1025.092	1576.75
1025.306	1571.75
1025.52	1442.75
1025.734	1511.75
1025.949	1412.75
1026.163	1388.75
1026.377	1333.75
1026.591	1366.75
1026.805	1292.75
1027.019	1260.75
1027.233	1221.75
1027.447	1181.75
1027.661	1262.75
1027.875	1179.75
1028.088	1187.75
1028.302	1119.75
1028.516	1076.75
1028.73	1099.75
1028.943	1054.75
1029.157	995.75
1029.37	944.75
1029.584	-2.25
1029.797	-2.25
1030.011	-5.25
1030.224	-2.25
