Data from QEP037381__78__15-22-15-863.txt Node

Date: Fri Dec 16 15:22:15 EST 2022
User: dcclab
Spectrometer: QEP03738
Trigger mode: 4
Integration Time (sec): 1.000000E1
Scans to average: 1
Electric dark correction enabled: true
Nonlinearity correction enabled: false
Boxcar width: 0
XAxis mode: Wavelengths
Number of Pixels in Spectrum: 1044
>>>>>Begin Spectral Data<<<<<
784.041	13.38
784.3	3.38
784.558	-5.62
784.817	-3.62
785.075	86216.38
785.334	15105.38
785.592	7128.38
785.851	4887.38
786.109	3685.38
786.368	2872.38
786.626	2319.38
786.884	1967.38
787.143	1643.38
787.401	1364.38
787.659	1252.38
787.917	1095.38
788.175	1008.38
788.433	875.38
788.691	780.38
788.949	713.38
789.207	707.38
789.465	623.38
789.723	601.38
789.98	535.38
790.238	589.38
790.496	565.38
790.753	538.38
791.011	586.38
791.268	516.38
791.526	486.38
791.783	515.38
792.041	501.38
792.298	423.38
792.556	489.38
792.813	461.38
793.07	452.38
793.327	431.38
793.584	527.38
793.841	434.38
794.099	451.38
794.356	518.38
794.613	422.38
794.869	462.38
795.126	437.38
795.383	407.38
795.64	433.38
795.897	373.38
796.153	443.38
796.41	415.38
796.667	416.38
796.923	426.38
797.18	414.38
797.436	452.38
797.693	406.38
797.949	449.38
798.206	481.38
798.462	398.38
798.718	468.38
798.974	432.38
799.231	478.38
799.487	468.38
799.743	468.38
799.999	504.38
800.255	498.38
800.511	486.38
800.767	546.38
801.023	516.38
801.279	546.38
801.534	583.38
801.79	632.38
802.046	652.38
802.302	782.38
802.557	882.38
802.813	1078.38
803.068	1313.38
803.324	1805.38
803.579	2443.38
803.835	3357.38
804.09	4630.38
804.345	6045.38
804.601	7590.38
804.856	9272.38
805.111	10769.38
805.366	11893.38
805.621	12712.38
805.876	13238.38
806.131	13587.38
806.386	13800.38
806.641	14133.38
806.896	14331.38
807.151	14570.38
807.406	14830.38
807.661	15197.38
807.915	15514.38
808.17	15745.38
808.425	15965.38
808.679	16019.38
808.934	16213.38
809.188	16341.38
809.443	16623.38
809.697	16809.38
809.951	16953.38
810.206	17139.38
810.46	17312.38
810.714	17489.38
810.968	17692.38
811.223	17749.38
811.477	17897.38
811.731	18182.38
811.985	18216.38
812.239	18293.38
812.493	18343.38
812.747	18474.38
813	18463.38
813.254	18724.38
813.508	18849.38
813.762	18903.38
814.015	18963.38
814.269	19113.38
814.522	19257.38
814.776	19557.38
815.03	19797.38
815.283	19997.38
815.536	20244.38
815.79	20824.38
816.043	21071.38
816.296	21286.38
816.55	21613.38
816.803	21763.38
817.056	22184.38
817.309	22473.38
817.562	22524.38
817.815	22914.38
818.068	23000.38
818.321	23259.38
818.574	23528.38
818.827	23869.38
819.079	24292.38
819.332	24821.38
819.585	24874.38
819.838	25413.38
820.09	25337.38
820.343	25688.38
820.595	25778.38
820.848	25991.38
821.1	25966.38
821.353	26104.38
821.605	26091.38
821.857	26053.38
822.11	25850.38
822.362	25878.38
822.614	25817.38
822.866	25846.38
823.118	25812.38
823.37	25995.38
823.622	26006.38
823.874	26086.38
824.126	26192.38
824.378	26315.38
824.63	26362.38
824.882	26293.38
825.134	26364.38
825.385	26347.38
825.637	26264.38
825.888	26170.38
826.14	26241.38
826.392	26075.38
826.643	25927.38
826.895	25851.38
827.146	25795.38
827.397	25580.38
827.649	25699.38
827.9	25653.38
828.151	25785.38
828.402	25825.38
828.653	25938.38
828.905	25851.38
829.156	26082.38
829.407	25997.38
829.658	26023.38
829.909	26190.38
830.159	26218.38
830.41	25944.38
830.661	25781.38
830.912	25711.38
831.162	25743.38
831.413	25628.38
831.664	25627.38
831.914	25575.38
832.165	25550.38
832.415	25600.38
832.666	25527.38
832.916	25625.38
833.167	25601.38
833.417	25542.38
833.667	25416.38
833.917	25453.38
834.168	25276.38
834.418	25284.38
834.668	25105.38
834.918	25012.38
835.168	24923.38
835.418	24880.38
835.668	24779.38
835.918	24744.38
836.167	24622.38
836.417	24569.38
836.667	24490.38
836.917	24556.38
837.166	24513.38
837.416	24651.38
837.666	24476.38
837.915	24491.38
838.165	24481.38
838.414	24419.38
838.663	24347.38
838.913	24371.38
839.162	24331.38
839.411	24340.38
839.661	24264.38
839.91	24237.38
840.159	24094.38
840.408	24090.38
840.657	24151.38
840.906	24137.38
841.155	24288.38
841.404	24105.38
841.653	24278.38
841.902	24184.38
842.15	24264.38
842.399	24197.38
842.648	24144.38
842.897	24079.38
843.145	23985.38
843.394	23737.38
843.642	23714.38
843.891	23695.38
844.139	23405.38
844.388	23353.38
844.636	23199.38
844.884	23211.38
845.133	23229.38
845.381	23243.38
845.629	23229.38
845.877	23162.38
846.125	23208.38
846.373	23149.38
846.621	23175.38
846.869	23091.38
847.117	23003.38
847.365	22825.38
847.613	22632.38
847.861	22615.38
848.108	22622.38
848.356	22640.38
848.604	22411.38
848.851	22523.38
849.099	22574.38
849.346	22611.38
849.594	22702.38
849.841	22789.38
850.089	22765.38
850.336	22752.38
850.583	22723.38
850.831	22681.38
851.078	22546.38
851.325	22632.38
851.572	22786.38
851.819	22548.38
852.066	22120.38
852.313	21745.38
852.56	21565.38
852.807	21517.38
853.054	21415.38
853.301	21488.38
853.548	21541.38
853.794	21648.38
854.041	21622.38
854.288	21794.38
854.534	21984.38
854.781	21864.38
855.028	21784.38
855.274	21814.38
855.52	21666.38
855.767	21583.38
856.013	21646.38
856.26	21879.38
856.506	21350.38
856.752	21307.38
856.998	21459.38
857.244	21534.38
857.49	21542.38
857.736	21629.38
857.982	21663.38
858.228	21512.38
858.474	21437.38
858.72	21314.38
858.966	21121.38
859.212	20925.38
859.458	20558.38
859.703	20428.38
859.949	20175.38
860.195	20148.38
860.44	20136.38
860.686	20041.38
860.931	19999.38
861.177	19873.38
861.422	19820.38
861.667	19701.38
861.913	19624.38
862.158	19664.38
862.403	19844.38
862.648	19858.38
862.893	19848.38
863.138	19788.38
863.384	19715.38
863.629	19721.38
863.873	19650.38
864.118	19639.38
864.363	19618.38
864.608	19494.38
864.853	19551.38
865.098	19440.38
865.342	19406.38
865.587	19256.38
865.832	19281.38
866.076	19304.38
866.321	19114.38
866.565	19112.38
866.81	18963.38
867.054	19059.38
867.298	18845.38
867.543	18899.38
867.787	18785.38
868.031	18809.38
868.275	18770.38
868.519	18888.38
868.764	18717.38
869.008	18772.38
869.252	18757.38
869.496	18679.38
869.739	18680.38
869.983	18682.38
870.227	18711.38
870.471	18684.38
870.715	18833.38
870.958	18936.38
871.202	18907.38
871.446	18963.38
871.689	18913.38
871.933	18964.38
872.176	18921.38
872.42	18868.38
872.663	18765.38
872.906	18882.38
873.15	18733.38
873.393	18653.38
873.636	18725.38
873.879	18439.38
874.122	18326.38
874.366	18126.38
874.609	18012.38
874.852	17777.38
875.095	17731.38
875.337	17728.38
875.58	17544.38
875.823	17546.38
876.066	17517.38
876.309	17412.38
876.551	17294.38
876.794	17249.38
877.037	17234.38
877.279	17180.38
877.522	17103.38
877.764	17041.38
878.007	17107.38
878.249	17038.38
878.491	17034.38
878.734	17039.38
878.976	16944.38
879.218	16772.38
879.46	16726.38
879.702	16630.38
879.945	16438.38
880.187	16316.38
880.429	16310.38
880.671	16186.38
880.912	16205.38
881.154	16109.38
881.396	16092.38
881.638	16113.38
881.88	16078.38
882.121	16036.38
882.363	16021.38
882.605	16136.38
882.846	16060.38
883.088	16000.38
883.329	15936.38
883.571	16058.38
883.812	16217.38
884.053	16458.38
884.295	16732.38
884.536	17070.38
884.777	16889.38
885.018	17003.38
885.259	16816.38
885.5	16644.38
885.742	16993.38
885.982	16623.38
886.223	16512.38
886.464	16357.38
886.705	16091.38
886.946	15889.38
887.187	15669.38
887.428	15523.38
887.668	15276.38
887.909	14971.38
888.15	14851.38
888.39	14700.38
888.631	14643.38
888.871	14503.38
889.111	14424.38
889.352	14303.38
889.592	14197.38
889.833	14124.38
890.073	14087.38
890.313	14005.38
890.553	13802.38
890.793	13785.38
891.033	13737.38
891.273	13766.38
891.513	13663.38
891.753	13689.38
891.993	13635.38
892.233	13665.38
892.473	13783.38
892.713	13786.38
892.952	13740.38
893.192	13750.38
893.432	13661.38
893.671	13736.38
893.911	13688.38
894.15	13596.38
894.39	13469.38
894.629	13405.38
894.869	13443.38
895.108	13321.38
895.347	13324.38
895.587	13289.38
895.826	13219.38
896.065	13198.38
896.304	13365.38
896.543	13205.38
896.782	13105.38
897.021	13184.38
897.26	13194.38
897.499	13147.38
897.738	13263.38
897.977	13016.38
898.216	13031.38
898.454	12914.38
898.693	12812.38
898.932	12881.38
899.17	12849.38
899.409	12802.38
899.647	12741.38
899.886	12765.38
900.124	12749.38
900.363	12806.38
900.601	12862.38
900.839	12945.38
901.078	12950.38
901.316	13033.38
901.554	13116.38
901.792	13229.38
902.03	13116.38
902.268	13272.38
902.506	13271.38
902.744	13002.38
902.982	12972.38
903.22	12693.38
903.458	12497.38
903.695	12262.38
903.933	12110.38
904.171	11879.38
904.409	11704.38
904.646	11520.38
904.884	11306.38
905.121	11284.38
905.359	11049.38
905.596	10933.38
905.833	10866.38
906.071	10820.38
906.308	10759.38
906.545	10715.38
906.783	10586.38
907.02	10638.38
907.257	10465.38
907.494	10512.38
907.731	10494.38
907.968	10444.38
908.205	10356.38
908.442	10284.38
908.679	10245.38
908.915	10172.38
909.152	10062.38
909.389	9988.38
909.626	9882.38
909.862	9882.38
910.099	9808.38
910.335	9823.38
910.572	9654.38
910.808	9654.38
911.045	9659.38
911.281	9647.38
911.518	9561.38
911.754	9470.38
911.99	9500.38
912.226	9391.38
912.463	9359.38
912.699	9247.38
912.935	9191.38
913.171	9106.38
913.407	9018.38
913.643	9006.38
913.879	8940.38
914.114	8887.38
914.35	8777.38
914.586	8728.38
914.822	8558.38
915.057	8709.38
915.293	8508.38
915.529	8392.38
915.764	8509.38
916	8530.38
916.235	8419.38
916.471	8446.38
916.706	8326.38
916.941	8366.38
917.177	8367.38
917.412	8438.38
917.647	8387.38
917.882	8312.38
918.117	8346.38
918.352	8198.38
918.588	8267.38
918.823	8216.38
919.057	8189.38
919.292	8013.38
919.527	8013.38
919.762	7845.38
919.997	7887.38
920.232	7738.38
920.466	7739.38
920.701	7543.38
920.935	7632.38
921.17	7546.38
921.405	7454.38
921.639	7553.38
921.873	7445.38
922.108	7435.38
922.342	7426.38
922.576	7318.38
922.811	7308.38
923.045	7327.38
923.279	7280.38
923.513	7168.38
923.747	7241.38
923.981	7141.38
924.215	7135.38
924.449	7074.38
924.683	6970.38
924.917	7013.38
925.151	6970.38
925.385	7018.38
925.618	6964.38
925.852	6950.38
926.086	6867.38
926.319	6904.38
926.553	6931.38
926.786	6914.38
927.02	6885.38
927.253	6917.38
927.486	6883.38
927.72	6863.38
927.953	6891.38
928.186	6781.38
928.42	6778.38
928.653	6735.38
928.886	6696.38
929.119	6667.38
929.352	6630.38
929.585	6638.38
929.818	6558.38
930.051	6562.38
930.284	6475.38
930.516	6380.38
930.749	6404.38
930.982	6382.38
931.215	6382.38
931.447	6284.38
931.68	6276.38
931.912	6259.38
932.145	6268.38
932.377	6283.38
932.61	6361.38
932.842	6222.38
933.074	6264.38
933.307	6184.38
933.539	6351.38
933.771	6305.38
934.003	6251.38
934.236	6279.38
934.468	6324.38
934.7	6190.38
934.932	6186.38
935.164	6177.38
935.395	6145.38
935.627	6134.38
935.859	6162.38
936.091	6064.38
936.323	6074.38
936.554	6109.38
936.786	6037.38
937.017	5974.38
937.249	6034.38
937.481	5921.38
937.712	5972.38
937.943	5960.38
938.175	5943.38
938.406	5933.38
938.637	5939.38
938.869	5834.38
939.1	5934.38
939.331	5811.38
939.562	5878.38
939.793	5849.38
940.024	5863.38
940.255	5835.38
940.486	5741.38
940.717	5735.38
940.948	5693.38
941.179	5678.38
941.409	5683.38
941.64	5662.38
941.871	5676.38
942.102	5653.38
942.332	5671.38
942.563	5676.38
942.793	5633.38
943.024	5595.38
943.254	5581.38
943.484	5630.38
943.715	5653.38
943.945	5593.38
944.175	5579.38
944.405	5504.38
944.636	5557.38
944.866	5601.38
945.096	5574.38
945.326	5473.38
945.556	5598.38
945.786	5538.38
946.016	5475.38
946.245	5381.38
946.475	5373.38
946.705	5393.38
946.935	5336.38
947.164	5313.38
947.394	5287.38
947.624	5261.38
947.853	5263.38
948.083	5204.38
948.312	5220.38
948.542	5140.38
948.771	5079.38
949	5121.38
949.23	5094.38
949.459	5102.38
949.688	5139.38
949.917	5114.38
950.146	5052.38
950.375	5110.38
950.604	5027.38
950.833	5137.38
951.062	5067.38
951.291	5053.38
951.52	4986.38
951.749	5027.38
951.978	5016.38
952.206	5010.38
952.435	4879.38
952.664	4928.38
952.892	4937.38
953.121	4905.38
953.349	4918.38
953.578	4910.38
953.806	4817.38
954.035	4787.38
954.263	4829.38
954.491	4721.38
954.719	4739.38
954.948	4708.38
955.176	4682.38
955.404	4620.38
955.632	4716.38
955.86	4613.38
956.088	4670.38
956.316	4666.38
956.544	4592.38
956.772	4536.38
956.999	4541.38
957.227	4571.38
957.455	4445.38
957.683	4520.38
957.91	4395.38
958.138	4402.38
958.365	4370.38
958.593	4371.38
958.82	4303.38
959.048	4370.38
959.275	4347.38
959.502	4308.38
959.73	4304.38
959.957	4353.38
960.184	4296.38
960.411	4239.38
960.638	4330.38
960.865	4265.38
961.092	4273.38
961.319	4186.38
961.546	4284.38
961.773	4288.38
962	4239.38
962.227	4316.38
962.454	4215.38
962.68	4149.38
962.907	4198.38
963.134	4104.38
963.36	4141.38
963.587	4152.38
963.813	4087.38
964.04	4076.38
964.266	3975.38
964.493	4048.38
964.719	4063.38
964.945	4014.38
965.171	3928.38
965.398	3956.38
965.624	4007.38
965.85	3881.38
966.076	3859.38
966.302	3908.38
966.528	3867.38
966.754	3842.38
966.98	3876.38
967.206	3837.38
967.431	3724.38
967.657	3832.38
967.883	3803.38
968.109	3789.38
968.334	3726.38
968.56	3705.38
968.785	3731.38
969.011	3664.38
969.236	3741.38
969.462	3660.38
969.687	3686.38
969.912	3711.38
970.138	3709.38
970.363	3599.38
970.588	3669.38
970.813	3575.38
971.038	3589.38
971.263	3641.38
971.488	3587.38
971.713	3583.38
971.938	3596.38
972.163	3496.38
972.388	3542.38
972.613	3474.38
972.838	3488.38
973.062	3491.38
973.287	3431.38
973.512	3384.38
973.736	3416.38
973.961	3405.38
974.185	3341.38
974.41	3424.38
974.634	3291.38
974.858	3303.38
975.083	3307.38
975.307	3340.38
975.531	3243.38
975.755	3141.38
975.98	3211.38
976.204	3182.38
976.428	3145.38
976.652	3117.38
976.876	3137.38
977.1	3182.38
977.324	3104.38
977.547	3123.38
977.771	3117.38
977.995	3118.38
978.219	3033.38
978.442	3154.38
978.666	3120.38
978.89	3055.38
979.113	3090.38
979.337	3046.38
979.56	2995.38
979.783	3119.38
980.007	2983.38
980.23	2999.38
980.453	2988.38
980.677	2952.38
980.9	2969.38
981.123	2879.38
981.346	2986.38
981.569	2939.38
981.792	2954.38
982.015	2907.38
982.238	2856.38
982.461	2850.38
982.684	2828.38
982.907	2804.38
983.129	2785.38
983.352	2832.38
983.575	2821.38
983.797	2794.38
984.02	2724.38
984.242	2774.38
984.465	2740.38
984.687	2741.38
984.91	2749.38
985.132	2782.38
985.354	2748.38
985.577	2694.38
985.799	2703.38
986.021	2588.38
986.243	2608.38
986.465	2637.38
986.687	2705.38
986.909	2717.38
987.131	2630.38
987.353	2600.38
987.575	2620.38
987.797	2598.38
988.019	2553.38
988.241	2591.38
988.462	2515.38
988.684	2607.38
988.906	2592.38
989.127	2636.38
989.349	2510.38
989.57	2546.38
989.792	2573.38
990.013	2606.38
990.234	2533.38
990.456	2630.38
990.677	2560.38
990.898	2454.38
991.119	2487.38
991.341	2513.38
991.562	2419.38
991.783	2456.38
992.004	2408.38
992.225	2341.38
992.446	2422.38
992.667	2339.38
992.887	2450.38
993.108	2280.38
993.329	2431.38
993.55	2322.38
993.77	2263.38
993.991	2318.38
994.212	2325.38
994.432	2302.38
994.653	2317.38
994.873	2300.38
995.093	2183.38
995.314	2216.38
995.534	2296.38
995.754	2312.38
995.975	2308.38
996.195	2186.38
996.415	2274.38
996.635	2245.38
996.855	2264.38
997.075	2243.38
997.295	2225.38
997.515	2216.38
997.735	2268.38
997.955	2229.38
998.174	2216.38
998.394	2200.38
998.614	2210.38
998.834	2160.38
999.053	2219.38
999.273	2179.38
999.492	2258.38
999.712	2187.38
999.931	2115.38
1000.151	2139.38
1000.37	2158.38
1000.589	2191.38
1000.809	2123.38
1001.028	2226.38
1001.247	2143.38
1001.466	2045.38
1001.685	2164.38
1001.904	2111.38
1002.123	2075.38
1002.342	2064.38
1002.561	2039.38
1002.78	2042.38
1002.999	2087.38
1003.218	2033.38
1003.436	2016.38
1003.655	2054.38
1003.874	2001.38
1004.092	2021.38
1004.311	2047.38
1004.53	2026.38
1004.748	2084.38
1004.966	2029.38
1005.185	2075.38
1005.403	2021.38
1005.622	2002.38
1005.84	2096.38
1006.058	1983.38
1006.276	2006.38
1006.494	2508.38
1006.712	1982.38
1006.931	2054.38
1007.149	1980.38
1007.367	1987.38
1007.584	2020.38
1007.802	2074.38
1008.02	1996.38
1008.238	2157.38
1008.456	2092.38
1008.673	1996.38
1008.891	2114.38
1009.109	2102.38
1009.326	2157.38
1009.544	2257.38
1009.761	2211.38
1009.979	2270.38
1010.196	2325.38
1010.413	2441.38
1010.631	2564.38
1010.848	2628.38
1011.065	2667.38
1011.282	2612.38
1011.5	2540.38
1011.717	2705.38
1011.934	2624.38
1012.151	2582.38
1012.368	2597.38
1012.585	2543.38
1012.801	2617.38
1013.018	2563.38
1013.235	2548.38
1013.452	2574.38
1013.669	2601.38
1013.885	2614.38
1014.102	2647.38
1014.318	2637.38
1014.535	2537.38
1014.751	2609.38
1014.968	2621.38
1015.184	2622.38
1015.401	2523.38
1015.617	2586.38
1015.833	2465.38
1016.049	2489.38
1016.266	2439.38
1016.482	2464.38
1016.698	2380.38
1016.914	2391.38
1017.13	2328.38
1017.346	2334.38
1017.562	2427.38
1017.778	2319.38
1017.993	2327.38
1018.209	2344.38
1018.425	2382.38
1018.641	2339.38
1018.856	2288.38
1019.072	2320.38
1019.288	2383.38
1019.503	2332.38
1019.719	2228.38
1019.934	2278.38
1020.149	2328.38
1020.365	2266.38
1020.58	2195.38
1020.795	2178.38
1021.011	2137.38
1021.226	2115.38
1021.441	2078.38
1021.656	1951.38
1021.871	1905.38
1022.086	1892.38
1022.301	1857.38
1022.516	1852.38
1022.731	1890.38
1022.946	1794.38
1023.16	1753.38
1023.375	1696.38
1023.59	1694.38
1023.804	1640.38
1024.019	1721.38
1024.234	1562.38
1024.448	1612.38
1024.663	1500.38
1024.877	1515.38
1025.092	1510.38
1025.306	1497.38
1025.52	1404.38
1025.734	1498.38
1025.949	1376.38
1026.163	1334.38
1026.377	1262.38
1026.591	1305.38
1026.805	1239.38
1027.019	1204.38
1027.233	1159.38
1027.447	1109.38
1027.661	1185.38
1027.875	1132.38
1028.088	1139.38
1028.302	1050.38
1028.516	1028.38
1028.73	1017.38
1028.943	1021.38
1029.157	928.38
1029.37	874.38
1029.584	-2.62
1029.797	-1.62
1030.011	-1.62
1030.224	-1.62
