Data from QEP037381__49__15-17-25-858.txt Node

Date: Fri Dec 16 15:17:25 EST 2022
User: dcclab
Spectrometer: QEP03738
Trigger mode: 4
Integration Time (sec): 1.000000E1
Scans to average: 1
Electric dark correction enabled: true
Nonlinearity correction enabled: false
Boxcar width: 0
XAxis mode: Wavelengths
Number of Pixels in Spectrum: 1044
>>>>>Begin Spectral Data<<<<<
784.041	10.5
784.3	2.5
784.558	-3.5
784.817	-2.5
785.075	90662.5
785.334	15608.5
785.592	7362.5
785.851	5067.5
786.109	3784.5
786.368	2969.5
786.626	2403.5
786.884	2012.5
787.143	1688.5
787.401	1403.5
787.659	1273.5
787.917	1103.5
788.175	1013.5
788.433	891.5
788.691	809.5
788.949	742.5
789.207	712.5
789.465	617.5
789.723	607.5
789.98	568.5
790.238	619.5
790.496	561.5
790.753	540.5
791.011	577.5
791.268	524.5
791.526	513.5
791.783	541.5
792.041	501.5
792.298	439.5
792.556	489.5
792.813	484.5
793.07	461.5
793.327	452.5
793.584	515.5
793.841	451.5
794.099	458.5
794.356	523.5
794.613	431.5
794.869	463.5
795.126	419.5
795.383	412.5
795.64	450.5
795.897	399.5
796.153	453.5
796.41	432.5
796.667	420.5
796.923	433.5
797.18	437.5
797.436	449.5
797.693	429.5
797.949	475.5
798.206	488.5
798.462	410.5
798.718	480.5
798.974	453.5
799.231	500.5
799.487	481.5
799.743	499.5
799.999	530.5
800.255	520.5
800.511	522.5
800.767	566.5
801.023	555.5
801.279	600.5
801.534	630.5
801.79	695.5
802.046	730.5
802.302	870.5
802.557	1008.5
802.813	1244.5
803.068	1590.5
803.324	2210.5
803.579	2991.5
803.835	4091.5
804.09	5768.5
804.345	7452.5
804.601	9495.5
804.856	11468.5
805.111	13215.5
805.366	14603.5
805.621	15660.5
805.876	16227.5
806.131	16707.5
806.386	17012.5
806.641	17340.5
806.896	17573.5
807.151	18011.5
807.406	18274.5
807.661	18601.5
807.915	18941.5
808.17	19205.5
808.425	19437.5
808.679	19595.5
808.934	19782.5
809.188	20059.5
809.443	20290.5
809.697	20578.5
809.951	20635.5
810.206	20901.5
810.46	21148.5
810.714	21317.5
810.968	21501.5
811.223	21644.5
811.477	21966.5
811.731	22162.5
811.985	22143.5
812.239	22260.5
812.493	22379.5
812.747	22645.5
813	22537.5
813.254	22751.5
813.508	22846.5
813.762	22873.5
814.015	23007.5
814.269	23232.5
814.522	23392.5
814.776	23837.5
815.03	24060.5
815.283	24407.5
815.536	24714.5
815.79	25186.5
816.043	25424.5
816.296	25896.5
816.55	26175.5
816.803	26392.5
817.056	26837.5
817.309	27049.5
817.562	27393.5
817.815	27597.5
818.068	27875.5
818.321	28059.5
818.574	28515.5
818.827	28835.5
819.079	29102.5
819.332	29686.5
819.585	30104.5
819.838	30387.5
820.09	30500.5
820.343	30952.5
820.595	31058.5
820.848	31314.5
821.1	31375.5
821.353	31321.5
821.605	31366.5
821.857	31368.5
822.11	31169.5
822.362	31261.5
822.614	31166.5
822.866	31216.5
823.118	31120.5
823.37	31334.5
823.622	31440.5
823.874	31390.5
824.126	31575.5
824.378	31630.5
824.63	31777.5
824.882	31976.5
825.134	31621.5
825.385	31723.5
825.637	31618.5
825.888	31634.5
826.14	31527.5
826.392	31339.5
826.643	31292.5
826.895	31320.5
827.146	31279.5
827.397	30975.5
827.649	31128.5
827.9	31199.5
828.151	31180.5
828.402	31166.5
828.653	31352.5
828.905	31370.5
829.156	31416.5
829.407	31442.5
829.658	31438.5
829.909	31475.5
830.159	31454.5
830.41	31225.5
830.661	31140.5
830.912	31045.5
831.162	30788.5
831.413	30946.5
831.664	30825.5
831.914	30802.5
832.165	30799.5
832.415	30780.5
832.666	30870.5
832.916	30872.5
833.167	30836.5
833.417	30796.5
833.667	30632.5
833.917	30719.5
834.168	30515.5
834.418	30495.5
834.668	30372.5
834.918	30283.5
835.168	30138.5
835.418	29975.5
835.668	29863.5
835.918	29821.5
836.167	29861.5
836.417	29840.5
836.667	29734.5
836.917	29595.5
837.166	29639.5
837.416	29663.5
837.666	29732.5
837.915	29550.5
838.165	29566.5
838.414	29435.5
838.663	29365.5
838.913	29541.5
839.162	29434.5
839.411	29547.5
839.661	29220.5
839.91	29153.5
840.159	29138.5
840.408	29074.5
840.657	29117.5
840.906	29068.5
841.155	29183.5
841.404	29080.5
841.653	29126.5
841.902	29135.5
842.15	29181.5
842.399	29303.5
842.648	29240.5
842.897	29086.5
843.145	28982.5
843.394	28771.5
843.642	28642.5
843.891	28504.5
844.139	28312.5
844.388	28211.5
844.636	27980.5
844.884	28032.5
845.133	28095.5
845.381	27947.5
845.629	27907.5
845.877	27986.5
846.125	27972.5
846.373	27976.5
846.621	27796.5
846.869	27836.5
847.117	27580.5
847.365	27405.5
847.613	27445.5
847.861	27301.5
848.108	27167.5
848.356	27241.5
848.604	27233.5
848.851	27159.5
849.099	27174.5
849.346	27397.5
849.594	27476.5
849.841	27499.5
850.089	27641.5
850.336	27436.5
850.583	27477.5
850.831	27267.5
851.078	27331.5
851.325	27224.5
851.572	27321.5
851.819	27034.5
852.066	26692.5
852.313	26294.5
852.56	26052.5
852.807	26019.5
853.054	25932.5
853.301	25862.5
853.548	25899.5
853.794	26157.5
854.041	26210.5
854.288	26269.5
854.534	26519.5
854.781	26555.5
855.028	26423.5
855.274	26321.5
855.52	26102.5
855.767	26090.5
856.013	26189.5
856.26	26390.5
856.506	25919.5
856.752	25952.5
856.998	25885.5
857.244	25892.5
857.49	25874.5
857.736	26119.5
857.982	26102.5
858.228	25929.5
858.474	25776.5
858.72	25688.5
858.966	25510.5
859.212	25217.5
859.458	25079.5
859.703	24755.5
859.949	24556.5
860.195	24384.5
860.44	24345.5
860.686	24176.5
860.931	24247.5
861.177	24002.5
861.422	23990.5
861.667	23920.5
861.913	23831.5
862.158	23907.5
862.403	23965.5
862.648	24142.5
862.893	24184.5
863.138	24113.5
863.384	23945.5
863.629	23962.5
863.873	24049.5
864.118	23954.5
864.363	23796.5
864.608	23913.5
864.853	23642.5
865.098	23630.5
865.342	23526.5
865.587	23419.5
865.832	23390.5
866.076	23416.5
866.321	23254.5
866.565	23279.5
866.81	23154.5
867.054	22983.5
867.298	23020.5
867.543	22933.5
867.787	23022.5
868.031	22927.5
868.275	22824.5
868.519	22775.5
868.764	22843.5
869.008	22656.5
869.252	22675.5
869.496	22638.5
869.739	22620.5
869.983	22547.5
870.227	22647.5
870.471	22533.5
870.715	22707.5
870.958	22732.5
871.202	22816.5
871.446	22883.5
871.689	22846.5
871.933	22998.5
872.176	22894.5
872.42	22734.5
872.663	22690.5
872.906	22715.5
873.15	22620.5
873.393	22408.5
873.636	22448.5
873.879	22311.5
874.122	22130.5
874.366	21880.5
874.609	21700.5
874.852	21412.5
875.095	21369.5
875.337	21219.5
875.58	21198.5
875.823	21044.5
876.066	21032.5
876.309	21010.5
876.551	20985.5
876.794	20738.5
877.037	20819.5
877.279	20779.5
877.522	20812.5
877.764	20745.5
878.007	20681.5
878.249	20681.5
878.491	20568.5
878.734	20700.5
878.976	20585.5
879.218	20331.5
879.46	20321.5
879.702	20180.5
879.945	20110.5
880.187	19921.5
880.429	19756.5
880.671	19615.5
880.912	19623.5
881.154	19670.5
881.396	19484.5
881.638	19534.5
881.88	19481.5
882.121	19499.5
882.363	19506.5
882.605	19543.5
882.846	19461.5
883.088	19458.5
883.329	19369.5
883.571	19443.5
883.812	19589.5
884.053	19723.5
884.295	20100.5
884.536	20372.5
884.777	20289.5
885.018	20084.5
885.259	20213.5
885.5	19994.5
885.742	20280.5
885.982	19930.5
886.223	19686.5
886.464	19584.5
886.705	19415.5
886.946	19268.5
887.187	18967.5
887.428	18826.5
887.668	18580.5
887.909	18380.5
888.15	18026.5
888.39	17954.5
888.631	17966.5
888.871	17723.5
889.111	17543.5
889.352	17532.5
889.592	17401.5
889.833	17255.5
890.073	17187.5
890.313	17119.5
890.553	16932.5
890.793	16937.5
891.033	16848.5
891.273	16803.5
891.513	16718.5
891.753	16715.5
891.993	16651.5
892.233	16736.5
892.473	16823.5
892.713	16726.5
892.952	16715.5
893.192	16878.5
893.432	16668.5
893.671	16729.5
893.911	16705.5
894.15	16582.5
894.39	16410.5
894.629	16339.5
894.869	16215.5
895.108	16228.5
895.347	16133.5
895.587	16169.5
895.826	16109.5
896.065	16090.5
896.304	16131.5
896.543	16144.5
896.782	16036.5
897.021	16069.5
897.26	15953.5
897.499	16099.5
897.738	16125.5
897.977	15878.5
898.216	15758.5
898.454	15663.5
898.693	15525.5
898.932	15554.5
899.17	15538.5
899.409	15449.5
899.647	15534.5
899.886	15416.5
900.124	15507.5
900.363	15476.5
900.601	15516.5
900.839	15559.5
901.078	15616.5
901.316	15623.5
901.554	15726.5
901.792	15799.5
902.03	15748.5
902.268	15741.5
902.506	15742.5
902.744	15533.5
902.982	15476.5
903.22	15307.5
903.458	15129.5
903.695	14911.5
903.933	14638.5
904.171	14393.5
904.409	14092.5
904.646	14017.5
904.884	13850.5
905.121	13657.5
905.359	13473.5
905.596	13434.5
905.833	13148.5
906.071	13117.5
906.308	13091.5
906.545	13127.5
906.783	13061.5
907.02	13020.5
907.257	12975.5
907.494	12903.5
907.731	12937.5
907.968	12831.5
908.205	12715.5
908.442	12655.5
908.679	12507.5
908.915	12445.5
909.152	12319.5
909.389	12154.5
909.626	12169.5
909.862	12067.5
910.099	12075.5
910.335	11989.5
910.572	11900.5
910.808	11895.5
911.045	11809.5
911.281	11788.5
911.518	11830.5
911.754	11656.5
911.99	11639.5
912.226	11596.5
912.463	11475.5
912.699	11251.5
912.935	11342.5
913.171	11178.5
913.407	11135.5
913.643	11101.5
913.879	10956.5
914.114	10918.5
914.35	10861.5
914.586	10704.5
914.822	10604.5
915.057	10566.5
915.293	10431.5
915.529	10386.5
915.764	10470.5
916	10408.5
916.235	10388.5
916.471	10426.5
916.706	10284.5
916.941	10323.5
917.177	10294.5
917.412	10308.5
917.647	10253.5
917.882	10166.5
918.117	10239.5
918.352	10216.5
918.588	10186.5
918.823	10095.5
919.057	9984.5
919.292	9809.5
919.527	9911.5
919.762	9679.5
919.997	9705.5
920.232	9493.5
920.466	9485.5
920.701	9368.5
920.935	9337.5
921.17	9165.5
921.405	9224.5
921.639	9146.5
921.873	9090.5
922.108	9156.5
922.342	9201.5
922.576	9057.5
922.811	8936.5
923.045	9054.5
923.279	9049.5
923.513	8914.5
923.747	8883.5
923.981	8791.5
924.215	8724.5
924.449	8721.5
924.683	8587.5
924.917	8610.5
925.151	8526.5
925.385	8599.5
925.618	8536.5
925.852	8460.5
926.086	8439.5
926.319	8492.5
926.553	8475.5
926.786	8477.5
927.02	8505.5
927.253	8506.5
927.486	8457.5
927.72	8405.5
927.953	8478.5
928.186	8317.5
928.42	8323.5
928.653	8255.5
928.886	8267.5
929.119	8249.5
929.352	8202.5
929.585	8153.5
929.818	8090.5
930.051	8052.5
930.284	8012.5
930.516	7795.5
930.749	7853.5
930.982	7844.5
931.215	7770.5
931.447	7753.5
931.68	7708.5
931.912	7713.5
932.145	7710.5
932.377	7700.5
932.61	7768.5
932.842	7628.5
933.074	7734.5
933.307	7605.5
933.539	7729.5
933.771	7697.5
934.003	7629.5
934.236	7756.5
934.468	7704.5
934.7	7569.5
934.932	7627.5
935.164	7599.5
935.395	7593.5
935.627	7508.5
935.859	7524.5
936.091	7398.5
936.323	7483.5
936.554	7435.5
936.786	7416.5
937.017	7416.5
937.249	7383.5
937.481	7291.5
937.712	7373.5
937.943	7292.5
938.175	7260.5
938.406	7241.5
938.637	7319.5
938.869	7213.5
939.1	7249.5
939.331	7203.5
939.562	7178.5
939.793	7149.5
940.024	7136.5
940.255	7193.5
940.486	7035.5
940.717	7009.5
940.948	7020.5
941.179	6924.5
941.409	6911.5
941.64	6927.5
941.871	6950.5
942.102	6907.5
942.332	6908.5
942.563	6971.5
942.793	6887.5
943.024	6864.5
943.254	6959.5
943.484	6973.5
943.715	6991.5
943.945	6919.5
944.175	6839.5
944.405	6779.5
944.636	6801.5
944.866	6876.5
945.096	6833.5
945.326	6776.5
945.556	6820.5
945.786	6752.5
946.016	6710.5
946.245	6637.5
946.475	6609.5
946.705	6594.5
946.935	6486.5
947.164	6561.5
947.394	6435.5
947.624	6466.5
947.853	6476.5
948.083	6385.5
948.312	6347.5
948.542	6256.5
948.771	6204.5
949	6219.5
949.23	6295.5
949.459	6271.5
949.688	6339.5
949.917	6259.5
950.146	6201.5
950.375	6281.5
950.604	6206.5
950.833	6244.5
951.062	6254.5
951.291	6198.5
951.52	6132.5
951.749	6199.5
951.978	6128.5
952.206	6076.5
952.435	6062.5
952.664	6137.5
952.892	6052.5
953.121	6041.5
953.349	6020.5
953.578	5947.5
953.806	5933.5
954.035	5852.5
954.263	5882.5
954.491	5849.5
954.719	5871.5
954.948	5786.5
955.176	5748.5
955.404	5681.5
955.632	5735.5
955.86	5689.5
956.088	5636.5
956.316	5631.5
956.544	5690.5
956.772	5566.5
956.999	5533.5
957.227	5531.5
957.455	5466.5
957.683	5509.5
957.91	5414.5
958.138	5382.5
958.365	5388.5
958.593	5332.5
958.82	5313.5
959.048	5379.5
959.275	5292.5
959.502	5271.5
959.73	5325.5
959.957	5291.5
960.184	5277.5
960.411	5229.5
960.638	5268.5
960.865	5199.5
961.092	5226.5
961.319	5095.5
961.546	5240.5
961.773	5197.5
962	5178.5
962.227	5202.5
962.454	5120.5
962.68	5118.5
962.907	5111.5
963.134	5101.5
963.36	5042.5
963.587	5088.5
963.813	4973.5
964.04	4956.5
964.266	4918.5
964.493	5000.5
964.719	4905.5
964.945	4943.5
965.171	4752.5
965.398	4812.5
965.624	4812.5
965.85	4754.5
966.076	4693.5
966.302	4754.5
966.528	4666.5
966.754	4688.5
966.98	4670.5
967.206	4680.5
967.431	4561.5
967.657	4669.5
967.883	4652.5
968.109	4644.5
968.334	4586.5
968.56	4530.5
968.785	4549.5
969.011	4536.5
969.236	4543.5
969.462	4445.5
969.687	4479.5
969.912	4539.5
970.138	4500.5
970.363	4391.5
970.588	4441.5
970.813	4414.5
971.038	4375.5
971.263	4418.5
971.488	4397.5
971.713	4421.5
971.938	4352.5
972.163	4264.5
972.388	4306.5
972.613	4211.5
972.838	4239.5
973.062	4209.5
973.287	4179.5
973.512	4166.5
973.736	4177.5
973.961	4113.5
974.185	4080.5
974.41	4097.5
974.634	4007.5
974.858	3997.5
975.083	4032.5
975.307	4024.5
975.531	3944.5
975.755	3866.5
975.98	3907.5
976.204	3845.5
976.428	3813.5
976.652	3786.5
976.876	3837.5
977.1	3812.5
977.324	3759.5
977.547	3788.5
977.771	3802.5
977.995	3764.5
978.219	3732.5
978.442	3814.5
978.666	3739.5
978.89	3737.5
979.113	3728.5
979.337	3673.5
979.56	3674.5
979.783	3723.5
980.007	3650.5
980.23	3651.5
980.453	3624.5
980.677	3603.5
980.9	3594.5
981.123	3475.5
981.346	3588.5
981.569	3546.5
981.792	3559.5
982.015	3503.5
982.238	3433.5
982.461	3476.5
982.684	3404.5
982.907	3407.5
983.129	3407.5
983.352	3465.5
983.575	3402.5
983.797	3340.5
984.02	3322.5
984.242	3338.5
984.465	3310.5
984.687	3291.5
984.91	3300.5
985.132	3251.5
985.354	3289.5
985.577	3236.5
985.799	3224.5
986.021	3172.5
986.243	3161.5
986.465	3142.5
986.687	3211.5
986.909	3255.5
987.131	3148.5
987.353	3120.5
987.575	3171.5
987.797	3125.5
988.019	3044.5
988.241	3101.5
988.462	3048.5
988.684	3088.5
988.906	3125.5
989.127	3090.5
989.349	2976.5
989.57	3042.5
989.792	3102.5
990.013	3058.5
990.234	3070.5
990.456	3049.5
990.677	3028.5
990.898	2958.5
991.119	3002.5
991.341	2990.5
991.562	2946.5
991.783	2990.5
992.004	2889.5
992.225	2852.5
992.446	2857.5
992.667	2794.5
992.887	2876.5
993.108	2761.5
993.329	2904.5
993.55	2814.5
993.77	2740.5
993.991	2735.5
994.212	2761.5
994.432	2751.5
994.653	2745.5
994.873	2681.5
995.093	2623.5
995.314	2661.5
995.534	2717.5
995.754	2739.5
995.975	2709.5
996.195	2588.5
996.415	2648.5
996.635	2626.5
996.855	2643.5
997.075	2624.5
997.295	2592.5
997.515	2577.5
997.735	2634.5
997.955	2604.5
998.174	2572.5
998.394	2582.5
998.614	2629.5
998.834	2560.5
999.053	2622.5
999.273	2581.5
999.492	2654.5
999.712	2524.5
999.931	2523.5
1000.151	2542.5
1000.37	2510.5
1000.589	2540.5
1000.809	2469.5
1001.028	2555.5
1001.247	2504.5
1001.466	2413.5
1001.685	2535.5
1001.904	2448.5
1002.123	2438.5
1002.342	2407.5
1002.561	2393.5
1002.78	2412.5
1002.999	2445.5
1003.218	2402.5
1003.436	2322.5
1003.655	2376.5
1003.874	2315.5
1004.092	2343.5
1004.311	2396.5
1004.53	2335.5
1004.748	2387.5
1004.966	2320.5
1005.185	2373.5
1005.403	2354.5
1005.622	2298.5
1005.84	2380.5
1006.058	2300.5
1006.276	2281.5
1006.494	2775.5
1006.712	2303.5
1006.931	2366.5
1007.149	2275.5
1007.367	2263.5
1007.584	2333.5
1007.802	2376.5
1008.02	2279.5
1008.238	2413.5
1008.456	2398.5
1008.673	2275.5
1008.891	2407.5
1009.109	2382.5
1009.326	2410.5
1009.544	2565.5
1009.761	2486.5
1009.979	2598.5
1010.196	2648.5
1010.413	2802.5
1010.631	2885.5
1010.848	2937.5
1011.065	2979.5
1011.282	2909.5
1011.5	2894.5
1011.717	2989.5
1011.934	2886.5
1012.151	2946.5
1012.368	2879.5
1012.585	2847.5
1012.801	2916.5
1013.018	2868.5
1013.235	2821.5
1013.452	2825.5
1013.669	2887.5
1013.885	2881.5
1014.102	2915.5
1014.318	2877.5
1014.535	2855.5
1014.751	2846.5
1014.968	2884.5
1015.184	2868.5
1015.401	2778.5
1015.617	2786.5
1015.833	2748.5
1016.049	2724.5
1016.266	2711.5
1016.482	2707.5
1016.698	2592.5
1016.914	2654.5
1017.13	2580.5
1017.346	2589.5
1017.562	2633.5
1017.778	2550.5
1017.993	2513.5
1018.209	2611.5
1018.425	2543.5
1018.641	2509.5
1018.856	2494.5
1019.072	2583.5
1019.288	2566.5
1019.503	2507.5
1019.719	2453.5
1019.934	2452.5
1020.149	2485.5
1020.365	2431.5
1020.58	2365.5
1020.795	2394.5
1021.011	2335.5
1021.226	2257.5
1021.441	2277.5
1021.656	2137.5
1021.871	2074.5
1022.086	2082.5
1022.301	2044.5
1022.516	2005.5
1022.731	2051.5
1022.946	1953.5
1023.16	1924.5
1023.375	1866.5
1023.59	1824.5
1023.804	1794.5
1024.019	1876.5
1024.234	1722.5
1024.448	1750.5
1024.663	1656.5
1024.877	1663.5
1025.092	1664.5
1025.306	1618.5
1025.52	1506.5
1025.734	1604.5
1025.949	1492.5
1026.163	1478.5
1026.377	1395.5
1026.591	1421.5
1026.805	1319.5
1027.019	1319.5
1027.233	1297.5
1027.447	1227.5
1027.661	1333.5
1027.875	1211.5
1028.088	1214.5
1028.302	1157.5
1028.516	1123.5
1028.73	1111.5
1028.943	1087.5
1029.157	1022.5
1029.37	957.5
1029.584	-4.5
1029.797	-1.5
1030.011	1.5
1030.224	-2.5
