Data from QEP037381__99__15-25-45-865.txt Node

Date: Fri Dec 16 15:25:45 EST 2022
User: dcclab
Spectrometer: QEP03738
Trigger mode: 4
Integration Time (sec): 1.000000E1
Scans to average: 1
Electric dark correction enabled: true
Nonlinearity correction enabled: false
Boxcar width: 0
XAxis mode: Wavelengths
Number of Pixels in Spectrum: 1044
>>>>>Begin Spectral Data<<<<<
784.041	14.88
784.3	1.88
784.558	-4.12
784.817	-5.12
785.075	90375.88
785.334	15832.88
785.592	7476.88
785.851	5188.88
786.109	3904.88
786.368	3019.88
786.626	2436.88
786.884	2047.88
787.143	1752.88
787.401	1415.88
787.659	1306.88
787.917	1102.88
788.175	1018.88
788.433	887.88
788.691	788.88
788.949	750.88
789.207	724.88
789.465	641.88
789.723	607.88
789.98	560.88
790.238	601.88
790.496	565.88
790.753	541.88
791.011	584.88
791.268	525.88
791.526	493.88
791.783	523.88
792.041	514.88
792.298	429.88
792.556	486.88
792.813	460.88
793.07	448.88
793.327	443.88
793.584	532.88
793.841	460.88
794.099	459.88
794.356	503.88
794.613	434.88
794.869	439.88
795.126	413.88
795.383	406.88
795.64	424.88
795.897	385.88
796.153	451.88
796.41	417.88
796.667	395.88
796.923	412.88
797.18	420.88
797.436	438.88
797.693	410.88
797.949	451.88
798.206	481.88
798.462	407.88
798.718	459.88
798.974	436.88
799.231	468.88
799.487	469.88
799.743	474.88
799.999	490.88
800.255	514.88
800.511	470.88
800.767	522.88
801.023	516.88
801.279	542.88
801.534	575.88
801.79	615.88
802.046	646.88
802.302	764.88
802.557	884.88
802.813	1089.88
803.068	1308.88
803.324	1809.88
803.579	2440.88
803.835	3337.88
804.09	4596.88
804.345	5997.88
804.601	7508.88
804.856	9115.88
805.111	10515.88
805.366	11617.88
805.621	12394.88
805.876	12844.88
806.131	13274.88
806.386	13471.88
806.641	13709.88
806.896	13957.88
807.151	14267.88
807.406	14503.88
807.661	14797.88
807.915	14970.88
808.17	15291.88
808.425	15401.88
808.679	15506.88
808.934	15789.88
809.188	15972.88
809.443	16127.88
809.697	16347.88
809.951	16538.88
810.206	16648.88
810.46	16793.88
810.714	16899.88
810.968	17188.88
811.223	17257.88
811.477	17461.88
811.731	17515.88
811.985	17555.88
812.239	17649.88
812.493	17825.88
812.747	17838.88
813	17971.88
813.254	18066.88
813.508	18143.88
813.762	18163.88
814.015	18270.88
814.269	18450.88
814.522	18575.88
814.776	18733.88
815.03	19034.88
815.283	19357.88
815.536	19616.88
815.79	19921.88
816.043	20102.88
816.296	20511.88
816.55	20668.88
816.803	20946.88
817.056	21255.88
817.309	21461.88
817.562	21705.88
817.815	21825.88
818.068	22008.88
818.321	22191.88
818.574	22578.88
818.827	22843.88
819.079	23088.88
819.332	23597.88
819.585	23797.88
819.838	24192.88
820.09	24306.88
820.343	24516.88
820.595	24508.88
820.848	24728.88
821.1	24826.88
821.353	24850.88
821.605	24870.88
821.857	24854.88
822.11	24678.88
822.362	24627.88
822.614	24698.88
822.866	24679.88
823.118	24592.88
823.37	24739.88
823.622	24719.88
823.874	24828.88
824.126	25016.88
824.378	24947.88
824.63	25107.88
824.882	25105.88
825.134	25087.88
825.385	25111.88
825.637	25040.88
825.888	24986.88
826.14	24797.88
826.392	24826.88
826.643	24675.88
826.895	24593.88
827.146	24456.88
827.397	24408.88
827.649	24548.88
827.9	24441.88
828.151	24471.88
828.402	24529.88
828.653	24561.88
828.905	24702.88
829.156	24903.88
829.407	24583.88
829.658	24751.88
829.909	24802.88
830.159	24768.88
830.41	24731.88
830.661	24511.88
830.912	24364.88
831.162	24257.88
831.413	24288.88
831.664	24382.88
831.914	24226.88
832.165	24305.88
832.415	24300.88
832.666	24184.88
832.916	24273.88
833.167	24224.88
833.417	24236.88
833.667	24158.88
833.917	24096.88
834.168	24060.88
834.418	23975.88
834.668	23913.88
834.918	23704.88
835.168	23635.88
835.418	23578.88
835.668	23556.88
835.918	23534.88
836.167	23445.88
836.417	23381.88
836.667	23369.88
836.917	23337.88
837.166	23326.88
837.416	23369.88
837.666	23252.88
837.915	23250.88
838.165	23175.88
838.414	23128.88
838.663	22987.88
838.913	23228.88
839.162	23131.88
839.411	23086.88
839.661	22965.88
839.91	22818.88
840.159	22771.88
840.408	22896.88
840.657	22889.88
840.906	22978.88
841.155	22882.88
841.404	22885.88
841.653	22827.88
841.902	22883.88
842.15	22910.88
842.399	23031.88
842.648	22866.88
842.897	22785.88
843.145	22605.88
843.394	22585.88
843.642	22593.88
843.891	22326.88
844.139	22188.88
844.388	22118.88
844.636	21953.88
844.884	21899.88
845.133	22021.88
845.381	22010.88
845.629	22025.88
845.877	21945.88
846.125	21919.88
846.373	21869.88
846.621	21786.88
846.869	21732.88
847.117	21533.88
847.365	21575.88
847.613	21390.88
847.861	21388.88
848.108	21322.88
848.356	21402.88
848.604	21239.88
848.851	21237.88
849.099	21262.88
849.346	21303.88
849.594	21412.88
849.841	21536.88
850.089	21466.88
850.336	21584.88
850.583	21543.88
850.831	21342.88
851.078	21343.88
851.325	21466.88
851.572	21639.88
851.819	21434.88
852.066	20935.88
852.313	20616.88
852.56	20336.88
852.807	20207.88
853.054	20250.88
853.301	20269.88
853.548	20293.88
853.794	20431.88
854.041	20496.88
854.288	20515.88
854.534	20829.88
854.781	20774.88
855.028	20748.88
855.274	20782.88
855.52	20613.88
855.767	20547.88
856.013	20542.88
856.26	20920.88
856.506	20338.88
856.752	20275.88
856.998	20222.88
857.244	20334.88
857.49	20461.88
857.736	20474.88
857.982	20491.88
858.228	20403.88
858.474	20267.88
858.72	20159.88
858.966	19931.88
859.212	19743.88
859.458	19616.88
859.703	19388.88
859.949	19122.88
860.195	19030.88
860.44	19138.88
860.686	18864.88
860.931	19011.88
861.177	18809.88
861.422	18706.88
861.667	18652.88
861.913	18640.88
862.158	18677.88
862.403	18761.88
862.648	18850.88
862.893	18942.88
863.138	18729.88
863.384	18752.88
863.629	18656.88
863.873	18808.88
864.118	18648.88
864.363	18646.88
864.608	18465.88
864.853	18484.88
865.098	18435.88
865.342	18424.88
865.587	18260.88
865.832	18372.88
866.076	18298.88
866.321	18077.88
866.565	18142.88
866.81	18029.88
867.054	18013.88
867.298	17962.88
867.543	17965.88
867.787	17904.88
868.031	17789.88
868.275	17827.88
868.519	17866.88
868.764	17807.88
869.008	17882.88
869.252	17790.88
869.496	17799.88
869.739	17678.88
869.983	17756.88
870.227	17822.88
870.471	17820.88
870.715	17906.88
870.958	17899.88
871.202	17859.88
871.446	18008.88
871.689	17916.88
871.933	18038.88
872.176	17942.88
872.42	17937.88
872.663	17886.88
872.906	17887.88
873.15	17818.88
873.393	17871.88
873.636	17728.88
873.879	17674.88
874.122	17469.88
874.366	17274.88
874.609	17030.88
874.852	16924.88
875.095	16879.88
875.337	16869.88
875.58	16680.88
875.823	16649.88
876.066	16650.88
876.309	16573.88
876.551	16545.88
876.794	16371.88
877.037	16419.88
877.279	16290.88
877.522	16374.88
877.764	16312.88
878.007	16204.88
878.249	16285.88
878.491	16167.88
878.734	16165.88
878.976	16161.88
879.218	15951.88
879.46	15985.88
879.702	15827.88
879.945	15665.88
880.187	15597.88
880.429	15523.88
880.671	15442.88
880.912	15304.88
881.154	15344.88
881.396	15241.88
881.638	15209.88
881.88	15308.88
882.121	15254.88
882.363	15265.88
882.605	15339.88
882.846	15371.88
883.088	15242.88
883.329	15230.88
883.571	15298.88
883.812	15470.88
884.053	15808.88
884.295	16131.88
884.536	16368.88
884.777	16287.88
885.018	16112.88
885.259	16049.88
885.5	15902.88
885.742	16225.88
885.982	15885.88
886.223	15700.88
886.464	15670.88
886.705	15426.88
886.946	15279.88
887.187	15003.88
887.428	14937.88
887.668	14481.88
887.909	14342.88
888.15	14190.88
888.39	14197.88
888.631	14074.88
888.871	13876.88
889.111	13794.88
889.352	13701.88
889.592	13572.88
889.833	13556.88
890.073	13464.88
890.313	13407.88
890.553	13261.88
890.793	13293.88
891.033	13211.88
891.273	13181.88
891.513	13103.88
891.753	13139.88
891.993	13094.88
892.233	13141.88
892.473	13237.88
892.713	13204.88
892.952	13111.88
893.192	13270.88
893.432	13170.88
893.671	13158.88
893.911	13163.88
894.15	13041.88
894.39	12965.88
894.629	12907.88
894.869	12822.88
895.108	12861.88
895.347	12709.88
895.587	12815.88
895.826	12719.88
896.065	12741.88
896.304	12820.88
896.543	12798.88
896.782	12634.88
897.021	12612.88
897.26	12769.88
897.499	12733.88
897.738	12744.88
897.977	12645.88
898.216	12675.88
898.454	12440.88
898.693	12394.88
898.932	12446.88
899.17	12375.88
899.409	12338.88
899.647	12369.88
899.886	12348.88
900.124	12395.88
900.363	12364.88
900.601	12419.88
900.839	12480.88
901.078	12557.88
901.316	12610.88
901.554	12583.88
901.792	12765.88
902.03	12710.88
902.268	12708.88
902.506	12688.88
902.744	12569.88
902.982	12466.88
903.22	12282.88
903.458	12079.88
903.695	11872.88
903.933	11739.88
904.171	11373.88
904.409	11269.88
904.646	11109.88
904.884	10886.88
905.121	10861.88
905.359	10687.88
905.596	10629.88
905.833	10452.88
906.071	10395.88
906.308	10432.88
906.545	10350.88
906.783	10185.88
907.02	10280.88
907.257	10120.88
907.494	10205.88
907.731	10136.88
907.968	10086.88
908.205	9991.88
908.442	9901.88
908.679	9912.88
908.915	9822.88
909.152	9801.88
909.389	9586.88
909.626	9555.88
909.862	9520.88
910.099	9427.88
910.335	9481.88
910.572	9295.88
910.808	9372.88
911.045	9344.88
911.281	9336.88
911.518	9311.88
911.754	9196.88
911.99	9084.88
912.226	9100.88
912.463	9014.88
912.699	8952.88
912.935	8916.88
913.171	8787.88
913.407	8748.88
913.643	8751.88
913.879	8591.88
914.114	8551.88
914.35	8451.88
914.586	8411.88
914.822	8354.88
915.057	8345.88
915.293	8171.88
915.529	8170.88
915.764	8251.88
916	8244.88
916.235	8148.88
916.471	8135.88
916.706	8045.88
916.941	8099.88
917.177	8052.88
917.412	8093.88
917.647	8089.88
917.882	7995.88
918.117	8095.88
918.352	8011.88
918.588	8039.88
918.823	7900.88
919.057	7851.88
919.292	7753.88
919.527	7780.88
919.762	7580.88
919.997	7631.88
920.232	7540.88
920.466	7453.88
920.701	7309.88
920.935	7343.88
921.17	7303.88
921.405	7246.88
921.639	7288.88
921.873	7137.88
922.108	7190.88
922.342	7214.88
922.576	7126.88
922.811	7128.88
923.045	7080.88
923.279	7117.88
923.513	6978.88
923.747	7030.88
923.981	6964.88
924.215	6867.88
924.449	6847.88
924.683	6800.88
924.917	6820.88
925.151	6791.88
925.385	6823.88
925.618	6730.88
925.852	6717.88
926.086	6672.88
926.319	6692.88
926.553	6688.88
926.786	6747.88
927.02	6659.88
927.253	6684.88
927.486	6683.88
927.72	6629.88
927.953	6664.88
928.186	6613.88
928.42	6612.88
928.653	6602.88
928.886	6529.88
929.119	6565.88
929.352	6489.88
929.585	6502.88
929.818	6330.88
930.051	6392.88
930.284	6343.88
930.516	6285.88
930.749	6208.88
930.982	6198.88
931.215	6241.88
931.447	6165.88
931.68	6100.88
931.912	6105.88
932.145	6056.88
932.377	6086.88
932.61	6247.88
932.842	6065.88
933.074	6102.88
933.307	6065.88
933.539	6102.88
933.771	6074.88
934.003	6067.88
934.236	6128.88
934.468	6148.88
934.7	6010.88
934.932	6043.88
935.164	5957.88
935.395	6015.88
935.627	6004.88
935.859	5992.88
936.091	5882.88
936.323	5960.88
936.554	5984.88
936.786	5844.88
937.017	5823.88
937.249	5914.88
937.481	5753.88
937.712	5869.88
937.943	5814.88
938.175	5774.88
938.406	5778.88
938.637	5803.88
938.869	5701.88
939.1	5802.88
939.331	5706.88
939.562	5754.88
939.793	5696.88
940.024	5768.88
940.255	5712.88
940.486	5647.88
940.717	5627.88
940.948	5620.88
941.179	5558.88
941.409	5566.88
941.64	5532.88
941.871	5548.88
942.102	5500.88
942.332	5568.88
942.563	5589.88
942.793	5566.88
943.024	5525.88
943.254	5532.88
943.484	5566.88
943.715	5553.88
943.945	5514.88
944.175	5453.88
944.405	5452.88
944.636	5449.88
944.866	5532.88
945.096	5517.88
945.326	5353.88
945.556	5473.88
945.786	5454.88
946.016	5423.88
946.245	5279.88
946.475	5257.88
946.705	5278.88
946.935	5235.88
947.164	5210.88
947.394	5172.88
947.624	5149.88
947.853	5253.88
948.083	5199.88
948.312	5083.88
948.542	5021.88
948.771	5009.88
949	5056.88
949.23	5034.88
949.459	5033.88
949.688	5104.88
949.917	5033.88
950.146	5016.88
950.375	5052.88
950.604	4939.88
950.833	5022.88
951.062	4977.88
951.291	4953.88
951.52	4924.88
951.749	4927.88
951.978	4878.88
952.206	4881.88
952.435	4867.88
952.664	4888.88
952.892	4891.88
953.121	4827.88
953.349	4845.88
953.578	4796.88
953.806	4763.88
954.035	4711.88
954.263	4730.88
954.491	4677.88
954.719	4690.88
954.948	4655.88
955.176	4631.88
955.404	4554.88
955.632	4595.88
955.86	4631.88
956.088	4567.88
956.316	4576.88
956.544	4572.88
956.772	4469.88
956.999	4453.88
957.227	4516.88
957.455	4436.88
957.683	4455.88
957.91	4341.88
958.138	4348.88
958.365	4340.88
958.593	4334.88
958.82	4254.88
959.048	4320.88
959.275	4275.88
959.502	4275.88
959.73	4173.88
959.957	4222.88
960.184	4285.88
960.411	4218.88
960.638	4277.88
960.865	4178.88
961.092	4239.88
961.319	4123.88
961.546	4233.88
961.773	4244.88
962	4203.88
962.227	4162.88
962.454	4166.88
962.68	4139.88
962.907	4142.88
963.134	4078.88
963.36	4055.88
963.587	4144.88
963.813	4011.88
964.04	4004.88
964.266	3935.88
964.493	4014.88
964.719	3979.88
964.945	3908.88
965.171	3854.88
965.398	3889.88
965.624	3946.88
965.85	3842.88
966.076	3825.88
966.302	3873.88
966.528	3784.88
966.754	3805.88
966.98	3806.88
967.206	3804.88
967.431	3749.88
967.657	3801.88
967.883	3730.88
968.109	3710.88
968.334	3682.88
968.56	3683.88
968.785	3659.88
969.011	3649.88
969.236	3668.88
969.462	3631.88
969.687	3654.88
969.912	3677.88
970.138	3705.88
970.363	3599.88
970.588	3604.88
970.813	3568.88
971.038	3585.88
971.263	3565.88
971.488	3570.88
971.713	3600.88
971.938	3529.88
972.163	3463.88
972.388	3497.88
972.613	3467.88
972.838	3447.88
973.062	3429.88
973.287	3434.88
973.512	3388.88
973.736	3422.88
973.961	3331.88
974.185	3344.88
974.41	3392.88
974.634	3257.88
974.858	3217.88
975.083	3319.88
975.307	3307.88
975.531	3246.88
975.755	3199.88
975.98	3149.88
976.204	3101.88
976.428	3152.88
976.652	3090.88
976.876	3107.88
977.1	3119.88
977.324	3088.88
977.547	3132.88
977.771	3137.88
977.995	3093.88
978.219	3029.88
978.442	3131.88
978.666	3078.88
978.89	3049.88
979.113	3042.88
979.337	3023.88
979.56	2977.88
979.783	3067.88
980.007	2967.88
980.23	2974.88
980.453	2986.88
980.677	2980.88
980.9	2976.88
981.123	2881.88
981.346	2959.88
981.569	2916.88
981.792	2919.88
982.015	2895.88
982.238	2841.88
982.461	2870.88
982.684	2771.88
982.907	2806.88
983.129	2796.88
983.352	2822.88
983.575	2799.88
983.797	2786.88
984.02	2732.88
984.242	2736.88
984.465	2729.88
984.687	2809.88
984.91	2788.88
985.132	2696.88
985.354	2765.88
985.577	2722.88
985.799	2726.88
986.021	2596.88
986.243	2664.88
986.465	2628.88
986.687	2707.88
986.909	2722.88
987.131	2662.88
987.353	2550.88
987.575	2648.88
987.797	2602.88
988.019	2540.88
988.241	2573.88
988.462	2545.88
988.684	2603.88
988.906	2611.88
989.127	2615.88
989.349	2507.88
989.57	2564.88
989.792	2610.88
990.013	2599.88
990.234	2592.88
990.456	2614.88
990.677	2589.88
990.898	2504.88
991.119	2501.88
991.341	2532.88
991.562	2464.88
991.783	2495.88
992.004	2449.88
992.225	2376.88
992.446	2440.88
992.667	2334.88
992.887	2423.88
993.108	2336.88
993.329	2454.88
993.55	2393.88
993.77	2334.88
993.991	2325.88
994.212	2382.88
994.432	2315.88
994.653	2327.88
994.873	2283.88
995.093	2235.88
995.314	2254.88
995.534	2307.88
995.754	2335.88
995.975	2348.88
996.195	2192.88
996.415	2260.88
996.635	2243.88
996.855	2279.88
997.075	2235.88
997.295	2266.88
997.515	2197.88
997.735	2313.88
997.955	2254.88
998.174	2204.88
998.394	2208.88
998.614	2258.88
998.834	2201.88
999.053	2248.88
999.273	2248.88
999.492	2278.88
999.712	2180.88
999.931	2142.88
1000.151	2180.88
1000.37	2141.88
1000.589	2178.88
1000.809	2087.88
1001.028	2233.88
1001.247	2162.88
1001.466	2033.88
1001.685	2185.88
1001.904	2130.88
1002.123	2078.88
1002.342	2071.88
1002.561	2068.88
1002.78	2073.88
1002.999	2105.88
1003.218	2048.88
1003.436	2021.88
1003.655	2081.88
1003.874	2001.88
1004.092	2035.88
1004.311	2063.88
1004.53	2037.88
1004.748	2102.88
1004.966	2009.88
1005.185	2067.88
1005.403	2073.88
1005.622	2045.88
1005.84	2096.88
1006.058	2001.88
1006.276	2013.88
1006.494	2519.88
1006.712	2010.88
1006.931	2095.88
1007.149	2009.88
1007.367	2023.88
1007.584	2056.88
1007.802	2095.88
1008.02	2057.88
1008.238	2178.88
1008.456	2162.88
1008.673	2062.88
1008.891	2190.88
1009.109	2170.88
1009.326	2193.88
1009.544	2302.88
1009.761	2259.88
1009.979	2397.88
1010.196	2457.88
1010.413	2582.88
1010.631	2711.88
1010.848	2754.88
1011.065	2811.88
1011.282	2774.88
1011.5	2715.88
1011.717	2801.88
1011.934	2713.88
1012.151	2724.88
1012.368	2733.88
1012.585	2641.88
1012.801	2738.88
1013.018	2742.88
1013.235	2732.88
1013.452	2692.88
1013.669	2715.88
1013.885	2730.88
1014.102	2821.88
1014.318	2773.88
1014.535	2735.88
1014.751	2783.88
1014.968	2744.88
1015.184	2770.88
1015.401	2647.88
1015.617	2703.88
1015.833	2621.88
1016.049	2600.88
1016.266	2552.88
1016.482	2571.88
1016.698	2480.88
1016.914	2503.88
1017.13	2460.88
1017.346	2454.88
1017.562	2517.88
1017.778	2438.88
1017.993	2430.88
1018.209	2483.88
1018.425	2462.88
1018.641	2441.88
1018.856	2371.88
1019.072	2462.88
1019.288	2480.88
1019.503	2417.88
1019.719	2328.88
1019.934	2344.88
1020.149	2436.88
1020.365	2329.88
1020.58	2244.88
1020.795	2299.88
1021.011	2218.88
1021.226	2146.88
1021.441	2146.88
1021.656	2053.88
1021.871	1992.88
1022.086	1974.88
1022.301	1958.88
1022.516	1885.88
1022.731	1922.88
1022.946	1841.88
1023.16	1826.88
1023.375	1775.88
1023.59	1731.88
1023.804	1666.88
1024.019	1720.88
1024.234	1623.88
1024.448	1635.88
1024.663	1533.88
1024.877	1560.88
1025.092	1564.88
1025.306	1557.88
1025.52	1436.88
1025.734	1508.88
1025.949	1407.88
1026.163	1391.88
1026.377	1304.88
1026.591	1356.88
1026.805	1269.88
1027.019	1245.88
1027.233	1189.88
1027.447	1143.88
1027.661	1259.88
1027.875	1162.88
1028.088	1178.88
1028.302	1082.88
1028.516	1069.88
1028.73	1056.88
1028.943	1053.88
1029.157	982.88
1029.37	899.88
1029.584	-2.12
1029.797	-0.12
1030.011	-3.12
1030.224	-2.12
