Data from QEP037381__34__15-14-55-857.txt Node

Date: Fri Dec 16 15:14:55 EST 2022
User: dcclab
Spectrometer: QEP03738
Trigger mode: 4
Integration Time (sec): 1.000000E1
Scans to average: 1
Electric dark correction enabled: true
Nonlinearity correction enabled: false
Boxcar width: 0
XAxis mode: Wavelengths
Number of Pixels in Spectrum: 1044
>>>>>Begin Spectral Data<<<<<
784.041	13.38
784.3	-1.62
784.558	-2.62
784.817	-4.62
785.075	89608.38
785.334	15377.38
785.592	7182.38
785.851	4969.38
786.109	3765.38
786.368	2919.38
786.626	2356.38
786.884	1969.38
787.143	1675.38
787.401	1389.38
787.659	1264.38
787.917	1091.38
788.175	1011.38
788.433	876.38
788.691	813.38
788.949	743.38
789.207	722.38
789.465	621.38
789.723	577.38
789.98	563.38
790.238	598.38
790.496	560.38
790.753	530.38
791.011	577.38
791.268	513.38
791.526	516.38
791.783	516.38
792.041	497.38
792.298	428.38
792.556	496.38
792.813	482.38
793.07	450.38
793.327	443.38
793.584	515.38
793.841	457.38
794.099	466.38
794.356	528.38
794.613	415.38
794.869	459.38
795.126	416.38
795.383	406.38
795.64	420.38
795.897	389.38
796.153	453.38
796.41	433.38
796.667	397.38
796.923	416.38
797.18	418.38
797.436	437.38
797.693	414.38
797.949	472.38
798.206	495.38
798.462	412.38
798.718	474.38
798.974	440.38
799.231	478.38
799.487	456.38
799.743	476.38
799.999	512.38
800.255	502.38
800.511	493.38
800.767	538.38
801.023	515.38
801.279	561.38
801.534	591.38
801.79	638.38
802.046	672.38
802.302	798.38
802.557	892.38
802.813	1111.38
803.068	1357.38
803.324	1869.38
803.579	2554.38
803.835	3491.38
804.09	4804.38
804.345	6270.38
804.601	7957.38
804.856	9699.38
805.111	11217.38
805.366	12390.38
805.621	13282.38
805.876	13886.38
806.131	14370.38
806.386	14593.38
806.641	14780.38
806.896	15063.38
807.151	15478.38
807.406	15598.38
807.661	15974.38
807.915	16337.38
808.17	16540.38
808.425	16701.38
808.679	16877.38
808.934	17182.38
809.188	17275.38
809.443	17494.38
809.697	17730.38
809.951	17859.38
810.206	18029.38
810.46	18177.38
810.714	18473.38
810.968	18606.38
811.223	18727.38
811.477	19032.38
811.731	19055.38
811.985	19111.38
812.239	19216.38
812.493	19405.38
812.747	19493.38
813	19387.38
813.254	19577.38
813.508	19858.38
813.762	19772.38
814.015	19919.38
814.269	20014.38
814.522	20285.38
814.776	20563.38
815.03	20857.38
815.283	21016.38
815.536	21309.38
815.79	21818.38
816.043	22128.38
816.296	22503.38
816.55	22613.38
816.803	22936.38
817.056	23231.38
817.309	23378.38
817.562	23703.38
817.815	23927.38
818.068	24079.38
818.321	24247.38
818.574	24734.38
818.827	25046.38
819.079	25317.38
819.332	25812.38
819.585	26064.38
819.838	26457.38
820.09	26582.38
820.343	26683.38
820.595	26974.38
820.848	26995.38
821.1	27333.38
821.353	27259.38
821.605	27183.38
821.857	27233.38
822.11	27096.38
822.362	27063.38
822.614	27105.38
822.866	27020.38
823.118	26922.38
823.37	27125.38
823.622	27153.38
823.874	27286.38
824.126	27485.38
824.378	27456.38
824.63	27569.38
824.882	27590.38
825.134	27456.38
825.385	27483.38
825.637	27531.38
825.888	27324.38
826.14	27269.38
826.392	27190.38
826.643	27118.38
826.895	27068.38
827.146	26997.38
827.397	26899.38
827.649	26961.38
827.9	26871.38
828.151	26939.38
828.402	26956.38
828.653	27009.38
828.905	27214.38
829.156	27203.38
829.407	27179.38
829.658	27219.38
829.909	27264.38
830.159	27291.38
830.41	27144.38
830.661	27106.38
830.912	26792.38
831.162	26879.38
831.413	26667.38
831.664	26794.38
831.914	26643.38
832.165	26748.38
832.415	26742.38
832.666	26736.38
832.916	26724.38
833.167	26675.38
833.417	26639.38
833.667	26671.38
833.917	26552.38
834.168	26478.38
834.418	26485.38
834.668	26331.38
834.918	26185.38
835.168	26031.38
835.418	25928.38
835.668	25818.38
835.918	26025.38
836.167	25768.38
836.417	25740.38
836.667	25806.38
836.917	25750.38
837.166	25753.38
837.416	25751.38
837.666	25741.38
837.915	25625.38
838.165	25603.38
838.414	25602.38
838.663	25484.38
838.913	25530.38
839.162	25361.38
839.411	25456.38
839.661	25450.38
839.91	25374.38
840.159	25292.38
840.408	25309.38
840.657	25326.38
840.906	25272.38
841.155	25280.38
841.404	25196.38
841.653	25292.38
841.902	25333.38
842.15	25304.38
842.399	25319.38
842.648	25333.38
842.897	25233.38
843.145	25048.38
843.394	24945.38
843.642	24666.38
843.891	24755.38
844.139	24559.38
844.388	24451.38
844.636	24205.38
844.884	24403.38
845.133	24337.38
845.381	24310.38
845.629	24270.38
845.877	24275.38
846.125	24296.38
846.373	24364.38
846.621	24105.38
846.869	24069.38
847.117	23886.38
847.365	23830.38
847.613	23645.38
847.861	23573.38
848.108	23572.38
848.356	23563.38
848.604	23439.38
848.851	23459.38
849.099	23535.38
849.346	23632.38
849.594	23883.38
849.841	23825.38
850.089	23828.38
850.336	23855.38
850.583	23864.38
850.831	23626.38
851.078	23714.38
851.325	23596.38
851.572	23811.38
851.819	23679.38
852.066	23139.38
852.313	22794.38
852.56	22570.38
852.807	22541.38
853.054	22314.38
853.301	22360.38
853.548	22426.38
853.794	22565.38
854.041	22551.38
854.288	22624.38
854.534	22929.38
854.781	22829.38
855.028	22647.38
855.274	22687.38
855.52	22588.38
855.767	22435.38
856.013	22587.38
856.26	22851.38
856.506	22401.38
856.752	22318.38
856.998	22408.38
857.244	22435.38
857.49	22586.38
857.736	22592.38
857.982	22529.38
858.228	22505.38
858.474	22322.38
858.72	22193.38
858.966	22064.38
859.212	21765.38
859.458	21524.38
859.703	21390.38
859.949	21185.38
860.195	21103.38
860.44	20943.38
860.686	20889.38
860.931	20767.38
861.177	20766.38
861.422	20708.38
861.667	20476.38
861.913	20574.38
862.158	20602.38
862.403	20725.38
862.648	20797.38
862.893	20755.38
863.138	20756.38
863.384	20629.38
863.629	20609.38
863.873	20660.38
864.118	20528.38
864.363	20445.38
864.608	20462.38
864.853	20335.38
865.098	20304.38
865.342	20225.38
865.587	20130.38
865.832	20152.38
866.076	20041.38
866.321	19926.38
866.565	19988.38
866.81	19801.38
867.054	19867.38
867.298	19821.38
867.543	19588.38
867.787	19735.38
868.031	19685.38
868.275	19636.38
868.519	19579.38
868.764	19621.38
869.008	19594.38
869.252	19625.38
869.496	19486.38
869.739	19448.38
869.983	19516.38
870.227	19445.38
870.471	19451.38
870.715	19537.38
870.958	19672.38
871.202	19710.38
871.446	19785.38
871.689	19689.38
871.933	19744.38
872.176	19641.38
872.42	19690.38
872.663	19652.38
872.906	19553.38
873.15	19516.38
873.393	19491.38
873.636	19378.38
873.879	19253.38
874.122	18939.38
874.366	18769.38
874.609	18542.38
874.852	18600.38
875.095	18569.38
875.337	18356.38
875.58	18281.38
875.823	18214.38
876.066	18197.38
876.309	18161.38
876.551	17873.38
876.794	17950.38
877.037	17936.38
877.279	17819.38
877.522	17852.38
877.764	17864.38
878.007	17772.38
878.249	17687.38
878.491	17668.38
878.734	17703.38
878.976	17573.38
879.218	17495.38
879.46	17381.38
879.702	17365.38
879.945	17073.38
880.187	17121.38
880.429	16922.38
880.671	16879.38
880.912	16773.38
881.154	16771.38
881.396	16742.38
881.638	16822.38
881.88	16762.38
882.121	16654.38
882.363	16702.38
882.605	16689.38
882.846	16592.38
883.088	16564.38
883.329	16571.38
883.571	16575.38
883.812	16769.38
884.053	16946.38
884.295	17239.38
884.536	17525.38
884.777	17459.38
885.018	17304.38
885.259	17404.38
885.5	17185.38
885.742	17483.38
885.982	17117.38
886.223	17058.38
886.464	16897.38
886.705	16623.38
886.946	16603.38
887.187	16188.38
887.428	16172.38
887.668	15822.38
887.909	15665.38
888.15	15362.38
888.39	15279.38
888.631	15261.38
888.871	15080.38
889.111	15086.38
889.352	14950.38
889.592	14846.38
889.833	14680.38
890.073	14638.38
890.313	14543.38
890.553	14295.38
890.793	14359.38
891.033	14306.38
891.273	14293.38
891.513	14286.38
891.753	14318.38
891.993	14170.38
892.233	14241.38
892.473	14340.38
892.713	14364.38
892.952	14228.38
893.192	14233.38
893.432	14165.38
893.671	14293.38
893.911	14164.38
894.15	14060.38
894.39	13989.38
894.629	13916.38
894.869	13975.38
895.108	13824.38
895.347	13814.38
895.587	13778.38
895.826	13718.38
896.065	13725.38
896.304	13746.38
896.543	13740.38
896.782	13633.38
897.021	13652.38
897.26	13693.38
897.499	13797.38
897.738	13675.38
897.977	13602.38
898.216	13443.38
898.454	13449.38
898.693	13277.38
898.932	13292.38
899.17	13274.38
899.409	13276.38
899.647	13284.38
899.886	13200.38
900.124	13252.38
900.363	13201.38
900.601	13310.38
900.839	13313.38
901.078	13251.38
901.316	13436.38
901.554	13541.38
901.792	13598.38
902.03	13614.38
902.268	13575.38
902.506	13548.38
902.744	13405.38
902.982	13380.38
903.22	13051.38
903.458	12835.38
903.695	12714.38
903.933	12475.38
904.171	12198.38
904.409	12059.38
904.646	11917.38
904.884	11682.38
905.121	11650.38
905.359	11410.38
905.596	11338.38
905.833	11159.38
906.071	11159.38
906.308	11175.38
906.545	11141.38
906.783	10986.38
907.02	11021.38
907.257	10908.38
907.494	10907.38
907.731	10876.38
907.968	10832.38
908.205	10756.38
908.442	10641.38
908.679	10606.38
908.915	10485.38
909.152	10449.38
909.389	10363.38
909.626	10286.38
909.862	10178.38
910.099	10163.38
910.335	10138.38
910.572	10047.38
910.808	10056.38
911.045	10025.38
911.281	9944.38
911.518	10001.38
911.754	9846.38
911.99	9786.38
912.226	9745.38
912.463	9637.38
912.699	9532.38
912.935	9426.38
913.171	9435.38
913.407	9310.38
913.643	9361.38
913.879	9182.38
914.114	9234.38
914.35	9056.38
914.586	8992.38
914.822	8917.38
915.057	8898.38
915.293	8818.38
915.529	8747.38
915.764	8714.38
916	8762.38
916.235	8757.38
916.471	8782.38
916.706	8609.38
916.941	8636.38
917.177	8618.38
917.412	8692.38
917.647	8681.38
917.882	8582.38
918.117	8610.38
918.352	8575.38
918.588	8594.38
918.823	8420.38
919.057	8362.38
919.292	8264.38
919.527	8306.38
919.762	8164.38
919.997	8148.38
920.232	8018.38
920.466	7965.38
920.701	7826.38
920.935	7807.38
921.17	7807.38
921.405	7757.38
921.639	7770.38
921.873	7664.38
922.108	7705.38
922.342	7650.38
922.576	7566.38
922.811	7518.38
923.045	7519.38
923.279	7590.38
923.513	7421.38
923.747	7519.38
923.981	7438.38
924.215	7335.38
924.449	7323.38
924.683	7243.38
924.917	7203.38
925.151	7170.38
925.385	7205.38
925.618	7188.38
925.852	7171.38
926.086	7109.38
926.319	7108.38
926.553	7071.38
926.786	7107.38
927.02	7105.38
927.253	7143.38
927.486	7084.38
927.72	7063.38
927.953	7065.38
928.186	7019.38
928.42	7076.38
928.653	6949.38
928.886	6817.38
929.119	6951.38
929.352	6900.38
929.585	6831.38
929.818	6753.38
930.051	6792.38
930.284	6663.38
930.516	6560.38
930.749	6565.38
930.982	6555.38
931.215	6503.38
931.447	6526.38
931.68	6482.38
931.912	6454.38
932.145	6461.38
932.377	6475.38
932.61	6589.38
932.842	6339.38
933.074	6428.38
933.307	6436.38
933.539	6526.38
933.771	6456.38
934.003	6392.38
934.236	6470.38
934.468	6465.38
934.7	6378.38
934.932	6408.38
935.164	6290.38
935.395	6335.38
935.627	6289.38
935.859	6302.38
936.091	6243.38
936.323	6264.38
936.554	6311.38
936.786	6236.38
937.017	6161.38
937.249	6213.38
937.481	6108.38
937.712	6187.38
937.943	6108.38
938.175	6079.38
938.406	6082.38
938.637	6116.38
938.869	5999.38
939.1	6091.38
939.331	6014.38
939.562	5960.38
939.793	6005.38
940.024	5973.38
940.255	6010.38
940.486	5909.38
940.717	5889.38
940.948	5870.38
941.179	5773.38
941.409	5832.38
941.64	5837.38
941.871	5858.38
942.102	5791.38
942.332	5766.38
942.563	5798.38
942.793	5794.38
943.024	5750.38
943.254	5787.38
943.484	5856.38
943.715	5838.38
943.945	5775.38
944.175	5707.38
944.405	5705.38
944.636	5697.38
944.866	5705.38
945.096	5701.38
945.326	5676.38
945.556	5685.38
945.786	5712.38
946.016	5643.38
946.245	5554.38
946.475	5543.38
946.705	5504.38
946.935	5455.38
947.164	5433.38
947.394	5402.38
947.624	5444.38
947.853	5407.38
948.083	5352.38
948.312	5344.38
948.542	5233.38
948.771	5294.38
949	5264.38
949.23	5223.38
949.459	5241.38
949.688	5286.38
949.917	5232.38
950.146	5198.38
950.375	5258.38
950.604	5106.38
950.833	5215.38
951.062	5215.38
951.291	5169.38
951.52	5170.38
951.749	5115.38
951.978	5109.38
952.206	5083.38
952.435	5043.38
952.664	5090.38
952.892	5055.38
953.121	5021.38
953.349	5058.38
953.578	5052.38
953.806	4978.38
954.035	4889.38
954.263	4878.38
954.491	4847.38
954.719	4898.38
954.948	4832.38
955.176	4795.38
955.404	4702.38
955.632	4784.38
955.86	4747.38
956.088	4754.38
956.316	4756.38
956.544	4727.38
956.772	4642.38
956.999	4640.38
957.227	4669.38
957.455	4556.38
957.683	4585.38
957.91	4506.38
958.138	4484.38
958.365	4454.38
958.593	4447.38
958.82	4419.38
959.048	4495.38
959.275	4442.38
959.502	4403.38
959.73	4383.38
959.957	4368.38
960.184	4419.38
960.411	4362.38
960.638	4409.38
960.865	4381.38
961.092	4346.38
961.319	4257.38
961.546	4363.38
961.773	4328.38
962	4328.38
962.227	4326.38
962.454	4260.38
962.68	4263.38
962.907	4269.38
963.134	4187.38
963.36	4203.38
963.587	4243.38
963.813	4163.38
964.04	4113.38
964.266	4106.38
964.493	4138.38
964.719	4082.38
964.945	4082.38
965.171	3957.38
965.398	4007.38
965.624	4008.38
965.85	3943.38
966.076	3932.38
966.302	3967.38
966.528	3903.38
966.754	3936.38
966.98	3924.38
967.206	3915.38
967.431	3861.38
967.657	3913.38
967.883	3866.38
968.109	3837.38
968.334	3795.38
968.56	3780.38
968.785	3801.38
969.011	3759.38
969.236	3784.38
969.462	3711.38
969.687	3764.38
969.912	3740.38
970.138	3765.38
970.363	3713.38
970.588	3678.38
970.813	3671.38
971.038	3673.38
971.263	3650.38
971.488	3657.38
971.713	3663.38
971.938	3614.38
972.163	3553.38
972.388	3593.38
972.613	3529.38
972.838	3549.38
973.062	3515.38
973.287	3522.38
973.512	3435.38
973.736	3494.38
973.961	3428.38
974.185	3430.38
974.41	3448.38
974.634	3342.38
974.858	3347.38
975.083	3365.38
975.307	3391.38
975.531	3295.38
975.755	3252.38
975.98	3254.38
976.204	3206.38
976.428	3206.38
976.652	3196.38
976.876	3167.38
977.1	3187.38
977.324	3095.38
977.547	3177.38
977.771	3205.38
977.995	3124.38
978.219	3109.38
978.442	3199.38
978.666	3088.38
978.89	3123.38
979.113	3113.38
979.337	3092.38
979.56	3014.38
979.783	3155.38
980.007	3014.38
980.23	3034.38
980.453	3013.38
980.677	2996.38
980.9	3005.38
981.123	2936.38
981.346	3022.38
981.569	2979.38
981.792	2966.38
982.015	2944.38
982.238	2892.38
982.461	2940.38
982.684	2868.38
982.907	2827.38
983.129	2794.38
983.352	2854.38
983.575	2810.38
983.797	2842.38
984.02	2764.38
984.242	2773.38
984.465	2748.38
984.687	2757.38
984.91	2801.38
985.132	2765.38
985.354	2766.38
985.577	2745.38
985.799	2730.38
986.021	2640.38
986.243	2657.38
986.465	2677.38
986.687	2725.38
986.909	2717.38
987.131	2657.38
987.353	2633.38
987.575	2635.38
987.797	2572.38
988.019	2550.38
988.241	2611.38
988.462	2558.38
988.684	2636.38
988.906	2635.38
989.127	2636.38
989.349	2520.38
989.57	2580.38
989.792	2611.38
990.013	2616.38
990.234	2602.38
990.456	2616.38
990.677	2622.38
990.898	2503.38
991.119	2509.38
991.341	2519.38
991.562	2456.38
991.783	2498.38
992.004	2411.38
992.225	2396.38
992.446	2468.38
992.667	2335.38
992.887	2403.38
993.108	2324.38
993.329	2452.38
993.55	2412.38
993.77	2295.38
993.991	2298.38
994.212	2371.38
994.432	2352.38
994.653	2348.38
994.873	2325.38
995.093	2200.38
995.314	2248.38
995.534	2295.38
995.754	2297.38
995.975	2336.38
996.195	2206.38
996.415	2282.38
996.635	2259.38
996.855	2240.38
997.075	2200.38
997.295	2263.38
997.515	2203.38
997.735	2252.38
997.955	2231.38
998.174	2231.38
998.394	2211.38
998.614	2233.38
998.834	2192.38
999.053	2261.38
999.273	2183.38
999.492	2280.38
999.712	2161.38
999.931	2091.38
1000.151	2166.38
1000.37	2157.38
1000.589	2204.38
1000.809	2123.38
1001.028	2233.38
1001.247	2159.38
1001.466	2023.38
1001.685	2152.38
1001.904	2129.38
1002.123	2093.38
1002.342	2084.38
1002.561	2029.38
1002.78	2061.38
1002.999	2130.38
1003.218	2038.38
1003.436	2010.38
1003.655	2093.38
1003.874	2004.38
1004.092	1991.38
1004.311	2050.38
1004.53	1993.38
1004.748	2057.38
1004.966	1997.38
1005.185	2023.38
1005.403	2007.38
1005.622	2026.38
1005.84	2085.38
1006.058	1994.38
1006.276	2017.38
1006.494	2501.38
1006.712	2006.38
1006.931	2037.38
1007.149	1965.38
1007.367	1969.38
1007.584	2026.38
1007.802	2050.38
1008.02	2021.38
1008.238	2136.38
1008.456	2114.38
1008.673	1960.38
1008.891	2100.38
1009.109	2032.38
1009.326	2126.38
1009.544	2204.38
1009.761	2163.38
1009.979	2238.38
1010.196	2299.38
1010.413	2431.38
1010.631	2504.38
1010.848	2553.38
1011.065	2550.38
1011.282	2548.38
1011.5	2488.38
1011.717	2574.38
1011.934	2503.38
1012.151	2557.38
1012.368	2549.38
1012.585	2484.38
1012.801	2500.38
1013.018	2519.38
1013.235	2490.38
1013.452	2505.38
1013.669	2538.38
1013.885	2514.38
1014.102	2546.38
1014.318	2512.38
1014.535	2449.38
1014.751	2544.38
1014.968	2474.38
1015.184	2505.38
1015.401	2423.38
1015.617	2455.38
1015.833	2368.38
1016.049	2393.38
1016.266	2376.38
1016.482	2350.38
1016.698	2296.38
1016.914	2307.38
1017.13	2276.38
1017.346	2250.38
1017.562	2364.38
1017.778	2216.38
1017.993	2253.38
1018.209	2303.38
1018.425	2228.38
1018.641	2218.38
1018.856	2208.38
1019.072	2259.38
1019.288	2296.38
1019.503	2244.38
1019.719	2170.38
1019.934	2163.38
1020.149	2240.38
1020.365	2181.38
1020.58	2107.38
1020.795	2132.38
1021.011	2049.38
1021.226	2006.38
1021.441	2008.38
1021.656	1900.38
1021.871	1832.38
1022.086	1845.38
1022.301	1806.38
1022.516	1793.38
1022.731	1846.38
1022.946	1713.38
1023.16	1705.38
1023.375	1643.38
1023.59	1610.38
1023.804	1597.38
1024.019	1666.38
1024.234	1542.38
1024.448	1534.38
1024.663	1482.38
1024.877	1468.38
1025.092	1508.38
1025.306	1459.38
1025.52	1364.38
1025.734	1439.38
1025.949	1339.38
1026.163	1316.38
1026.377	1229.38
1026.591	1265.38
1026.805	1180.38
1027.019	1188.38
1027.233	1150.38
1027.447	1085.38
1027.661	1169.38
1027.875	1128.38
1028.088	1097.38
1028.302	1044.38
1028.516	997.38
1028.73	995.38
1028.943	978.38
1029.157	899.38
1029.37	866.38
1029.584	-2.62
1029.797	-2.62
1030.011	1.38
1030.224	-0.62
