Data from QEP037381__47__15-17-05-859.txt Node

Date: Fri Dec 16 15:17:05 EST 2022
User: dcclab
Spectrometer: QEP03738
Trigger mode: 4
Integration Time (sec): 1.000000E1
Scans to average: 1
Electric dark correction enabled: true
Nonlinearity correction enabled: false
Boxcar width: 0
XAxis mode: Wavelengths
Number of Pixels in Spectrum: 1044
>>>>>Begin Spectral Data<<<<<
784.041	15.25
784.3	-1.75
784.558	-2.75
784.817	-3.75
785.075	88921.25
785.334	15459.25
785.592	7250.25
785.851	5010.25
786.109	3793.25
786.368	2958.25
786.626	2432.25
786.884	2007.25
787.143	1712.25
787.401	1396.25
787.659	1259.25
787.917	1103.25
788.175	1028.25
788.433	885.25
788.691	838.25
788.949	788.25
789.207	735.25
789.465	656.25
789.723	634.25
789.98	565.25
790.238	615.25
790.496	571.25
790.753	550.25
791.011	611.25
791.268	522.25
791.526	527.25
791.783	545.25
792.041	530.25
792.298	447.25
792.556	511.25
792.813	502.25
793.07	473.25
793.327	456.25
793.584	550.25
793.841	462.25
794.099	485.25
794.356	538.25
794.613	447.25
794.869	489.25
795.126	437.25
795.383	421.25
795.64	460.25
795.897	413.25
796.153	457.25
796.41	460.25
796.667	440.25
796.923	450.25
797.18	448.25
797.436	476.25
797.693	451.25
797.949	498.25
798.206	520.25
798.462	447.25
798.718	499.25
798.974	476.25
799.231	528.25
799.487	518.25
799.743	521.25
799.999	544.25
800.255	559.25
800.511	550.25
800.767	589.25
801.023	582.25
801.279	608.25
801.534	672.25
801.79	723.25
802.046	795.25
802.302	951.25
802.557	1094.25
802.813	1374.25
803.068	1753.25
803.324	2425.25
803.579	3342.25
803.835	4665.25
804.09	6561.25
804.345	8617.25
804.601	11011.25
804.856	13391.25
805.111	15407.25
805.366	17071.25
805.621	18278.25
805.876	19028.25
806.131	19516.25
806.386	19858.25
806.641	20257.25
806.896	20711.25
807.151	21018.25
807.406	21448.25
807.661	21762.25
807.915	22332.25
808.17	22590.25
808.425	23037.25
808.679	23181.25
808.934	23561.25
809.188	23789.25
809.443	24204.25
809.697	24532.25
809.951	24569.25
810.206	25029.25
810.46	25167.25
810.714	25529.25
810.968	25840.25
811.223	25917.25
811.477	26329.25
811.731	26537.25
811.985	26625.25
812.239	26744.25
812.493	26968.25
812.747	27127.25
813	27288.25
813.254	27391.25
813.508	27578.25
813.762	27683.25
814.015	27893.25
814.269	28217.25
814.522	28352.25
814.776	28777.25
815.03	29076.25
815.283	29614.25
815.536	30133.25
815.79	30624.25
816.043	31124.25
816.296	31587.25
816.55	31965.25
816.803	32446.25
817.056	32908.25
817.309	33323.25
817.562	33587.25
817.815	33993.25
818.068	34363.25
818.321	34636.25
818.574	35185.25
818.827	35735.25
819.079	36163.25
819.332	36797.25
819.585	37340.25
819.838	37853.25
820.09	38020.25
820.343	38473.25
820.595	38699.25
820.848	38858.25
821.1	39106.25
821.353	39208.25
821.605	39240.25
821.857	39347.25
822.11	39137.25
822.362	39005.25
822.614	39087.25
822.866	39078.25
823.118	39128.25
823.37	39325.25
823.622	39401.25
823.874	39493.25
824.126	39649.25
824.378	39892.25
824.63	39940.25
824.882	39990.25
825.134	40229.25
825.385	40299.25
825.637	39976.25
825.888	40003.25
826.14	39932.25
826.392	39844.25
826.643	39681.25
826.895	39589.25
827.146	39299.25
827.397	39290.25
827.649	39465.25
827.9	39421.25
828.151	39467.25
828.402	39549.25
828.653	39736.25
828.905	39727.25
829.156	39895.25
829.407	39871.25
829.658	39923.25
829.909	40039.25
830.159	39984.25
830.41	39742.25
830.661	39529.25
830.912	39397.25
831.162	39182.25
831.413	39187.25
831.664	39229.25
831.914	39166.25
832.165	39246.25
832.415	39301.25
832.666	39381.25
832.916	39428.25
833.167	39406.25
833.417	39198.25
833.667	39064.25
833.917	39130.25
834.168	39041.25
834.418	39034.25
834.668	38838.25
834.918	38593.25
835.168	38589.25
835.418	38401.25
835.668	38342.25
835.918	38233.25
836.167	38245.25
836.417	38056.25
836.667	38140.25
836.917	38056.25
837.166	38078.25
837.416	38053.25
837.666	37855.25
837.915	37958.25
838.165	37797.25
838.414	37770.25
838.663	37761.25
838.913	37839.25
839.162	37696.25
839.411	37646.25
839.661	37493.25
839.91	37437.25
840.159	37320.25
840.408	37516.25
840.657	37440.25
840.906	37589.25
841.155	37706.25
841.404	37488.25
841.653	37734.25
841.902	37557.25
842.15	37637.25
842.399	37607.25
842.648	37695.25
842.897	37467.25
843.145	37312.25
843.394	37154.25
843.642	37009.25
843.891	36932.25
844.139	36710.25
844.388	36505.25
844.636	36422.25
844.884	36315.25
845.133	36371.25
845.381	36289.25
845.629	36366.25
845.877	36421.25
846.125	36273.25
846.373	36269.25
846.621	36193.25
846.869	36090.25
847.117	35856.25
847.365	35661.25
847.613	35500.25
847.861	35427.25
848.108	35429.25
848.356	35471.25
848.604	35259.25
848.851	35230.25
849.099	35553.25
849.346	35473.25
849.594	35593.25
849.841	35888.25
850.089	36025.25
850.336	35834.25
850.583	35882.25
850.831	35684.25
851.078	35688.25
851.325	35548.25
851.572	35671.25
851.819	35310.25
852.066	34736.25
852.313	34218.25
852.56	33989.25
852.807	33943.25
853.054	33781.25
853.301	33719.25
853.548	33752.25
853.794	34129.25
854.041	34050.25
854.288	34273.25
854.534	34649.25
854.781	34524.25
855.028	34467.25
855.274	34373.25
855.52	34249.25
855.767	33930.25
856.013	34004.25
856.26	34289.25
856.506	33591.25
856.752	33773.25
856.998	33932.25
857.244	34005.25
857.49	34095.25
857.736	33953.25
857.982	34047.25
858.228	34186.25
858.474	33830.25
858.72	33610.25
858.966	33393.25
859.212	33103.25
859.458	32825.25
859.703	32526.25
859.949	32216.25
860.195	32072.25
860.44	31896.25
860.686	31803.25
860.931	31649.25
861.177	31549.25
861.422	31493.25
861.667	31351.25
861.913	31404.25
862.158	31629.25
862.403	31703.25
862.648	31813.25
862.893	31867.25
863.138	31822.25
863.384	31712.25
863.629	31769.25
863.873	31718.25
864.118	31634.25
864.363	31467.25
864.608	31405.25
864.853	31271.25
865.098	31167.25
865.342	31014.25
865.587	31072.25
865.832	30924.25
866.076	30764.25
866.321	30795.25
866.565	30610.25
866.81	30657.25
867.054	30564.25
867.298	30512.25
867.543	30364.25
867.787	30536.25
868.031	30343.25
868.275	30343.25
868.519	30288.25
868.764	30219.25
869.008	30376.25
869.252	30269.25
869.496	30036.25
869.739	30069.25
869.983	29935.25
870.227	30022.25
870.471	30032.25
870.715	30121.25
870.958	30196.25
871.202	30274.25
871.446	30317.25
871.689	30227.25
871.933	30321.25
872.176	30387.25
872.42	30184.25
872.663	30123.25
872.906	30135.25
873.15	29804.25
873.393	29729.25
873.636	29563.25
873.879	29439.25
874.122	29101.25
874.366	28739.25
874.609	28579.25
874.852	28485.25
875.095	28454.25
875.337	28319.25
875.58	28212.25
875.823	28177.25
876.066	28088.25
876.309	28030.25
876.551	27799.25
876.794	27870.25
877.037	27800.25
877.279	27675.25
877.522	27618.25
877.764	27689.25
878.007	27692.25
878.249	27654.25
878.491	27560.25
878.734	27703.25
878.976	27507.25
879.218	27317.25
879.46	27281.25
879.702	27078.25
879.945	27036.25
880.187	26771.25
880.429	26598.25
880.671	26422.25
880.912	26370.25
881.154	26335.25
881.396	26351.25
881.638	26284.25
881.88	26400.25
882.121	26142.25
882.363	26246.25
882.605	26226.25
882.846	26083.25
883.088	26052.25
883.329	25970.25
883.571	25943.25
883.812	26015.25
884.053	26255.25
884.295	26518.25
884.536	26809.25
884.777	26727.25
885.018	26502.25
885.259	26508.25
885.5	26488.25
885.742	26691.25
885.982	26448.25
886.223	26150.25
886.464	26068.25
886.705	26023.25
886.946	25729.25
887.187	25375.25
887.428	25327.25
887.668	24898.25
887.909	24687.25
888.15	24470.25
888.39	24355.25
888.631	24167.25
888.871	24068.25
889.111	23922.25
889.352	23749.25
889.592	23486.25
889.833	23425.25
890.073	23272.25
890.313	23322.25
890.553	23022.25
890.793	23045.25
891.033	22919.25
891.273	22858.25
891.513	22693.25
891.753	22693.25
891.993	22697.25
892.233	22791.25
892.473	22772.25
892.713	22884.25
892.952	22898.25
893.192	22779.25
893.432	22810.25
893.671	22729.25
893.911	22693.25
894.15	22702.25
894.39	22385.25
894.629	22379.25
894.869	22358.25
895.108	22191.25
895.347	22058.25
895.587	22041.25
895.826	22026.25
896.065	21919.25
896.304	22009.25
896.543	22025.25
896.782	21820.25
897.021	21877.25
897.26	21871.25
897.499	21826.25
897.738	21865.25
897.977	21520.25
898.216	21405.25
898.454	21333.25
898.693	21124.25
898.932	21128.25
899.17	20993.25
899.409	20919.25
899.647	21113.25
899.886	21043.25
900.124	21019.25
900.363	21080.25
900.601	21084.25
900.839	21213.25
901.078	21204.25
901.316	21307.25
901.554	21380.25
901.792	21513.25
902.03	21543.25
902.268	21483.25
902.506	21358.25
902.744	21236.25
902.982	21033.25
903.22	20715.25
903.458	20543.25
903.695	20234.25
903.933	19898.25
904.171	19651.25
904.409	19387.25
904.646	19141.25
904.884	18989.25
905.121	18688.25
905.359	18564.25
905.596	18342.25
905.833	18149.25
906.071	18154.25
906.308	18065.25
906.545	17978.25
906.783	17999.25
907.02	17942.25
907.257	17895.25
907.494	17799.25
907.731	17764.25
907.968	17717.25
908.205	17580.25
908.442	17470.25
908.679	17342.25
908.915	17277.25
909.152	17153.25
909.389	16890.25
909.626	16971.25
909.862	16745.25
910.099	16685.25
910.335	16647.25
910.572	16583.25
910.808	16564.25
911.045	16383.25
911.281	16404.25
911.518	16351.25
911.754	16183.25
911.99	16269.25
912.226	16057.25
912.463	15902.25
912.699	15877.25
912.935	15756.25
913.171	15633.25
913.407	15448.25
913.643	15360.25
913.879	15283.25
914.114	15249.25
914.35	15033.25
914.586	14876.25
914.822	14728.25
915.057	14729.25
915.293	14514.25
915.529	14475.25
915.764	14501.25
916	14486.25
916.235	14475.25
916.471	14433.25
916.706	14396.25
916.941	14300.25
917.177	14378.25
917.412	14268.25
917.647	14376.25
917.882	14282.25
918.117	14258.25
918.352	14233.25
918.588	14327.25
918.823	13988.25
919.057	13930.25
919.292	13786.25
919.527	13807.25
919.762	13524.25
919.997	13503.25
920.232	13349.25
920.466	13246.25
920.701	13047.25
920.935	13083.25
921.17	12981.25
921.405	12842.25
921.639	12836.25
921.873	12748.25
922.108	12732.25
922.342	12764.25
922.576	12675.25
922.811	12549.25
923.045	12607.25
923.279	12571.25
923.513	12399.25
923.747	12402.25
923.981	12302.25
924.215	12194.25
924.449	12201.25
924.683	12113.25
924.917	12009.25
925.151	11989.25
925.385	12009.25
925.618	11878.25
925.852	11937.25
926.086	11807.25
926.319	11904.25
926.553	11838.25
926.786	11889.25
927.02	11843.25
927.253	11908.25
927.486	11852.25
927.72	11719.25
927.953	11844.25
928.186	11698.25
928.42	11694.25
928.653	11661.25
928.886	11624.25
929.119	11544.25
929.352	11471.25
929.585	11403.25
929.818	11295.25
930.051	11267.25
930.284	11183.25
930.516	11011.25
930.749	10955.25
930.982	11053.25
931.215	10920.25
931.447	10828.25
931.68	10789.25
931.912	10778.25
932.145	10771.25
932.377	10846.25
932.61	10957.25
932.842	10761.25
933.074	10818.25
933.307	10739.25
933.539	10847.25
933.771	10779.25
934.003	10731.25
934.236	10804.25
934.468	10851.25
934.7	10666.25
934.932	10680.25
935.164	10615.25
935.395	10583.25
935.627	10595.25
935.859	10568.25
936.091	10437.25
936.323	10496.25
936.554	10473.25
936.786	10377.25
937.017	10316.25
937.249	10372.25
937.481	10255.25
937.712	10262.25
937.943	10290.25
938.175	10233.25
938.406	10250.25
938.637	10260.25
938.869	10156.25
939.1	10111.25
939.331	10049.25
939.562	10112.25
939.793	10063.25
940.024	10049.25
940.255	9985.25
940.486	9952.25
940.717	9948.25
940.948	9819.25
941.179	9869.25
941.409	9828.25
941.64	9801.25
941.871	9833.25
942.102	9822.25
942.332	9738.25
942.563	9848.25
942.793	9759.25
943.024	9729.25
943.254	9700.25
943.484	9770.25
943.715	9735.25
943.945	9729.25
944.175	9679.25
944.405	9644.25
944.636	9655.25
944.866	9656.25
945.096	9631.25
945.326	9617.25
945.556	9614.25
945.786	9601.25
946.016	9469.25
946.245	9405.25
946.475	9339.25
946.705	9287.25
946.935	9275.25
947.164	9228.25
947.394	9110.25
947.624	9171.25
947.853	9049.25
948.083	9015.25
948.312	8952.25
948.542	8937.25
948.771	8890.25
949	8886.25
949.23	8887.25
949.459	8928.25
949.688	8921.25
949.917	8817.25
950.146	8859.25
950.375	8863.25
950.604	8772.25
950.833	8829.25
951.062	8887.25
951.291	8806.25
951.52	8729.25
951.749	8750.25
951.978	8601.25
952.206	8684.25
952.435	8605.25
952.664	8652.25
952.892	8595.25
953.121	8564.25
953.349	8509.25
953.578	8507.25
953.806	8445.25
954.035	8339.25
954.263	8417.25
954.491	8270.25
954.719	8264.25
954.948	8253.25
955.176	8222.25
955.404	8130.25
955.632	8167.25
955.86	8135.25
956.088	8022.25
956.316	7996.25
956.544	8006.25
956.772	7940.25
956.999	7874.25
957.227	7916.25
957.455	7755.25
957.683	7790.25
957.91	7703.25
958.138	7687.25
958.365	7642.25
958.593	7673.25
958.82	7590.25
959.048	7604.25
959.275	7544.25
959.502	7500.25
959.73	7527.25
959.957	7463.25
960.184	7552.25
960.411	7432.25
960.638	7503.25
960.865	7389.25
961.092	7395.25
961.319	7378.25
961.546	7439.25
961.773	7439.25
962	7381.25
962.227	7391.25
962.454	7322.25
962.68	7297.25
962.907	7276.25
963.134	7171.25
963.36	7192.25
963.587	7164.25
963.813	7083.25
964.04	7085.25
964.266	7012.25
964.493	7031.25
964.719	6966.25
964.945	6952.25
965.171	6871.25
965.398	6899.25
965.624	6842.25
965.85	6777.25
966.076	6747.25
966.302	6721.25
966.528	6710.25
966.754	6688.25
966.98	6655.25
967.206	6647.25
967.431	6516.25
967.657	6563.25
967.883	6613.25
968.109	6585.25
968.334	6512.25
968.56	6505.25
968.785	6484.25
969.011	6385.25
969.236	6452.25
969.462	6373.25
969.687	6342.25
969.912	6406.25
970.138	6427.25
970.363	6310.25
970.588	6301.25
970.813	6334.25
971.038	6184.25
971.263	6251.25
971.488	6262.25
971.713	6241.25
971.938	6211.25
972.163	6069.25
972.388	6120.25
972.613	6061.25
972.838	6063.25
973.062	6074.25
973.287	5978.25
973.512	5922.25
973.736	5899.25
973.961	5901.25
974.185	5844.25
974.41	5875.25
974.634	5750.25
974.858	5769.25
975.083	5782.25
975.307	5718.25
975.531	5671.25
975.755	5572.25
975.98	5574.25
976.204	5489.25
976.428	5499.25
976.652	5468.25
976.876	5424.25
977.1	5410.25
977.324	5383.25
977.547	5361.25
977.771	5436.25
977.995	5337.25
978.219	5263.25
978.442	5400.25
978.666	5336.25
978.89	5323.25
979.113	5243.25
979.337	5254.25
979.56	5229.25
979.783	5304.25
980.007	5102.25
980.23	5221.25
980.453	5177.25
980.677	5126.25
980.9	5119.25
981.123	5043.25
981.346	5098.25
981.569	4998.25
981.792	5083.25
982.015	5032.25
982.238	4976.25
982.461	4948.25
982.684	4893.25
982.907	4845.25
983.129	4816.25
983.352	4862.25
983.575	4802.25
983.797	4831.25
984.02	4644.25
984.242	4724.25
984.465	4699.25
984.687	4677.25
984.91	4670.25
985.132	4634.25
985.354	4702.25
985.577	4611.25
985.799	4621.25
986.021	4494.25
986.243	4506.25
986.465	4536.25
986.687	4527.25
986.909	4540.25
987.131	4463.25
987.353	4411.25
987.575	4462.25
987.797	4432.25
988.019	4343.25
988.241	4408.25
988.462	4344.25
988.684	4378.25
988.906	4390.25
989.127	4418.25
989.349	4314.25
989.57	4324.25
989.792	4311.25
990.013	4320.25
990.234	4306.25
990.456	4308.25
990.677	4271.25
990.898	4220.25
991.119	4181.25
991.341	4214.25
991.562	4100.25
991.783	4188.25
992.004	4046.25
992.225	4023.25
992.446	4070.25
992.667	3966.25
992.887	4025.25
993.108	3899.25
993.329	4029.25
993.55	3939.25
993.77	3860.25
993.991	3886.25
994.212	3855.25
994.432	3824.25
994.653	3892.25
994.873	3823.25
995.093	3700.25
995.314	3729.25
995.534	3785.25
995.754	3798.25
995.975	3776.25
996.195	3676.25
996.415	3696.25
996.635	3687.25
996.855	3695.25
997.075	3678.25
997.295	3601.25
997.515	3610.25
997.735	3655.25
997.955	3594.25
998.174	3575.25
998.394	3570.25
998.614	3587.25
998.834	3527.25
999.053	3604.25
999.273	3573.25
999.492	3608.25
999.712	3517.25
999.931	3472.25
1000.151	3493.25
1000.37	3446.25
1000.589	3503.25
1000.809	3406.25
1001.028	3448.25
1001.247	3396.25
1001.466	3295.25
1001.685	3403.25
1001.904	3337.25
1002.123	3365.25
1002.342	3353.25
1002.561	3266.25
1002.78	3263.25
1002.999	3261.25
1003.218	3245.25
1003.436	3162.25
1003.655	3194.25
1003.874	3149.25
1004.092	3163.25
1004.311	3161.25
1004.53	3113.25
1004.748	3160.25
1004.966	3119.25
1005.185	3153.25
1005.403	3125.25
1005.622	3120.25
1005.84	3150.25
1006.058	3055.25
1006.276	3053.25
1006.494	3588.25
1006.712	3069.25
1006.931	3149.25
1007.149	3045.25
1007.367	3014.25
1007.584	3072.25
1007.802	3072.25
1008.02	3021.25
1008.238	3156.25
1008.456	3123.25
1008.673	3031.25
1008.891	3115.25
1009.109	3073.25
1009.326	3150.25
1009.544	3201.25
1009.761	3118.25
1009.979	3293.25
1010.196	3314.25
1010.413	3419.25
1010.631	3499.25
1010.848	3590.25
1011.065	3592.25
1011.282	3567.25
1011.5	3473.25
1011.717	3575.25
1011.934	3559.25
1012.151	3523.25
1012.368	3494.25
1012.585	3455.25
1012.801	3515.25
1013.018	3482.25
1013.235	3427.25
1013.452	3557.25
1013.669	3514.25
1013.885	3466.25
1014.102	3505.25
1014.318	3492.25
1014.535	3450.25
1014.751	3447.25
1014.968	3467.25
1015.184	3480.25
1015.401	3381.25
1015.617	3389.25
1015.833	3323.25
1016.049	3308.25
1016.266	3312.25
1016.482	3268.25
1016.698	3185.25
1016.914	3226.25
1017.13	3152.25
1017.346	3160.25
1017.562	3186.25
1017.778	3157.25
1017.993	3098.25
1018.209	3198.25
1018.425	3170.25
1018.641	3105.25
1018.856	3110.25
1019.072	3126.25
1019.288	3149.25
1019.503	3112.25
1019.719	3016.25
1019.934	3045.25
1020.149	3121.25
1020.365	3053.25
1020.58	2962.25
1020.795	3007.25
1021.011	2915.25
1021.226	2843.25
1021.441	2830.25
1021.656	2717.25
1021.871	2668.25
1022.086	2583.25
1022.301	2587.25
1022.516	2560.25
1022.731	2546.25
1022.946	2483.25
1023.16	2444.25
1023.375	2375.25
1023.59	2353.25
1023.804	2312.25
1024.019	2352.25
1024.234	2218.25
1024.448	2229.25
1024.663	2136.25
1024.877	2136.25
1025.092	2139.25
1025.306	2100.25
1025.52	1963.25
1025.734	2032.25
1025.949	1952.25
1026.163	1885.25
1026.377	1807.25
1026.591	1849.25
1026.805	1728.25
1027.019	1730.25
1027.233	1641.25
1027.447	1581.25
1027.661	1718.25
1027.875	1603.25
1028.088	1588.25
1028.302	1503.25
1028.516	1458.25
1028.73	1454.25
1028.943	1405.25
1029.157	1346.25
1029.37	1258.25
1029.584	-5.75
1029.797	0.25
1030.011	0.25
1030.224	-1.75
