Data from QEP037381__59__15-19-05-860.txt Node

Date: Fri Dec 16 15:19:05 EST 2022
User: dcclab
Spectrometer: QEP03738
Trigger mode: 4
Integration Time (sec): 1.000000E1
Scans to average: 1
Electric dark correction enabled: true
Nonlinearity correction enabled: false
Boxcar width: 0
XAxis mode: Wavelengths
Number of Pixels in Spectrum: 1044
>>>>>Begin Spectral Data<<<<<
784.041	13.12
784.3	-1.88
784.558	-3.88
784.817	-1.88
785.075	87916.12
785.334	15291.12
785.592	7194.12
785.851	5049.12
786.109	3763.12
786.368	2944.12
786.626	2396.12
786.884	2003.12
787.143	1705.12
787.401	1367.12
787.659	1275.12
787.917	1079.12
788.175	1031.12
788.433	899.12
788.691	818.12
788.949	760.12
789.207	723.12
789.465	631.12
789.723	630.12
789.98	568.12
790.238	600.12
790.496	583.12
790.753	556.12
791.011	579.12
791.268	527.12
791.526	503.12
791.783	538.12
792.041	515.12
792.298	440.12
792.556	497.12
792.813	488.12
793.07	457.12
793.327	434.12
793.584	521.12
793.841	454.12
794.099	472.12
794.356	526.12
794.613	431.12
794.869	479.12
795.126	441.12
795.383	412.12
795.64	442.12
795.897	400.12
796.153	445.12
796.41	442.12
796.667	423.12
796.923	441.12
797.18	421.12
797.436	467.12
797.693	423.12
797.949	463.12
798.206	513.12
798.462	415.12
798.718	484.12
798.974	470.12
799.231	492.12
799.487	502.12
799.743	493.12
799.999	525.12
800.255	535.12
800.511	520.12
800.767	557.12
801.023	558.12
801.279	592.12
801.534	652.12
801.79	694.12
802.046	730.12
802.302	874.12
802.557	999.12
802.813	1256.12
803.068	1581.12
803.324	2161.12
803.579	2971.12
803.835	4136.12
804.09	5701.12
804.345	7538.12
804.601	9478.12
804.856	11578.12
805.111	13359.12
805.366	14801.12
805.621	15739.12
805.876	16528.12
806.131	17030.12
806.386	17331.12
806.641	17699.12
806.896	17941.12
807.151	18226.12
807.406	18582.12
807.661	19000.12
807.915	19392.12
808.17	19674.12
808.425	19897.12
808.679	20131.12
808.934	20468.12
809.188	20594.12
809.443	20927.12
809.697	21163.12
809.951	21346.12
810.206	21493.12
810.46	21758.12
810.714	21899.12
810.968	22210.12
811.223	22467.12
811.477	22676.12
811.731	22821.12
811.985	22872.12
812.239	23122.12
812.493	23177.12
812.747	23314.12
813	23390.12
813.254	23610.12
813.508	23603.12
813.762	23744.12
814.015	23875.12
814.269	24068.12
814.522	24369.12
814.776	24732.12
815.03	24915.12
815.283	25323.12
815.536	25693.12
815.79	26194.12
816.043	26624.12
816.296	26933.12
816.55	27281.12
816.803	27698.12
817.056	27982.12
817.309	28286.12
817.562	28594.12
817.815	28804.12
818.068	29041.12
818.321	29275.12
818.574	29677.12
818.827	30279.12
819.079	30705.12
819.332	31110.12
819.585	31710.12
819.838	31992.12
820.09	32175.12
820.343	32507.12
820.595	32643.12
820.848	32847.12
821.1	32983.12
821.353	33083.12
821.605	33024.12
821.857	32901.12
822.11	32790.12
822.362	32890.12
822.614	32808.12
822.866	32840.12
823.118	32696.12
823.37	32948.12
823.622	32971.12
823.874	32999.12
824.126	33322.12
824.378	33467.12
824.63	33392.12
824.882	33597.12
825.134	33464.12
825.385	33404.12
825.637	33359.12
825.888	33319.12
826.14	33325.12
826.392	33223.12
826.643	33034.12
826.895	32861.12
827.146	32726.12
827.397	32637.12
827.649	32876.12
827.9	32712.12
828.151	32743.12
828.402	32820.12
828.653	32947.12
828.905	33060.12
829.156	33186.12
829.407	33179.12
829.658	33221.12
829.909	33318.12
830.159	33163.12
830.41	33039.12
830.661	32876.12
830.912	32661.12
831.162	32503.12
831.413	32460.12
831.664	32636.12
831.914	32543.12
832.165	32458.12
832.415	32498.12
832.666	32591.12
832.916	32540.12
833.167	32512.12
833.417	32403.12
833.667	32459.12
833.917	32323.12
834.168	32220.12
834.418	32167.12
834.668	32064.12
834.918	31980.12
835.168	31699.12
835.418	31643.12
835.668	31602.12
835.918	31511.12
836.167	31523.12
836.417	31258.12
836.667	31293.12
836.917	31485.12
837.166	31127.12
837.416	31348.12
837.666	31243.12
837.915	31311.12
838.165	31205.12
838.414	31182.12
838.663	31021.12
838.913	31143.12
839.162	31060.12
839.411	31018.12
839.661	30901.12
839.91	30837.12
840.159	30851.12
840.408	30716.12
840.657	30834.12
840.906	30672.12
841.155	30848.12
841.404	30784.12
841.653	30669.12
841.902	30726.12
842.15	30814.12
842.399	30846.12
842.648	30716.12
842.897	30732.12
843.145	30432.12
843.394	30392.12
843.642	30229.12
843.891	30144.12
844.139	29881.12
844.388	29774.12
844.636	29516.12
844.884	29662.12
845.133	29577.12
845.381	29601.12
845.629	29729.12
845.877	29512.12
846.125	29455.12
846.373	29541.12
846.621	29413.12
846.869	29338.12
847.117	29224.12
847.365	28973.12
847.613	28761.12
847.861	28844.12
848.108	28718.12
848.356	28688.12
848.604	28578.12
848.851	28595.12
849.099	28754.12
849.346	28714.12
849.594	28972.12
849.841	29104.12
850.089	29061.12
850.336	29108.12
850.583	28983.12
850.831	28961.12
851.078	28759.12
851.325	28738.12
851.572	28959.12
851.819	28655.12
852.066	28084.12
852.313	27782.12
852.56	27404.12
852.807	27475.12
853.054	27305.12
853.301	27326.12
853.548	27356.12
853.794	27512.12
854.041	27489.12
854.288	27560.12
854.534	27901.12
854.781	27859.12
855.028	27775.12
855.274	27777.12
855.52	27591.12
855.767	27452.12
856.013	27516.12
856.26	27725.12
856.506	27208.12
856.752	27261.12
856.998	27229.12
857.244	27342.12
857.49	27398.12
857.736	27353.12
857.982	27486.12
858.228	27365.12
858.474	27189.12
858.72	27101.12
858.966	26735.12
859.212	26525.12
859.458	26335.12
859.703	25988.12
859.949	25736.12
860.195	25608.12
860.44	25428.12
860.686	25544.12
860.931	25475.12
861.177	25308.12
861.422	25148.12
861.667	25202.12
861.913	25080.12
862.158	25154.12
862.403	25261.12
862.648	25291.12
862.893	25334.12
863.138	25309.12
863.384	25375.12
863.629	25242.12
863.873	25217.12
864.118	25146.12
864.363	24977.12
864.608	25035.12
864.853	24979.12
865.098	24817.12
865.342	24792.12
865.587	24629.12
865.832	24541.12
866.076	24461.12
866.321	24603.12
866.565	24323.12
866.81	24325.12
867.054	24272.12
867.298	24122.12
867.543	24097.12
867.787	24120.12
868.031	24026.12
868.275	23979.12
868.519	24002.12
868.764	23975.12
869.008	23828.12
869.252	23959.12
869.496	23819.12
869.739	23726.12
869.983	23796.12
870.227	23763.12
870.471	23842.12
870.715	23946.12
870.958	24010.12
871.202	23997.12
871.446	24015.12
871.689	23976.12
871.933	24062.12
872.176	23964.12
872.42	23842.12
872.663	23790.12
872.906	23803.12
873.15	23793.12
873.393	23631.12
873.636	23624.12
873.879	23316.12
874.122	23127.12
874.366	22905.12
874.609	22637.12
874.852	22687.12
875.095	22496.12
875.337	22473.12
875.58	22247.12
875.823	22339.12
876.066	22185.12
876.309	22165.12
876.551	22018.12
876.794	21960.12
877.037	21914.12
877.279	21768.12
877.522	21730.12
877.764	21875.12
878.007	21873.12
878.249	21828.12
878.491	21650.12
878.734	21778.12
878.976	21533.12
879.218	21459.12
879.46	21367.12
879.702	21298.12
879.945	21118.12
880.187	20845.12
880.429	20854.12
880.671	20741.12
880.912	20664.12
881.154	20570.12
881.396	20471.12
881.638	20531.12
881.88	20592.12
882.121	20529.12
882.363	20486.12
882.605	20518.12
882.846	20430.12
883.088	20481.12
883.329	20386.12
883.571	20301.12
883.812	20599.12
884.053	20685.12
884.295	21032.12
884.536	21391.12
884.777	21109.12
885.018	21029.12
885.259	21049.12
885.5	21002.12
885.742	21166.12
885.982	20917.12
886.223	20792.12
886.464	20533.12
886.705	20357.12
886.946	20209.12
887.187	19874.12
887.428	19817.12
887.668	19374.12
887.909	19141.12
888.15	19031.12
888.39	18917.12
888.631	18810.12
888.871	18628.12
889.111	18592.12
889.352	18454.12
889.592	18286.12
889.833	18251.12
890.073	18073.12
890.313	18057.12
890.553	17852.12
890.793	17782.12
891.033	17798.12
891.273	17607.12
891.513	17540.12
891.753	17605.12
891.993	17591.12
892.233	17607.12
892.473	17671.12
892.713	17725.12
892.952	17590.12
893.192	17696.12
893.432	17654.12
893.671	17717.12
893.911	17579.12
894.15	17378.12
894.39	17235.12
894.629	17283.12
894.869	17215.12
895.108	17103.12
895.347	17091.12
895.587	17041.12
895.826	16923.12
896.065	16953.12
896.304	17047.12
896.543	16962.12
896.782	16878.12
897.021	16841.12
897.26	16894.12
897.499	16847.12
897.738	16911.12
897.977	16783.12
898.216	16679.12
898.454	16527.12
898.693	16386.12
898.932	16394.12
899.17	16390.12
899.409	16260.12
899.647	16215.12
899.886	16335.12
900.124	16316.12
900.363	16216.12
900.601	16382.12
900.839	16360.12
901.078	16413.12
901.316	16519.12
901.554	16630.12
901.792	16627.12
902.03	16694.12
902.268	16592.12
902.506	16574.12
902.744	16465.12
902.982	16309.12
903.22	16054.12
903.458	15883.12
903.695	15645.12
903.933	15332.12
904.171	15077.12
904.409	14975.12
904.646	14762.12
904.884	14431.12
905.121	14386.12
905.359	14202.12
905.596	14037.12
905.833	13892.12
906.071	13789.12
906.308	13873.12
906.545	13794.12
906.783	13702.12
907.02	13576.12
907.257	13547.12
907.494	13628.12
907.731	13516.12
907.968	13454.12
908.205	13392.12
908.442	13237.12
908.679	13130.12
908.915	13110.12
909.152	12946.12
909.389	12825.12
909.626	12816.12
909.862	12713.12
910.099	12685.12
910.335	12693.12
910.572	12496.12
910.808	12647.12
911.045	12521.12
911.281	12442.12
911.518	12483.12
911.754	12289.12
911.99	12221.12
912.226	12197.12
912.463	11953.12
912.699	12000.12
912.935	11853.12
913.171	11841.12
913.407	11697.12
913.643	11701.12
913.879	11571.12
914.114	11379.12
914.35	11386.12
914.586	11212.12
914.822	11105.12
915.057	11168.12
915.293	10974.12
915.529	10960.12
915.764	10973.12
916	10963.12
916.235	10997.12
916.471	10880.12
916.706	10850.12
916.941	10848.12
917.177	10796.12
917.412	10804.12
917.647	10858.12
917.882	10748.12
918.117	10673.12
918.352	10684.12
918.588	10702.12
918.823	10539.12
919.057	10455.12
919.292	10333.12
919.527	10329.12
919.762	10168.12
919.997	10139.12
920.232	9980.12
920.466	9950.12
920.701	9832.12
920.935	9753.12
921.17	9682.12
921.405	9650.12
921.639	9694.12
921.873	9591.12
922.108	9621.12
922.342	9598.12
922.576	9547.12
922.811	9456.12
923.045	9515.12
923.279	9449.12
923.513	9336.12
923.747	9386.12
923.981	9334.12
924.215	9220.12
924.449	9180.12
924.683	9052.12
924.917	9062.12
925.151	9004.12
925.385	9037.12
925.618	9030.12
925.852	8940.12
926.086	8845.12
926.319	8887.12
926.553	8951.12
926.786	8852.12
927.02	8818.12
927.253	8909.12
927.486	8886.12
927.72	8803.12
927.953	8789.12
928.186	8731.12
928.42	8787.12
928.653	8642.12
928.886	8643.12
929.119	8643.12
929.352	8592.12
929.585	8604.12
929.818	8470.12
930.051	8414.12
930.284	8347.12
930.516	8267.12
930.749	8235.12
930.982	8285.12
931.215	8187.12
931.447	8140.12
931.68	8124.12
931.912	8091.12
932.145	8077.12
932.377	8118.12
932.61	8148.12
932.842	7979.12
933.074	8060.12
933.307	7975.12
933.539	8100.12
933.771	8105.12
934.003	8077.12
934.236	8096.12
934.468	8061.12
934.7	7945.12
934.932	7977.12
935.164	7999.12
935.395	7867.12
935.627	7901.12
935.859	7880.12
936.091	7772.12
936.323	7806.12
936.554	7813.12
936.786	7768.12
937.017	7717.12
937.249	7696.12
937.481	7619.12
937.712	7725.12
937.943	7660.12
938.175	7638.12
938.406	7585.12
938.637	7657.12
938.869	7547.12
939.1	7604.12
939.331	7532.12
939.562	7487.12
939.793	7504.12
940.024	7467.12
940.255	7472.12
940.486	7411.12
940.717	7403.12
940.948	7340.12
941.179	7251.12
941.409	7292.12
941.64	7337.12
941.871	7272.12
942.102	7236.12
942.332	7280.12
942.563	7278.12
942.793	7229.12
943.024	7266.12
943.254	7176.12
943.484	7259.12
943.715	7276.12
943.945	7263.12
944.175	7199.12
944.405	7176.12
944.636	7137.12
944.866	7238.12
945.096	7175.12
945.326	7078.12
945.556	7120.12
945.786	7086.12
946.016	7070.12
946.245	6943.12
946.475	6939.12
946.705	6883.12
946.935	6957.12
947.164	6846.12
947.394	6763.12
947.624	6752.12
947.853	6783.12
948.083	6718.12
948.312	6646.12
948.542	6631.12
948.771	6602.12
949	6556.12
949.23	6584.12
949.459	6589.12
949.688	6612.12
949.917	6557.12
950.146	6596.12
950.375	6602.12
950.604	6457.12
950.833	6530.12
951.062	6529.12
951.291	6496.12
951.52	6416.12
951.749	6423.12
951.978	6342.12
952.206	6372.12
952.435	6318.12
952.664	6326.12
952.892	6323.12
953.121	6300.12
953.349	6263.12
953.578	6241.12
953.806	6207.12
954.035	6145.12
954.263	6163.12
954.491	6131.12
954.719	6124.12
954.948	6056.12
955.176	5999.12
955.404	5991.12
955.632	5981.12
955.86	5987.12
956.088	5968.12
956.316	5950.12
956.544	5970.12
956.772	5853.12
956.999	5780.12
957.227	5856.12
957.455	5755.12
957.683	5782.12
957.91	5633.12
958.138	5665.12
958.365	5651.12
958.593	5601.12
958.82	5608.12
959.048	5635.12
959.275	5613.12
959.502	5526.12
959.73	5474.12
959.957	5519.12
960.184	5532.12
960.411	5468.12
960.638	5588.12
960.865	5499.12
961.092	5425.12
961.319	5394.12
961.546	5457.12
961.773	5458.12
962	5397.12
962.227	5453.12
962.454	5360.12
962.68	5369.12
962.907	5367.12
963.134	5277.12
963.36	5316.12
963.587	5346.12
963.813	5203.12
964.04	5249.12
964.266	5134.12
964.493	5276.12
964.719	5142.12
964.945	5089.12
965.171	4993.12
965.398	5063.12
965.624	5070.12
965.85	4904.12
966.076	4918.12
966.302	4998.12
966.528	4958.12
966.754	4911.12
966.98	4905.12
967.206	4888.12
967.431	4811.12
967.657	4864.12
967.883	4877.12
968.109	4792.12
968.334	4772.12
968.56	4784.12
968.785	4776.12
969.011	4744.12
969.236	4770.12
969.462	4604.12
969.687	4662.12
969.912	4734.12
970.138	4733.12
970.363	4673.12
970.588	4619.12
970.813	4612.12
971.038	4538.12
971.263	4565.12
971.488	4588.12
971.713	4596.12
971.938	4560.12
972.163	4448.12
972.388	4468.12
972.613	4418.12
972.838	4441.12
973.062	4393.12
973.287	4398.12
973.512	4345.12
973.736	4353.12
973.961	4315.12
974.185	4270.12
974.41	4327.12
974.634	4243.12
974.858	4195.12
975.083	4235.12
975.307	4232.12
975.531	4157.12
975.755	4057.12
975.98	4076.12
976.204	4040.12
976.428	4019.12
976.652	4009.12
976.876	3981.12
977.1	4019.12
977.324	3932.12
977.547	3971.12
977.771	3993.12
977.995	3928.12
978.219	3860.12
978.442	3950.12
978.666	3930.12
978.89	3890.12
979.113	3862.12
979.337	3855.12
979.56	3809.12
979.783	3906.12
980.007	3803.12
980.23	3775.12
980.453	3767.12
980.677	3776.12
980.9	3781.12
981.123	3644.12
981.346	3783.12
981.569	3717.12
981.792	3723.12
982.015	3685.12
982.238	3605.12
982.461	3714.12
982.684	3576.12
982.907	3518.12
983.129	3507.12
983.352	3578.12
983.575	3535.12
983.797	3496.12
984.02	3507.12
984.242	3439.12
984.465	3463.12
984.687	3459.12
984.91	3488.12
985.132	3459.12
985.354	3407.12
985.577	3391.12
985.799	3390.12
986.021	3290.12
986.243	3288.12
986.465	3290.12
986.687	3386.12
986.909	3415.12
987.131	3317.12
987.353	3264.12
987.575	3266.12
987.797	3285.12
988.019	3198.12
988.241	3250.12
988.462	3210.12
988.684	3243.12
988.906	3238.12
989.127	3272.12
989.349	3156.12
989.57	3203.12
989.792	3225.12
990.013	3236.12
990.234	3202.12
990.456	3207.12
990.677	3185.12
990.898	3132.12
991.119	3090.12
991.341	3139.12
991.562	3052.12
991.783	3119.12
992.004	2970.12
992.225	2974.12
992.446	2990.12
992.667	2931.12
992.887	3012.12
993.108	2894.12
993.329	2995.12
993.55	2972.12
993.77	2848.12
993.991	2866.12
994.212	2886.12
994.432	2855.12
994.653	2874.12
994.873	2845.12
995.093	2742.12
995.314	2782.12
995.534	2852.12
995.754	2838.12
995.975	2879.12
996.195	2742.12
996.415	2761.12
996.635	2772.12
996.855	2741.12
997.075	2711.12
997.295	2760.12
997.515	2696.12
997.735	2803.12
997.955	2748.12
998.174	2690.12
998.394	2673.12
998.614	2725.12
998.834	2629.12
999.053	2725.12
999.273	2694.12
999.492	2713.12
999.712	2691.12
999.931	2664.12
1000.151	2654.12
1000.37	2623.12
1000.589	2654.12
1000.809	2566.12
1001.028	2682.12
1001.247	2603.12
1001.466	2472.12
1001.685	2619.12
1001.904	2494.12
1002.123	2515.12
1002.342	2509.12
1002.561	2470.12
1002.78	2516.12
1002.999	2536.12
1003.218	2491.12
1003.436	2421.12
1003.655	2521.12
1003.874	2444.12
1004.092	2401.12
1004.311	2462.12
1004.53	2434.12
1004.748	2488.12
1004.966	2421.12
1005.185	2442.12
1005.403	2395.12
1005.622	2399.12
1005.84	2503.12
1006.058	2347.12
1006.276	2392.12
1006.494	2856.12
1006.712	2371.12
1006.931	2466.12
1007.149	2369.12
1007.367	2355.12
1007.584	2372.12
1007.802	2441.12
1008.02	2373.12
1008.238	2503.12
1008.456	2498.12
1008.673	2382.12
1008.891	2481.12
1009.109	2402.12
1009.326	2520.12
1009.544	2601.12
1009.761	2556.12
1009.979	2665.12
1010.196	2682.12
1010.413	2848.12
1010.631	2930.12
1010.848	3020.12
1011.065	3049.12
1011.282	2981.12
1011.5	2910.12
1011.717	2985.12
1011.934	2911.12
1012.151	2947.12
1012.368	2925.12
1012.585	2887.12
1012.801	2987.12
1013.018	2937.12
1013.235	2937.12
1013.452	2899.12
1013.669	2953.12
1013.885	2928.12
1014.102	2951.12
1014.318	2950.12
1014.535	2902.12
1014.751	2926.12
1014.968	2889.12
1015.184	2955.12
1015.401	2864.12
1015.617	2850.12
1015.833	2802.12
1016.049	2811.12
1016.266	2774.12
1016.482	2762.12
1016.698	2688.12
1016.914	2733.12
1017.13	2676.12
1017.346	2655.12
1017.562	2697.12
1017.778	2617.12
1017.993	2605.12
1018.209	2651.12
1018.425	2624.12
1018.641	2594.12
1018.856	2620.12
1019.072	2641.12
1019.288	2667.12
1019.503	2594.12
1019.719	2508.12
1019.934	2522.12
1020.149	2621.12
1020.365	2547.12
1020.58	2454.12
1020.795	2466.12
1021.011	2415.12
1021.226	2347.12
1021.441	2335.12
1021.656	2259.12
1021.871	2177.12
1022.086	2154.12
1022.301	2151.12
1022.516	2104.12
1022.731	2111.12
1022.946	2010.12
1023.16	2010.12
1023.375	1934.12
1023.59	1951.12
1023.804	1885.12
1024.019	1970.12
1024.234	1802.12
1024.448	1836.12
1024.663	1713.12
1024.877	1704.12
1025.092	1730.12
1025.306	1722.12
1025.52	1580.12
1025.734	1661.12
1025.949	1542.12
1026.163	1563.12
1026.377	1463.12
1026.591	1494.12
1026.805	1397.12
1027.019	1380.12
1027.233	1360.12
1027.447	1288.12
1027.661	1368.12
1027.875	1314.12
1028.088	1308.12
1028.302	1213.12
1028.516	1182.12
1028.73	1171.12
1028.943	1157.12
1029.157	1082.12
1029.37	1008.12
1029.584	-0.88
1029.797	0.12
1030.011	-0.88
1030.224	-3.88
