Data from QEP037381__56__15-18-35-860.txt Node

Date: Fri Dec 16 15:18:35 EST 2022
User: dcclab
Spectrometer: QEP03738
Trigger mode: 4
Integration Time (sec): 1.000000E1
Scans to average: 1
Electric dark correction enabled: true
Nonlinearity correction enabled: false
Boxcar width: 0
XAxis mode: Wavelengths
Number of Pixels in Spectrum: 1044
>>>>>Begin Spectral Data<<<<<
784.041	12
784.3	1
784.558	0
784.817	-7
785.075	88107
785.334	15293
785.592	7125
785.851	4924
786.109	3693
786.368	2916
786.626	2361
786.884	1975
787.143	1671
787.401	1382
787.659	1260
787.917	1082
788.175	1019
788.433	891
788.691	811
788.949	736
789.207	719
789.465	624
789.723	612
789.98	554
790.238	592
790.496	568
790.753	542
791.011	575
791.268	515
791.526	510
791.783	527
792.041	509
792.298	437
792.556	492
792.813	470
793.07	455
793.327	430
793.584	529
793.841	448
794.099	467
794.356	514
794.613	425
794.869	458
795.126	435
795.383	418
795.64	435
795.897	392
796.153	431
796.41	434
796.667	412
796.923	419
797.18	428
797.436	456
797.693	430
797.949	465
798.206	501
798.462	397
798.718	473
798.974	451
799.231	486
799.487	485
799.743	474
799.999	524
800.255	503
800.511	496
800.767	549
801.023	530
801.279	555
801.534	601
801.79	646
802.046	675
802.302	812
802.557	925
802.813	1129
803.068	1408
803.324	1904
803.579	2625
803.835	3626
804.09	4983
804.345	6561
804.601	8377
804.856	10181
805.111	11799
805.366	13113
805.621	13876
805.876	14509
806.131	14974
806.386	15257
806.641	15521
806.896	15863
807.151	16182
807.406	16432
807.661	16792
807.915	17063
808.17	17427
808.425	17510
808.679	17812
808.934	17960
809.188	18271
809.443	18443
809.697	18696
809.951	18804
810.206	19002
810.46	19231
810.714	19377
810.968	19753
811.223	19781
811.477	20092
811.731	20183
811.985	20259
812.239	20401
812.493	20438
812.747	20690
813	20689
813.254	20751
813.508	20929
813.762	20905
814.015	21173
814.269	21363
814.522	21605
814.776	21823
815.03	22203
815.283	22451
815.536	22829
815.79	23196
816.043	23556
816.296	23896
816.55	24190
816.803	24476
817.056	24931
817.309	25084
817.562	25367
817.815	25713
818.068	25765
818.321	26223
818.574	26455
818.827	26885
819.079	27122
819.332	27813
819.585	28125
819.838	28454
820.09	28676
820.343	28858
820.595	29078
820.848	29310
821.1	29421
821.353	29406
821.605	29357
821.857	29454
822.11	29215
822.362	29148
822.614	29180
822.866	29295
823.118	29199
823.37	29425
823.622	29487
823.874	29503
824.126	29703
824.378	29668
824.63	29768
824.882	29876
825.134	29686
825.385	29837
825.637	29790
825.888	29612
826.14	29564
826.392	29573
826.643	29364
826.895	29307
827.146	29273
827.397	29116
827.649	29220
827.9	29155
828.151	29104
828.402	29247
828.653	29315
828.905	29415
829.156	29477
829.407	29483
829.658	29550
829.909	29625
830.159	29674
830.41	29405
830.661	29157
830.912	29082
831.162	29014
831.413	29101
831.664	29053
831.914	29022
832.165	29015
832.415	29050
832.666	29044
832.916	28979
833.167	29037
833.417	29074
833.667	28939
833.917	28847
834.168	28783
834.418	28751
834.668	28584
834.918	28604
835.168	28336
835.418	28270
835.668	28220
835.918	28266
836.167	28174
836.417	28005
836.667	28020
836.917	27982
837.166	27904
837.416	27969
837.666	27973
837.915	27804
838.165	27794
838.414	27709
838.663	27597
838.913	27648
839.162	27698
839.411	27757
839.661	27516
839.91	27474
840.159	27314
840.408	27464
840.657	27577
840.906	27561
841.155	27606
841.404	27393
841.653	27532
841.902	27642
842.15	27596
842.399	27510
842.648	27458
842.897	27455
843.145	27213
843.394	27150
843.642	26958
843.891	26842
844.139	26705
844.388	26487
844.636	26380
844.884	26549
845.133	26437
845.381	26512
845.629	26488
845.877	26464
846.125	26325
846.373	26488
846.621	26325
846.869	26306
847.117	26118
847.365	25936
847.613	25791
847.861	25773
848.108	25720
848.356	25724
848.604	25560
848.851	25729
849.099	25794
849.346	25705
849.594	25879
849.841	26002
850.089	25956
850.336	26095
850.583	25970
850.831	25907
851.078	25864
851.325	25948
851.572	26128
851.819	25749
852.066	25275
852.313	24855
852.56	24702
852.807	24669
853.054	24558
853.301	24452
853.548	24538
853.794	24685
854.041	24724
854.288	24795
854.534	25051
854.781	25055
855.028	24905
855.274	24961
855.52	24672
855.767	24596
856.013	24547
856.26	24906
856.506	24461
856.752	24394
856.998	24476
857.244	24552
857.49	24693
857.736	24610
857.982	24702
858.228	24560
858.474	24380
858.72	24274
858.966	24101
859.212	23917
859.458	23592
859.703	23334
859.949	23207
860.195	23114
860.44	22979
860.686	22830
860.931	22977
861.177	22741
861.422	22656
861.667	22461
861.913	22571
862.158	22553
862.403	22692
862.648	22770
862.893	22866
863.138	22759
863.384	22603
863.629	22662
863.873	22706
864.118	22641
864.363	22460
864.608	22507
864.853	22536
865.098	22278
865.342	22247
865.587	22080
865.832	22170
866.076	22112
866.321	22025
866.565	21948
866.81	21856
867.054	21853
867.298	21730
867.543	21666
867.787	21762
868.031	21565
868.275	21645
868.519	21577
868.764	21539
869.008	21574
869.252	21599
869.496	21454
869.739	21458
869.983	21459
870.227	21339
870.471	21418
870.715	21572
870.958	21657
871.202	21612
871.446	21730
871.689	21696
871.933	21705
872.176	21680
872.42	21593
872.663	21556
872.906	21513
873.15	21344
873.393	21342
873.636	21159
873.879	21033
874.122	20869
874.366	20585
874.609	20515
874.852	20360
875.095	20270
875.337	20153
875.58	20063
875.823	20118
876.066	20012
876.309	19958
876.551	19763
876.794	19772
877.037	19718
877.279	19658
877.522	19646
877.764	19712
878.007	19583
878.249	19613
878.491	19595
878.734	19604
878.976	19624
879.218	19435
879.46	19371
879.702	19153
879.945	19018
880.187	18906
880.429	18811
880.671	18743
880.912	18645
881.154	18573
881.396	18513
881.638	18550
881.88	18620
882.121	18537
882.363	18576
882.605	18524
882.846	18441
883.088	18453
883.329	18467
883.571	18404
883.812	18439
884.053	18704
884.295	19080
884.536	19217
884.777	19135
885.018	19093
885.259	18940
885.5	18895
885.742	19152
885.982	18921
886.223	18637
886.464	18636
886.705	18383
886.946	18256
887.187	18002
887.428	17823
887.668	17525
887.909	17415
888.15	17254
888.39	17092
888.631	16941
888.871	16872
889.111	16727
889.352	16663
889.592	16500
889.833	16429
890.073	16351
890.313	16283
890.553	16064
890.793	16002
891.033	15929
891.273	15878
891.513	15892
891.753	15932
891.993	15843
892.233	15872
892.473	16066
892.713	15838
892.952	15969
893.192	15893
893.432	15941
893.671	15897
893.911	15949
894.15	15894
894.39	15675
894.629	15689
894.869	15611
895.108	15510
895.347	15393
895.587	15419
895.826	15394
896.065	15372
896.304	15413
896.543	15306
896.782	15294
897.021	15280
897.26	15316
897.499	15319
897.738	15372
897.977	15185
898.216	15081
898.454	14905
898.693	14900
898.932	14929
899.17	14821
899.409	14762
899.647	14811
899.886	14751
900.124	14793
900.363	14811
900.601	14879
900.839	14938
901.078	14976
901.316	15020
901.554	15095
901.792	15229
902.03	15102
902.268	15245
902.506	15206
902.744	15036
902.982	14841
903.22	14583
903.458	14488
903.695	14232
903.933	13975
904.171	13833
904.409	13527
904.646	13349
904.884	13131
905.121	13047
905.359	12947
905.596	12768
905.833	12651
906.071	12577
906.308	12545
906.545	12412
906.783	12390
907.02	12411
907.257	12284
907.494	12323
907.731	12355
907.968	12246
908.205	12108
908.442	12057
908.679	11947
908.915	11902
909.152	11862
909.389	11553
909.626	11701
909.862	11492
910.099	11517
910.335	11540
910.572	11391
910.808	11397
911.045	11278
911.281	11297
911.518	11300
911.754	11173
911.99	11084
912.226	11004
912.463	10892
912.699	10836
912.935	10776
913.171	10665
913.407	10628
913.643	10591
913.879	10450
914.114	10399
914.35	10244
914.586	10237
914.822	10113
915.057	10118
915.293	9920
915.529	9925
915.764	9971
916	9916
916.235	9872
916.471	9859
916.706	9870
916.941	9831
917.177	9833
917.412	9753
917.647	9814
917.882	9754
918.117	9809
918.352	9731
918.588	9730
918.823	9587
919.057	9525
919.292	9428
919.527	9443
919.762	9228
919.997	9237
920.232	9119
920.466	9157
920.701	8929
920.935	8865
921.17	8837
921.405	8795
921.639	8832
921.873	8753
922.108	8739
922.342	8713
922.576	8672
922.811	8633
923.045	8620
923.279	8622
923.513	8516
923.747	8453
923.981	8466
924.215	8322
924.449	8287
924.683	8197
924.917	8223
925.151	8205
925.385	8262
925.618	8148
925.852	8167
926.086	8057
926.319	8049
926.553	8076
926.786	8110
927.02	8065
927.253	8066
927.486	8064
927.72	8036
927.953	8086
928.186	8002
928.42	8001
928.653	7875
928.886	7865
929.119	7931
929.352	7852
929.585	7786
929.818	7704
930.051	7683
930.284	7666
930.516	7499
930.749	7524
930.982	7488
931.215	7506
931.447	7396
931.68	7420
931.912	7392
932.145	7345
932.377	7355
932.61	7503
932.842	7335
933.074	7391
933.307	7328
933.539	7442
933.771	7367
934.003	7260
934.236	7393
934.468	7389
934.7	7265
934.932	7344
935.164	7207
935.395	7178
935.627	7233
935.859	7193
936.091	7045
936.323	7123
936.554	7183
936.786	7135
937.017	7047
937.249	7041
937.481	7000
937.712	7042
937.943	6964
938.175	6968
938.406	6948
938.637	7011
938.869	6943
939.1	6984
939.331	6910
939.562	6884
939.793	6869
940.024	6845
940.255	6847
940.486	6776
940.717	6741
940.948	6752
941.179	6698
941.409	6751
941.64	6708
941.871	6642
942.102	6659
942.332	6653
942.563	6710
942.793	6712
943.024	6616
943.254	6646
943.484	6621
943.715	6613
943.945	6653
944.175	6576
944.405	6580
944.636	6577
944.866	6667
945.096	6571
945.326	6468
945.556	6530
945.786	6578
946.016	6404
946.245	6342
946.475	6388
946.705	6338
946.935	6252
947.164	6285
947.394	6168
947.624	6183
947.853	6197
948.083	6166
948.312	6150
948.542	6064
948.771	6036
949	6044
949.23	6025
949.459	6006
949.688	6117
949.917	5997
950.146	6006
950.375	6028
950.604	5931
950.833	6050
951.062	6014
951.291	5926
951.52	5936
951.749	5894
951.978	5830
952.206	5841
952.435	5856
952.664	5851
952.892	5866
953.121	5843
953.349	5772
953.578	5800
953.806	5718
954.035	5685
954.263	5659
954.491	5605
954.719	5633
954.948	5560
955.176	5498
955.404	5393
955.632	5496
955.86	5542
956.088	5429
956.316	5424
956.544	5412
956.772	5395
956.999	5333
957.227	5405
957.455	5325
957.683	5260
957.91	5213
958.138	5194
958.365	5183
958.593	5144
958.82	5128
959.048	5162
959.275	5148
959.502	5101
959.73	5098
959.957	5082
960.184	5122
960.411	5050
960.638	5043
960.865	5056
961.092	5029
961.319	4951
961.546	5058
961.773	5042
962	5044
962.227	5056
962.454	4953
962.68	4949
962.907	4942
963.134	4912
963.36	4882
963.587	4901
963.813	4786
964.04	4819
964.266	4734
964.493	4808
964.719	4777
964.945	4699
965.171	4619
965.398	4693
965.624	4693
965.85	4574
966.076	4583
966.302	4562
966.528	4545
966.754	4550
966.98	4533
967.206	4535
967.431	4455
967.657	4578
967.883	4493
968.109	4491
968.334	4386
968.56	4360
968.785	4408
969.011	4356
969.236	4422
969.462	4319
969.687	4311
969.912	4316
970.138	4377
970.363	4239
970.588	4272
970.813	4255
971.038	4247
971.263	4223
971.488	4249
971.713	4228
971.938	4185
972.163	4116
972.388	4162
972.613	4118
972.838	4095
973.062	4057
973.287	4086
973.512	4044
973.736	4034
973.961	3999
974.185	3927
974.41	3979
974.634	3883
974.858	3881
975.083	3883
975.307	3862
975.531	3812
975.755	3829
975.98	3805
976.204	3725
976.428	3714
976.652	3731
976.876	3714
977.1	3714
977.324	3676
977.547	3696
977.771	3672
977.995	3630
978.219	3582
978.442	3720
978.666	3600
978.89	3595
979.113	3627
979.337	3592
979.56	3577
979.783	3661
980.007	3525
980.23	3516
980.453	3511
980.677	3532
980.9	3509
981.123	3400
981.346	3492
981.569	3415
981.792	3496
982.015	3378
982.238	3329
982.461	3384
982.684	3341
982.907	3288
983.129	3249
983.352	3332
983.575	3280
983.797	3285
984.02	3215
984.242	3185
984.465	3186
984.687	3237
984.91	3229
985.132	3173
985.354	3218
985.577	3178
985.799	3150
986.021	3061
986.243	3042
986.465	3116
986.687	3138
986.909	3162
987.131	3069
987.353	3048
987.575	3090
987.797	3020
988.019	2961
988.241	2983
988.462	2972
988.684	3025
988.906	2994
989.127	3067
989.349	2922
989.57	2989
989.792	2997
990.013	2980
990.234	2986
990.456	2990
990.677	2982
990.898	2894
991.119	2850
991.341	2923
991.562	2856
991.783	2878
992.004	2826
992.225	2765
992.446	2839
992.667	2721
992.887	2800
993.108	2705
993.329	2775
993.55	2745
993.77	2690
993.991	2657
994.212	2710
994.432	2671
994.653	2657
994.873	2664
995.093	2564
995.314	2558
995.534	2664
995.754	2599
995.975	2661
996.195	2550
996.415	2597
996.635	2579
996.855	2599
997.075	2516
997.295	2567
997.515	2538
997.735	2573
997.955	2564
998.174	2576
998.394	2495
998.614	2535
998.834	2475
999.053	2575
999.273	2525
999.492	2533
999.712	2477
999.931	2445
1000.151	2450
1000.37	2482
1000.589	2479
1000.809	2410
1001.028	2465
1001.247	2448
1001.466	2318
1001.685	2456
1001.904	2387
1002.123	2390
1002.342	2335
1002.561	2314
1002.78	2330
1002.999	2407
1003.218	2315
1003.436	2305
1003.655	2335
1003.874	2269
1004.092	2273
1004.311	2318
1004.53	2282
1004.748	2375
1004.966	2261
1005.185	2313
1005.403	2269
1005.622	2288
1005.84	2349
1006.058	2232
1006.276	2253
1006.494	2747
1006.712	2276
1006.931	2307
1007.149	2217
1007.367	2210
1007.584	2278
1007.802	2309
1008.02	2264
1008.238	2366
1008.456	2346
1008.673	2249
1008.891	2338
1009.109	2265
1009.326	2358
1009.544	2425
1009.761	2373
1009.979	2518
1010.196	2504
1010.413	2678
1010.631	2707
1010.848	2769
1011.065	2816
1011.282	2795
1011.5	2742
1011.717	2805
1011.934	2752
1012.151	2813
1012.368	2735
1012.585	2675
1012.801	2769
1013.018	2753
1013.235	2731
1013.452	2769
1013.669	2743
1013.885	2738
1014.102	2794
1014.318	2761
1014.535	2685
1014.751	2705
1014.968	2708
1015.184	2739
1015.401	2640
1015.617	2701
1015.833	2607
1016.049	2587
1016.266	2586
1016.482	2571
1016.698	2486
1016.914	2538
1017.13	2524
1017.346	2511
1017.562	2541
1017.778	2497
1017.993	2469
1018.209	2503
1018.425	2491
1018.641	2445
1018.856	2441
1019.072	2493
1019.288	2523
1019.503	2499
1019.719	2398
1019.934	2440
1020.149	2473
1020.365	2417
1020.58	2326
1020.795	2362
1021.011	2261
1021.226	2229
1021.441	2242
1021.656	2124
1021.871	2075
1022.086	2059
1022.301	2013
1022.516	1981
1022.731	2035
1022.946	1956
1023.16	1909
1023.375	1849
1023.59	1837
1023.804	1794
1024.019	1863
1024.234	1733
1024.448	1751
1024.663	1680
1024.877	1658
1025.092	1643
1025.306	1639
1025.52	1559
1025.734	1599
1025.949	1481
1026.163	1442
1026.377	1385
1026.591	1430
1026.805	1371
1027.019	1316
1027.233	1274
1027.447	1227
1027.661	1306
1027.875	1242
1028.088	1235
1028.302	1176
1028.516	1151
1028.73	1123
1028.943	1079
1029.157	1008
1029.37	966
1029.584	-2
1029.797	-1
1030.011	-1
1030.224	-2
