Data from QEP037381__15__15-11-45-854.txt Node

Date: Fri Dec 16 15:11:45 EST 2022
User: dcclab
Spectrometer: QEP03738
Trigger mode: 4
Integration Time (sec): 1.000000E1
Scans to average: 1
Electric dark correction enabled: true
Nonlinearity correction enabled: false
Boxcar width: 0
XAxis mode: Wavelengths
Number of Pixels in Spectrum: 1044
>>>>>Begin Spectral Data<<<<<
784.041	12.25
784.3	2.25
784.558	-3.75
784.817	-2.75
785.075	89631.25
785.334	15417.25
785.592	7271.25
785.851	4976.25
786.109	3788.25
786.368	2922.25
786.626	2391.25
786.884	1969.25
787.143	1686.25
787.401	1375.25
787.659	1265.25
787.917	1082.25
788.175	1011.25
788.433	888.25
788.691	815.25
788.949	765.25
789.207	720.25
789.465	639.25
789.723	602.25
789.98	582.25
790.238	614.25
790.496	578.25
790.753	540.25
791.011	611.25
791.268	534.25
791.526	525.25
791.783	541.25
792.041	511.25
792.298	452.25
792.556	500.25
792.813	481.25
793.07	459.25
793.327	443.25
793.584	527.25
793.841	469.25
794.099	484.25
794.356	546.25
794.613	449.25
794.869	466.25
795.126	430.25
795.383	420.25
795.64	439.25
795.897	398.25
796.153	455.25
796.41	437.25
796.667	431.25
796.923	421.25
797.18	447.25
797.436	472.25
797.693	426.25
797.949	474.25
798.206	511.25
798.462	418.25
798.718	492.25
798.974	466.25
799.231	511.25
799.487	513.25
799.743	519.25
799.999	537.25
800.255	553.25
800.511	545.25
800.767	583.25
801.023	582.25
801.279	592.25
801.534	633.25
801.79	702.25
802.046	728.25
802.302	881.25
802.557	1021.25
802.813	1256.25
803.068	1584.25
803.324	2174.25
803.579	2943.25
803.835	4083.25
804.09	5626.25
804.345	7408.25
804.601	9411.25
804.856	11452.25
805.111	13228.25
805.366	14666.25
805.621	15679.25
805.876	16391.25
806.131	16903.25
806.386	17266.25
806.641	17546.25
806.896	17930.25
807.151	18249.25
807.406	18660.25
807.661	18934.25
807.915	19249.25
808.17	19690.25
808.425	19842.25
808.679	20028.25
808.934	20405.25
809.188	20604.25
809.443	20910.25
809.697	21205.25
809.951	21279.25
810.206	21495.25
810.46	21747.25
810.714	21955.25
810.968	22281.25
811.223	22517.25
811.477	22565.25
811.731	22789.25
811.985	22865.25
812.239	23029.25
812.493	23207.25
812.747	23254.25
813	23410.25
813.254	23522.25
813.508	23596.25
813.762	23705.25
814.015	23819.25
814.269	24067.25
814.522	24355.25
814.776	24692.25
815.03	25085.25
815.283	25412.25
815.536	25736.25
815.79	26186.25
816.043	26526.25
816.296	26854.25
816.55	27440.25
816.803	27641.25
817.056	28052.25
817.309	28281.25
817.562	28562.25
817.815	29025.25
818.068	29267.25
818.321	29500.25
818.574	29955.25
818.827	30304.25
819.079	30763.25
819.332	31273.25
819.585	31667.25
819.838	32064.25
820.09	32239.25
820.343	32629.25
820.595	32909.25
820.848	33030.25
821.1	33108.25
821.353	33160.25
821.605	33170.25
821.857	33177.25
822.11	33136.25
822.362	32997.25
822.614	33043.25
822.866	33008.25
823.118	33009.25
823.37	33220.25
823.622	33124.25
823.874	33278.25
824.126	33519.25
824.378	33571.25
824.63	33583.25
824.882	33732.25
825.134	33638.25
825.385	33669.25
825.637	33554.25
825.888	33616.25
826.14	33498.25
826.392	33387.25
826.643	33194.25
826.895	33099.25
827.146	33010.25
827.397	32986.25
827.649	33035.25
827.9	32794.25
828.151	33036.25
828.402	33110.25
828.653	33147.25
828.905	33265.25
829.156	33383.25
829.407	33393.25
829.658	33444.25
829.909	33292.25
830.159	33400.25
830.41	33110.25
830.661	33010.25
830.912	32979.25
831.162	32837.25
831.413	32815.25
831.664	32776.25
831.914	32840.25
832.165	32781.25
832.415	32755.25
832.666	32806.25
832.916	32749.25
833.167	32670.25
833.417	32726.25
833.667	32663.25
833.917	32636.25
834.168	32606.25
834.418	32436.25
834.668	32329.25
834.918	32055.25
835.168	32178.25
835.418	31815.25
835.668	31722.25
835.918	31859.25
836.167	31690.25
836.417	31474.25
836.667	31600.25
836.917	31668.25
837.166	31657.25
837.416	31500.25
837.666	31561.25
837.915	31651.25
838.165	31455.25
838.414	31292.25
838.663	31396.25
838.913	31327.25
839.162	31171.25
839.411	31209.25
839.661	31075.25
839.91	31119.25
840.159	31072.25
840.408	31046.25
840.657	30885.25
840.906	30915.25
841.155	31070.25
841.404	30998.25
841.653	31108.25
841.902	31105.25
842.15	31135.25
842.399	31093.25
842.648	30974.25
842.897	30799.25
843.145	30837.25
843.394	30518.25
843.642	30290.25
843.891	30437.25
844.139	30236.25
844.388	30019.25
844.636	29830.25
844.884	29819.25
845.133	29849.25
845.381	29926.25
845.629	29885.25
845.877	29812.25
846.125	29787.25
846.373	29775.25
846.621	29624.25
846.869	29548.25
847.117	29395.25
847.365	29255.25
847.613	29162.25
847.861	29029.25
848.108	29007.25
848.356	28926.25
848.604	28928.25
848.851	28909.25
849.099	28946.25
849.346	29077.25
849.594	29208.25
849.841	29261.25
850.089	29358.25
850.336	29367.25
850.583	29371.25
850.831	29185.25
851.078	29159.25
851.325	29116.25
851.572	29290.25
851.819	28995.25
852.066	28391.25
852.313	27987.25
852.56	27728.25
852.807	27591.25
853.054	27479.25
853.301	27538.25
853.548	27534.25
853.794	27720.25
854.041	27853.25
854.288	27972.25
854.534	28108.25
854.781	28046.25
855.028	28115.25
855.274	27979.25
855.52	27777.25
855.767	27610.25
856.013	27660.25
856.26	27936.25
856.506	27453.25
856.752	27380.25
856.998	27459.25
857.244	27653.25
857.49	27682.25
857.736	27860.25
857.982	27727.25
858.228	27617.25
858.474	27495.25
858.72	27474.25
858.966	27068.25
859.212	26826.25
859.458	26565.25
859.703	26356.25
859.949	26101.25
860.195	26011.25
860.44	25857.25
860.686	25689.25
860.931	25618.25
861.177	25547.25
861.422	25514.25
861.667	25392.25
861.913	25404.25
862.158	25462.25
862.403	25527.25
862.648	25514.25
862.893	25694.25
863.138	25620.25
863.384	25561.25
863.629	25625.25
863.873	25681.25
864.118	25543.25
864.363	25399.25
864.608	25198.25
864.853	25302.25
865.098	25164.25
865.342	25045.25
865.587	24900.25
865.832	24970.25
866.076	24832.25
866.321	24865.25
866.565	24723.25
866.81	24597.25
867.054	24521.25
867.298	24497.25
867.543	24412.25
867.787	24526.25
868.031	24367.25
868.275	24308.25
868.519	24394.25
868.764	24398.25
869.008	24222.25
869.252	24356.25
869.496	24214.25
869.739	24132.25
869.983	24233.25
870.227	24228.25
870.471	24087.25
870.715	24273.25
870.958	24335.25
871.202	24466.25
871.446	24474.25
871.689	24423.25
871.933	24528.25
872.176	24428.25
872.42	24232.25
872.663	24247.25
872.906	24119.25
873.15	24087.25
873.393	24033.25
873.636	23910.25
873.879	23747.25
874.122	23477.25
874.366	23066.25
874.609	23204.25
874.852	23045.25
875.095	22844.25
875.337	22785.25
875.58	22568.25
875.823	22682.25
876.066	22547.25
876.309	22446.25
876.551	22448.25
876.794	22295.25
877.037	22212.25
877.279	22027.25
877.522	22185.25
877.764	22193.25
878.007	22106.25
878.249	22136.25
878.491	22056.25
878.734	22057.25
878.976	21916.25
879.218	21800.25
879.46	21854.25
879.702	21545.25
879.945	21427.25
880.187	21222.25
880.429	21111.25
880.671	21049.25
880.912	20935.25
881.154	20935.25
881.396	20838.25
881.638	20940.25
881.88	20901.25
882.121	20873.25
882.363	20770.25
882.605	20719.25
882.846	20749.25
883.088	20710.25
883.329	20682.25
883.571	20740.25
883.812	20701.25
884.053	21040.25
884.295	21304.25
884.536	21625.25
884.777	21515.25
885.018	21345.25
885.259	21333.25
885.5	21260.25
885.742	21486.25
885.982	21148.25
886.223	21021.25
886.464	20816.25
886.705	20635.25
886.946	20512.25
887.187	20076.25
887.428	19930.25
887.668	19835.25
887.909	19356.25
888.15	19278.25
888.39	19204.25
888.631	19112.25
888.871	18935.25
889.111	18653.25
889.352	18653.25
889.592	18484.25
889.833	18362.25
890.073	18279.25
890.313	18237.25
890.553	18050.25
890.793	17991.25
891.033	17949.25
891.273	17897.25
891.513	17707.25
891.753	17743.25
891.993	17750.25
892.233	17838.25
892.473	17895.25
892.713	17875.25
892.952	17893.25
893.192	17990.25
893.432	17896.25
893.671	17850.25
893.911	17794.25
894.15	17723.25
894.39	17518.25
894.629	17506.25
894.869	17373.25
895.108	17360.25
895.347	17208.25
895.587	17219.25
895.826	17135.25
896.065	17111.25
896.304	17176.25
896.543	17219.25
896.782	17115.25
897.021	17178.25
897.26	17052.25
897.499	17155.25
897.738	17121.25
897.977	16972.25
898.216	16824.25
898.454	16745.25
898.693	16636.25
898.932	16662.25
899.17	16601.25
899.409	16438.25
899.647	16501.25
899.886	16424.25
900.124	16471.25
900.363	16478.25
900.601	16629.25
900.839	16614.25
901.078	16733.25
901.316	16774.25
901.554	16878.25
901.792	16917.25
902.03	16783.25
902.268	16919.25
902.506	16854.25
902.744	16744.25
902.982	16601.25
903.22	16257.25
903.458	16065.25
903.695	15837.25
903.933	15559.25
904.171	15270.25
904.409	15152.25
904.646	14947.25
904.884	14699.25
905.121	14503.25
905.359	14438.25
905.596	14228.25
905.833	14086.25
906.071	13934.25
906.308	13980.25
906.545	13936.25
906.783	13831.25
907.02	13803.25
907.257	13773.25
907.494	13734.25
907.731	13632.25
907.968	13654.25
908.205	13530.25
908.442	13481.25
908.679	13343.25
908.915	13245.25
909.152	13177.25
909.389	12962.25
909.626	12923.25
909.862	12881.25
910.099	12805.25
910.335	12751.25
910.572	12665.25
910.808	12650.25
911.045	12621.25
911.281	12601.25
911.518	12555.25
911.754	12454.25
911.99	12356.25
912.226	12231.25
912.463	12150.25
912.699	12084.25
912.935	11982.25
913.171	11929.25
913.407	11810.25
913.643	11733.25
913.879	11582.25
914.114	11575.25
914.35	11399.25
914.586	11308.25
914.822	11186.25
915.057	11250.25
915.293	11047.25
915.529	11046.25
915.764	11075.25
916	10999.25
916.235	10993.25
916.471	10968.25
916.706	10918.25
916.941	10884.25
917.177	10881.25
917.412	10866.25
917.647	10915.25
917.882	10744.25
918.117	10885.25
918.352	10835.25
918.588	10809.25
918.823	10623.25
919.057	10583.25
919.292	10405.25
919.527	10481.25
919.762	10250.25
919.997	10198.25
920.232	10089.25
920.466	9940.25
920.701	9920.25
920.935	9879.25
921.17	9803.25
921.405	9748.25
921.639	9793.25
921.873	9654.25
922.108	9668.25
922.342	9616.25
922.576	9552.25
922.811	9526.25
923.045	9532.25
923.279	9489.25
923.513	9315.25
923.747	9392.25
923.981	9327.25
924.215	9229.25
924.449	9180.25
924.683	9132.25
924.917	9053.25
925.151	9048.25
925.385	9100.25
925.618	9005.25
925.852	9038.25
926.086	8936.25
926.319	8979.25
926.553	8964.25
926.786	8888.25
927.02	8944.25
927.253	8955.25
927.486	8890.25
927.72	8850.25
927.953	8955.25
928.186	8790.25
928.42	8795.25
928.653	8720.25
928.886	8677.25
929.119	8671.25
929.352	8688.25
929.585	8623.25
929.818	8498.25
930.051	8532.25
930.284	8435.25
930.516	8221.25
930.749	8258.25
930.982	8232.25
931.215	8208.25
931.447	8165.25
931.68	8157.25
931.912	8143.25
932.145	8029.25
932.377	8080.25
932.61	8141.25
932.842	8020.25
933.074	8066.25
933.307	8042.25
933.539	8085.25
933.771	8117.25
934.003	8053.25
934.236	8074.25
934.468	8100.25
934.7	7963.25
934.932	8072.25
935.164	7968.25
935.395	7890.25
935.627	7923.25
935.859	7928.25
936.091	7872.25
936.323	7842.25
936.554	7854.25
936.786	7845.25
937.017	7680.25
937.249	7763.25
937.481	7670.25
937.712	7671.25
937.943	7667.25
938.175	7634.25
938.406	7638.25
938.637	7647.25
938.869	7588.25
939.1	7555.25
939.331	7582.25
939.562	7529.25
939.793	7533.25
940.024	7447.25
940.255	7419.25
940.486	7343.25
940.717	7391.25
940.948	7313.25
941.179	7340.25
941.409	7197.25
941.64	7323.25
941.871	7277.25
942.102	7317.25
942.332	7245.25
942.563	7328.25
942.793	7293.25
943.024	7186.25
943.254	7260.25
943.484	7263.25
943.715	7318.25
943.945	7203.25
944.175	7113.25
944.405	7128.25
944.636	7166.25
944.866	7181.25
945.096	7132.25
945.326	7012.25
945.556	7128.25
945.786	7085.25
946.016	6979.25
946.245	6942.25
946.475	6912.25
946.705	6878.25
946.935	6830.25
947.164	6831.25
947.394	6740.25
947.624	6735.25
947.853	6791.25
948.083	6676.25
948.312	6648.25
948.542	6536.25
948.771	6513.25
949	6548.25
949.23	6508.25
949.459	6574.25
949.688	6584.25
949.917	6464.25
950.146	6553.25
950.375	6575.25
950.604	6457.25
950.833	6500.25
951.062	6517.25
951.291	6482.25
951.52	6401.25
951.749	6364.25
951.978	6394.25
952.206	6368.25
952.435	6345.25
952.664	6332.25
952.892	6308.25
953.121	6224.25
953.349	6274.25
953.578	6281.25
953.806	6090.25
954.035	6121.25
954.263	6111.25
954.491	6051.25
954.719	6102.25
954.948	6016.25
955.176	5915.25
955.404	5929.25
955.632	5953.25
955.86	5928.25
956.088	5908.25
956.316	5888.25
956.544	5881.25
956.772	5806.25
956.999	5745.25
957.227	5823.25
957.455	5672.25
957.683	5743.25
957.91	5678.25
958.138	5622.25
958.365	5570.25
958.593	5585.25
958.82	5516.25
959.048	5524.25
959.275	5505.25
959.502	5421.25
959.73	5412.25
959.957	5465.25
960.184	5467.25
960.411	5432.25
960.638	5466.25
960.865	5390.25
961.092	5421.25
961.319	5317.25
961.546	5431.25
961.773	5471.25
962	5381.25
962.227	5376.25
962.454	5338.25
962.68	5325.25
962.907	5335.25
963.134	5238.25
963.36	5240.25
963.587	5178.25
963.813	5178.25
964.04	5174.25
964.266	5051.25
964.493	5156.25
964.719	5123.25
964.945	5065.25
965.171	4947.25
965.398	5000.25
965.624	4981.25
965.85	4876.25
966.076	4890.25
966.302	4941.25
966.528	4856.25
966.754	4843.25
966.98	4869.25
967.206	4800.25
967.431	4737.25
967.657	4811.25
967.883	4735.25
968.109	4792.25
968.334	4654.25
968.56	4738.25
968.785	4685.25
969.011	4627.25
969.236	4659.25
969.462	4657.25
969.687	4655.25
969.912	4653.25
970.138	4658.25
970.363	4535.25
970.588	4557.25
970.813	4536.25
971.038	4472.25
971.263	4555.25
971.488	4496.25
971.713	4512.25
971.938	4487.25
972.163	4389.25
972.388	4420.25
972.613	4367.25
972.838	4379.25
973.062	4392.25
973.287	4333.25
973.512	4256.25
973.736	4324.25
973.961	4251.25
974.185	4255.25
974.41	4271.25
974.634	4171.25
974.858	4129.25
975.083	4157.25
975.307	4168.25
975.531	4044.25
975.755	4038.25
975.98	4012.25
976.204	3964.25
976.428	3955.25
976.652	3917.25
976.876	3915.25
977.1	3938.25
977.324	3867.25
977.547	3915.25
977.771	3913.25
977.995	3880.25
978.219	3849.25
978.442	3919.25
978.666	3810.25
978.89	3815.25
979.113	3830.25
979.337	3796.25
979.56	3746.25
979.783	3874.25
980.007	3718.25
980.23	3702.25
980.453	3683.25
980.677	3769.25
980.9	3678.25
981.123	3595.25
981.346	3694.25
981.569	3590.25
981.792	3689.25
982.015	3635.25
982.238	3553.25
982.461	3561.25
982.684	3522.25
982.907	3472.25
983.129	3507.25
983.352	3491.25
983.575	3505.25
983.797	3475.25
984.02	3400.25
984.242	3361.25
984.465	3395.25
984.687	3400.25
984.91	3382.25
985.132	3369.25
985.354	3382.25
985.577	3339.25
985.799	3339.25
986.021	3217.25
986.243	3268.25
986.465	3233.25
986.687	3312.25
986.909	3312.25
987.131	3253.25
987.353	3208.25
987.575	3230.25
987.797	3179.25
988.019	3114.25
988.241	3181.25
988.462	3130.25
988.684	3181.25
988.906	3190.25
989.127	3221.25
989.349	3049.25
989.57	3092.25
989.792	3138.25
990.013	3111.25
990.234	3118.25
990.456	3144.25
990.677	3097.25
990.898	3044.25
991.119	3018.25
991.341	3041.25
991.562	2983.25
991.783	3007.25
992.004	2917.25
992.225	2946.25
992.446	2995.25
992.667	2848.25
992.887	2927.25
993.108	2791.25
993.329	2970.25
993.55	2872.25
993.77	2779.25
993.991	2790.25
994.212	2779.25
994.432	2777.25
994.653	2805.25
994.873	2770.25
995.093	2690.25
995.314	2704.25
995.534	2759.25
995.754	2810.25
995.975	2765.25
996.195	2673.25
996.415	2707.25
996.635	2724.25
996.855	2705.25
997.075	2679.25
997.295	2669.25
997.515	2674.25
997.735	2664.25
997.955	2680.25
998.174	2632.25
998.394	2612.25
998.614	2680.25
998.834	2656.25
999.053	2663.25
999.273	2629.25
999.492	2663.25
999.712	2624.25
999.931	2527.25
1000.151	2576.25
1000.37	2579.25
1000.589	2640.25
1000.809	2498.25
1001.028	2627.25
1001.247	2564.25
1001.466	2411.25
1001.685	2571.25
1001.904	2503.25
1002.123	2504.25
1002.342	2480.25
1002.561	2383.25
1002.78	2436.25
1002.999	2475.25
1003.218	2397.25
1003.436	2370.25
1003.655	2441.25
1003.874	2363.25
1004.092	2348.25
1004.311	2417.25
1004.53	2352.25
1004.748	2431.25
1004.966	2324.25
1005.185	2374.25
1005.403	2377.25
1005.622	2369.25
1005.84	2417.25
1006.058	2288.25
1006.276	2342.25
1006.494	2805.25
1006.712	2328.25
1006.931	2394.25
1007.149	2290.25
1007.367	2292.25
1007.584	2324.25
1007.802	2390.25
1008.02	2358.25
1008.238	2427.25
1008.456	2410.25
1008.673	2271.25
1008.891	2407.25
1009.109	2407.25
1009.326	2412.25
1009.544	2545.25
1009.761	2471.25
1009.979	2604.25
1010.196	2592.25
1010.413	2745.25
1010.631	2830.25
1010.848	2878.25
1011.065	2876.25
1011.282	2874.25
1011.5	2805.25
1011.717	2916.25
1011.934	2836.25
1012.151	2897.25
1012.368	2906.25
1012.585	2830.25
1012.801	2890.25
1013.018	2887.25
1013.235	2906.25
1013.452	2969.25
1013.669	3017.25
1013.885	2976.25
1014.102	2957.25
1014.318	2884.25
1014.535	2842.25
1014.751	2860.25
1014.968	2847.25
1015.184	2855.25
1015.401	2766.25
1015.617	2799.25
1015.833	2744.25
1016.049	2730.25
1016.266	2715.25
1016.482	2691.25
1016.698	2581.25
1016.914	2660.25
1017.13	2635.25
1017.346	2605.25
1017.562	2660.25
1017.778	2576.25
1017.993	2558.25
1018.209	2634.25
1018.425	2613.25
1018.641	2558.25
1018.856	2523.25
1019.072	2592.25
1019.288	2639.25
1019.503	2588.25
1019.719	2496.25
1019.934	2549.25
1020.149	2562.25
1020.365	2531.25
1020.58	2491.25
1020.795	2476.25
1021.011	2377.25
1021.226	2327.25
1021.441	2338.25
1021.656	2236.25
1021.871	2134.25
1022.086	2155.25
1022.301	2094.25
1022.516	2062.25
1022.731	2090.25
1022.946	2018.25
1023.16	1967.25
1023.375	1941.25
1023.59	1899.25
1023.804	1857.25
1024.019	1919.25
1024.234	1766.25
1024.448	1817.25
1024.663	1755.25
1024.877	1715.25
1025.092	1682.25
1025.306	1687.25
1025.52	1592.25
1025.734	1641.25
1025.949	1558.25
1026.163	1502.25
1026.377	1436.25
1026.591	1463.25
1026.805	1379.25
1027.019	1364.25
1027.233	1329.25
1027.447	1241.25
1027.661	1349.25
1027.875	1286.25
1028.088	1306.25
1028.302	1192.25
1028.516	1177.25
1028.73	1147.25
1028.943	1135.25
1029.157	1056.25
1029.37	992.25
1029.584	-3.75
1029.797	-3.75
1030.011	-2.75
1030.224	2.25
