Data from QEP037381__82__15-22-55-864.txt Node

Date: Fri Dec 16 15:22:55 EST 2022
User: dcclab
Spectrometer: QEP03738
Trigger mode: 4
Integration Time (sec): 1.000000E1
Scans to average: 1
Electric dark correction enabled: true
Nonlinearity correction enabled: false
Boxcar width: 0
XAxis mode: Wavelengths
Number of Pixels in Spectrum: 1044
>>>>>Begin Spectral Data<<<<<
784.041	13.38
784.3	-2.62
784.558	-2.62
784.817	-1.62
785.075	89590.38
785.334	15555.38
785.592	7318.38
785.851	4998.38
786.109	3787.38
786.368	2958.38
786.626	2389.38
786.884	1992.38
787.143	1680.38
787.401	1399.38
787.659	1274.38
787.917	1084.38
788.175	1008.38
788.433	887.38
788.691	809.38
788.949	768.38
789.207	721.38
789.465	624.38
789.723	617.38
789.98	556.38
790.238	603.38
790.496	578.38
790.753	527.38
791.011	596.38
791.268	514.38
791.526	510.38
791.783	536.38
792.041	512.38
792.298	443.38
792.556	510.38
792.813	487.38
793.07	463.38
793.327	446.38
793.584	520.38
793.841	450.38
794.099	468.38
794.356	542.38
794.613	436.38
794.869	459.38
795.126	434.38
795.383	415.38
795.64	434.38
795.897	393.38
796.153	452.38
796.41	450.38
796.667	427.38
796.923	438.38
797.18	424.38
797.436	475.38
797.693	427.38
797.949	485.38
798.206	501.38
798.462	428.38
798.718	487.38
798.974	459.38
799.231	501.38
799.487	507.38
799.743	511.38
799.999	534.38
800.255	533.38
800.511	526.38
800.767	560.38
801.023	571.38
801.279	593.38
801.534	642.38
801.79	698.38
802.046	737.38
802.302	895.38
802.557	1005.38
802.813	1293.38
803.068	1624.38
803.324	2238.38
803.579	3007.38
803.835	4218.38
804.09	5867.38
804.345	7692.38
804.601	9668.38
804.856	11742.38
805.111	13545.38
805.366	14905.38
805.621	15967.38
805.876	16732.38
806.131	17161.38
806.386	17356.38
806.641	17775.38
806.896	18020.38
807.151	18440.38
807.406	18674.38
807.661	19114.38
807.915	19328.38
808.17	19768.38
808.425	20011.38
808.679	20143.38
808.934	20590.38
809.188	20658.38
809.443	20988.38
809.697	21312.38
809.951	21329.38
810.206	21559.38
810.46	21867.38
810.714	22135.38
810.968	22359.38
811.223	22498.38
811.477	22738.38
811.731	22969.38
811.985	22969.38
812.239	23175.38
812.493	23321.38
812.747	23479.38
813	23620.38
813.254	23584.38
813.508	23788.38
813.762	23828.38
814.015	23978.38
814.269	24187.38
814.522	24430.38
814.776	24774.38
815.03	25148.38
815.283	25452.38
815.536	25811.38
815.79	26320.38
816.043	26695.38
816.296	27133.38
816.55	27489.38
816.803	27802.38
817.056	28328.38
817.309	28494.38
817.562	28719.38
817.815	29095.38
818.068	29286.38
818.321	29737.38
818.574	29928.38
818.827	30500.38
819.079	30887.38
819.332	31391.38
819.585	31666.38
819.838	32294.38
820.09	32541.38
820.343	32689.38
820.595	32936.38
820.848	33186.38
821.1	33303.38
821.353	33249.38
821.605	33269.38
821.857	33358.38
822.11	33103.38
822.362	33283.38
822.614	33134.38
822.866	33159.38
823.118	33241.38
823.37	33314.38
823.622	33462.38
823.874	33493.38
824.126	33712.38
824.378	33756.38
824.63	33832.38
824.882	33901.38
825.134	33926.38
825.385	33946.38
825.637	33816.38
825.888	33734.38
826.14	33730.38
826.392	33547.38
826.643	33449.38
826.895	33422.38
827.146	33458.38
827.397	33285.38
827.649	33317.38
827.9	33292.38
828.151	33393.38
828.402	33441.38
828.653	33566.38
828.905	33674.38
829.156	33683.38
829.407	33703.38
829.658	33731.38
829.909	33716.38
830.159	33680.38
830.41	33615.38
830.661	33418.38
830.912	33221.38
831.162	33136.38
831.413	33036.38
831.664	33179.38
831.914	33179.38
832.165	33125.38
832.415	33106.38
832.666	33112.38
832.916	33243.38
833.167	33356.38
833.417	33217.38
833.667	33064.38
833.917	33114.38
834.168	32857.38
834.418	32894.38
834.668	32855.38
834.918	32666.38
835.168	32629.38
835.418	32462.38
835.668	32428.38
835.918	32194.38
836.167	32225.38
836.417	32230.38
836.667	32200.38
836.917	32052.38
837.166	32111.38
837.416	32163.38
837.666	32170.38
837.915	32010.38
838.165	32052.38
838.414	31962.38
838.663	31910.38
838.913	31931.38
839.162	31846.38
839.411	31852.38
839.661	31653.38
839.91	31697.38
840.159	31494.38
840.408	31594.38
840.657	31652.38
840.906	31765.38
841.155	31636.38
841.404	31643.38
841.653	31743.38
841.902	31659.38
842.15	31698.38
842.399	31902.38
842.648	31700.38
842.897	31716.38
843.145	31431.38
843.394	31263.38
843.642	31038.38
843.891	31009.38
844.139	30842.38
844.388	30683.38
844.636	30629.38
844.884	30561.38
845.133	30473.38
845.381	30558.38
845.629	30581.38
845.877	30488.38
846.125	30608.38
846.373	30485.38
846.621	30454.38
846.869	30363.38
847.117	30163.38
847.365	30087.38
847.613	29887.38
847.861	29766.38
848.108	29827.38
848.356	29817.38
848.604	29772.38
848.851	29652.38
849.099	29782.38
849.346	29856.38
849.594	29997.38
849.841	30046.38
850.089	30118.38
850.336	30070.38
850.583	30275.38
850.831	29985.38
851.078	29874.38
851.325	29969.38
851.572	29880.38
851.819	29724.38
852.066	29205.38
852.313	28895.38
852.56	28662.38
852.807	28565.38
853.054	28400.38
853.301	28328.38
853.548	28571.38
853.794	28693.38
854.041	28797.38
854.288	28870.38
854.534	29190.38
854.781	29101.38
855.028	28991.38
855.274	29030.38
855.52	28902.38
855.767	28699.38
856.013	28687.38
856.26	28957.38
856.506	28405.38
856.752	28431.38
856.998	28417.38
857.244	28561.38
857.49	28745.38
857.736	28704.38
857.982	28658.38
858.228	28657.38
858.474	28534.38
858.72	28388.38
858.966	28003.38
859.212	27876.38
859.458	27560.38
859.703	27229.38
859.949	26955.38
860.195	26798.38
860.44	26847.38
860.686	26721.38
860.931	26739.38
861.177	26622.38
861.422	26555.38
861.667	26466.38
861.913	26415.38
862.158	26446.38
862.403	26443.38
862.648	26638.38
862.893	26748.38
863.138	26660.38
863.384	26595.38
863.629	26544.38
863.873	26504.38
864.118	26577.38
864.363	26336.38
864.608	26319.38
864.853	26231.38
865.098	26090.38
865.342	26126.38
865.587	25881.38
865.832	25940.38
866.076	25875.38
866.321	25806.38
866.565	25768.38
866.81	25518.38
867.054	25612.38
867.298	25509.38
867.543	25473.38
867.787	25389.38
868.031	25411.38
868.275	25334.38
868.519	25299.38
868.764	25332.38
869.008	25350.38
869.252	25232.38
869.496	25194.38
869.739	25124.38
869.983	25205.38
870.227	25122.38
870.471	24984.38
870.715	25283.38
870.958	25287.38
871.202	25239.38
871.446	25385.38
871.689	25344.38
871.933	25352.38
872.176	25330.38
872.42	25322.38
872.663	25265.38
872.906	25194.38
873.15	25048.38
873.393	25012.38
873.636	24904.38
873.879	24744.38
874.122	24464.38
874.366	24168.38
874.609	24166.38
874.852	24051.38
875.095	23732.38
875.337	23642.38
875.58	23631.38
875.823	23485.38
876.066	23642.38
876.309	23513.38
876.551	23257.38
876.794	23169.38
877.037	23250.38
877.279	23093.38
877.522	23151.38
877.764	23088.38
878.007	23106.38
878.249	23091.38
878.491	23012.38
878.734	23110.38
878.976	22936.38
879.218	22817.38
879.46	22692.38
879.702	22606.38
879.945	22406.38
880.187	22259.38
880.429	22126.38
880.671	22072.38
880.912	21942.38
881.154	21892.38
881.396	21833.38
881.638	21843.38
881.88	21907.38
882.121	21840.38
882.363	21818.38
882.605	21691.38
882.846	21617.38
883.088	21607.38
883.329	21659.38
883.571	21646.38
883.812	21836.38
884.053	22077.38
884.295	22387.38
884.536	22449.38
884.777	22420.38
885.018	22410.38
885.259	22356.38
885.5	22279.38
885.742	22508.38
885.982	22193.38
886.223	22013.38
886.464	21923.38
886.705	21570.38
886.946	21584.38
887.187	21160.38
887.428	21024.38
887.668	20688.38
887.909	20400.38
888.15	20319.38
888.39	20273.38
888.631	20076.38
888.871	20041.38
889.111	19860.38
889.352	19644.38
889.592	19363.38
889.833	19422.38
890.073	19313.38
890.313	19343.38
890.553	19079.38
890.793	19025.38
891.033	18929.38
891.273	18823.38
891.513	18689.38
891.753	18839.38
891.993	18824.38
892.233	18798.38
892.473	18888.38
892.713	18892.38
892.952	18853.38
893.192	18936.38
893.432	18896.38
893.671	18908.38
893.911	18760.38
894.15	18656.38
894.39	18410.38
894.629	18452.38
894.869	18352.38
895.108	18410.38
895.347	18220.38
895.587	18190.38
895.826	18197.38
896.065	18073.38
896.304	18276.38
896.543	18244.38
896.782	18003.38
897.021	18156.38
897.26	18069.38
897.499	18049.38
897.738	17954.38
897.977	17865.38
898.216	17839.38
898.454	17702.38
898.693	17577.38
898.932	17662.38
899.17	17503.38
899.409	17359.38
899.647	17362.38
899.886	17439.38
900.124	17499.38
900.363	17429.38
900.601	17414.38
900.839	17435.38
901.078	17532.38
901.316	17674.38
901.554	17721.38
901.792	17855.38
902.03	17820.38
902.268	17747.38
902.506	17868.38
902.744	17605.38
902.982	17449.38
903.22	17233.38
903.458	17083.38
903.695	16726.38
903.933	16519.38
904.171	16266.38
904.409	16031.38
904.646	15937.38
904.884	15593.38
905.121	15416.38
905.359	15262.38
905.596	15156.38
905.833	14938.38
906.071	14870.38
906.308	14967.38
906.545	14841.38
906.783	14691.38
907.02	14810.38
907.257	14717.38
907.494	14613.38
907.731	14556.38
907.968	14469.38
908.205	14407.38
908.442	14337.38
908.679	14192.38
908.915	14146.38
909.152	14086.38
909.389	13859.38
909.626	13776.38
909.862	13751.38
910.099	13622.38
910.335	13710.38
910.572	13575.38
910.808	13506.38
911.045	13461.38
911.281	13363.38
911.518	13417.38
911.754	13354.38
911.99	13276.38
912.226	13084.38
912.463	13032.38
912.699	12946.38
912.935	12792.38
913.171	12848.38
913.407	12577.38
913.643	12588.38
913.879	12477.38
914.114	12402.38
914.35	12203.38
914.586	12172.38
914.822	11928.38
915.057	12047.38
915.293	11867.38
915.529	11836.38
915.764	11837.38
916	11879.38
916.235	11757.38
916.471	11777.38
916.706	11706.38
916.941	11736.38
917.177	11657.38
917.412	11717.38
917.647	11645.38
917.882	11653.38
918.117	11610.38
918.352	11625.38
918.588	11636.38
918.823	11472.38
919.057	11370.38
919.292	11227.38
919.527	11187.38
919.762	11024.38
919.997	11026.38
920.232	10807.38
920.466	10782.38
920.701	10617.38
920.935	10602.38
921.17	10549.38
921.405	10518.38
921.639	10508.38
921.873	10359.38
922.108	10396.38
922.342	10407.38
922.576	10279.38
922.811	10271.38
923.045	10350.38
923.279	10216.38
923.513	10093.38
923.747	10122.38
923.981	10065.38
924.215	10009.38
924.449	9914.38
924.683	9854.38
924.917	9787.38
925.151	9723.38
925.385	9849.38
925.618	9766.38
925.852	9722.38
926.086	9643.38
926.319	9709.38
926.553	9623.38
926.786	9599.38
927.02	9676.38
927.253	9653.38
927.486	9579.38
927.72	9482.38
927.953	9616.38
928.186	9489.38
928.42	9460.38
928.653	9381.38
928.886	9408.38
929.119	9365.38
929.352	9358.38
929.585	9272.38
929.818	9186.38
930.051	9174.38
930.284	9108.38
930.516	8964.38
930.749	8898.38
930.982	8990.38
931.215	8899.38
931.447	8834.38
931.68	8752.38
931.912	8740.38
932.145	8810.38
932.377	8760.38
932.61	8960.38
932.842	8708.38
933.074	8806.38
933.307	8685.38
933.539	8784.38
933.771	8795.38
934.003	8738.38
934.236	8746.38
934.468	8775.38
934.7	8681.38
934.932	8656.38
935.164	8578.38
935.395	8523.38
935.627	8590.38
935.859	8531.38
936.091	8498.38
936.323	8495.38
936.554	8500.38
936.786	8432.38
937.017	8409.38
937.249	8354.38
937.481	8346.38
937.712	8392.38
937.943	8352.38
938.175	8317.38
938.406	8288.38
938.637	8336.38
938.869	8254.38
939.1	8266.38
939.331	8238.38
939.562	8234.38
939.793	8180.38
940.024	8184.38
940.255	8119.38
940.486	8076.38
940.717	8037.38
940.948	8033.38
941.179	7974.38
941.409	7956.38
941.64	7922.38
941.871	7975.38
942.102	7890.38
942.332	7899.38
942.563	7907.38
942.793	7910.38
943.024	7898.38
943.254	7885.38
943.484	7959.38
943.715	7940.38
943.945	7866.38
944.175	7805.38
944.405	7853.38
944.636	7756.38
944.866	7790.38
945.096	7794.38
945.326	7672.38
945.556	7751.38
945.786	7733.38
946.016	7657.38
946.245	7560.38
946.475	7544.38
946.705	7452.38
946.935	7500.38
947.164	7427.38
947.394	7379.38
947.624	7405.38
947.853	7390.38
948.083	7301.38
948.312	7273.38
948.542	7197.38
948.771	7183.38
949	7182.38
949.23	7158.38
949.459	7151.38
949.688	7247.38
949.917	7114.38
950.146	7141.38
950.375	7166.38
950.604	7032.38
950.833	7151.38
951.062	7190.38
951.291	7108.38
951.52	7067.38
951.749	7045.38
951.978	6970.38
952.206	6930.38
952.435	6928.38
952.664	6984.38
952.892	6936.38
953.121	6881.38
953.349	6863.38
953.578	6857.38
953.806	6810.38
954.035	6752.38
954.263	6747.38
954.491	6663.38
954.719	6643.38
954.948	6608.38
955.176	6577.38
955.404	6476.38
955.632	6568.38
955.86	6572.38
956.088	6488.38
956.316	6454.38
956.544	6475.38
956.772	6353.38
956.999	6327.38
957.227	6359.38
957.455	6270.38
957.683	6232.38
957.91	6217.38
958.138	6177.38
958.365	6163.38
958.593	6139.38
958.82	6040.38
959.048	6149.38
959.275	6133.38
959.502	6064.38
959.73	6017.38
959.957	6070.38
960.184	6050.38
960.411	5976.38
960.638	6049.38
960.865	5992.38
961.092	5970.38
961.319	5867.38
961.546	5955.38
961.773	6030.38
962	5925.38
962.227	5972.38
962.454	5905.38
962.68	5884.38
962.907	5911.38
963.134	5766.38
963.36	5821.38
963.587	5799.38
963.813	5716.38
964.04	5700.38
964.266	5594.38
964.493	5686.38
964.719	5638.38
964.945	5645.38
965.171	5471.38
965.398	5477.38
965.624	5507.38
965.85	5457.38
966.076	5378.38
966.302	5427.38
966.528	5403.38
966.754	5388.38
966.98	5348.38
967.206	5324.38
967.431	5253.38
967.657	5413.38
967.883	5294.38
968.109	5288.38
968.334	5202.38
968.56	5191.38
968.785	5182.38
969.011	5155.38
969.236	5233.38
969.462	5158.38
969.687	5161.38
969.912	5202.38
970.138	5167.38
970.363	5084.38
970.588	5094.38
970.813	4964.38
971.038	5011.38
971.263	4982.38
971.488	5010.38
971.713	4982.38
971.938	4964.38
972.163	4891.38
972.388	4903.38
972.613	4887.38
972.838	4815.38
973.062	4853.38
973.287	4794.38
973.512	4697.38
973.736	4802.38
973.961	4732.38
974.185	4696.38
974.41	4707.38
974.634	4571.38
974.858	4610.38
975.083	4549.38
975.307	4641.38
975.531	4493.38
975.755	4468.38
975.98	4497.38
976.204	4402.38
976.428	4367.38
976.652	4403.38
976.876	4402.38
977.1	4409.38
977.324	4346.38
977.547	4363.38
977.771	4372.38
977.995	4297.38
978.219	4211.38
978.442	4337.38
978.666	4253.38
978.89	4260.38
979.113	4248.38
979.337	4230.38
979.56	4166.38
979.783	4294.38
980.007	4131.38
980.23	4175.38
980.453	4153.38
980.677	4151.38
980.9	4113.38
981.123	4031.38
981.346	4119.38
981.569	4048.38
981.792	4086.38
982.015	3976.38
982.238	3948.38
982.461	3960.38
982.684	3880.38
982.907	3891.38
983.129	3863.38
983.352	3946.38
983.575	3863.38
983.797	3834.38
984.02	3800.38
984.242	3767.38
984.465	3780.38
984.687	3767.38
984.91	3820.38
985.132	3755.38
985.354	3759.38
985.577	3690.38
985.799	3694.38
986.021	3570.38
986.243	3608.38
986.465	3613.38
986.687	3697.38
986.909	3704.38
987.131	3588.38
987.353	3552.38
987.575	3603.38
987.797	3574.38
988.019	3503.38
988.241	3561.38
988.462	3485.38
988.684	3530.38
988.906	3559.38
989.127	3574.38
989.349	3432.38
989.57	3457.38
989.792	3484.38
990.013	3452.38
990.234	3473.38
990.456	3486.38
990.677	3460.38
990.898	3446.38
991.119	3390.38
991.341	3359.38
991.562	3297.38
991.783	3340.38
992.004	3282.38
992.225	3236.38
992.446	3308.38
992.667	3189.38
992.887	3277.38
993.108	3159.38
993.329	3269.38
993.55	3188.38
993.77	3147.38
993.991	3108.38
994.212	3137.38
994.432	3117.38
994.653	3092.38
994.873	3096.38
995.093	2940.38
995.314	3028.38
995.534	3058.38
995.754	3051.38
995.975	3045.38
996.195	2964.38
996.415	3013.38
996.635	2974.38
996.855	3006.38
997.075	2999.38
997.295	2956.38
997.515	2957.38
997.735	2997.38
997.955	2946.38
998.174	2909.38
998.394	2916.38
998.614	2925.38
998.834	2862.38
999.053	2965.38
999.273	2936.38
999.492	2900.38
999.712	2864.38
999.931	2821.38
1000.151	2865.38
1000.37	2839.38
1000.589	2881.38
1000.809	2810.38
1001.028	2890.38
1001.247	2829.38
1001.466	2673.38
1001.685	2789.38
1001.904	2734.38
1002.123	2734.38
1002.342	2723.38
1002.561	2657.38
1002.78	2680.38
1002.999	2762.38
1003.218	2645.38
1003.436	2612.38
1003.655	2648.38
1003.874	2622.38
1004.092	2616.38
1004.311	2639.38
1004.53	2630.38
1004.748	2628.38
1004.966	2566.38
1005.185	2601.38
1005.403	2606.38
1005.622	2577.38
1005.84	2641.38
1006.058	2555.38
1006.276	2571.38
1006.494	3105.38
1006.712	2588.38
1006.931	2624.38
1007.149	2533.38
1007.367	2572.38
1007.584	2612.38
1007.802	2597.38
1008.02	2580.38
1008.238	2679.38
1008.456	2643.38
1008.673	2504.38
1008.891	2646.38
1009.109	2604.38
1009.326	2694.38
1009.544	2765.38
1009.761	2705.38
1009.979	2822.38
1010.196	2900.38
1010.413	2974.38
1010.631	3065.38
1010.848	3156.38
1011.065	3172.38
1011.282	3124.38
1011.5	3103.38
1011.717	3157.38
1011.934	3107.38
1012.151	3143.38
1012.368	3162.38
1012.585	3045.38
1012.801	3080.38
1013.018	3077.38
1013.235	3078.38
1013.452	3079.38
1013.669	3078.38
1013.885	3121.38
1014.102	3131.38
1014.318	3092.38
1014.535	3057.38
1014.751	3091.38
1014.968	3060.38
1015.184	3107.38
1015.401	2980.38
1015.617	2991.38
1015.833	2918.38
1016.049	2942.38
1016.266	2883.38
1016.482	2911.38
1016.698	2798.38
1016.914	2829.38
1017.13	2769.38
1017.346	2770.38
1017.562	2812.38
1017.778	2780.38
1017.993	2714.38
1018.209	2797.38
1018.425	2769.38
1018.641	2731.38
1018.856	2736.38
1019.072	2769.38
1019.288	2769.38
1019.503	2758.38
1019.719	2657.38
1019.934	2698.38
1020.149	2738.38
1020.365	2638.38
1020.58	2559.38
1020.795	2625.38
1021.011	2532.38
1021.226	2482.38
1021.441	2467.38
1021.656	2372.38
1021.871	2276.38
1022.086	2267.38
1022.301	2253.38
1022.516	2221.38
1022.731	2207.38
1022.946	2123.38
1023.16	2086.38
1023.375	2082.38
1023.59	2018.38
1023.804	2004.38
1024.019	2046.38
1024.234	1914.38
1024.448	1937.38
1024.663	1831.38
1024.877	1810.38
1025.092	1826.38
1025.306	1832.38
1025.52	1699.38
1025.734	1787.38
1025.949	1692.38
1026.163	1605.38
1026.377	1563.38
1026.591	1584.38
1026.805	1486.38
1027.019	1464.38
1027.233	1412.38
1027.447	1355.38
1027.661	1455.38
1027.875	1379.38
1028.088	1373.38
1028.302	1287.38
1028.516	1254.38
1028.73	1255.38
1028.943	1211.38
1029.157	1125.38
1029.37	1079.38
1029.584	-3.62
1029.797	0.38
1030.011	-0.62
1030.224	-2.62
