Data from QEP037381__51__15-17-45-859.txt Node

Date: Fri Dec 16 15:17:45 EST 2022
User: dcclab
Spectrometer: QEP03738
Trigger mode: 4
Integration Time (sec): 1.000000E1
Scans to average: 1
Electric dark correction enabled: true
Nonlinearity correction enabled: false
Boxcar width: 0
XAxis mode: Wavelengths
Number of Pixels in Spectrum: 1044
>>>>>Begin Spectral Data<<<<<
784.041	12.75
784.3	-1.25
784.558	-1.25
784.817	-6.25
785.075	91944.75
785.334	15613.75
785.592	7260.75
785.851	4978.75
786.109	3780.75
786.368	2926.75
786.626	2402.75
786.884	1948.75
787.143	1671.75
787.401	1375.75
787.659	1261.75
787.917	1091.75
788.175	991.75
788.433	889.75
788.691	794.75
788.949	736.75
789.207	729.75
789.465	629.75
789.723	600.75
789.98	560.75
790.238	595.75
790.496	575.75
790.753	544.75
791.011	596.75
791.268	534.75
791.526	509.75
791.783	531.75
792.041	512.75
792.298	440.75
792.556	487.75
792.813	476.75
793.07	449.75
793.327	446.75
793.584	528.75
793.841	460.75
794.099	488.75
794.356	527.75
794.613	449.75
794.869	473.75
795.126	423.75
795.383	418.75
795.64	446.75
795.897	396.75
796.153	454.75
796.41	454.75
796.667	436.75
796.923	421.75
797.18	440.75
797.436	471.75
797.693	434.75
797.949	489.75
798.206	526.75
798.462	426.75
798.718	493.75
798.974	466.75
799.231	500.75
799.487	510.75
799.743	513.75
799.999	536.75
800.255	531.75
800.511	522.75
800.767	573.75
801.023	574.75
801.279	596.75
801.534	659.75
801.79	711.75
802.046	743.75
802.302	911.75
802.557	1052.75
802.813	1336.75
803.068	1665.75
803.324	2313.75
803.579	3108.75
803.835	4394.75
804.09	6010.75
804.345	8002.75
804.601	10169.75
804.856	12333.75
805.111	14372.75
805.366	15859.75
805.621	17009.75
805.876	17612.75
806.131	18206.75
806.386	18570.75
806.641	18815.75
806.896	19169.75
807.151	19606.75
807.406	19996.75
807.661	20454.75
807.915	20807.75
808.17	21108.75
808.425	21370.75
808.679	21638.75
808.934	21908.75
809.188	22150.75
809.443	22476.75
809.697	22710.75
809.951	22925.75
810.206	23106.75
810.46	23488.75
810.714	23655.75
810.968	23933.75
811.223	24111.75
811.477	24265.75
811.731	24576.75
811.985	24747.75
812.239	24871.75
812.493	25076.75
812.747	25231.75
813	25248.75
813.254	25407.75
813.508	25470.75
813.762	25709.75
814.015	25835.75
814.269	25981.75
814.522	26309.75
814.776	26614.75
815.03	26968.75
815.283	27481.75
815.536	27942.75
815.79	28365.75
816.043	28731.75
816.296	29302.75
816.55	29577.75
816.803	29951.75
817.056	30415.75
817.309	30649.75
817.562	30929.75
817.815	31381.75
818.068	31844.75
818.321	31994.75
818.574	32590.75
818.827	33001.75
819.079	33360.75
819.332	33957.75
819.585	34357.75
819.838	34883.75
820.09	35009.75
820.343	35388.75
820.595	35664.75
820.848	35882.75
821.1	36060.75
821.353	36066.75
821.605	36042.75
821.857	36053.75
822.11	35929.75
822.362	35881.75
822.614	35808.75
822.866	35818.75
823.118	35809.75
823.37	36076.75
823.622	36217.75
823.874	36110.75
824.126	36243.75
824.378	36413.75
824.63	36647.75
824.882	36651.75
825.134	36737.75
825.385	36635.75
825.637	36603.75
825.888	36549.75
826.14	36414.75
826.392	36369.75
826.643	36072.75
826.895	36138.75
827.146	36026.75
827.397	36008.75
827.649	36083.75
827.9	35917.75
828.151	36081.75
828.402	36173.75
828.653	36233.75
828.905	36320.75
829.156	36521.75
829.407	36572.75
829.658	36499.75
829.909	36424.75
830.159	36540.75
830.41	36321.75
830.661	36184.75
830.912	35926.75
831.162	35877.75
831.413	35848.75
831.664	35902.75
831.914	35765.75
832.165	35887.75
832.415	35809.75
832.666	35881.75
832.916	35995.75
833.167	35985.75
833.417	35921.75
833.667	35846.75
833.917	35646.75
834.168	35567.75
834.418	35600.75
834.668	35428.75
834.918	35246.75
835.168	35159.75
835.418	35081.75
835.668	34803.75
835.918	34945.75
836.167	35061.75
836.417	34961.75
836.667	34839.75
836.917	34630.75
837.166	34636.75
837.416	34590.75
837.666	34735.75
837.915	34729.75
838.165	34562.75
838.414	34458.75
838.663	34482.75
838.913	34352.75
839.162	34414.75
839.411	34343.75
839.661	34194.75
839.91	34246.75
840.159	33915.75
840.408	34018.75
840.657	34168.75
840.906	34183.75
841.155	34250.75
841.404	34144.75
841.653	34268.75
841.902	34160.75
842.15	34219.75
842.399	34337.75
842.648	34316.75
842.897	34098.75
843.145	33899.75
843.394	33768.75
843.642	33709.75
843.891	33487.75
844.139	33432.75
844.388	33183.75
844.636	32988.75
844.884	32983.75
845.133	33133.75
845.381	33153.75
845.629	32986.75
845.877	33077.75
846.125	32960.75
846.373	32975.75
846.621	32882.75
846.869	32656.75
847.117	32664.75
847.365	32382.75
847.613	32363.75
847.861	32157.75
848.108	32233.75
848.356	32026.75
848.604	32083.75
848.851	32167.75
849.099	32203.75
849.346	32115.75
849.594	32335.75
849.841	32612.75
850.089	32571.75
850.336	32541.75
850.583	32601.75
850.831	32430.75
851.078	32259.75
851.325	32280.75
851.572	32383.75
851.819	32127.75
852.066	31410.75
852.313	31049.75
852.56	30933.75
852.807	30809.75
853.054	30689.75
853.301	30605.75
853.548	30694.75
853.794	30913.75
854.041	30922.75
854.288	30960.75
854.534	31250.75
854.781	31284.75
855.028	31110.75
855.274	31213.75
855.52	31004.75
855.767	30776.75
856.013	30679.75
856.26	30979.75
856.506	30661.75
856.752	30628.75
856.998	30577.75
857.244	30709.75
857.49	30975.75
857.736	30823.75
857.982	30817.75
858.228	30882.75
858.474	30605.75
858.72	30476.75
858.966	30249.75
859.212	29878.75
859.458	29732.75
859.703	29321.75
859.949	29133.75
860.195	28921.75
860.44	28869.75
860.686	28667.75
860.931	28709.75
861.177	28613.75
861.422	28549.75
861.667	28444.75
861.913	28498.75
862.158	28541.75
862.403	28737.75
862.648	28651.75
862.893	28767.75
863.138	28828.75
863.384	28659.75
863.629	28640.75
863.873	28627.75
864.118	28502.75
864.363	28410.75
864.608	28450.75
864.853	28182.75
865.098	28167.75
865.342	27989.75
865.587	27911.75
865.832	27991.75
866.076	27981.75
866.321	27861.75
866.565	27781.75
866.81	27644.75
867.054	27606.75
867.298	27439.75
867.543	27359.75
867.787	27327.75
868.031	27335.75
868.275	27403.75
868.519	27264.75
868.764	27278.75
869.008	27203.75
869.252	27290.75
869.496	27157.75
869.739	27121.75
869.983	27085.75
870.227	27058.75
870.471	27061.75
870.715	27025.75
870.958	27214.75
871.202	27195.75
871.446	27215.75
871.689	27157.75
871.933	27328.75
872.176	27230.75
872.42	27132.75
872.663	27069.75
872.906	26913.75
873.15	26807.75
873.393	26705.75
873.636	26579.75
873.879	26426.75
874.122	26147.75
874.366	25910.75
874.609	25787.75
874.852	25656.75
875.095	25535.75
875.337	25414.75
875.58	25400.75
875.823	25296.75
876.066	25214.75
876.309	25153.75
876.551	24943.75
876.794	24958.75
877.037	24925.75
877.279	24735.75
877.522	24829.75
877.764	24797.75
878.007	24690.75
878.249	24768.75
878.491	24659.75
878.734	24774.75
878.976	24652.75
879.218	24583.75
879.46	24397.75
879.702	24244.75
879.945	24210.75
880.187	23921.75
880.429	23837.75
880.671	23709.75
880.912	23502.75
881.154	23517.75
881.396	23522.75
881.638	23534.75
881.88	23528.75
882.121	23494.75
882.363	23441.75
882.605	23492.75
882.846	23408.75
883.088	23335.75
883.329	23202.75
883.571	23112.75
883.812	23196.75
884.053	23418.75
884.295	23690.75
884.536	23741.75
884.777	23749.75
885.018	23640.75
885.259	23829.75
885.5	23720.75
885.742	23820.75
885.982	23525.75
886.223	23400.75
886.464	23317.75
886.705	23073.75
886.946	22937.75
887.187	22700.75
887.428	22577.75
887.668	22250.75
887.909	21989.75
888.15	21733.75
888.39	21744.75
888.631	21579.75
888.871	21450.75
889.111	21276.75
889.352	21104.75
889.592	21060.75
889.833	20910.75
890.073	20777.75
890.313	20699.75
890.553	20519.75
890.793	20332.75
891.033	20366.75
891.273	20232.75
891.513	20255.75
891.753	20261.75
891.993	20200.75
892.233	20248.75
892.473	20414.75
892.713	20446.75
892.952	20319.75
893.192	20275.75
893.432	20301.75
893.671	20214.75
893.911	20280.75
894.15	20065.75
894.39	19904.75
894.629	19815.75
894.869	19830.75
895.108	19741.75
895.347	19658.75
895.587	19521.75
895.826	19528.75
896.065	19470.75
896.304	19577.75
896.543	19475.75
896.782	19351.75
897.021	19413.75
897.26	19394.75
897.499	19451.75
897.738	19380.75
897.977	19120.75
898.216	19064.75
898.454	18920.75
898.693	18856.75
898.932	18808.75
899.17	18772.75
899.409	18740.75
899.647	18675.75
899.886	18703.75
900.124	18812.75
900.363	18720.75
900.601	18745.75
900.839	18773.75
901.078	18860.75
901.316	18905.75
901.554	18969.75
901.792	19063.75
902.03	18992.75
902.268	18992.75
902.506	18879.75
902.744	18684.75
902.982	18615.75
903.22	18354.75
903.458	18176.75
903.695	17952.75
903.933	17758.75
904.171	17316.75
904.409	17206.75
904.646	16972.75
904.884	16718.75
905.121	16614.75
905.359	16409.75
905.596	16263.75
905.833	16084.75
906.071	16027.75
906.308	15918.75
906.545	15818.75
906.783	15805.75
907.02	16004.75
907.257	15692.75
907.494	15655.75
907.731	15702.75
907.968	15487.75
908.205	15519.75
908.442	15371.75
908.679	15386.75
908.915	15148.75
909.152	15053.75
909.389	14907.75
909.626	14862.75
909.862	14725.75
910.099	14795.75
910.335	14711.75
910.572	14611.75
910.808	14591.75
911.045	14447.75
911.281	14348.75
911.518	14413.75
911.754	14357.75
911.99	14207.75
912.226	14067.75
912.463	13968.75
912.699	13981.75
912.935	13826.75
913.171	13694.75
913.407	13624.75
913.643	13551.75
913.879	13477.75
914.114	13274.75
914.35	13120.75
914.586	13110.75
914.822	12931.75
915.057	12982.75
915.293	12707.75
915.529	12701.75
915.764	12842.75
916	12656.75
916.235	12745.75
916.471	12711.75
916.706	12633.75
916.941	12602.75
917.177	12571.75
917.412	12697.75
917.647	12643.75
917.882	12533.75
918.117	12633.75
918.352	12468.75
918.588	12595.75
918.823	12285.75
919.057	12162.75
919.292	12077.75
919.527	12117.75
919.762	11876.75
919.997	11826.75
920.232	11660.75
920.466	11619.75
920.701	11491.75
920.935	11510.75
921.17	11393.75
921.405	11300.75
921.639	11321.75
921.873	11212.75
922.108	11171.75
922.342	11190.75
922.576	11045.75
922.811	11029.75
923.045	11031.75
923.279	11091.75
923.513	10820.75
923.747	10909.75
923.981	10786.75
924.215	10726.75
924.449	10694.75
924.683	10576.75
924.917	10509.75
925.151	10526.75
925.385	10564.75
925.618	10515.75
925.852	10430.75
926.086	10333.75
926.319	10404.75
926.553	10401.75
926.786	10464.75
927.02	10329.75
927.253	10358.75
927.486	10343.75
927.72	10259.75
927.953	10339.75
928.186	10262.75
928.42	10268.75
928.653	10228.75
928.886	10094.75
929.119	10051.75
929.352	10061.75
929.585	9997.75
929.818	9906.75
930.051	9844.75
930.284	9821.75
930.516	9663.75
930.749	9633.75
930.982	9606.75
931.215	9607.75
931.447	9510.75
931.68	9442.75
931.912	9437.75
932.145	9441.75
932.377	9491.75
932.61	9632.75
932.842	9391.75
933.074	9507.75
933.307	9391.75
933.539	9456.75
933.771	9416.75
934.003	9358.75
934.236	9430.75
934.468	9386.75
934.7	9353.75
934.932	9367.75
935.164	9297.75
935.395	9231.75
935.627	9193.75
935.859	9299.75
936.091	9158.75
936.323	9220.75
936.554	9221.75
936.786	9164.75
937.017	9034.75
937.249	9048.75
937.481	8926.75
937.712	8958.75
937.943	8975.75
938.175	8956.75
938.406	8920.75
938.637	8939.75
938.869	8853.75
939.1	8890.75
939.331	8895.75
939.562	8850.75
939.793	8773.75
940.024	8831.75
940.255	8743.75
940.486	8656.75
940.717	8679.75
940.948	8589.75
941.179	8540.75
941.409	8578.75
941.64	8532.75
941.871	8573.75
942.102	8518.75
942.332	8488.75
942.563	8581.75
942.793	8556.75
943.024	8472.75
943.254	8539.75
943.484	8450.75
943.715	8498.75
943.945	8496.75
944.175	8439.75
944.405	8406.75
944.636	8418.75
944.866	8440.75
945.096	8455.75
945.326	8235.75
945.556	8375.75
945.786	8345.75
946.016	8202.75
946.245	8157.75
946.475	8076.75
946.705	8070.75
946.935	8065.75
947.164	8014.75
947.394	7943.75
947.624	7896.75
947.853	7893.75
948.083	7860.75
948.312	7820.75
948.542	7741.75
948.771	7743.75
949	7685.75
949.23	7696.75
949.459	7656.75
949.688	7746.75
949.917	7762.75
950.146	7715.75
950.375	7683.75
950.604	7626.75
950.833	7665.75
951.062	7697.75
951.291	7587.75
951.52	7561.75
951.749	7544.75
951.978	7516.75
952.206	7483.75
952.435	7451.75
952.664	7533.75
952.892	7420.75
953.121	7396.75
953.349	7360.75
953.578	7361.75
953.806	7296.75
954.035	7252.75
954.263	7196.75
954.491	7199.75
954.719	7192.75
954.948	7152.75
955.176	7097.75
955.404	6973.75
955.632	7025.75
955.86	6999.75
956.088	6930.75
956.316	6994.75
956.544	6982.75
956.772	6820.75
956.999	6865.75
957.227	6929.75
957.455	6711.75
957.683	6797.75
957.91	6665.75
958.138	6610.75
958.365	6645.75
958.593	6631.75
958.82	6564.75
959.048	6649.75
959.275	6592.75
959.502	6547.75
959.73	6533.75
959.957	6468.75
960.184	6492.75
960.411	6441.75
960.638	6497.75
960.865	6365.75
961.092	6379.75
961.319	6316.75
961.546	6465.75
961.773	6437.75
962	6372.75
962.227	6409.75
962.454	6349.75
962.68	6328.75
962.907	6300.75
963.134	6175.75
963.36	6182.75
963.587	6211.75
963.813	6141.75
964.04	6093.75
964.266	6026.75
964.493	6108.75
964.719	6053.75
964.945	6035.75
965.171	5878.75
965.398	5908.75
965.624	5914.75
965.85	5842.75
966.076	5834.75
966.302	5847.75
966.528	5733.75
966.754	5747.75
966.98	5742.75
967.206	5760.75
967.431	5646.75
967.657	5682.75
967.883	5664.75
968.109	5645.75
968.334	5587.75
968.56	5605.75
968.785	5586.75
969.011	5579.75
969.236	5557.75
969.462	5517.75
969.687	5470.75
969.912	5493.75
970.138	5532.75
970.363	5446.75
970.588	5405.75
970.813	5369.75
971.038	5370.75
971.263	5387.75
971.488	5371.75
971.713	5404.75
971.938	5375.75
972.163	5245.75
972.388	5253.75
972.613	5212.75
972.838	5236.75
973.062	5184.75
973.287	5140.75
973.512	5082.75
973.736	5080.75
973.961	5064.75
974.185	5013.75
974.41	5058.75
974.634	4912.75
974.858	4966.75
975.083	4969.75
975.307	4964.75
975.531	4822.75
975.755	4806.75
975.98	4789.75
976.204	4681.75
976.428	4747.75
976.652	4674.75
976.876	4654.75
977.1	4645.75
977.324	4644.75
977.547	4688.75
977.771	4650.75
977.995	4623.75
978.219	4562.75
978.442	4633.75
978.666	4582.75
978.89	4597.75
979.113	4549.75
979.337	4540.75
979.56	4470.75
979.783	4553.75
980.007	4467.75
980.23	4461.75
980.453	4395.75
980.677	4412.75
980.9	4395.75
981.123	4337.75
981.346	4375.75
981.569	4352.75
981.792	4387.75
982.015	4278.75
982.238	4255.75
982.461	4275.75
982.684	4163.75
982.907	4094.75
983.129	4166.75
983.352	4176.75
983.575	4099.75
983.797	4109.75
984.02	4041.75
984.242	4042.75
984.465	4022.75
984.687	4054.75
984.91	4016.75
985.132	3974.75
985.354	3994.75
985.577	3952.75
985.799	3918.75
986.021	3875.75
986.243	3874.75
986.465	3872.75
986.687	3903.75
986.909	3882.75
987.131	3845.75
987.353	3791.75
987.575	3820.75
987.797	3790.75
988.019	3671.75
988.241	3768.75
988.462	3745.75
988.684	3714.75
988.906	3778.75
989.127	3835.75
989.349	3616.75
989.57	3701.75
989.792	3707.75
990.013	3733.75
990.234	3704.75
990.456	3744.75
990.677	3666.75
990.898	3609.75
991.119	3622.75
991.341	3621.75
991.562	3517.75
991.783	3591.75
992.004	3509.75
992.225	3461.75
992.446	3511.75
992.667	3393.75
992.887	3442.75
993.108	3318.75
993.329	3449.75
993.55	3391.75
993.77	3291.75
993.991	3335.75
994.212	3335.75
994.432	3282.75
994.653	3311.75
994.873	3265.75
995.093	3159.75
995.314	3198.75
995.534	3253.75
995.754	3201.75
995.975	3242.75
996.195	3154.75
996.415	3158.75
996.635	3142.75
996.855	3126.75
997.075	3118.75
997.295	3110.75
997.515	3123.75
997.735	3146.75
997.955	3089.75
998.174	3082.75
998.394	3074.75
998.614	3111.75
998.834	3071.75
999.053	3071.75
999.273	3068.75
999.492	3109.75
999.712	2995.75
999.931	2941.75
1000.151	3049.75
1000.37	2990.75
1000.589	3031.75
1000.809	2919.75
1001.028	3004.75
1001.247	2960.75
1001.466	2861.75
1001.685	2944.75
1001.904	2880.75
1002.123	2839.75
1002.342	2856.75
1002.561	2747.75
1002.78	2811.75
1002.999	2903.75
1003.218	2810.75
1003.436	2773.75
1003.655	2835.75
1003.874	2736.75
1004.092	2745.75
1004.311	2816.75
1004.53	2755.75
1004.748	2804.75
1004.966	2712.75
1005.185	2742.75
1005.403	2717.75
1005.622	2717.75
1005.84	2812.75
1006.058	2677.75
1006.276	2678.75
1006.494	3153.75
1006.712	2691.75
1006.931	2720.75
1007.149	2616.75
1007.367	2652.75
1007.584	2675.75
1007.802	2714.75
1008.02	2668.75
1008.238	2769.75
1008.456	2728.75
1008.673	2602.75
1008.891	2755.75
1009.109	2706.75
1009.326	2728.75
1009.544	2831.75
1009.761	2738.75
1009.979	2850.75
1010.196	2851.75
1010.413	2976.75
1010.631	3064.75
1010.848	3069.75
1011.065	3123.75
1011.282	3043.75
1011.5	3048.75
1011.717	3153.75
1011.934	3055.75
1012.151	3057.75
1012.368	3007.75
1012.585	2993.75
1012.801	3037.75
1013.018	3025.75
1013.235	3036.75
1013.452	3018.75
1013.669	3041.75
1013.885	3013.75
1014.102	3051.75
1014.318	3037.75
1014.535	2978.75
1014.751	3021.75
1014.968	3009.75
1015.184	3046.75
1015.401	2947.75
1015.617	2927.75
1015.833	2857.75
1016.049	2887.75
1016.266	2845.75
1016.482	2850.75
1016.698	2792.75
1016.914	2794.75
1017.13	2770.75
1017.346	2730.75
1017.562	2827.75
1017.778	2727.75
1017.993	2684.75
1018.209	2780.75
1018.425	2753.75
1018.641	2721.75
1018.856	2690.75
1019.072	2762.75
1019.288	2807.75
1019.503	2758.75
1019.719	2666.75
1019.934	2658.75
1020.149	2746.75
1020.365	2664.75
1020.58	2592.75
1020.795	2600.75
1021.011	2516.75
1021.226	2496.75
1021.441	2501.75
1021.656	2362.75
1021.871	2311.75
1022.086	2256.75
1022.301	2255.75
1022.516	2187.75
1022.731	2230.75
1022.946	2123.75
1023.16	2135.75
1023.375	2052.75
1023.59	2025.75
1023.804	2019.75
1024.019	2076.75
1024.234	1937.75
1024.448	1960.75
1024.663	1884.75
1024.877	1866.75
1025.092	1859.75
1025.306	1836.75
1025.52	1740.75
1025.734	1827.75
1025.949	1701.75
1026.163	1630.75
1026.377	1566.75
1026.591	1617.75
1026.805	1560.75
1027.019	1510.75
1027.233	1437.75
1027.447	1408.75
1027.661	1475.75
1027.875	1406.75
1028.088	1386.75
1028.302	1333.75
1028.516	1287.75
1028.73	1275.75
1028.943	1236.75
1029.157	1173.75
1029.37	1074.75
1029.584	-0.25
1029.797	-3.25
1030.011	0.75
1030.224	-1.25
