Data from QEP037381__54__15-18-15-860.txt Node

Date: Fri Dec 16 15:18:15 EST 2022
User: dcclab
Spectrometer: QEP03738
Trigger mode: 4
Integration Time (sec): 1.000000E1
Scans to average: 1
Electric dark correction enabled: true
Nonlinearity correction enabled: false
Boxcar width: 0
XAxis mode: Wavelengths
Number of Pixels in Spectrum: 1044
>>>>>Begin Spectral Data<<<<<
784.041	12.12
784.3	1.12
784.558	-1.88
784.817	-5.88
785.075	88070.12
785.334	14997.12
785.592	7031.12
785.851	4789.12
786.109	3625.12
786.368	2881.12
786.626	2303.12
786.884	1937.12
787.143	1644.12
787.401	1358.12
787.659	1216.12
787.917	1051.12
788.175	976.12
788.433	869.12
788.691	770.12
788.949	730.12
789.207	708.12
789.465	613.12
789.723	594.12
789.98	542.12
790.238	584.12
790.496	559.12
790.753	527.12
791.011	566.12
791.268	521.12
791.526	507.12
791.783	523.12
792.041	490.12
792.298	410.12
792.556	495.12
792.813	467.12
793.07	446.12
793.327	444.12
793.584	518.12
793.841	433.12
794.099	454.12
794.356	511.12
794.613	408.12
794.869	462.12
795.126	418.12
795.383	405.12
795.64	423.12
795.897	371.12
796.153	427.12
796.41	434.12
796.667	396.12
796.923	428.12
797.18	423.12
797.436	432.12
797.693	411.12
797.949	468.12
798.206	480.12
798.462	395.12
798.718	460.12
798.974	443.12
799.231	465.12
799.487	473.12
799.743	475.12
799.999	494.12
800.255	492.12
800.511	482.12
800.767	516.12
801.023	525.12
801.279	553.12
801.534	570.12
801.79	628.12
802.046	633.12
802.302	776.12
802.557	850.12
802.813	1051.12
803.068	1289.12
803.324	1798.12
803.579	2398.12
803.835	3281.12
804.09	4481.12
804.345	5909.12
804.601	7403.12
804.856	8953.12
805.111	10433.12
805.366	11510.12
805.621	12325.12
805.876	12831.12
806.131	13202.12
806.386	13492.12
806.641	13729.12
806.896	14097.12
807.151	14289.12
807.406	14593.12
807.661	14824.12
807.915	15040.12
808.17	15256.12
808.425	15500.12
808.679	15620.12
808.934	15882.12
809.188	16045.12
809.443	16257.12
809.697	16385.12
809.951	16509.12
810.206	16705.12
810.46	16916.12
810.714	17043.12
810.968	17268.12
811.223	17329.12
811.477	17511.12
811.731	17670.12
811.985	17711.12
812.239	17800.12
812.493	17872.12
812.747	18115.12
813	18083.12
813.254	18216.12
813.508	18246.12
813.762	18275.12
814.015	18410.12
814.269	18543.12
814.522	18811.12
814.776	18935.12
815.03	19307.12
815.283	19553.12
815.536	19813.12
815.79	20275.12
816.043	20503.12
816.296	20689.12
816.55	20928.12
816.803	21217.12
817.056	21448.12
817.309	21686.12
817.562	21929.12
817.815	22227.12
818.068	22297.12
818.321	22631.12
818.574	22820.12
818.827	23130.12
819.079	23402.12
819.332	23853.12
819.585	24085.12
819.838	24545.12
820.09	24575.12
820.343	24877.12
820.595	24876.12
820.848	25083.12
821.1	25194.12
821.353	25248.12
821.605	25158.12
821.857	25274.12
822.11	24917.12
822.362	25005.12
822.614	25027.12
822.866	25028.12
823.118	24881.12
823.37	24986.12
823.622	25104.12
823.874	25146.12
824.126	25378.12
824.378	25446.12
824.63	25477.12
824.882	25476.12
825.134	25403.12
825.385	25509.12
825.637	25335.12
825.888	25303.12
826.14	25269.12
826.392	25220.12
826.643	25015.12
826.895	25005.12
827.146	24845.12
827.397	24836.12
827.649	24798.12
827.9	24682.12
828.151	24802.12
828.402	24785.12
828.653	24852.12
828.905	25038.12
829.156	25126.12
829.407	25000.12
829.658	25084.12
829.909	25107.12
830.159	25099.12
830.41	24927.12
830.661	24853.12
830.912	24642.12
831.162	24631.12
831.413	24656.12
831.664	24708.12
831.914	24558.12
832.165	24599.12
832.415	24510.12
832.666	24482.12
832.916	24577.12
833.167	24474.12
833.417	24558.12
833.667	24463.12
833.917	24358.12
834.168	24267.12
834.418	24228.12
834.668	24165.12
834.918	24037.12
835.168	23967.12
835.418	23863.12
835.668	23860.12
835.918	23650.12
836.167	23654.12
836.417	23503.12
836.667	23580.12
836.917	23572.12
837.166	23547.12
837.416	23548.12
837.666	23546.12
837.915	23503.12
838.165	23506.12
838.414	23370.12
838.663	23258.12
838.913	23495.12
839.162	23343.12
839.411	23288.12
839.661	23110.12
839.91	23099.12
840.159	23101.12
840.408	23048.12
840.657	23114.12
840.906	23135.12
841.155	23196.12
841.404	23076.12
841.653	23073.12
841.902	23074.12
842.15	23258.12
842.399	23133.12
842.648	23197.12
842.897	23121.12
843.145	22895.12
843.394	22804.12
843.642	22587.12
843.891	22526.12
844.139	22362.12
844.388	22182.12
844.636	22155.12
844.884	22163.12
845.133	22133.12
845.381	22106.12
845.629	22209.12
845.877	22165.12
846.125	22205.12
846.373	22043.12
846.621	21976.12
846.869	21887.12
847.117	21792.12
847.365	21756.12
847.613	21617.12
847.861	21453.12
848.108	21548.12
848.356	21502.12
848.604	21376.12
848.851	21440.12
849.099	21488.12
849.346	21516.12
849.594	21673.12
849.841	21609.12
850.089	21676.12
850.336	21825.12
850.583	21605.12
850.831	21580.12
851.078	21586.12
851.325	21664.12
851.572	21784.12
851.819	21487.12
852.066	21042.12
852.313	20747.12
852.56	20462.12
852.807	20410.12
853.054	20309.12
853.301	20319.12
853.548	20340.12
853.794	20570.12
854.041	20636.12
854.288	20613.12
854.534	20878.12
854.781	20748.12
855.028	20699.12
855.274	20626.12
855.52	20633.12
855.767	20435.12
856.013	20456.12
856.26	20847.12
856.506	20353.12
856.752	20307.12
856.998	20310.12
857.244	20306.12
857.49	20456.12
857.736	20492.12
857.982	20491.12
858.228	20451.12
858.474	20227.12
858.72	20049.12
858.966	19979.12
859.212	19785.12
859.458	19573.12
859.703	19357.12
859.949	19091.12
860.195	19167.12
860.44	18935.12
860.686	18986.12
860.931	18949.12
861.177	18882.12
861.422	18645.12
861.667	18644.12
861.913	18632.12
862.158	18597.12
862.403	18730.12
862.648	18687.12
862.893	18778.12
863.138	18675.12
863.384	18564.12
863.629	18700.12
863.873	18645.12
864.118	18627.12
864.363	18512.12
864.608	18537.12
864.853	18372.12
865.098	18245.12
865.342	18376.12
865.587	18193.12
865.832	18158.12
866.076	18100.12
866.321	18093.12
866.565	18121.12
866.81	17940.12
867.054	17822.12
867.298	17901.12
867.543	17744.12
867.787	17881.12
868.031	17723.12
868.275	17669.12
868.519	17634.12
868.764	17776.12
869.008	17594.12
869.252	17585.12
869.496	17665.12
869.739	17598.12
869.983	17670.12
870.227	17657.12
870.471	17645.12
870.715	17619.12
870.958	17773.12
871.202	17824.12
871.446	17777.12
871.689	17960.12
871.933	17881.12
872.176	17766.12
872.42	17736.12
872.663	17684.12
872.906	17718.12
873.15	17597.12
873.393	17551.12
873.636	17581.12
873.879	17409.12
874.122	17238.12
874.366	17020.12
874.609	16802.12
874.852	16745.12
875.095	16580.12
875.337	16553.12
875.58	16493.12
875.823	16467.12
876.066	16415.12
876.309	16372.12
876.551	16156.12
876.794	16183.12
877.037	16204.12
877.279	16086.12
877.522	16095.12
877.764	16088.12
878.007	15960.12
878.249	15901.12
878.491	15938.12
878.734	15886.12
878.976	15816.12
879.218	15681.12
879.46	15657.12
879.702	15574.12
879.945	15436.12
880.187	15249.12
880.429	15162.12
880.671	15104.12
880.912	15121.12
881.154	15004.12
881.396	15053.12
881.638	15108.12
881.88	14982.12
882.121	14923.12
882.363	14949.12
882.605	15070.12
882.846	14901.12
883.088	15018.12
883.329	14913.12
883.571	14871.12
883.812	15116.12
884.053	15440.12
884.295	15719.12
884.536	15923.12
884.777	15850.12
885.018	15784.12
885.259	15750.12
885.5	15621.12
885.742	15876.12
885.982	15551.12
886.223	15354.12
886.464	15201.12
886.705	15015.12
886.946	14923.12
887.187	14608.12
887.428	14300.12
887.668	14172.12
887.909	13908.12
888.15	13818.12
888.39	13711.12
888.631	13706.12
888.871	13546.12
889.111	13392.12
889.352	13343.12
889.592	13163.12
889.833	13179.12
890.073	13018.12
890.313	13013.12
890.553	12823.12
890.793	12867.12
891.033	12718.12
891.273	12724.12
891.513	12638.12
891.753	12730.12
891.993	12603.12
892.233	12708.12
892.473	12786.12
892.713	12716.12
892.952	12739.12
893.192	12759.12
893.432	12764.12
893.671	12727.12
893.911	12730.12
894.15	12585.12
894.39	12492.12
894.629	12495.12
894.869	12427.12
895.108	12332.12
895.347	12289.12
895.587	12309.12
895.826	12316.12
896.065	12242.12
896.304	12251.12
896.543	12310.12
896.782	12169.12
897.021	12221.12
897.26	12212.12
897.499	12237.12
897.738	12292.12
897.977	12146.12
898.216	12061.12
898.454	12009.12
898.693	11853.12
898.932	11920.12
899.17	11881.12
899.409	11873.12
899.647	11797.12
899.886	11860.12
900.124	11928.12
900.363	11893.12
900.601	11953.12
900.839	12036.12
901.078	12038.12
901.316	12168.12
901.554	12164.12
901.792	12290.12
902.03	12219.12
902.268	12324.12
902.506	12316.12
902.744	12174.12
902.982	12048.12
903.22	11779.12
903.458	11612.12
903.695	11449.12
903.933	11230.12
904.171	10974.12
904.409	10768.12
904.646	10627.12
904.884	10425.12
905.121	10395.12
905.359	10159.12
905.596	10139.12
905.833	9983.12
906.071	9920.12
906.308	10004.12
906.545	9849.12
906.783	9808.12
907.02	9782.12
907.257	9744.12
907.494	9712.12
907.731	9697.12
907.968	9662.12
908.205	9536.12
908.442	9455.12
908.679	9469.12
908.915	9330.12
909.152	9308.12
909.389	9135.12
909.626	9133.12
909.862	9053.12
910.099	9002.12
910.335	9087.12
910.572	8880.12
910.808	8918.12
911.045	8886.12
911.281	8813.12
911.518	8857.12
911.754	8724.12
911.99	8762.12
912.226	8608.12
912.463	8504.12
912.699	8472.12
912.935	8432.12
913.171	8366.12
913.407	8290.12
913.643	8267.12
913.879	8209.12
914.114	8093.12
914.35	8012.12
914.586	8016.12
914.822	7871.12
915.057	7941.12
915.293	7744.12
915.529	7717.12
915.764	7827.12
916	7771.12
916.235	7701.12
916.471	7735.12
916.706	7595.12
916.941	7648.12
917.177	7640.12
917.412	7590.12
917.647	7627.12
917.882	7559.12
918.117	7642.12
918.352	7551.12
918.588	7514.12
918.823	7473.12
919.057	7413.12
919.292	7316.12
919.527	7304.12
919.762	7191.12
919.997	7192.12
920.232	7045.12
920.466	7034.12
920.701	6899.12
920.935	6925.12
921.17	6883.12
921.405	6855.12
921.639	6908.12
921.873	6762.12
922.108	6786.12
922.342	6819.12
922.576	6672.12
922.811	6675.12
923.045	6761.12
923.279	6700.12
923.513	6560.12
923.747	6609.12
923.981	6506.12
924.215	6490.12
924.449	6486.12
924.683	6400.12
924.917	6356.12
925.151	6353.12
925.385	6375.12
925.618	6378.12
925.852	6322.12
926.086	6211.12
926.319	6298.12
926.553	6277.12
926.786	6276.12
927.02	6210.12
927.253	6319.12
927.486	6260.12
927.72	6188.12
927.953	6254.12
928.186	6216.12
928.42	6229.12
928.653	6127.12
928.886	6093.12
929.119	6124.12
929.352	6093.12
929.585	6024.12
929.818	6009.12
930.051	5968.12
930.284	5956.12
930.516	5788.12
930.749	5765.12
930.982	5850.12
931.215	5759.12
931.447	5713.12
931.68	5671.12
931.912	5698.12
932.145	5705.12
932.377	5724.12
932.61	5820.12
932.842	5612.12
933.074	5727.12
933.307	5600.12
933.539	5698.12
933.771	5697.12
934.003	5703.12
934.236	5689.12
934.468	5744.12
934.7	5661.12
934.932	5658.12
935.164	5597.12
935.395	5577.12
935.627	5599.12
935.859	5581.12
936.091	5537.12
936.323	5543.12
936.554	5590.12
936.786	5540.12
937.017	5470.12
937.249	5478.12
937.481	5354.12
937.712	5425.12
937.943	5450.12
938.175	5409.12
938.406	5384.12
938.637	5437.12
938.869	5314.12
939.1	5393.12
939.331	5328.12
939.562	5321.12
939.793	5295.12
940.024	5302.12
940.255	5301.12
940.486	5182.12
940.717	5224.12
940.948	5193.12
941.179	5163.12
941.409	5145.12
941.64	5113.12
941.871	5148.12
942.102	5114.12
942.332	5133.12
942.563	5147.12
942.793	5137.12
943.024	5035.12
943.254	5104.12
943.484	5129.12
943.715	5134.12
943.945	5095.12
944.175	5041.12
944.405	5021.12
944.636	5026.12
944.866	5054.12
945.096	5024.12
945.326	4951.12
945.556	4983.12
945.786	5025.12
946.016	4945.12
946.245	4847.12
946.475	4831.12
946.705	4853.12
946.935	4844.12
947.164	4821.12
947.394	4805.12
947.624	4766.12
947.853	4792.12
948.083	4735.12
948.312	4688.12
948.542	4616.12
948.771	4595.12
949	4596.12
949.23	4578.12
949.459	4634.12
949.688	4706.12
949.917	4636.12
950.146	4594.12
950.375	4626.12
950.604	4587.12
950.833	4625.12
951.062	4559.12
951.291	4516.12
951.52	4483.12
951.749	4527.12
951.978	4472.12
952.206	4496.12
952.435	4426.12
952.664	4492.12
952.892	4498.12
953.121	4456.12
953.349	4426.12
953.578	4420.12
953.806	4389.12
954.035	4310.12
954.263	4346.12
954.491	4299.12
954.719	4351.12
954.948	4282.12
955.176	4258.12
955.404	4179.12
955.632	4197.12
955.86	4225.12
956.088	4138.12
956.316	4183.12
956.544	4147.12
956.772	4085.12
956.999	4058.12
957.227	4150.12
957.455	4055.12
957.683	4064.12
957.91	3984.12
958.138	4020.12
958.365	3969.12
958.593	3904.12
958.82	3908.12
959.048	3953.12
959.275	3902.12
959.502	3881.12
959.73	3835.12
959.957	3901.12
960.184	3881.12
960.411	3844.12
960.638	3925.12
960.865	3851.12
961.092	3871.12
961.319	3758.12
961.546	3864.12
961.773	3865.12
962	3798.12
962.227	3836.12
962.454	3770.12
962.68	3787.12
962.907	3797.12
963.134	3727.12
963.36	3747.12
963.587	3743.12
963.813	3647.12
964.04	3676.12
964.266	3604.12
964.493	3632.12
964.719	3652.12
964.945	3616.12
965.171	3520.12
965.398	3556.12
965.624	3579.12
965.85	3466.12
966.076	3458.12
966.302	3511.12
966.528	3447.12
966.754	3477.12
966.98	3468.12
967.206	3475.12
967.431	3389.12
967.657	3454.12
967.883	3424.12
968.109	3406.12
968.334	3371.12
968.56	3387.12
968.785	3343.12
969.011	3337.12
969.236	3387.12
969.462	3283.12
969.687	3297.12
969.912	3386.12
970.138	3362.12
970.363	3278.12
970.588	3255.12
970.813	3245.12
971.038	3245.12
971.263	3261.12
971.488	3269.12
971.713	3269.12
971.938	3226.12
972.163	3177.12
972.388	3141.12
972.613	3129.12
972.838	3158.12
973.062	3129.12
973.287	3126.12
973.512	3068.12
973.736	3102.12
973.961	3087.12
974.185	3036.12
974.41	3069.12
974.634	2926.12
974.858	2979.12
975.083	2944.12
975.307	3010.12
975.531	2942.12
975.755	2882.12
975.98	2891.12
976.204	2813.12
976.428	2803.12
976.652	2840.12
976.876	2819.12
977.1	2821.12
977.324	2774.12
977.547	2855.12
977.771	2803.12
977.995	2821.12
978.219	2745.12
978.442	2868.12
978.666	2760.12
978.89	2769.12
979.113	2778.12
979.337	2746.12
979.56	2692.12
979.783	2756.12
980.007	2674.12
980.23	2681.12
980.453	2687.12
980.677	2675.12
980.9	2660.12
981.123	2605.12
981.346	2683.12
981.569	2621.12
981.792	2658.12
982.015	2610.12
982.238	2564.12
982.461	2587.12
982.684	2570.12
982.907	2506.12
983.129	2525.12
983.352	2573.12
983.575	2566.12
983.797	2537.12
984.02	2503.12
984.242	2480.12
984.465	2452.12
984.687	2510.12
984.91	2460.12
985.132	2474.12
985.354	2481.12
985.577	2457.12
985.799	2439.12
986.021	2358.12
986.243	2366.12
986.465	2366.12
986.687	2407.12
986.909	2485.12
987.131	2380.12
987.353	2348.12
987.575	2385.12
987.797	2317.12
988.019	2324.12
988.241	2344.12
988.462	2329.12
988.684	2355.12
988.906	2364.12
989.127	2383.12
989.349	2301.12
989.57	2252.12
989.792	2330.12
990.013	2325.12
990.234	2339.12
990.456	2349.12
990.677	2335.12
990.898	2259.12
991.119	2240.12
991.341	2304.12
991.562	2206.12
991.783	2247.12
992.004	2183.12
992.225	2137.12
992.446	2201.12
992.667	2107.12
992.887	2199.12
993.108	2082.12
993.329	2172.12
993.55	2158.12
993.77	2095.12
993.991	2135.12
994.212	2113.12
994.432	2083.12
994.653	2132.12
994.873	2124.12
995.093	1982.12
995.314	2052.12
995.534	2101.12
995.754	2097.12
995.975	2099.12
996.195	2013.12
996.415	2082.12
996.635	2048.12
996.855	2030.12
997.075	2029.12
997.295	1996.12
997.515	1992.12
997.735	2076.12
997.955	2010.12
998.174	2021.12
998.394	2001.12
998.614	2041.12
998.834	1976.12
999.053	2045.12
999.273	2023.12
999.492	2052.12
999.712	1984.12
999.931	1965.12
1000.151	1984.12
1000.37	1974.12
1000.589	2273.12
1000.809	2144.12
1001.028	2078.12
1001.247	1982.12
1001.466	1861.12
1001.685	2025.12
1001.904	1935.12
1002.123	1908.12
1002.342	1904.12
1002.561	1845.12
1002.78	1887.12
1002.999	1950.12
1003.218	1862.12
1003.436	1873.12
1003.655	1929.12
1003.874	1838.12
1004.092	1897.12
1004.311	1876.12
1004.53	1858.12
1004.748	1929.12
1004.966	1848.12
1005.185	1941.12
1005.403	1896.12
1005.622	1861.12
1005.84	1925.12
1006.058	1818.12
1006.276	1854.12
1006.494	2323.12
1006.712	1854.12
1006.931	1901.12
1007.149	1831.12
1007.367	1864.12
1007.584	1879.12
1007.802	1903.12
1008.02	1858.12
1008.238	1959.12
1008.456	1988.12
1008.673	1846.12
1008.891	1981.12
1009.109	1930.12
1009.326	2001.12
1009.544	2082.12
1009.761	2022.12
1009.979	2150.12
1010.196	2200.12
1010.413	2327.12
1010.631	2376.12
1010.848	2438.12
1011.065	2505.12
1011.282	2415.12
1011.5	2421.12
1011.717	2525.12
1011.934	2423.12
1012.151	2485.12
1012.368	2469.12
1012.585	2421.12
1012.801	2465.12
1013.018	2434.12
1013.235	2422.12
1013.452	2461.12
1013.669	2462.12
1013.885	2437.12
1014.102	2490.12
1014.318	2428.12
1014.535	2427.12
1014.751	2472.12
1014.968	2463.12
1015.184	2478.12
1015.401	2374.12
1015.617	2399.12
1015.833	2328.12
1016.049	2321.12
1016.266	2328.12
1016.482	2313.12
1016.698	2235.12
1016.914	2280.12
1017.13	2200.12
1017.346	2201.12
1017.562	2298.12
1017.778	2188.12
1017.993	2207.12
1018.209	2263.12
1018.425	2232.12
1018.641	2233.12
1018.856	2161.12
1019.072	2205.12
1019.288	2258.12
1019.503	2244.12
1019.719	2130.12
1019.934	2150.12
1020.149	2212.12
1020.365	2102.12
1020.58	2066.12
1020.795	2100.12
1021.011	2011.12
1021.226	1970.12
1021.441	1966.12
1021.656	1900.12
1021.871	1785.12
1022.086	1788.12
1022.301	1771.12
1022.516	1728.12
1022.731	1815.12
1022.946	1678.12
1023.16	1660.12
1023.375	1624.12
1023.59	1581.12
1023.804	1559.12
1024.019	1595.12
1024.234	1494.12
1024.448	1512.12
1024.663	1429.12
1024.877	1441.12
1025.092	1443.12
1025.306	1427.12
1025.52	1332.12
1025.734	1375.12
1025.949	1322.12
1026.163	1257.12
1026.377	1204.12
1026.591	1248.12
1026.805	1144.12
1027.019	1138.12
1027.233	1090.12
1027.447	1061.12
1027.661	1147.12
1027.875	1084.12
1028.088	1077.12
1028.302	993.12
1028.516	966.12
1028.73	954.12
1028.943	953.12
1029.157	888.12
1029.37	835.12
1029.584	-2.88
1029.797	-0.88
1030.011	-0.88
1030.224	-0.88
