Data from QEP037381__20__15-12-35-857.txt Node

Date: Fri Dec 16 15:12:35 EST 2022
User: dcclab
Spectrometer: QEP03738
Trigger mode: 4
Integration Time (sec): 1.000000E1
Scans to average: 1
Electric dark correction enabled: true
Nonlinearity correction enabled: false
Boxcar width: 0
XAxis mode: Wavelengths
Number of Pixels in Spectrum: 1044
>>>>>Begin Spectral Data<<<<<
784.041	9.62
784.3	0.62
784.558	-1.38
784.817	0.62
785.075	89138.62
785.334	15387.62
785.592	7214.62
785.851	4931.62
786.109	3792.62
786.368	2922.62
786.626	2411.62
786.884	2014.62
787.143	1698.62
787.401	1387.62
787.659	1276.62
787.917	1097.62
788.175	1031.62
788.433	912.62
788.691	806.62
788.949	747.62
789.207	732.62
789.465	627.62
789.723	637.62
789.98	571.62
790.238	617.62
790.496	568.62
790.753	538.62
791.011	603.62
791.268	533.62
791.526	537.62
791.783	532.62
792.041	521.62
792.298	459.62
792.556	505.62
792.813	512.62
793.07	471.62
793.327	461.62
793.584	536.62
793.841	448.62
794.099	463.62
794.356	538.62
794.613	443.62
794.869	475.62
795.126	441.62
795.383	430.62
795.64	442.62
795.897	391.62
796.153	455.62
796.41	441.62
796.667	427.62
796.923	440.62
797.18	453.62
797.436	466.62
797.693	433.62
797.949	497.62
798.206	530.62
798.462	425.62
798.718	483.62
798.974	473.62
799.231	516.62
799.487	503.62
799.743	512.62
799.999	539.62
800.255	541.62
800.511	534.62
800.767	594.62
801.023	579.62
801.279	622.62
801.534	663.62
801.79	731.62
802.046	754.62
802.302	926.62
802.557	1076.62
802.813	1354.62
803.068	1700.62
803.324	2415.62
803.579	3257.62
803.835	4546.62
804.09	6287.62
804.345	8283.62
804.601	10506.62
804.856	12784.62
805.111	14843.62
805.366	16197.62
805.621	17421.62
805.876	18151.62
806.131	18647.62
806.386	19010.62
806.641	19360.62
806.896	19661.62
807.151	20184.62
807.406	20422.62
807.661	20887.62
807.915	21310.62
808.17	21698.62
808.425	21882.62
808.679	22015.62
808.934	22434.62
809.188	22625.62
809.443	22858.62
809.697	23306.62
809.951	23376.62
810.206	23675.62
810.46	24046.62
810.714	24113.62
810.968	24549.62
811.223	24637.62
811.477	24797.62
811.731	25127.62
811.985	25269.62
812.239	25395.62
812.493	25471.62
812.747	25701.62
813	25676.62
813.254	25834.62
813.508	26049.62
813.762	26199.62
814.015	26234.62
814.269	26566.62
814.522	26820.62
814.776	27172.62
815.03	27495.62
815.283	27942.62
815.536	28267.62
815.79	28877.62
816.043	29315.62
816.296	29629.62
816.55	30125.62
816.803	30495.62
817.056	30740.62
817.309	31166.62
817.562	31620.62
817.815	31881.62
818.068	32117.62
818.321	32596.62
818.574	32899.62
818.827	33405.62
819.079	33942.62
819.332	34473.62
819.585	34788.62
819.838	35321.62
820.09	35566.62
820.343	35877.62
820.595	36030.62
820.848	36416.62
821.1	36527.62
821.353	36502.62
821.605	36553.62
821.857	36569.62
822.11	36307.62
822.362	36415.62
822.614	36432.62
822.866	36331.62
823.118	36302.62
823.37	36469.62
823.622	36743.62
823.874	36674.62
824.126	36791.62
824.378	36899.62
824.63	37014.62
824.882	37130.62
825.134	37126.62
825.385	37127.62
825.637	36976.62
825.888	37016.62
826.14	36943.62
826.392	36774.62
826.643	36620.62
826.895	36499.62
827.146	36453.62
827.397	36359.62
827.649	36474.62
827.9	36389.62
828.151	36376.62
828.402	36573.62
828.653	36599.62
828.905	36802.62
829.156	36923.62
829.407	36873.62
829.658	36922.62
829.909	36894.62
830.159	36843.62
830.41	36812.62
830.661	36427.62
830.912	36410.62
831.162	36397.62
831.413	36123.62
831.664	36306.62
831.914	36263.62
832.165	36310.62
832.415	36180.62
832.666	36318.62
832.916	36388.62
833.167	36308.62
833.417	36183.62
833.667	36165.62
833.917	36050.62
834.168	36021.62
834.418	35737.62
834.668	35740.62
834.918	35442.62
835.168	35527.62
835.418	35308.62
835.668	35378.62
835.918	35169.62
836.167	35194.62
836.417	35016.62
836.667	35030.62
836.917	35133.62
837.166	35028.62
837.416	35082.62
837.666	35031.62
837.915	34906.62
838.165	34914.62
838.414	34757.62
838.663	34747.62
838.913	34814.62
839.162	34607.62
839.411	34744.62
839.661	34514.62
839.91	34445.62
840.159	34356.62
840.408	34337.62
840.657	34384.62
840.906	34507.62
841.155	34496.62
841.404	34552.62
841.653	34555.62
841.902	34673.62
842.15	34601.62
842.399	34674.62
842.648	34637.62
842.897	34505.62
843.145	34221.62
843.394	34004.62
843.642	33916.62
843.891	33680.62
844.139	33641.62
844.388	33318.62
844.636	33315.62
844.884	33290.62
845.133	33184.62
845.381	33240.62
845.629	33311.62
845.877	33226.62
846.125	33304.62
846.373	33287.62
846.621	33122.62
846.869	32954.62
847.117	32886.62
847.365	32667.62
847.613	32592.62
847.861	32437.62
848.108	32726.62
848.356	32421.62
848.604	32313.62
848.851	32389.62
849.099	32420.62
849.346	32662.62
849.594	32756.62
849.841	32890.62
850.089	32837.62
850.336	32821.62
850.583	32887.62
850.831	32632.62
851.078	32590.62
851.325	32674.62
851.572	32713.62
851.819	32409.62
852.066	31880.62
852.313	31329.62
852.56	31111.62
852.807	31048.62
853.054	31035.62
853.301	30984.62
853.548	30953.62
853.794	31139.62
854.041	31235.62
854.288	31346.62
854.534	31610.62
854.781	31576.62
855.028	31518.62
855.274	31476.62
855.52	31215.62
855.767	31098.62
856.013	31093.62
856.26	31292.62
856.506	30719.62
856.752	30877.62
856.998	30893.62
857.244	30967.62
857.49	31129.62
857.736	31248.62
857.982	31342.62
858.228	31218.62
858.474	31011.62
858.72	30819.62
858.966	30421.62
859.212	30208.62
859.458	29945.62
859.703	29507.62
859.949	29303.62
860.195	29273.62
860.44	29210.62
860.686	28943.62
860.931	29031.62
861.177	28867.62
861.422	28873.62
861.667	28830.62
861.913	28811.62
862.158	28840.62
862.403	28791.62
862.648	28974.62
862.893	29050.62
863.138	29015.62
863.384	28925.62
863.629	28853.62
863.873	28903.62
864.118	28749.62
864.363	28572.62
864.608	28621.62
864.853	28448.62
865.098	28345.62
865.342	28139.62
865.587	28184.62
865.832	28226.62
866.076	28061.62
866.321	27981.62
866.565	27912.62
866.81	27820.62
867.054	27726.62
867.298	27775.62
867.543	27618.62
867.787	27540.62
868.031	27568.62
868.275	27486.62
868.519	27448.62
868.764	27502.62
869.008	27424.62
869.252	27373.62
869.496	27365.62
869.739	27307.62
869.983	27448.62
870.227	27307.62
870.471	27275.62
870.715	27362.62
870.958	27528.62
871.202	27515.62
871.446	27656.62
871.689	27532.62
871.933	27590.62
872.176	27548.62
872.42	27458.62
872.663	27464.62
872.906	27369.62
873.15	27282.62
873.393	27005.62
873.636	26956.62
873.879	26690.62
874.122	26616.62
874.366	26335.62
874.609	26104.62
874.852	26043.62
875.095	25863.62
875.337	25842.62
875.58	25739.62
875.823	25660.62
876.066	25693.62
876.309	25587.62
876.551	25257.62
876.794	25192.62
877.037	25266.62
877.279	25157.62
877.522	25268.62
877.764	25280.62
878.007	25092.62
878.249	25050.62
878.491	24990.62
878.734	25087.62
878.976	24931.62
879.218	24900.62
879.46	24722.62
879.702	24558.62
879.945	24361.62
880.187	24206.62
880.429	23976.62
880.671	23888.62
880.912	23883.62
881.154	23851.62
881.396	23699.62
881.638	23712.62
881.88	23753.62
882.121	23715.62
882.363	23714.62
882.605	23659.62
882.846	23552.62
883.088	23677.62
883.329	23508.62
883.571	23543.62
883.812	23620.62
884.053	23762.62
884.295	24232.62
884.536	24359.62
884.777	24326.62
885.018	24119.62
885.259	24155.62
885.5	24022.62
885.742	24365.62
885.982	24012.62
886.223	23750.62
886.464	23778.62
886.705	23482.62
886.946	23352.62
887.187	22937.62
887.428	22777.62
887.668	22525.62
887.909	22284.62
888.15	22068.62
888.39	21868.62
888.631	21893.62
888.871	21685.62
889.111	21596.62
889.352	21402.62
889.592	21194.62
889.833	21050.62
890.073	20941.62
890.313	20897.62
890.553	20668.62
890.793	20630.62
891.033	20764.62
891.273	20508.62
891.513	20425.62
891.753	20454.62
891.993	20415.62
892.233	20391.62
892.473	20497.62
892.713	20486.62
892.952	20459.62
893.192	20565.62
893.432	20604.62
893.671	20490.62
893.911	20327.62
894.15	20249.62
894.39	20043.62
894.629	20116.62
894.869	19970.62
895.108	19908.62
895.347	19727.62
895.587	19788.62
895.826	19676.62
896.065	19759.62
896.304	19751.62
896.543	19676.62
896.782	19603.62
897.021	19676.62
897.26	19554.62
897.499	19610.62
897.738	19545.62
897.977	19424.62
898.216	19317.62
898.454	19188.62
898.693	19023.62
898.932	19117.62
899.17	18925.62
899.409	18883.62
899.647	18870.62
899.886	18875.62
900.124	18973.62
900.363	18881.62
900.601	18871.62
900.839	19022.62
901.078	18964.62
901.316	19093.62
901.554	19255.62
901.792	19447.62
902.03	19325.62
902.268	19370.62
902.506	19340.62
902.744	19100.62
902.982	18915.62
903.22	18579.62
903.458	18412.62
903.695	18169.62
903.933	17886.62
904.171	17605.62
904.409	17263.62
904.646	17199.62
904.884	16925.62
905.121	16797.62
905.359	16494.62
905.596	16340.62
905.833	16204.62
906.071	16132.62
906.308	16027.62
906.545	15991.62
906.783	15980.62
907.02	15936.62
907.257	15829.62
907.494	15832.62
907.731	15756.62
907.968	15792.62
908.205	15671.62
908.442	15525.62
908.679	15470.62
908.915	15394.62
909.152	15240.62
909.389	15061.62
909.626	14947.62
909.862	14995.62
910.099	14867.62
910.335	14808.62
910.572	14703.62
910.808	14708.62
911.045	14600.62
911.281	14627.62
911.518	14637.62
911.754	14375.62
911.99	14422.62
912.226	14301.62
912.463	14029.62
912.699	13995.62
912.935	13912.62
913.171	13869.62
913.407	13656.62
913.643	13755.62
913.879	13597.62
914.114	13448.62
914.35	13298.62
914.586	13244.62
914.822	13125.62
915.057	13009.62
915.293	12867.62
915.529	12752.62
915.764	12938.62
916	12873.62
916.235	12838.62
916.471	12837.62
916.706	12623.62
916.941	12678.62
917.177	12615.62
917.412	12674.62
917.647	12691.62
917.882	12640.62
918.117	12643.62
918.352	12598.62
918.588	12521.62
918.823	12466.62
919.057	12399.62
919.292	12097.62
919.527	12117.62
919.762	12006.62
919.997	11932.62
920.232	11777.62
920.466	11647.62
920.701	11621.62
920.935	11532.62
921.17	11444.62
921.405	11373.62
921.639	11343.62
921.873	11294.62
922.108	11258.62
922.342	11239.62
922.576	11128.62
922.811	11133.62
923.045	11133.62
923.279	11112.62
923.513	10905.62
923.747	10971.62
923.981	10851.62
924.215	10808.62
924.449	10805.62
924.683	10655.62
924.917	10632.62
925.151	10572.62
925.385	10679.62
925.618	10520.62
925.852	10545.62
926.086	10447.62
926.319	10426.62
926.553	10521.62
926.786	10416.62
927.02	10459.62
927.253	10450.62
927.486	10464.62
927.72	10314.62
927.953	10412.62
928.186	10250.62
928.42	10306.62
928.653	10215.62
928.886	10172.62
929.119	10220.62
929.352	10091.62
929.585	10082.62
929.818	9929.62
930.051	9867.62
930.284	9868.62
930.516	9658.62
930.749	9627.62
930.982	9657.62
931.215	9623.62
931.447	9511.62
931.68	9571.62
931.912	9475.62
932.145	9387.62
932.377	9548.62
932.61	9574.62
932.842	9390.62
933.074	9422.62
933.307	9398.62
933.539	9469.62
933.771	9503.62
934.003	9354.62
934.236	9510.62
934.468	9526.62
934.7	9384.62
934.932	9361.62
935.164	9331.62
935.395	9262.62
935.627	9315.62
935.859	9331.62
936.091	9198.62
936.323	9197.62
936.554	9146.62
936.786	9087.62
937.017	9114.62
937.249	9010.62
937.481	9049.62
937.712	9078.62
937.943	8985.62
938.175	8959.62
938.406	8987.62
938.637	8985.62
938.869	8841.62
939.1	8864.62
939.331	8836.62
939.562	8848.62
939.793	8843.62
940.024	8797.62
940.255	8724.62
940.486	8679.62
940.717	8674.62
940.948	8687.62
941.179	8519.62
941.409	8566.62
941.64	8478.62
941.871	8477.62
942.102	8533.62
942.332	8536.62
942.563	8510.62
942.793	8530.62
943.024	8485.62
943.254	8480.62
943.484	8514.62
943.715	8495.62
943.945	8506.62
944.175	8402.62
944.405	8427.62
944.636	8387.62
944.866	8387.62
945.096	8454.62
945.326	8266.62
945.556	8356.62
945.786	8394.62
946.016	8257.62
946.245	8137.62
946.475	8142.62
946.705	8092.62
946.935	8062.62
947.164	7991.62
947.394	7951.62
947.624	7894.62
947.853	7968.62
948.083	7901.62
948.312	7771.62
948.542	7699.62
948.771	7709.62
949	7733.62
949.23	7653.62
949.459	7647.62
949.688	7705.62
949.917	7690.62
950.146	7660.62
950.375	7698.62
950.604	7592.62
950.833	7713.62
951.062	7663.62
951.291	7595.62
951.52	7538.62
951.749	7517.62
951.978	7493.62
952.206	7448.62
952.435	7434.62
952.664	7500.62
952.892	7515.62
953.121	7374.62
953.349	7348.62
953.578	7350.62
953.806	7303.62
954.035	7216.62
954.263	7243.62
954.491	7181.62
954.719	7170.62
954.948	7063.62
955.176	6994.62
955.404	7005.62
955.632	7049.62
955.86	7008.62
956.088	6953.62
956.316	6931.62
956.544	6999.62
956.772	6857.62
956.999	6791.62
957.227	6825.62
957.455	6683.62
957.683	6648.62
957.91	6644.62
958.138	6612.62
958.365	6583.62
958.593	6581.62
958.82	6522.62
959.048	6590.62
959.275	6519.62
959.502	6447.62
959.73	6465.62
959.957	6485.62
960.184	6496.62
960.411	6427.62
960.638	6471.62
960.865	6413.62
961.092	6445.62
961.319	6318.62
961.546	6446.62
961.773	6378.62
962	6303.62
962.227	6337.62
962.454	6260.62
962.68	6235.62
962.907	6250.62
963.134	6109.62
963.36	6181.62
963.587	6142.62
963.813	6086.62
964.04	6115.62
964.266	5987.62
964.493	6043.62
964.719	5956.62
964.945	5990.62
965.171	5817.62
965.398	5900.62
965.624	5870.62
965.85	5798.62
966.076	5773.62
966.302	5787.62
966.528	5740.62
966.754	5753.62
966.98	5723.62
967.206	5665.62
967.431	5571.62
967.657	5678.62
967.883	5643.62
968.109	5590.62
968.334	5554.62
968.56	5584.62
968.785	5549.62
969.011	5480.62
969.236	5523.62
969.462	5486.62
969.687	5473.62
969.912	5552.62
970.138	5517.62
970.363	5401.62
970.588	5385.62
970.813	5378.62
971.038	5289.62
971.263	5430.62
971.488	5337.62
971.713	5372.62
971.938	5374.62
972.163	5244.62
972.388	5226.62
972.613	5162.62
972.838	5193.62
973.062	5154.62
973.287	5116.62
973.512	5057.62
973.736	5092.62
973.961	5043.62
974.185	4996.62
974.41	5022.62
974.634	4873.62
974.858	4930.62
975.083	4908.62
975.307	4914.62
975.531	4816.62
975.755	4806.62
975.98	4786.62
976.204	4727.62
976.428	4727.62
976.652	4671.62
976.876	4649.62
977.1	4728.62
977.324	4637.62
977.547	4660.62
977.771	4632.62
977.995	4608.62
978.219	4528.62
978.442	4650.62
978.666	4553.62
978.89	4551.62
979.113	4535.62
979.337	4503.62
979.56	4440.62
979.783	4558.62
980.007	4395.62
980.23	4392.62
980.453	4354.62
980.677	4417.62
980.9	4381.62
981.123	4283.62
981.346	4348.62
981.569	4280.62
981.792	4301.62
982.015	4261.62
982.238	4194.62
982.461	4254.62
982.684	4143.62
982.907	4134.62
983.129	4047.62
983.352	4121.62
983.575	4089.62
983.797	4074.62
984.02	4035.62
984.242	4003.62
984.465	4000.62
984.687	4037.62
984.91	4012.62
985.132	3997.62
985.354	3993.62
985.577	3935.62
985.799	3957.62
986.021	3816.62
986.243	3835.62
986.465	3851.62
986.687	3889.62
986.909	3909.62
987.131	3819.62
987.353	3784.62
987.575	3808.62
987.797	3763.62
988.019	3684.62
988.241	3725.62
988.462	3688.62
988.684	3749.62
988.906	3730.62
989.127	3758.62
989.349	3652.62
989.57	3603.62
989.792	3668.62
990.013	3657.62
990.234	3677.62
990.456	3685.62
990.677	3639.62
990.898	3587.62
991.119	3577.62
991.341	3620.62
991.562	3544.62
991.783	3546.62
992.004	3478.62
992.225	3396.62
992.446	3433.62
992.667	3384.62
992.887	3424.62
993.108	3326.62
993.329	3483.62
993.55	3394.62
993.77	3326.62
993.991	3274.62
994.212	3315.62
994.432	3272.62
994.653	3308.62
994.873	3243.62
995.093	3114.62
995.314	3151.62
995.534	3243.62
995.754	3231.62
995.975	3258.62
996.195	3095.62
996.415	3182.62
996.635	3130.62
996.855	3159.62
997.075	3114.62
997.295	3071.62
997.515	3075.62
997.735	3130.62
997.955	3097.62
998.174	3084.62
998.394	3045.62
998.614	3077.62
998.834	3041.62
999.053	3057.62
999.273	3056.62
999.492	3111.62
999.712	3006.62
999.931	2950.62
1000.151	2984.62
1000.37	2961.62
1000.589	3028.62
1000.809	2899.62
1001.028	3004.62
1001.247	2926.62
1001.466	2792.62
1001.685	2940.62
1001.904	2884.62
1002.123	2830.62
1002.342	2860.62
1002.561	2785.62
1002.78	2816.62
1002.999	2843.62
1003.218	2798.62
1003.436	2776.62
1003.655	2785.62
1003.874	2730.62
1004.092	2768.62
1004.311	2771.62
1004.53	2703.62
1004.748	2800.62
1004.966	2682.62
1005.185	2750.62
1005.403	2770.62
1005.622	2712.62
1005.84	2751.62
1006.058	2706.62
1006.276	2673.62
1006.494	3109.62
1006.712	2646.62
1006.931	2743.62
1007.149	2647.62
1007.367	2664.62
1007.584	2715.62
1007.802	2722.62
1008.02	2655.62
1008.238	2745.62
1008.456	2756.62
1008.673	2630.62
1008.891	2728.62
1009.109	2695.62
1009.326	2776.62
1009.544	2869.62
1009.761	2779.62
1009.979	2922.62
1010.196	2998.62
1010.413	3099.62
1010.631	3191.62
1010.848	3274.62
1011.065	3281.62
1011.282	3205.62
1011.5	3136.62
1011.717	3275.62
1011.934	3210.62
1012.151	3208.62
1012.368	3181.62
1012.585	3131.62
1012.801	3220.62
1013.018	3138.62
1013.235	3121.62
1013.452	3181.62
1013.669	3198.62
1013.885	3149.62
1014.102	3194.62
1014.318	3163.62
1014.535	3102.62
1014.751	3201.62
1014.968	3131.62
1015.184	3160.62
1015.401	3042.62
1015.617	3089.62
1015.833	2997.62
1016.049	3029.62
1016.266	2983.62
1016.482	2989.62
1016.698	2913.62
1016.914	2921.62
1017.13	2919.62
1017.346	2853.62
1017.562	2983.62
1017.778	2850.62
1017.993	2804.62
1018.209	2876.62
1018.425	2871.62
1018.641	2830.62
1018.856	2827.62
1019.072	2852.62
1019.288	2895.62
1019.503	2846.62
1019.719	2738.62
1019.934	2746.62
1020.149	2856.62
1020.365	2774.62
1020.58	2711.62
1020.795	2698.62
1021.011	2603.62
1021.226	2557.62
1021.441	2564.62
1021.656	2455.62
1021.871	2371.62
1022.086	2343.62
1022.301	2314.62
1022.516	2292.62
1022.731	2291.62
1022.946	2209.62
1023.16	2194.62
1023.375	2135.62
1023.59	2093.62
1023.804	2054.62
1024.019	2128.62
1024.234	1967.62
1024.448	1992.62
1024.663	1864.62
1024.877	1875.62
1025.092	1895.62
1025.306	1881.62
1025.52	1748.62
1025.734	1844.62
1025.949	1698.62
1026.163	1657.62
1026.377	1598.62
1026.591	1593.62
1026.805	1532.62
1027.019	1507.62
1027.233	1473.62
1027.447	1374.62
1027.661	1490.62
1027.875	1448.62
1028.088	1408.62
1028.302	1331.62
1028.516	1279.62
1028.73	1265.62
1028.943	1250.62
1029.157	1190.62
1029.37	1079.62
1029.584	-1.38
1029.797	-4.38
1030.011	-2.38
1030.224	-1.38
