Data from QEP037381__111__15-27-45-866.txt Node

Date: Fri Dec 16 15:27:45 EST 2022
User: dcclab
Spectrometer: QEP03738
Trigger mode: 4
Integration Time (sec): 1.000000E1
Scans to average: 1
Electric dark correction enabled: true
Nonlinearity correction enabled: false
Boxcar width: 0
XAxis mode: Wavelengths
Number of Pixels in Spectrum: 1044
>>>>>Begin Spectral Data<<<<<
784.041	12.62
784.3	-1.38
784.558	0.62
784.817	-3.38
785.075	94731.62
785.334	16419.62
785.592	7641.62
785.851	5284.62
786.109	3965.62
786.368	3093.62
786.626	2537.62
786.884	2058.62
787.143	1760.62
787.401	1480.62
787.659	1326.62
787.917	1113.62
788.175	1055.62
788.433	936.62
788.691	824.62
788.949	772.62
789.207	739.62
789.465	634.62
789.723	630.62
789.98	573.62
790.238	613.62
790.496	573.62
790.753	545.62
791.011	603.62
791.268	541.62
791.526	500.62
791.783	537.62
792.041	526.62
792.298	437.62
792.556	526.62
792.813	485.62
793.07	468.62
793.327	450.62
793.584	519.62
793.841	448.62
794.099	487.62
794.356	533.62
794.613	438.62
794.869	474.62
795.126	445.62
795.383	417.62
795.64	445.62
795.897	395.62
796.153	460.62
796.41	449.62
796.667	420.62
796.923	430.62
797.18	440.62
797.436	458.62
797.693	420.62
797.949	467.62
798.206	505.62
798.462	417.62
798.718	485.62
798.974	468.62
799.231	496.62
799.487	485.62
799.743	501.62
799.999	524.62
800.255	526.62
800.511	512.62
800.767	540.62
801.023	564.62
801.279	587.62
801.534	634.62
801.79	680.62
802.046	713.62
802.302	877.62
802.557	1011.62
802.813	1224.62
803.068	1523.62
803.324	2121.62
803.579	2925.62
803.835	4002.62
804.09	5541.62
804.345	7316.62
804.601	9225.62
804.856	11140.62
805.111	12806.62
805.366	14217.62
805.621	15086.62
805.876	15766.62
806.131	16245.62
806.386	16482.62
806.641	16744.62
806.896	17118.62
807.151	17449.62
807.406	17730.62
807.661	18092.62
807.915	18371.62
808.17	18671.62
808.425	18889.62
808.679	19012.62
808.934	19276.62
809.188	19585.62
809.443	19755.62
809.697	19977.62
809.951	20190.62
810.206	20297.62
810.46	20563.62
810.714	20722.62
810.968	20896.62
811.223	21130.62
811.477	21302.62
811.731	21442.62
811.985	21584.62
812.239	21673.62
812.493	21748.62
812.747	22000.62
813	21903.62
813.254	22058.62
813.508	22217.62
813.762	22236.62
814.015	22338.62
814.269	22649.62
814.522	22776.62
814.776	23088.62
815.03	23363.62
815.283	23662.62
815.536	24168.62
815.79	24442.62
816.043	24773.62
816.296	25190.62
816.55	25340.62
816.803	25702.62
817.056	26131.62
817.309	26251.62
817.562	26560.62
817.815	26900.62
818.068	27197.62
818.321	27417.62
818.574	27736.62
818.827	28205.62
819.079	28318.62
819.332	29031.62
819.585	29317.62
819.838	29552.62
820.09	29772.62
820.343	30044.62
820.595	30314.62
820.848	30468.62
821.1	30532.62
821.353	30649.62
821.605	30673.62
821.857	30501.62
822.11	30437.62
822.362	30423.62
822.614	30472.62
822.866	30348.62
823.118	30450.62
823.37	30529.62
823.622	30560.62
823.874	30754.62
824.126	30824.62
824.378	30774.62
824.63	31016.62
824.882	31101.62
825.134	30897.62
825.385	31109.62
825.637	30918.62
825.888	30782.62
826.14	30832.62
826.392	30684.62
826.643	30544.62
826.895	30630.62
827.146	30204.62
827.397	30303.62
827.649	30373.62
827.9	30303.62
828.151	30290.62
828.402	30352.62
828.653	30613.62
828.905	30662.62
829.156	30647.62
829.407	30821.62
829.658	30643.62
829.909	30804.62
830.159	30638.62
830.41	30451.62
830.661	30424.62
830.912	30185.62
831.162	30038.62
831.413	29947.62
831.664	30124.62
831.914	30058.62
832.165	30093.62
832.415	29982.62
832.666	30076.62
832.916	30344.62
833.167	30001.62
833.417	30128.62
833.667	30135.62
833.917	29991.62
834.168	29768.62
834.418	29705.62
834.668	29692.62
834.918	29434.62
835.168	29318.62
835.418	29206.62
835.668	29169.62
835.918	29090.62
836.167	29196.62
836.417	29016.62
836.667	29065.62
836.917	29047.62
837.166	29004.62
837.416	29014.62
837.666	29001.62
837.915	28900.62
838.165	28734.62
838.414	28678.62
838.663	28606.62
838.913	28711.62
839.162	28726.62
839.411	28745.62
839.661	28441.62
839.91	28410.62
840.159	28517.62
840.408	28348.62
840.657	28385.62
840.906	28269.62
841.155	28418.62
841.404	28350.62
841.653	28344.62
841.902	28531.62
842.15	28467.62
842.399	28480.62
842.648	28455.62
842.897	28264.62
843.145	28153.62
843.394	27992.62
843.642	27850.62
843.891	27769.62
844.139	27656.62
844.388	27504.62
844.636	27249.62
844.884	27360.62
845.133	27216.62
845.381	27157.62
845.629	27362.62
845.877	27268.62
846.125	27241.62
846.373	27178.62
846.621	27178.62
846.869	27135.62
847.117	26982.62
847.365	26672.62
847.613	26647.62
847.861	26517.62
848.108	26566.62
848.356	26449.62
848.604	26512.62
848.851	26393.62
849.099	26503.62
849.346	26561.62
849.594	26716.62
849.841	26932.62
850.089	26867.62
850.336	26845.62
850.583	26745.62
850.831	26736.62
851.078	26608.62
851.325	26594.62
851.572	26642.62
851.819	26447.62
852.066	25822.62
852.313	25556.62
852.56	25438.62
852.807	25265.62
853.054	25108.62
853.301	25144.62
853.548	25246.62
853.794	25503.62
854.041	25413.62
854.288	25511.62
854.534	25712.62
854.781	25869.62
855.028	25603.62
855.274	25507.62
855.52	25489.62
855.767	25409.62
856.013	25293.62
856.26	25698.62
856.506	25108.62
856.752	25040.62
856.998	25281.62
857.244	25169.62
857.49	25322.62
857.736	25330.62
857.982	25363.62
858.228	25354.62
858.474	25077.62
858.72	24963.62
858.966	24758.62
859.212	24666.62
859.458	24351.62
859.703	24112.62
859.949	23921.62
860.195	23796.62
860.44	23680.62
860.686	23620.62
860.931	23600.62
861.177	23355.62
861.422	23337.62
861.667	23275.62
861.913	23240.62
862.158	23283.62
862.403	23368.62
862.648	23450.62
862.893	23404.62
863.138	23460.62
863.384	23420.62
863.629	23339.62
863.873	23376.62
864.118	23311.62
864.363	23182.62
864.608	23125.62
864.853	23018.62
865.098	22904.62
865.342	22860.62
865.587	22691.62
865.832	22796.62
866.076	22745.62
866.321	22591.62
866.565	22602.62
866.81	22667.62
867.054	22604.62
867.298	22453.62
867.543	22418.62
867.787	22445.62
868.031	22210.62
868.275	22204.62
868.519	22191.62
868.764	22192.62
869.008	22117.62
869.252	22084.62
869.496	22099.62
869.739	21995.62
869.983	22179.62
870.227	21954.62
870.471	21915.62
870.715	21882.62
870.958	22183.62
871.202	22169.62
871.446	22203.62
871.689	22324.62
871.933	22267.62
872.176	22300.62
872.42	22181.62
872.663	22079.62
872.906	22101.62
873.15	21986.62
873.393	21909.62
873.636	21885.62
873.879	21719.62
874.122	21488.62
874.366	21279.62
874.609	21110.62
874.852	20853.62
875.095	20928.62
875.337	20713.62
875.58	20704.62
875.823	20655.62
876.066	20710.62
876.309	20612.62
876.551	20374.62
876.794	20378.62
877.037	20390.62
877.279	20236.62
877.522	20200.62
877.764	20218.62
878.007	20199.62
878.249	20153.62
878.491	20105.62
878.734	20155.62
878.976	20038.62
879.218	19920.62
879.46	19810.62
879.702	19634.62
879.945	19459.62
880.187	19296.62
880.429	19258.62
880.671	19060.62
880.912	19142.62
881.154	19107.62
881.396	19052.62
881.638	19156.62
881.88	19110.62
882.121	19024.62
882.363	18975.62
882.605	18971.62
882.846	18881.62
883.088	18942.62
883.329	18946.62
883.571	18875.62
883.812	19037.62
884.053	19238.62
884.295	19668.62
884.536	19823.62
884.777	19724.62
885.018	19637.62
885.259	19606.62
885.5	19502.62
885.742	19753.62
885.982	19380.62
886.223	19305.62
886.464	19173.62
886.705	18892.62
886.946	18733.62
887.187	18546.62
887.428	18350.62
887.668	18063.62
887.909	17772.62
888.15	17611.62
888.39	17533.62
888.631	17476.62
888.871	17334.62
889.111	17121.62
889.352	17155.62
889.592	16897.62
889.833	16931.62
890.073	16861.62
890.313	16667.62
890.553	16603.62
890.793	16593.62
891.033	16466.62
891.273	16397.62
891.513	16415.62
891.753	16450.62
891.993	16399.62
892.233	16431.62
892.473	16695.62
892.713	16711.62
892.952	16596.62
893.192	16670.62
893.432	16527.62
893.671	16684.62
893.911	16509.62
894.15	16321.62
894.39	16194.62
894.629	16100.62
894.869	16185.62
895.108	15951.62
895.347	15853.62
895.587	15920.62
895.826	15881.62
896.065	15759.62
896.304	15839.62
896.543	15921.62
896.782	15775.62
897.021	15829.62
897.26	15755.62
897.499	15850.62
897.738	15819.62
897.977	15738.62
898.216	15620.62
898.454	15596.62
898.693	15381.62
898.932	15467.62
899.17	15371.62
899.409	15236.62
899.647	15236.62
899.886	15202.62
900.124	15317.62
900.363	15194.62
900.601	15210.62
900.839	15323.62
901.078	15342.62
901.316	15355.62
901.554	15469.62
901.792	15521.62
902.03	15459.62
902.268	15456.62
902.506	15473.62
902.744	15300.62
902.982	15193.62
903.22	15023.62
903.458	14773.62
903.695	14572.62
903.933	14400.62
904.171	14077.62
904.409	13826.62
904.646	13733.62
904.884	13551.62
905.121	13450.62
905.359	13194.62
905.596	13115.62
905.833	12926.62
906.071	12821.62
906.308	12873.62
906.545	12723.62
906.783	12679.62
907.02	12686.62
907.257	12581.62
907.494	12578.62
907.731	12465.62
907.968	12492.62
908.205	12399.62
908.442	12333.62
908.679	12242.62
908.915	12071.62
909.152	12067.62
909.389	11941.62
909.626	11834.62
909.862	11795.62
910.099	11802.62
910.335	11769.62
910.572	11547.62
910.808	11595.62
911.045	11592.62
911.281	11442.62
911.518	11548.62
911.754	11406.62
911.99	11313.62
912.226	11247.62
912.463	11155.62
912.699	11066.62
912.935	10986.62
913.171	10869.62
913.407	10838.62
913.643	10871.62
913.879	10613.62
914.114	10609.62
914.35	10401.62
914.586	10440.62
914.822	10271.62
915.057	10377.62
915.293	10175.62
915.529	10192.62
915.764	10168.62
916	10144.62
916.235	10083.62
916.471	10108.62
916.706	9967.62
916.941	10037.62
917.177	10007.62
917.412	10016.62
917.647	10002.62
917.882	9891.62
918.117	9973.62
918.352	9992.62
918.588	9932.62
918.823	9824.62
919.057	9716.62
919.292	9524.62
919.527	9606.62
919.762	9414.62
919.997	9406.62
920.232	9252.62
920.466	9233.62
920.701	9128.62
920.935	9106.62
921.17	8992.62
921.405	9006.62
921.639	8973.62
921.873	8909.62
922.108	8840.62
922.342	8876.62
922.576	8773.62
922.811	8794.62
923.045	8766.62
923.279	8784.62
923.513	8528.62
923.747	8673.62
923.981	8555.62
924.215	8513.62
924.449	8420.62
924.683	8468.62
924.917	8349.62
925.151	8428.62
925.385	8411.62
925.618	8345.62
925.852	8305.62
926.086	8206.62
926.319	8273.62
926.553	8277.62
926.786	8240.62
927.02	8226.62
927.253	8308.62
927.486	8279.62
927.72	8162.62
927.953	8223.62
928.186	8177.62
928.42	8192.62
928.653	8061.62
928.886	7988.62
929.119	8111.62
929.352	8018.62
929.585	7975.62
929.818	7928.62
930.051	7872.62
930.284	7768.62
930.516	7633.62
930.749	7664.62
930.982	7621.62
931.215	7612.62
931.447	7554.62
931.68	7550.62
931.912	7515.62
932.145	7477.62
932.377	7569.62
932.61	7634.62
932.842	7435.62
933.074	7481.62
933.307	7489.62
933.539	7559.62
933.771	7552.62
934.003	7485.62
934.236	7551.62
934.468	7502.62
934.7	7431.62
934.932	7489.62
935.164	7395.62
935.395	7349.62
935.627	7428.62
935.859	7397.62
936.091	7272.62
936.323	7344.62
936.554	7320.62
936.786	7208.62
937.017	7168.62
937.249	7261.62
937.481	7053.62
937.712	7173.62
937.943	7168.62
938.175	7067.62
938.406	7169.62
938.637	7097.62
938.869	7040.62
939.1	7117.62
939.331	7032.62
939.562	6987.62
939.793	7016.62
940.024	6964.62
940.255	6983.62
940.486	6890.62
940.717	6854.62
940.948	6846.62
941.179	6814.62
941.409	6795.62
941.64	6790.62
941.871	6820.62
942.102	6769.62
942.332	6757.62
942.563	6810.62
942.793	6798.62
943.024	6704.62
943.254	6842.62
943.484	6745.62
943.715	6814.62
943.945	6769.62
944.175	6662.62
944.405	6656.62
944.636	6692.62
944.866	6704.62
945.096	6660.62
945.326	6605.62
945.556	6666.62
945.786	6678.62
946.016	6568.62
946.245	6499.62
946.475	6484.62
946.705	6403.62
946.935	6435.62
947.164	6449.62
947.394	6333.62
947.624	6358.62
947.853	6296.62
948.083	6256.62
948.312	6241.62
948.542	6191.62
948.771	6126.62
949	6158.62
949.23	6091.62
949.459	6104.62
949.688	6208.62
949.917	6104.62
950.146	6133.62
950.375	6148.62
950.604	6050.62
950.833	6182.62
951.062	6136.62
951.291	6052.62
951.52	6020.62
951.749	6071.62
951.978	5957.62
952.206	5927.62
952.435	6012.62
952.664	5957.62
952.892	5893.62
953.121	5940.62
953.349	5940.62
953.578	5895.62
953.806	5837.62
954.035	5796.62
954.263	5797.62
954.491	5731.62
954.719	5732.62
954.948	5692.62
955.176	5653.62
955.404	5594.62
955.632	5595.62
955.86	5593.62
956.088	5512.62
956.316	5597.62
956.544	5554.62
956.772	5493.62
956.999	5398.62
957.227	5486.62
957.455	5386.62
957.683	5323.62
957.91	5299.62
958.138	5283.62
958.365	5279.62
958.593	5302.62
958.82	5181.62
959.048	5266.62
959.275	5195.62
959.502	5174.62
959.73	5125.62
959.957	5175.62
960.184	5199.62
960.411	5106.62
960.638	5182.62
960.865	5095.62
961.092	5155.62
961.319	5043.62
961.546	5118.62
961.773	5125.62
962	5065.62
962.227	5090.62
962.454	5094.62
962.68	5045.62
962.907	4997.62
963.134	4967.62
963.36	4975.62
963.587	4971.62
963.813	4855.62
964.04	4843.62
964.266	4749.62
964.493	4831.62
964.719	4832.62
964.945	4800.62
965.171	4732.62
965.398	4767.62
965.624	4707.62
965.85	4638.62
966.076	4640.62
966.302	4627.62
966.528	4618.62
966.754	4648.62
966.98	4607.62
967.206	4590.62
967.431	4534.62
967.657	4625.62
967.883	4537.62
968.109	4531.62
968.334	4501.62
968.56	4457.62
968.785	4437.62
969.011	4413.62
969.236	4466.62
969.462	4364.62
969.687	4403.62
969.912	4402.62
970.138	4428.62
970.363	4331.62
970.588	4345.62
970.813	4347.62
971.038	4283.62
971.263	4335.62
971.488	4284.62
971.713	4284.62
971.938	4316.62
972.163	4155.62
972.388	4193.62
972.613	4165.62
972.838	4169.62
973.062	4164.62
973.287	4194.62
973.512	4062.62
973.736	4107.62
973.961	4065.62
974.185	4024.62
974.41	4076.62
974.634	3944.62
974.858	3920.62
975.083	3934.62
975.307	3992.62
975.531	3856.62
975.755	3865.62
975.98	3828.62
976.204	3797.62
976.428	3774.62
976.652	3746.62
976.876	3735.62
977.1	3783.62
977.324	3706.62
977.547	3751.62
977.771	3755.62
977.995	3740.62
978.219	3655.62
978.442	3764.62
978.666	3692.62
978.89	3682.62
979.113	3669.62
979.337	3654.62
979.56	3619.62
979.783	3701.62
980.007	3562.62
980.23	3594.62
980.453	3566.62
980.677	3584.62
980.9	3581.62
981.123	3464.62
981.346	3549.62
981.569	3533.62
981.792	3489.62
982.015	3437.62
982.238	3435.62
982.461	3427.62
982.684	3393.62
982.907	3369.62
983.129	3384.62
983.352	3378.62
983.575	3317.62
983.797	3342.62
984.02	3281.62
984.242	3242.62
984.465	3273.62
984.687	3282.62
984.91	3299.62
985.132	3211.62
985.354	3246.62
985.577	3201.62
985.799	3161.62
986.021	3150.62
986.243	3143.62
986.465	3138.62
986.687	3198.62
986.909	3201.62
987.131	3115.62
987.353	3115.62
987.575	3129.62
987.797	3042.62
988.019	2977.62
988.241	3068.62
988.462	3021.62
988.684	3085.62
988.906	3075.62
989.127	3121.62
989.349	2967.62
989.57	2972.62
989.792	3057.62
990.013	3070.62
990.234	3064.62
990.456	3068.62
990.677	3007.62
990.898	2967.62
991.119	2935.62
991.341	2955.62
991.562	2890.62
991.783	2928.62
992.004	2865.62
992.225	2812.62
992.446	2880.62
992.667	2788.62
992.887	2844.62
993.108	2755.62
993.329	2861.62
993.55	2762.62
993.77	2758.62
993.991	2699.62
994.212	2742.62
994.432	2730.62
994.653	2734.62
994.873	2740.62
995.093	2602.62
995.314	2648.62
995.534	2719.62
995.754	2708.62
995.975	2761.62
996.195	2564.62
996.415	2642.62
996.635	2637.62
996.855	2610.62
997.075	2580.62
997.295	2613.62
997.515	2598.62
997.735	2625.62
997.955	2619.62
998.174	2592.62
998.394	2550.62
998.614	2637.62
998.834	2535.62
999.053	2612.62
999.273	2564.62
999.492	2614.62
999.712	2525.62
999.931	2510.62
1000.151	2530.62
1000.37	2516.62
1000.589	2560.62
1000.809	2481.62
1001.028	2559.62
1001.247	2498.62
1001.466	2380.62
1001.685	2502.62
1001.904	2487.62
1002.123	2421.62
1002.342	2421.62
1002.561	2354.62
1002.78	2374.62
1002.999	2439.62
1003.218	2369.62
1003.436	2351.62
1003.655	2406.62
1003.874	2306.62
1004.092	2314.62
1004.311	2398.62
1004.53	2347.62
1004.748	2418.62
1004.966	2313.62
1005.185	2363.62
1005.403	2334.62
1005.622	2316.62
1005.84	2407.62
1006.058	2295.62
1006.276	2270.62
1006.494	2849.62
1006.712	2324.62
1006.931	2355.62
1007.149	2295.62
1007.367	2279.62
1007.584	2315.62
1007.802	2362.62
1008.02	2290.62
1008.238	2422.62
1008.456	2436.62
1008.673	2298.62
1008.891	2430.62
1009.109	2380.62
1009.326	2467.62
1009.544	2565.62
1009.761	2507.62
1009.979	2608.62
1010.196	2665.62
1010.413	2833.62
1010.631	2896.62
1010.848	2974.62
1011.065	2996.62
1011.282	2984.62
1011.5	2873.62
1011.717	2989.62
1011.934	2913.62
1012.151	2936.62
1012.368	2916.62
1012.585	2886.62
1012.801	2913.62
1013.018	2901.62
1013.235	2889.62
1013.452	2902.62
1013.669	2939.62
1013.885	2886.62
1014.102	2949.62
1014.318	2918.62
1014.535	2913.62
1014.751	2909.62
1014.968	2901.62
1015.184	2927.62
1015.401	2809.62
1015.617	2865.62
1015.833	2805.62
1016.049	2785.62
1016.266	2747.62
1016.482	2770.62
1016.698	2667.62
1016.914	2710.62
1017.13	2656.62
1017.346	2650.62
1017.562	2693.62
1017.778	2612.62
1017.993	2592.62
1018.209	2645.62
1018.425	2597.62
1018.641	2592.62
1018.856	2587.62
1019.072	2606.62
1019.288	2639.62
1019.503	2588.62
1019.719	2495.62
1019.934	2497.62
1020.149	2594.62
1020.365	2526.62
1020.58	2434.62
1020.795	2476.62
1021.011	2344.62
1021.226	2322.62
1021.441	2327.62
1021.656	2230.62
1021.871	2174.62
1022.086	2156.62
1022.301	2109.62
1022.516	2072.62
1022.731	2088.62
1022.946	2001.62
1023.16	1980.62
1023.375	1919.62
1023.59	1882.62
1023.804	1830.62
1024.019	1924.62
1024.234	1792.62
1024.448	1778.62
1024.663	1729.62
1024.877	1710.62
1025.092	1703.62
1025.306	1692.62
1025.52	1607.62
1025.734	1651.62
1025.949	1546.62
1026.163	1502.62
1026.377	1444.62
1026.591	1458.62
1026.805	1379.62
1027.019	1381.62
1027.233	1319.62
1027.447	1281.62
1027.661	1377.62
1027.875	1283.62
1028.088	1293.62
1028.302	1193.62
1028.516	1162.62
1028.73	1156.62
1028.943	1115.62
1029.157	1051.62
1029.37	989.62
1029.584	2.62
1029.797	-5.38
1030.011	-1.38
1030.224	-4.38
