Data from QEP037381__3__15-09-45-853.txt Node

Date: Fri Dec 16 15:09:45 EST 2022
User: dcclab
Spectrometer: QEP03738
Trigger mode: 4
Integration Time (sec): 1.000000E1
Scans to average: 1
Electric dark correction enabled: true
Nonlinearity correction enabled: false
Boxcar width: 0
XAxis mode: Wavelengths
Number of Pixels in Spectrum: 1044
>>>>>Begin Spectral Data<<<<<
784.041	14.38
784.3	2.38
784.558	0.38
784.817	-6.62
785.075	89990.38
785.334	15506.38
785.592	7255.38
785.851	4945.38
786.109	3789.38
786.368	2964.38
786.626	2414.38
786.884	2013.38
787.143	1701.38
787.401	1420.38
787.659	1303.38
787.917	1100.38
788.175	1017.38
788.433	899.38
788.691	810.38
788.949	741.38
789.207	699.38
789.465	633.38
789.723	612.38
789.98	559.38
790.238	618.38
790.496	565.38
790.753	541.38
791.011	598.38
791.268	522.38
791.526	503.38
791.783	520.38
792.041	514.38
792.298	440.38
792.556	497.38
792.813	482.38
793.07	451.38
793.327	444.38
793.584	529.38
793.841	465.38
794.099	491.38
794.356	524.38
794.613	447.38
794.869	461.38
795.126	431.38
795.383	428.38
795.64	427.38
795.897	397.38
796.153	446.38
796.41	427.38
796.667	418.38
796.923	434.38
797.18	429.38
797.436	469.38
797.693	416.38
797.949	474.38
798.206	508.38
798.462	416.38
798.718	484.38
798.974	462.38
799.231	501.38
799.487	500.38
799.743	500.38
799.999	536.38
800.255	526.38
800.511	535.38
800.767	585.38
801.023	570.38
801.279	589.38
801.534	630.38
801.79	670.38
802.046	709.38
802.302	855.38
802.557	994.38
802.813	1229.38
803.068	1496.38
803.324	2092.38
803.579	2872.38
803.835	3942.38
804.09	5405.38
804.345	7069.38
804.601	9047.38
804.856	10886.38
805.111	12619.38
805.366	13871.38
805.621	14839.38
805.876	15479.38
806.131	15886.38
806.386	16083.38
806.641	16371.38
806.896	16703.38
807.151	17040.38
807.406	17272.38
807.661	17654.38
807.915	17983.38
808.17	18163.38
808.425	18417.38
808.679	18679.38
808.934	18912.38
809.188	19154.38
809.443	19298.38
809.697	19591.38
809.951	19771.38
810.206	19948.38
810.46	20168.38
810.714	20504.38
810.968	20609.38
811.223	20852.38
811.477	20931.38
811.731	21087.38
811.985	21099.38
812.239	21312.38
812.493	21319.38
812.747	21497.38
813	21586.38
813.254	21831.38
813.508	21818.38
813.762	21995.38
814.015	21998.38
814.269	22196.38
814.522	22376.38
814.776	22622.38
815.03	22991.38
815.283	23316.38
815.536	23704.38
815.79	24116.38
816.043	24427.38
816.296	24780.38
816.55	24911.38
816.803	25316.38
817.056	25763.38
817.309	25983.38
817.562	26142.38
817.815	26606.38
818.068	26675.38
818.321	26945.38
818.574	27403.38
818.827	27799.38
819.079	28114.38
819.332	28698.38
819.585	28903.38
819.838	29235.38
820.09	29431.38
820.343	29759.38
820.595	29854.38
820.848	30034.38
821.1	30085.38
821.353	30215.38
821.605	30130.38
821.857	30064.38
822.11	30095.38
822.362	29963.38
822.614	29892.38
822.866	30004.38
823.118	29945.38
823.37	30087.38
823.622	30198.38
823.874	30392.38
824.126	30503.38
824.378	30441.38
824.63	30537.38
824.882	30626.38
825.134	30524.38
825.385	30545.38
825.637	30449.38
825.888	30338.38
826.14	30403.38
826.392	30213.38
826.643	30105.38
826.895	30110.38
827.146	30077.38
827.397	29862.38
827.649	29840.38
827.9	29849.38
828.151	29955.38
828.402	29907.38
828.653	30207.38
828.905	30076.38
829.156	30313.38
829.407	30147.38
829.658	30226.38
829.909	30340.38
830.159	30338.38
830.41	30102.38
830.661	29976.38
830.912	29758.38
831.162	29594.38
831.413	29802.38
831.664	29738.38
831.914	29662.38
832.165	29557.38
832.415	29612.38
832.666	29581.38
832.916	29574.38
833.167	29591.38
833.417	29512.38
833.667	29273.38
833.917	29478.38
834.168	29385.38
834.418	29229.38
834.668	29077.38
834.918	28953.38
835.168	28956.38
835.418	28871.38
835.668	28748.38
835.918	28715.38
836.167	28555.38
836.417	28584.38
836.667	28587.38
836.917	28508.38
837.166	28508.38
837.416	28558.38
837.666	28510.38
837.915	28448.38
838.165	28465.38
838.414	28340.38
838.663	28261.38
838.913	28290.38
839.162	28237.38
839.411	28264.38
839.661	28111.38
839.91	28081.38
840.159	27953.38
840.408	28000.38
840.657	28049.38
840.906	28101.38
841.155	28015.38
841.404	28087.38
841.653	28100.38
841.902	28154.38
842.15	28139.38
842.399	28129.38
842.648	28032.38
842.897	27917.38
843.145	27779.38
843.394	27692.38
843.642	27495.38
843.891	27337.38
844.139	27264.38
844.388	27081.38
844.636	27028.38
844.884	26994.38
845.133	26874.38
845.381	26810.38
845.629	26920.38
845.877	26901.38
846.125	26864.38
846.373	26814.38
846.621	26677.38
846.869	26702.38
847.117	26405.38
847.365	26252.38
847.613	26275.38
847.861	26172.38
848.108	26214.38
848.356	26103.38
848.604	26087.38
848.851	25977.38
849.099	26088.38
849.346	26125.38
849.594	26310.38
849.841	26454.38
850.089	26456.38
850.336	26336.38
850.583	26482.38
850.831	26272.38
851.078	26105.38
851.325	26362.38
851.572	26321.38
851.819	26084.38
852.066	25529.38
852.313	25144.38
852.56	25104.38
852.807	24993.38
853.054	24831.38
853.301	24807.38
853.548	24852.38
853.794	25007.38
854.041	25181.38
854.288	25098.38
854.534	25441.38
854.781	25421.38
855.028	25344.38
855.274	25345.38
855.52	25196.38
855.767	24985.38
856.013	25085.38
856.26	25240.38
856.506	24819.38
856.752	24723.38
856.998	24866.38
857.244	24891.38
857.49	25030.38
857.736	25101.38
857.982	25093.38
858.228	24987.38
858.474	24749.38
858.72	24610.38
858.966	24455.38
859.212	24166.38
859.458	23888.38
859.703	23775.38
859.949	23534.38
860.195	23482.38
860.44	23434.38
860.686	23171.38
860.931	23180.38
861.177	23055.38
861.422	22962.38
861.667	22917.38
861.913	22894.38
862.158	22941.38
862.403	23030.38
862.648	23047.38
862.893	23222.38
863.138	23073.38
863.384	23011.38
863.629	23038.38
863.873	23095.38
864.118	22962.38
864.363	22779.38
864.608	22841.38
864.853	22742.38
865.098	22588.38
865.342	22590.38
865.587	22484.38
865.832	22449.38
866.076	22293.38
866.321	22327.38
866.565	22279.38
866.81	22143.38
867.054	22144.38
867.298	22004.38
867.543	21935.38
867.787	22035.38
868.031	21839.38
868.275	21827.38
868.519	21938.38
868.764	21774.38
869.008	21847.38
869.252	21811.38
869.496	21716.38
869.739	21826.38
869.983	21726.38
870.227	21892.38
870.471	21791.38
870.715	21893.38
870.958	21899.38
871.202	21889.38
871.446	21991.38
871.689	21972.38
871.933	21975.38
872.176	21889.38
872.42	21739.38
872.663	21832.38
872.906	21758.38
873.15	21724.38
873.393	21524.38
873.636	21474.38
873.879	21233.38
874.122	21121.38
874.366	20930.38
874.609	20768.38
874.852	20655.38
875.095	20544.38
875.337	20401.38
875.58	20240.38
875.823	20342.38
876.066	20290.38
876.309	20114.38
876.551	19997.38
876.794	19937.38
877.037	19952.38
877.279	19928.38
877.522	19824.38
877.764	19888.38
878.007	19856.38
878.249	19849.38
878.491	19800.38
878.734	19804.38
878.976	19742.38
879.218	19552.38
879.46	19521.38
879.702	19338.38
879.945	19208.38
880.187	19045.38
880.429	18944.38
880.671	18950.38
880.912	18879.38
881.154	18864.38
881.396	18606.38
881.638	18634.38
881.88	18754.38
882.121	18652.38
882.363	18720.38
882.605	18755.38
882.846	18625.38
883.088	18569.38
883.329	18539.38
883.571	18556.38
883.812	18750.38
884.053	18961.38
884.295	19359.38
884.536	19491.38
884.777	19423.38
885.018	19295.38
885.259	19240.38
885.5	19148.38
885.742	19366.38
885.982	19054.38
886.223	18986.38
886.464	18837.38
886.705	18703.38
886.946	18491.38
887.187	18144.38
887.428	18014.38
887.668	17769.38
887.909	17579.38
888.15	17400.38
888.39	17201.38
888.631	17233.38
888.871	16979.38
889.111	16953.38
889.352	16875.38
889.592	16680.38
889.833	16586.38
890.073	16443.38
890.313	16451.38
890.553	16295.38
890.793	16122.38
891.033	16245.38
891.273	16089.38
891.513	15991.38
891.753	16071.38
891.993	15980.38
892.233	16027.38
892.473	16039.38
892.713	16059.38
892.952	16008.38
893.192	16112.38
893.432	16093.38
893.671	16105.38
893.911	15968.38
894.15	15956.38
894.39	15838.38
894.629	15721.38
894.869	15705.38
895.108	15492.38
895.347	15523.38
895.587	15544.38
895.826	15473.38
896.065	15457.38
896.304	15404.38
896.543	15506.38
896.782	15306.38
897.021	15379.38
897.26	15374.38
897.499	15497.38
897.738	15350.38
897.977	15319.38
898.216	15205.38
898.454	14993.38
898.693	14925.38
898.932	14967.38
899.17	14853.38
899.409	14853.38
899.647	14793.38
899.886	14822.38
900.124	14893.38
900.363	14850.38
900.601	14930.38
900.839	15011.38
901.078	15021.38
901.316	15015.38
901.554	15191.38
901.792	15138.38
902.03	15233.38
902.268	15169.38
902.506	15212.38
902.744	15088.38
902.982	14998.38
903.22	14687.38
903.458	14526.38
903.695	14299.38
903.933	14070.38
904.171	13842.38
904.409	13671.38
904.646	13497.38
904.884	13265.38
905.121	13162.38
905.359	13031.38
905.596	12805.38
905.833	12698.38
906.071	12601.38
906.308	12520.38
906.545	12615.38
906.783	12468.38
907.02	12440.38
907.257	12443.38
907.494	12344.38
907.731	12389.38
907.968	12299.38
908.205	12199.38
908.442	12123.38
908.679	12096.38
908.915	11913.38
909.152	11926.38
909.389	11670.38
909.626	11671.38
909.862	11628.38
910.099	11525.38
910.335	11575.38
910.572	11498.38
910.808	11509.38
911.045	11433.38
911.281	11303.38
911.518	11361.38
911.754	11275.38
911.99	11224.38
912.226	11047.38
912.463	10981.38
912.699	10905.38
912.935	10862.38
913.171	10735.38
913.407	10668.38
913.643	10679.38
913.879	10580.38
914.114	10399.38
914.35	10398.38
914.586	10318.38
914.822	10183.38
915.057	10181.38
915.293	9988.38
915.529	10039.38
915.764	10063.38
916	10010.38
916.235	9991.38
916.471	9958.38
916.706	9849.38
916.941	9902.38
917.177	9890.38
917.412	9858.38
917.647	9814.38
917.882	9813.38
918.117	9833.38
918.352	9753.38
918.588	9709.38
918.823	9678.38
919.057	9534.38
919.292	9377.38
919.527	9510.38
919.762	9279.38
919.997	9244.38
920.232	9123.38
920.466	9085.38
920.701	8969.38
920.935	8955.38
921.17	8880.38
921.405	8817.38
921.639	8902.38
921.873	8796.38
922.108	8767.38
922.342	8740.38
922.576	8678.38
922.811	8654.38
923.045	8657.38
923.279	8724.38
923.513	8506.38
923.747	8544.38
923.981	8443.38
924.215	8402.38
924.449	8334.38
924.683	8287.38
924.917	8209.38
925.151	8225.38
925.385	8257.38
925.618	8204.38
925.852	8184.38
926.086	8128.38
926.319	8123.38
926.553	8141.38
926.786	8130.38
927.02	8097.38
927.253	8077.38
927.486	8152.38
927.72	8038.38
927.953	8107.38
928.186	8011.38
928.42	8040.38
928.653	7908.38
928.886	7855.38
929.119	7956.38
929.352	7906.38
929.585	7854.38
929.818	7766.38
930.051	7678.38
930.284	7659.38
930.516	7572.38
930.749	7488.38
930.982	7556.38
931.215	7505.38
931.447	7397.38
931.68	7388.38
931.912	7404.38
932.145	7344.38
932.377	7366.38
932.61	7506.38
932.842	7324.38
933.074	7377.38
933.307	7304.38
933.539	7370.38
933.771	7397.38
934.003	7359.38
934.236	7438.38
934.468	7416.38
934.7	7262.38
934.932	7361.38
935.164	7299.38
935.395	7232.38
935.627	7218.38
935.859	7271.38
936.091	7205.38
936.323	7229.38
936.554	7246.38
936.786	7135.38
937.017	7020.38
937.249	7038.38
937.481	6998.38
937.712	7028.38
937.943	7053.38
938.175	6943.38
938.406	6934.38
938.637	7056.38
938.869	6918.38
939.1	6940.38
939.331	6927.38
939.562	6886.38
939.793	6898.38
940.024	6885.38
940.255	6885.38
940.486	6760.38
940.717	6691.38
940.948	6782.38
941.179	6679.38
941.409	6695.38
941.64	6683.38
941.871	6719.38
942.102	6614.38
942.332	6691.38
942.563	6628.38
942.793	6654.38
943.024	6585.38
943.254	6666.38
943.484	6665.38
943.715	6686.38
943.945	6620.38
944.175	6546.38
944.405	6520.38
944.636	6555.38
944.866	6555.38
945.096	6600.38
945.326	6452.38
945.556	6525.38
945.786	6545.38
946.016	6426.38
946.245	6344.38
946.475	6265.38
946.705	6278.38
946.935	6236.38
947.164	6246.38
947.394	6230.38
947.624	6228.38
947.853	6184.38
948.083	6201.38
948.312	6108.38
948.542	6034.38
948.771	5977.38
949	6046.38
949.23	6053.38
949.459	5983.38
949.688	6040.38
949.917	6018.38
950.146	5997.38
950.375	6001.38
950.604	5935.38
950.833	5980.38
951.062	6040.38
951.291	5924.38
951.52	5936.38
951.749	5882.38
951.978	5868.38
952.206	5852.38
952.435	5876.38
952.664	5887.38
952.892	5859.38
953.121	5828.38
953.349	5729.38
953.578	5816.38
953.806	5686.38
954.035	5584.38
954.263	5714.38
954.491	5583.38
954.719	5614.38
954.948	5556.38
955.176	5536.38
955.404	5438.38
955.632	5497.38
955.86	5465.38
956.088	5464.38
956.316	5442.38
956.544	5430.38
956.772	5367.38
956.999	5367.38
957.227	5378.38
957.455	5259.38
957.683	5334.38
957.91	5181.38
958.138	5200.38
958.365	5183.38
958.593	5145.38
958.82	5127.38
959.048	5152.38
959.275	5111.38
959.502	5054.38
959.73	4980.38
959.957	5090.38
960.184	5097.38
960.411	4989.38
960.638	5061.38
960.865	4969.38
961.092	5052.38
961.319	4905.38
961.546	5051.38
961.773	5020.38
962	4988.38
962.227	5022.38
962.454	4972.38
962.68	4954.38
962.907	4942.38
963.134	4865.38
963.36	4866.38
963.587	4884.38
963.813	4738.38
964.04	4789.38
964.266	4742.38
964.493	4768.38
964.719	4716.38
964.945	4722.38
965.171	4616.38
965.398	4663.38
965.624	4621.38
965.85	4538.38
966.076	4491.38
966.302	4586.38
966.528	4504.38
966.754	4495.38
966.98	4516.38
967.206	4495.38
967.431	4427.38
967.657	4487.38
967.883	4490.38
968.109	4444.38
968.334	4391.38
968.56	4372.38
968.785	4441.38
969.011	4331.38
969.236	4336.38
969.462	4299.38
969.687	4260.38
969.912	4349.38
970.138	4327.38
970.363	4237.38
970.588	4260.38
970.813	4236.38
971.038	4201.38
971.263	4253.38
971.488	4227.38
971.713	4242.38
971.938	4213.38
972.163	4091.38
972.388	4138.38
972.613	4078.38
972.838	4105.38
973.062	4092.38
973.287	4033.38
973.512	4014.38
973.736	4011.38
973.961	3992.38
974.185	3948.38
974.41	3991.38
974.634	3843.38
974.858	3868.38
975.083	3874.38
975.307	3921.38
975.531	3825.38
975.755	3779.38
975.98	3797.38
976.204	3705.38
976.428	3726.38
976.652	3673.38
976.876	3676.38
977.1	3706.38
977.324	3624.38
977.547	3675.38
977.771	3692.38
977.995	3669.38
978.219	3549.38
978.442	3702.38
978.666	3625.38
978.89	3567.38
979.113	3573.38
979.337	3580.38
979.56	3521.38
979.783	3639.38
980.007	3495.38
980.23	3545.38
980.453	3499.38
980.677	3518.38
980.9	3424.38
981.123	3414.38
981.346	3471.38
981.569	3444.38
981.792	3434.38
982.015	3379.38
982.238	3372.38
982.461	3355.38
982.684	3371.38
982.907	3288.38
983.129	3289.38
983.352	3269.38
983.575	3276.38
983.797	3255.38
984.02	3230.38
984.242	3196.38
984.465	3181.38
984.687	3208.38
984.91	3238.38
985.132	3186.38
985.354	3193.38
985.577	3132.38
985.799	3139.38
986.021	3038.38
986.243	3083.38
986.465	3091.38
986.687	3110.38
986.909	3127.38
987.131	3050.38
987.353	3038.38
987.575	3061.38
987.797	2992.38
988.019	2933.38
988.241	3023.38
988.462	2970.38
988.684	2999.38
988.906	3037.38
989.127	3062.38
989.349	2917.38
989.57	2950.38
989.792	2971.38
990.013	3000.38
990.234	3005.38
990.456	3016.38
990.677	2954.38
990.898	2910.38
991.119	2917.38
991.341	2912.38
991.562	2838.38
991.783	2858.38
992.004	2778.38
992.225	2748.38
992.446	2810.38
992.667	2719.38
992.887	2788.38
993.108	2688.38
993.329	2776.38
993.55	2717.38
993.77	2680.38
993.991	2631.38
994.212	2680.38
994.432	2634.38
994.653	2656.38
994.873	2626.38
995.093	2519.38
995.314	2590.38
995.534	2644.38
995.754	2632.38
995.975	2646.38
996.195	2536.38
996.415	2592.38
996.635	2579.38
996.855	2599.38
997.075	2542.38
997.295	2528.38
997.515	2538.38
997.735	2576.38
997.955	2506.38
998.174	2517.38
998.394	2503.38
998.614	2554.38
998.834	2465.38
999.053	2536.38
999.273	2499.38
999.492	2562.38
999.712	2494.38
999.931	2460.38
1000.151	2450.38
1000.37	2434.38
1000.589	2452.38
1000.809	2409.38
1001.028	2504.38
1001.247	2452.38
1001.466	2327.38
1001.685	2443.38
1001.904	2431.38
1002.123	2350.38
1002.342	2375.38
1002.561	2311.38
1002.78	2346.38
1002.999	2389.38
1003.218	2336.38
1003.436	2280.38
1003.655	2334.38
1003.874	2270.38
1004.092	2293.38
1004.311	2313.38
1004.53	2260.38
1004.748	2339.38
1004.966	2266.38
1005.185	2288.38
1005.403	2274.38
1005.622	2260.38
1005.84	2319.38
1006.058	2229.38
1006.276	2244.38
1006.494	2739.38
1006.712	2220.38
1006.931	2326.38
1007.149	2198.38
1007.367	2209.38
1007.584	2269.38
1007.802	2287.38
1008.02	2242.38
1008.238	2362.38
1008.456	2339.38
1008.673	2221.38
1008.891	2340.38
1009.109	2309.38
1009.326	2350.38
1009.544	2495.38
1009.761	2441.38
1009.979	2522.38
1010.196	2552.38
1010.413	2691.38
1010.631	2758.38
1010.848	2839.38
1011.065	2854.38
1011.282	2790.38
1011.5	2732.38
1011.717	2871.38
1011.934	2756.38
1012.151	2816.38
1012.368	2805.38
1012.585	2736.38
1012.801	2816.38
1013.018	2809.38
1013.235	2809.38
1013.452	2863.38
1013.669	2906.38
1013.885	2856.38
1014.102	2831.38
1014.318	2816.38
1014.535	2777.38
1014.751	2789.38
1014.968	2735.38
1015.184	2765.38
1015.401	2688.38
1015.617	2686.38
1015.833	2638.38
1016.049	2620.38
1016.266	2626.38
1016.482	2574.38
1016.698	2508.38
1016.914	2532.38
1017.13	2502.38
1017.346	2466.38
1017.562	2544.38
1017.778	2462.38
1017.993	2429.38
1018.209	2503.38
1018.425	2460.38
1018.641	2416.38
1018.856	2413.38
1019.072	2474.38
1019.288	2477.38
1019.503	2418.38
1019.719	2383.38
1019.934	2398.38
1020.149	2431.38
1020.365	2373.38
1020.58	2293.38
1020.795	2311.38
1021.011	2258.38
1021.226	2225.38
1021.441	2191.38
1021.656	2122.38
1021.871	2008.38
1022.086	1973.38
1022.301	1969.38
1022.516	1992.38
1022.731	1978.38
1022.946	1889.38
1023.16	1854.38
1023.375	1843.38
1023.59	1772.38
1023.804	1719.38
1024.019	1843.38
1024.234	1681.38
1024.448	1690.38
1024.663	1609.38
1024.877	1619.38
1025.092	1607.38
1025.306	1600.38
1025.52	1481.38
1025.734	1584.38
1025.949	1481.38
1026.163	1461.38
1026.377	1347.38
1026.591	1413.38
1026.805	1327.38
1027.019	1324.38
1027.233	1261.38
1027.447	1217.38
1027.661	1279.38
1027.875	1236.38
1028.088	1239.38
1028.302	1129.38
1028.516	1105.38
1028.73	1098.38
1028.943	1096.38
1029.157	1028.38
1029.37	977.38
1029.584	-4.62
1029.797	-2.62
1030.011	-0.62
1030.224	-2.62
