Data from QEP037381__94__15-24-55-865.txt Node

Date: Fri Dec 16 15:24:55 EST 2022
User: dcclab
Spectrometer: QEP03738
Trigger mode: 4
Integration Time (sec): 1.000000E1
Scans to average: 1
Electric dark correction enabled: true
Nonlinearity correction enabled: false
Boxcar width: 0
XAxis mode: Wavelengths
Number of Pixels in Spectrum: 1044
>>>>>Begin Spectral Data<<<<<
784.041	11.25
784.3	-1.75
784.558	-0.75
784.817	-1.75
785.075	90164.25
785.334	15996.25
785.592	7677.25
785.851	5285.25
786.109	4034.25
786.368	3108.25
786.626	2528.25
786.884	2075.25
787.143	1770.25
787.401	1461.25
787.659	1325.25
787.917	1122.25
788.175	1048.25
788.433	916.25
788.691	832.25
788.949	769.25
789.207	743.25
789.465	650.25
789.723	639.25
789.98	568.25
790.238	609.25
790.496	577.25
790.753	551.25
791.011	599.25
791.268	539.25
791.526	503.25
791.783	538.25
792.041	529.25
792.298	442.25
792.556	488.25
792.813	474.25
793.07	460.25
793.327	449.25
793.584	532.25
793.841	439.25
794.099	474.25
794.356	544.25
794.613	425.25
794.869	475.25
795.126	450.25
795.383	424.25
795.64	444.25
795.897	398.25
796.153	452.25
796.41	441.25
796.667	414.25
796.923	423.25
797.18	438.25
797.436	463.25
797.693	422.25
797.949	487.25
798.206	498.25
798.462	416.25
798.718	484.25
798.974	460.25
799.231	501.25
799.487	477.25
799.743	488.25
799.999	536.25
800.255	526.25
800.511	503.25
800.767	560.25
801.023	561.25
801.279	579.25
801.534	619.25
801.79	689.25
802.046	699.25
802.302	866.25
802.557	993.25
802.813	1220.25
803.068	1515.25
803.324	2108.25
803.579	2874.25
803.835	3980.25
804.09	5520.25
804.345	7259.25
804.601	9118.25
804.856	10987.25
805.111	12819.25
805.366	14077.25
805.621	15073.25
805.876	15795.25
806.131	16180.25
806.386	16505.25
806.641	16739.25
806.896	17132.25
807.151	17550.25
807.406	17795.25
807.661	18003.25
807.915	18404.25
808.17	18673.25
808.425	18907.25
808.679	19109.25
808.934	19390.25
809.188	19457.25
809.443	19755.25
809.697	20065.25
809.951	20262.25
810.206	20381.25
810.46	20700.25
810.714	20774.25
810.968	21056.25
811.223	21261.25
811.477	21426.25
811.731	21609.25
811.985	21634.25
812.239	21779.25
812.493	22043.25
812.747	22053.25
813	21978.25
813.254	22200.25
813.508	22372.25
813.762	22490.25
814.015	22540.25
814.269	22808.25
814.522	23005.25
814.776	23281.25
815.03	23564.25
815.283	23929.25
815.536	24323.25
815.79	24813.25
816.043	25075.25
816.296	25449.25
816.55	25805.25
816.803	26129.25
817.056	26453.25
817.309	26786.25
817.562	26973.25
817.815	27283.25
818.068	27530.25
818.321	27772.25
818.574	28138.25
818.827	28503.25
819.079	28845.25
819.332	29449.25
819.585	29759.25
819.838	30215.25
820.09	30311.25
820.343	30546.25
820.595	30826.25
820.848	31028.25
821.1	31129.25
821.353	31215.25
821.605	31206.25
821.857	31100.25
822.11	31046.25
822.362	31000.25
822.614	30940.25
822.866	31012.25
823.118	30987.25
823.37	31173.25
823.622	31071.25
823.874	31485.25
824.126	31481.25
824.378	31539.25
824.63	31660.25
824.882	31713.25
825.134	31581.25
825.385	31648.25
825.637	31681.25
825.888	31597.25
826.14	31529.25
826.392	31453.25
826.643	31259.25
826.895	31136.25
827.146	30945.25
827.397	31024.25
827.649	31038.25
827.9	30950.25
828.151	30991.25
828.402	31168.25
828.653	31355.25
828.905	31423.25
829.156	31402.25
829.407	31279.25
829.658	31515.25
829.909	31550.25
830.159	31581.25
830.41	31201.25
830.661	31247.25
830.912	30890.25
831.162	30833.25
831.413	30798.25
831.664	30828.25
831.914	30798.25
832.165	30827.25
832.415	30837.25
832.666	30768.25
832.916	31036.25
833.167	30888.25
833.417	30943.25
833.667	30861.25
833.917	30852.25
834.168	30710.25
834.418	30716.25
834.668	30462.25
834.918	30319.25
835.168	30188.25
835.418	30057.25
835.668	30018.25
835.918	30137.25
836.167	29922.25
836.417	29709.25
836.667	29639.25
836.917	29893.25
837.166	29720.25
837.416	29875.25
837.666	29726.25
837.915	29755.25
838.165	29663.25
838.414	29432.25
838.663	29395.25
838.913	29684.25
839.162	29570.25
839.411	29564.25
839.661	29339.25
839.91	29418.25
840.159	29361.25
840.408	29259.25
840.657	29452.25
840.906	29456.25
841.155	29343.25
841.404	29247.25
841.653	29386.25
841.902	29199.25
842.15	29308.25
842.399	29409.25
842.648	29393.25
842.897	29301.25
843.145	29101.25
843.394	28939.25
843.642	28819.25
843.891	28675.25
844.139	28581.25
844.388	28493.25
844.636	28315.25
844.884	28206.25
845.133	28183.25
845.381	28273.25
845.629	28316.25
845.877	28314.25
846.125	28168.25
846.373	28169.25
846.621	28158.25
846.869	28051.25
847.117	27881.25
847.365	27804.25
847.613	27633.25
847.861	27554.25
848.108	27498.25
848.356	27544.25
848.604	27452.25
848.851	27643.25
849.099	27538.25
849.346	27690.25
849.594	27743.25
849.841	27852.25
850.089	27881.25
850.336	27891.25
850.583	28033.25
850.831	27753.25
851.078	27718.25
851.325	27723.25
851.572	27836.25
851.819	27468.25
852.066	26946.25
852.313	26673.25
852.56	26444.25
852.807	26138.25
853.054	26344.25
853.301	26252.25
853.548	26305.25
853.794	26466.25
854.041	26580.25
854.288	26610.25
854.534	26838.25
854.781	26837.25
855.028	26712.25
855.274	26704.25
855.52	26566.25
855.767	26463.25
856.013	26480.25
856.26	26808.25
856.506	26335.25
856.752	26280.25
856.998	26248.25
857.244	26449.25
857.49	26497.25
857.736	26462.25
857.982	26529.25
858.228	26449.25
858.474	26185.25
858.72	26035.25
858.966	25964.25
859.212	25651.25
859.458	25426.25
859.703	25217.25
859.949	24901.25
860.195	24919.25
860.44	24784.25
860.686	24689.25
860.931	24576.25
861.177	24476.25
861.422	24559.25
861.667	24356.25
861.913	24216.25
862.158	24405.25
862.403	24522.25
862.648	24669.25
862.893	24654.25
863.138	24592.25
863.384	24453.25
863.629	24412.25
863.873	24425.25
864.118	24416.25
864.363	24276.25
864.608	24324.25
864.853	24118.25
865.098	24094.25
865.342	24003.25
865.587	23833.25
865.832	23863.25
866.076	23734.25
866.321	23697.25
866.565	23654.25
866.81	23602.25
867.054	23560.25
867.298	23621.25
867.543	23315.25
867.787	23489.25
868.031	23302.25
868.275	23308.25
868.519	23301.25
868.764	23361.25
869.008	23188.25
869.252	23268.25
869.496	23019.25
869.739	23034.25
869.983	23136.25
870.227	23019.25
870.471	23072.25
870.715	23215.25
870.958	23157.25
871.202	23253.25
871.446	23327.25
871.689	23349.25
871.933	23368.25
872.176	23269.25
872.42	23260.25
872.663	23129.25
872.906	23246.25
873.15	23041.25
873.393	23054.25
873.636	23002.25
873.879	22768.25
874.122	22602.25
874.366	22234.25
874.609	22232.25
874.852	22061.25
875.095	21945.25
875.337	21893.25
875.58	21735.25
875.823	21638.25
876.066	21640.25
876.309	21600.25
876.551	21410.25
876.794	21367.25
877.037	21413.25
877.279	21300.25
877.522	21298.25
877.764	21384.25
878.007	21267.25
878.249	21214.25
878.491	21202.25
878.734	21171.25
878.976	21077.25
879.218	20974.25
879.46	20798.25
879.702	20734.25
879.945	20589.25
880.187	20338.25
880.429	20291.25
880.671	20194.25
880.912	20145.25
881.154	20061.25
881.396	20054.25
881.638	20036.25
881.88	20122.25
882.121	20091.25
882.363	19988.25
882.605	20066.25
882.846	20077.25
883.088	19910.25
883.329	19965.25
883.571	19851.25
883.812	20061.25
884.053	20289.25
884.295	20566.25
884.536	20894.25
884.777	20786.25
885.018	20658.25
885.259	20623.25
885.5	20538.25
885.742	20764.25
885.982	20410.25
886.223	20208.25
886.464	20153.25
886.705	20000.25
886.946	19871.25
887.187	19518.25
887.428	19373.25
887.668	18989.25
887.909	18838.25
888.15	18598.25
888.39	18482.25
888.631	18368.25
888.871	18307.25
889.111	18117.25
889.352	18050.25
889.592	17841.25
889.833	17809.25
890.073	17794.25
890.313	17684.25
890.553	17608.25
890.793	17557.25
891.033	17385.25
891.273	17433.25
891.513	17341.25
891.753	17344.25
891.993	17279.25
892.233	17473.25
892.473	17487.25
892.713	17485.25
892.952	17550.25
893.192	17467.25
893.432	17424.25
893.671	17492.25
893.911	17325.25
894.15	17303.25
894.39	17139.25
894.629	17143.25
894.869	16951.25
895.108	16830.25
895.347	16875.25
895.587	16744.25
895.826	16788.25
896.065	16633.25
896.304	16783.25
896.543	16761.25
896.782	16625.25
897.021	16674.25
897.26	16667.25
897.499	16752.25
897.738	16691.25
897.977	16539.25
898.216	16407.25
898.454	16237.25
898.693	16231.25
898.932	16263.25
899.17	16184.25
899.409	16139.25
899.647	16065.25
899.886	16037.25
900.124	16137.25
900.363	16067.25
900.601	16121.25
900.839	16229.25
901.078	16181.25
901.316	16261.25
901.554	16306.25
901.792	16360.25
902.03	16445.25
902.268	16343.25
902.506	16358.25
902.744	16197.25
902.982	16075.25
903.22	15810.25
903.458	15630.25
903.695	15408.25
903.933	15171.25
904.171	14818.25
904.409	14735.25
904.646	14535.25
904.884	14345.25
905.121	14220.25
905.359	13993.25
905.596	13909.25
905.833	13676.25
906.071	13662.25
906.308	13705.25
906.545	13583.25
906.783	13466.25
907.02	13473.25
907.257	13464.25
907.494	13421.25
907.731	13474.25
907.968	13257.25
908.205	13224.25
908.442	13082.25
908.679	13102.25
908.915	12928.25
909.152	12901.25
909.389	12667.25
909.626	12701.25
909.862	12515.25
910.099	12598.25
910.335	12485.25
910.572	12350.25
910.808	12293.25
911.045	12334.25
911.281	12281.25
911.518	12275.25
911.754	12183.25
911.99	12134.25
912.226	12024.25
912.463	11933.25
912.699	11889.25
912.935	11761.25
913.171	11681.25
913.407	11508.25
913.643	11458.25
913.879	11424.25
914.114	11334.25
914.35	11223.25
914.586	11047.25
914.822	11025.25
915.057	11053.25
915.293	10814.25
915.529	10855.25
915.764	10873.25
916	10805.25
916.235	10813.25
916.471	10806.25
916.706	10692.25
916.941	10675.25
917.177	10655.25
917.412	10768.25
917.647	10733.25
917.882	10643.25
918.117	10658.25
918.352	10604.25
918.588	10635.25
918.823	10482.25
919.057	10399.25
919.292	10219.25
919.527	10221.25
919.762	10076.25
919.997	10083.25
920.232	9877.25
920.466	9903.25
920.701	9697.25
920.935	9741.25
921.17	9729.25
921.405	9515.25
921.639	9621.25
921.873	9476.25
922.108	9514.25
922.342	9421.25
922.576	9401.25
922.811	9360.25
923.045	9443.25
923.279	9421.25
923.513	9176.25
923.747	9250.25
923.981	9191.25
924.215	9136.25
924.449	9094.25
924.683	9047.25
924.917	8938.25
925.151	8920.25
925.385	8928.25
925.618	8898.25
925.852	8918.25
926.086	8878.25
926.319	8839.25
926.553	8878.25
926.786	8865.25
927.02	8845.25
927.253	8900.25
927.486	8832.25
927.72	8750.25
927.953	8794.25
928.186	8743.25
928.42	8697.25
928.653	8616.25
928.886	8551.25
929.119	8584.25
929.352	8526.25
929.585	8553.25
929.818	8425.25
930.051	8424.25
930.284	8304.25
930.516	8194.25
930.749	8215.25
930.982	8138.25
931.215	8190.25
931.447	8035.25
931.68	8083.25
931.912	8082.25
932.145	8017.25
932.377	8019.25
932.61	8144.25
932.842	7964.25
933.074	8039.25
933.307	8001.25
933.539	8101.25
933.771	7999.25
934.003	7988.25
934.236	8023.25
934.468	8035.25
934.7	7995.25
934.932	7988.25
935.164	7933.25
935.395	7898.25
935.627	7959.25
935.859	7899.25
936.091	7821.25
936.323	7820.25
936.554	7880.25
936.786	7785.25
937.017	7693.25
937.249	7692.25
937.481	7620.25
937.712	7675.25
937.943	7639.25
938.175	7613.25
938.406	7576.25
938.637	7676.25
938.869	7520.25
939.1	7582.25
939.331	7509.25
939.562	7496.25
939.793	7538.25
940.024	7487.25
940.255	7475.25
940.486	7352.25
940.717	7392.25
940.948	7352.25
941.179	7311.25
941.409	7312.25
941.64	7236.25
941.871	7310.25
942.102	7317.25
942.332	7282.25
942.563	7287.25
942.793	7246.25
943.024	7231.25
943.254	7238.25
943.484	7223.25
943.715	7281.25
943.945	7219.25
944.175	7178.25
944.405	7112.25
944.636	7183.25
944.866	7189.25
945.096	7185.25
945.326	7129.25
945.556	7109.25
945.786	7144.25
946.016	7030.25
946.245	6927.25
946.475	6906.25
946.705	6921.25
946.935	6804.25
947.164	6857.25
947.394	6753.25
947.624	6755.25
947.853	6777.25
948.083	6724.25
948.312	6681.25
948.542	6595.25
948.771	6568.25
949	6641.25
949.23	6570.25
949.459	6609.25
949.688	6637.25
949.917	6538.25
950.146	6544.25
950.375	6592.25
950.604	6493.25
950.833	6546.25
951.062	6554.25
951.291	6454.25
951.52	6445.25
951.749	6442.25
951.978	6388.25
952.206	6347.25
952.435	6334.25
952.664	6377.25
952.892	6332.25
953.121	6302.25
953.349	6333.25
953.578	6254.25
953.806	6250.25
954.035	6163.25
954.263	6165.25
954.491	6130.25
954.719	6127.25
954.948	6040.25
955.176	6042.25
955.404	5928.25
955.632	6004.25
955.86	5929.25
956.088	5937.25
956.316	5963.25
956.544	5951.25
956.772	5828.25
956.999	5806.25
957.227	5916.25
957.455	5732.25
957.683	5756.25
957.91	5690.25
958.138	5652.25
958.365	5612.25
958.593	5605.25
958.82	5558.25
959.048	5647.25
959.275	5566.25
959.502	5570.25
959.73	5535.25
959.957	5546.25
960.184	5548.25
960.411	5493.25
960.638	5524.25
960.865	5460.25
961.092	5472.25
961.319	5389.25
961.546	5507.25
961.773	5438.25
962	5442.25
962.227	5451.25
962.454	5420.25
962.68	5358.25
962.907	5411.25
963.134	5281.25
963.36	5307.25
963.587	5314.25
963.813	5228.25
964.04	5230.25
964.266	5134.25
964.493	5214.25
964.719	5144.25
964.945	5118.25
965.171	5060.25
965.398	5066.25
965.624	5044.25
965.85	5000.25
966.076	4975.25
966.302	4968.25
966.528	4969.25
966.754	4961.25
966.98	4923.25
967.206	4929.25
967.431	4835.25
967.657	4857.25
967.883	4885.25
968.109	4835.25
968.334	4787.25
968.56	4759.25
968.785	4749.25
969.011	4705.25
969.236	4779.25
969.462	4636.25
969.687	4720.25
969.912	4690.25
970.138	4716.25
970.363	4612.25
970.588	4683.25
970.813	4628.25
971.038	4600.25
971.263	4629.25
971.488	4573.25
971.713	4623.25
971.938	4595.25
972.163	4515.25
972.388	4519.25
972.613	4503.25
972.838	4476.25
973.062	4454.25
973.287	4444.25
973.512	4339.25
973.736	4365.25
973.961	4346.25
974.185	4283.25
974.41	4330.25
974.634	4228.25
974.858	4183.25
975.083	4217.25
975.307	4280.25
975.531	4144.25
975.755	4096.25
975.98	4128.25
976.204	4051.25
976.428	4016.25
976.652	4026.25
976.876	4023.25
977.1	4014.25
977.324	3971.25
977.547	3997.25
977.771	4000.25
977.995	3947.25
978.219	3897.25
978.442	3963.25
978.666	3931.25
978.89	3910.25
979.113	3902.25
979.337	3884.25
979.56	3878.25
979.783	3913.25
980.007	3810.25
980.23	3817.25
980.453	3765.25
980.677	3834.25
980.9	3776.25
981.123	3651.25
981.346	3804.25
981.569	3725.25
981.792	3748.25
982.015	3662.25
982.238	3635.25
982.461	3638.25
982.684	3611.25
982.907	3589.25
983.129	3535.25
983.352	3596.25
983.575	3557.25
983.797	3506.25
984.02	3492.25
984.242	3504.25
984.465	3477.25
984.687	3472.25
984.91	3502.25
985.132	3430.25
985.354	3443.25
985.577	3382.25
985.799	3410.25
986.021	3315.25
986.243	3331.25
986.465	3326.25
986.687	3354.25
986.909	3426.25
987.131	3357.25
987.353	3275.25
987.575	3343.25
987.797	3249.25
988.019	3218.25
988.241	3266.25
988.462	3188.25
988.684	3267.25
988.906	3318.25
989.127	3316.25
989.349	3177.25
989.57	3186.25
989.792	3225.25
990.013	3227.25
990.234	3206.25
990.456	3211.25
990.677	3193.25
990.898	3155.25
991.119	3176.25
991.341	3146.25
991.562	3072.25
991.783	3117.25
992.004	3013.25
992.225	2978.25
992.446	3076.25
992.667	2965.25
992.887	2982.25
993.108	2896.25
993.329	3037.25
993.55	2962.25
993.77	2882.25
993.991	2909.25
994.212	2887.25
994.432	2865.25
994.653	2888.25
994.873	2873.25
995.093	2738.25
995.314	2788.25
995.534	2843.25
995.754	2872.25
995.975	2838.25
996.195	2776.25
996.415	2789.25
996.635	2785.25
996.855	2804.25
997.075	2752.25
997.295	2777.25
997.515	2752.25
997.735	2796.25
997.955	2737.25
998.174	2717.25
998.394	2734.25
998.614	2714.25
998.834	2709.25
999.053	2715.25
999.273	2712.25
999.492	2730.25
999.712	2687.25
999.931	2645.25
1000.151	2677.25
1000.37	2612.25
1000.589	2688.25
1000.809	2573.25
1001.028	2699.25
1001.247	2642.25
1001.466	2515.25
1001.685	2662.25
1001.904	2570.25
1002.123	2548.25
1002.342	2538.25
1002.561	2502.25
1002.78	2510.25
1002.999	2563.25
1003.218	2464.25
1003.436	2460.25
1003.655	2483.25
1003.874	2463.25
1004.092	2435.25
1004.311	2515.25
1004.53	2437.25
1004.748	2483.25
1004.966	2367.25
1005.185	2467.25
1005.403	2434.25
1005.622	2443.25
1005.84	2470.25
1006.058	2381.25
1006.276	2387.25
1006.494	2893.25
1006.712	2421.25
1006.931	2438.25
1007.149	2366.25
1007.367	2355.25
1007.584	2449.25
1007.802	2480.25
1008.02	2376.25
1008.238	2520.25
1008.456	2512.25
1008.673	2370.25
1008.891	2525.25
1009.109	2451.25
1009.326	2503.25
1009.544	2622.25
1009.761	2555.25
1009.979	2682.25
1010.196	2729.25
1010.413	2865.25
1010.631	2924.25
1010.848	3005.25
1011.065	3050.25
1011.282	2969.25
1011.5	2918.25
1011.717	3044.25
1011.934	2946.25
1012.151	3023.25
1012.368	2999.25
1012.585	2859.25
1012.801	2953.25
1013.018	2949.25
1013.235	2915.25
1013.452	2930.25
1013.669	2973.25
1013.885	2958.25
1014.102	2998.25
1014.318	2941.25
1014.535	2955.25
1014.751	2926.25
1014.968	2942.25
1015.184	2957.25
1015.401	2876.25
1015.617	2868.25
1015.833	2821.25
1016.049	2819.25
1016.266	2780.25
1016.482	2750.25
1016.698	2669.25
1016.914	2730.25
1017.13	2626.25
1017.346	2658.25
1017.562	2681.25
1017.778	2644.25
1017.993	2617.25
1018.209	2636.25
1018.425	2639.25
1018.641	2610.25
1018.856	2566.25
1019.072	2603.25
1019.288	2673.25
1019.503	2586.25
1019.719	2507.25
1019.934	2518.25
1020.149	2608.25
1020.365	2534.25
1020.58	2466.25
1020.795	2503.25
1021.011	2387.25
1021.226	2314.25
1021.441	2342.25
1021.656	2261.25
1021.871	2174.25
1022.086	2155.25
1022.301	2097.25
1022.516	2094.25
1022.731	2097.25
1022.946	2035.25
1023.16	2015.25
1023.375	1971.25
1023.59	1912.25
1023.804	1879.25
1024.019	1938.25
1024.234	1805.25
1024.448	1777.25
1024.663	1724.25
1024.877	1702.25
1025.092	1721.25
1025.306	1698.25
1025.52	1589.25
1025.734	1660.25
1025.949	1581.25
1026.163	1512.25
1026.377	1461.25
1026.591	1490.25
1026.805	1404.25
1027.019	1388.25
1027.233	1329.25
1027.447	1304.25
1027.661	1354.25
1027.875	1295.25
1028.088	1296.25
1028.302	1226.25
1028.516	1208.25
1028.73	1173.25
1028.943	1138.25
1029.157	1083.25
1029.37	1012.25
1029.584	-2.75
1029.797	0.25
1030.011	-1.75
1030.224	-2.75
