Data from QEP037381__116__15-28-35-868.txt Node

Date: Fri Dec 16 15:28:35 EST 2022
User: dcclab
Spectrometer: QEP03738
Trigger mode: 4
Integration Time (sec): 1.000000E1
Scans to average: 1
Electric dark correction enabled: true
Nonlinearity correction enabled: false
Boxcar width: 0
XAxis mode: Wavelengths
Number of Pixels in Spectrum: 1044
>>>>>Begin Spectral Data<<<<<
784.041	13.12
784.3	-0.88
784.558	-4.88
784.817	-0.88
785.075	92332.12
785.334	16148.12
785.592	7528.12
785.851	5191.12
786.109	3929.12
786.368	3024.12
786.626	2503.12
786.884	2064.12
787.143	1738.12
787.401	1423.12
787.659	1310.12
787.917	1117.12
788.175	1024.12
788.433	908.12
788.691	808.12
788.949	764.12
789.207	731.12
789.465	634.12
789.723	624.12
789.98	579.12
790.238	601.12
790.496	573.12
790.753	520.12
791.011	595.12
791.268	526.12
791.526	498.12
791.783	538.12
792.041	500.12
792.298	426.12
792.556	499.12
792.813	476.12
793.07	451.12
793.327	444.12
793.584	513.12
793.841	454.12
794.099	474.12
794.356	530.12
794.613	422.12
794.869	469.12
795.126	428.12
795.383	415.12
795.64	436.12
795.897	389.12
796.153	449.12
796.41	426.12
796.667	411.12
796.923	428.12
797.18	425.12
797.436	448.12
797.693	416.12
797.949	464.12
798.206	499.12
798.462	406.12
798.718	470.12
798.974	459.12
799.231	489.12
799.487	472.12
799.743	479.12
799.999	539.12
800.255	507.12
800.511	489.12
800.767	542.12
801.023	547.12
801.279	573.12
801.534	616.12
801.79	658.12
802.046	701.12
802.302	833.12
802.557	928.12
802.813	1196.12
803.068	1460.12
803.324	1992.12
803.579	2744.12
803.835	3805.12
804.09	5248.12
804.345	6819.12
804.601	8657.12
804.856	10570.12
805.111	12125.12
805.366	13438.12
805.621	14348.12
805.876	14961.12
806.131	15434.12
806.386	15655.12
806.641	15889.12
806.896	16270.12
807.151	16499.12
807.406	16771.12
807.661	17163.12
807.915	17470.12
808.17	17773.12
808.425	17923.12
808.679	18144.12
808.934	18491.12
809.188	18527.12
809.443	18801.12
809.697	19025.12
809.951	19095.12
810.206	19288.12
810.46	19630.12
810.714	19686.12
810.968	20028.12
811.223	20153.12
811.477	20313.12
811.731	20597.12
811.985	20603.12
812.239	20716.12
812.493	20861.12
812.747	21043.12
813	20862.12
813.254	21039.12
813.508	21264.12
813.762	21324.12
814.015	21327.12
814.269	21558.12
814.522	21777.12
814.776	21962.12
815.03	22280.12
815.283	22698.12
815.536	23068.12
815.79	23409.12
816.043	23801.12
816.296	24002.12
816.55	24424.12
816.803	24631.12
817.056	24945.12
817.309	25267.12
817.562	25460.12
817.815	25825.12
818.068	26025.12
818.321	26386.12
818.574	26555.12
818.827	26985.12
819.079	27344.12
819.332	27913.12
819.585	27986.12
819.838	28575.12
820.09	28681.12
820.343	28838.12
820.595	29016.12
820.848	29291.12
821.1	29389.12
821.353	29496.12
821.605	29329.12
821.857	29354.12
822.11	29337.12
822.362	29136.12
822.614	29245.12
822.866	29179.12
823.118	29195.12
823.37	29437.12
823.622	29454.12
823.874	29493.12
824.126	29651.12
824.378	29695.12
824.63	29887.12
824.882	29960.12
825.134	29738.12
825.385	29759.12
825.637	29672.12
825.888	29635.12
826.14	29685.12
826.392	29506.12
826.643	29450.12
826.895	29337.12
827.146	29130.12
827.397	29084.12
827.649	29107.12
827.9	29167.12
828.151	29129.12
828.402	29389.12
828.653	29456.12
828.905	29448.12
829.156	29449.12
829.407	29470.12
829.658	29496.12
829.909	29495.12
830.159	29564.12
830.41	29479.12
830.661	29168.12
830.912	29069.12
831.162	29077.12
831.413	29086.12
831.664	28930.12
831.914	29001.12
832.165	28939.12
832.415	28919.12
832.666	28973.12
832.916	28961.12
833.167	28979.12
833.417	28984.12
833.667	28981.12
833.917	28791.12
834.168	28667.12
834.418	28598.12
834.668	28581.12
834.918	28380.12
835.168	28372.12
835.418	28219.12
835.668	28214.12
835.918	28064.12
836.167	27952.12
836.417	27984.12
836.667	27874.12
836.917	27895.12
837.166	27829.12
837.416	27908.12
837.666	27904.12
837.915	27785.12
838.165	27750.12
838.414	27659.12
838.663	27629.12
838.913	27791.12
839.162	27643.12
839.411	27605.12
839.661	27524.12
839.91	27516.12
840.159	27288.12
840.408	27324.12
840.657	27447.12
840.906	27412.12
841.155	27456.12
841.404	27379.12
841.653	27319.12
841.902	27348.12
842.15	27527.12
842.399	27574.12
842.648	27372.12
842.897	27332.12
843.145	27197.12
843.394	27116.12
843.642	26827.12
843.891	26838.12
844.139	26631.12
844.388	26566.12
844.636	26350.12
844.884	26449.12
845.133	26323.12
845.381	26398.12
845.629	26404.12
845.877	26370.12
846.125	26403.12
846.373	26302.12
846.621	26089.12
846.869	26151.12
847.117	26004.12
847.365	25774.12
847.613	25743.12
847.861	25667.12
848.108	25583.12
848.356	25500.12
848.604	25528.12
848.851	25565.12
849.099	25698.12
849.346	25690.12
849.594	25834.12
849.841	25932.12
850.089	26027.12
850.336	25913.12
850.583	25953.12
850.831	25791.12
851.078	25703.12
851.325	25774.12
851.572	25862.12
851.819	25703.12
852.066	25165.12
852.313	24718.12
852.56	24503.12
852.807	24509.12
853.054	24383.12
853.301	24349.12
853.548	24446.12
853.794	24623.12
854.041	24706.12
854.288	24799.12
854.534	24956.12
854.781	24923.12
855.028	24852.12
855.274	24814.12
855.52	24751.12
855.767	24621.12
856.013	24649.12
856.26	24874.12
856.506	24493.12
856.752	24454.12
856.998	24400.12
857.244	24642.12
857.49	24696.12
857.736	24591.12
857.982	24667.12
858.228	24570.12
858.474	24466.12
858.72	24057.12
858.966	24068.12
859.212	23847.12
859.458	23692.12
859.703	23401.12
859.949	23184.12
860.195	23077.12
860.44	22904.12
860.686	22953.12
860.931	22911.12
861.177	22734.12
861.422	22691.12
861.667	22472.12
861.913	22531.12
862.158	22503.12
862.403	22628.12
862.648	22728.12
862.893	22783.12
863.138	22772.12
863.384	22673.12
863.629	22638.12
863.873	22773.12
864.118	22709.12
864.363	22546.12
864.608	22543.12
864.853	22523.12
865.098	22362.12
865.342	22261.12
865.587	22071.12
865.832	22182.12
866.076	22121.12
866.321	21997.12
866.565	22005.12
866.81	21776.12
867.054	21763.12
867.298	21818.12
867.543	21608.12
867.787	21640.12
868.031	21661.12
868.275	21543.12
868.519	21629.12
868.764	21567.12
869.008	21564.12
869.252	21592.12
869.496	21565.12
869.739	21453.12
869.983	21463.12
870.227	21459.12
870.471	21503.12
870.715	21557.12
870.958	21608.12
871.202	21612.12
871.446	21703.12
871.689	21651.12
871.933	21674.12
872.176	21621.12
872.42	21581.12
872.663	21504.12
872.906	21583.12
873.15	21408.12
873.393	21333.12
873.636	21320.12
873.879	21178.12
874.122	20958.12
874.366	20641.12
874.609	20643.12
874.852	20460.12
875.095	20355.12
875.337	20227.12
875.58	20069.12
875.823	20106.12
876.066	20144.12
876.309	20079.12
876.551	19800.12
876.794	19785.12
877.037	19836.12
877.279	19749.12
877.522	19758.12
877.764	19779.12
878.007	19732.12
878.249	19584.12
878.491	19533.12
878.734	19585.12
878.976	19558.12
879.218	19370.12
879.46	19379.12
879.702	19266.12
879.945	19066.12
880.187	18909.12
880.429	18784.12
880.671	18719.12
880.912	18630.12
881.154	18639.12
881.396	18591.12
881.638	18605.12
881.88	18664.12
882.121	18460.12
882.363	18521.12
882.605	18545.12
882.846	18436.12
883.088	18410.12
883.329	18539.12
883.571	18447.12
883.812	18617.12
884.053	18919.12
884.295	19181.12
884.536	19484.12
884.777	19282.12
885.018	19224.12
885.259	19240.12
885.5	19087.12
885.742	19296.12
885.982	19020.12
886.223	18788.12
886.464	18678.12
886.705	18533.12
886.946	18391.12
887.187	18181.12
887.428	17949.12
887.668	17667.12
887.909	17475.12
888.15	17236.12
888.39	17218.12
888.631	17042.12
888.871	16901.12
889.111	16885.12
889.352	16756.12
889.592	16630.12
889.833	16419.12
890.073	16396.12
890.313	16266.12
890.553	16152.12
890.793	16138.12
891.033	16079.12
891.273	16038.12
891.513	15888.12
891.753	16143.12
891.993	15850.12
892.233	15962.12
892.473	15999.12
892.713	16034.12
892.952	15937.12
893.192	16028.12
893.432	15999.12
893.671	16129.12
893.911	15938.12
894.15	15936.12
894.39	15758.12
894.629	15662.12
894.869	15670.12
895.108	15555.12
895.347	15463.12
895.587	15568.12
895.826	15477.12
896.065	15529.12
896.304	15519.12
896.543	15421.12
896.782	15384.12
897.021	15500.12
897.26	15395.12
897.499	15392.12
897.738	15431.12
897.977	15320.12
898.216	15151.12
898.454	15044.12
898.693	15054.12
898.932	15040.12
899.17	14919.12
899.409	14937.12
899.647	14885.12
899.886	14950.12
900.124	14946.12
900.363	14915.12
900.601	14928.12
900.839	15052.12
901.078	15111.12
901.316	15177.12
901.554	15238.12
901.792	15260.12
902.03	15188.12
902.268	15227.12
902.506	15215.12
902.744	15068.12
902.982	14934.12
903.22	14690.12
903.458	14482.12
903.695	14302.12
903.933	14130.12
904.171	13812.12
904.409	13631.12
904.646	13557.12
904.884	13293.12
905.121	13167.12
905.359	13015.12
905.596	12920.12
905.833	12747.12
906.071	12625.12
906.308	12575.12
906.545	12618.12
906.783	12470.12
907.02	12522.12
907.257	12375.12
907.494	12404.12
907.731	12350.12
907.968	12269.12
908.205	12184.12
908.442	12067.12
908.679	12047.12
908.915	11971.12
909.152	11830.12
909.389	11652.12
909.626	11659.12
909.862	11577.12
910.099	11479.12
910.335	11572.12
910.572	11443.12
910.808	11400.12
911.045	11335.12
911.281	11302.12
911.518	11387.12
911.754	11265.12
911.99	11219.12
912.226	11052.12
912.463	11004.12
912.699	10856.12
912.935	10866.12
913.171	10782.12
913.407	10604.12
913.643	10672.12
913.879	10540.12
914.114	10453.12
914.35	10313.12
914.586	10283.12
914.822	10152.12
915.057	10209.12
915.293	9993.12
915.529	9963.12
915.764	9991.12
916	9922.12
916.235	9905.12
916.471	9975.12
916.706	9832.12
916.941	9890.12
917.177	9916.12
917.412	9907.12
917.647	9874.12
917.882	9881.12
918.117	9788.12
918.352	9737.12
918.588	9726.12
918.823	9661.12
919.057	9594.12
919.292	9364.12
919.527	9471.12
919.762	9228.12
919.997	9234.12
920.232	9158.12
920.466	9149.12
920.701	8932.12
920.935	8921.12
921.17	8888.12
921.405	8875.12
921.639	8821.12
921.873	8819.12
922.108	8726.12
922.342	8787.12
922.576	8703.12
922.811	8658.12
923.045	8659.12
923.279	8640.12
923.513	8443.12
923.747	8556.12
923.981	8491.12
924.215	8393.12
924.449	8367.12
924.683	8271.12
924.917	8285.12
925.151	8248.12
925.385	8267.12
925.618	8234.12
925.852	8150.12
926.086	8085.12
926.319	8129.12
926.553	8117.12
926.786	8122.12
927.02	8105.12
927.253	8188.12
927.486	8147.12
927.72	8054.12
927.953	8136.12
928.186	8040.12
928.42	8036.12
928.653	7959.12
928.886	7917.12
929.119	7933.12
929.352	7860.12
929.585	7864.12
929.818	7741.12
930.051	7762.12
930.284	7663.12
930.516	7481.12
930.749	7440.12
930.982	7526.12
931.215	7529.12
931.447	7422.12
931.68	7398.12
931.912	7386.12
932.145	7389.12
932.377	7391.12
932.61	7487.12
932.842	7308.12
933.074	7460.12
933.307	7336.12
933.539	7423.12
933.771	7407.12
934.003	7333.12
934.236	7465.12
934.468	7396.12
934.7	7348.12
934.932	7352.12
935.164	7292.12
935.395	7254.12
935.627	7247.12
935.859	7235.12
936.091	7227.12
936.323	7217.12
936.554	7240.12
936.786	7139.12
937.017	7101.12
937.249	7064.12
937.481	6974.12
937.712	7068.12
937.943	7013.12
938.175	7009.12
938.406	6966.12
938.637	7061.12
938.869	6909.12
939.1	6972.12
939.331	6912.12
939.562	6986.12
939.793	6936.12
940.024	6932.12
940.255	6854.12
940.486	6787.12
940.717	6783.12
940.948	6721.12
941.179	6687.12
941.409	6729.12
941.64	6720.12
941.871	6725.12
942.102	6619.12
942.332	6734.12
942.563	6760.12
942.793	6692.12
943.024	6634.12
943.254	6657.12
943.484	6685.12
943.715	6624.12
943.945	6654.12
944.175	6576.12
944.405	6504.12
944.636	6566.12
944.866	6616.12
945.096	6638.12
945.326	6460.12
945.556	6593.12
945.786	6581.12
946.016	6469.12
946.245	6409.12
946.475	6374.12
946.705	6353.12
946.935	6307.12
947.164	6327.12
947.394	6227.12
947.624	6185.12
947.853	6217.12
948.083	6186.12
948.312	6136.12
948.542	6044.12
948.771	6020.12
949	6006.12
949.23	6055.12
949.459	6035.12
949.688	6104.12
949.917	5996.12
950.146	5991.12
950.375	6063.12
950.604	5991.12
950.833	6051.12
951.062	6049.12
951.291	5955.12
951.52	5893.12
951.749	5923.12
951.978	5899.12
952.206	5878.12
952.435	5861.12
952.664	5872.12
952.892	5875.12
953.121	5781.12
953.349	5807.12
953.578	5771.12
953.806	5758.12
954.035	5666.12
954.263	5661.12
954.491	5615.12
954.719	5681.12
954.948	5652.12
955.176	5546.12
955.404	5497.12
955.632	5610.12
955.86	5462.12
956.088	5505.12
956.316	5485.12
956.544	5510.12
956.772	5361.12
956.999	5375.12
957.227	5438.12
957.455	5306.12
957.683	5263.12
957.91	5213.12
958.138	5221.12
958.365	5161.12
958.593	5155.12
958.82	5074.12
959.048	5175.12
959.275	5099.12
959.502	5106.12
959.73	5058.12
959.957	5127.12
960.184	5082.12
960.411	5058.12
960.638	5144.12
960.865	5058.12
961.092	5086.12
961.319	4962.12
961.546	5014.12
961.773	5002.12
962	4980.12
962.227	5036.12
962.454	4950.12
962.68	4952.12
962.907	4974.12
963.134	4852.12
963.36	4888.12
963.587	4905.12
963.813	4737.12
964.04	4778.12
964.266	4746.12
964.493	4805.12
964.719	4741.12
964.945	4754.12
965.171	4595.12
965.398	4675.12
965.624	4659.12
965.85	4589.12
966.076	4556.12
966.302	4579.12
966.528	4570.12
966.754	4560.12
966.98	4515.12
967.206	4520.12
967.431	4402.12
967.657	4512.12
967.883	4446.12
968.109	4451.12
968.334	4402.12
968.56	4341.12
968.785	4378.12
969.011	4346.12
969.236	4370.12
969.462	4319.12
969.687	4296.12
969.912	4329.12
970.138	4354.12
970.363	4225.12
970.588	4318.12
970.813	4243.12
971.038	4215.12
971.263	4240.12
971.488	4192.12
971.713	4235.12
971.938	4192.12
972.163	4107.12
972.388	4140.12
972.613	4043.12
972.838	4112.12
973.062	4087.12
973.287	4056.12
973.512	4018.12
973.736	4055.12
973.961	4016.12
974.185	3985.12
974.41	3979.12
974.634	3869.12
974.858	3859.12
975.083	3933.12
975.307	3926.12
975.531	3826.12
975.755	3778.12
975.98	3811.12
976.204	3705.12
976.428	3692.12
976.652	3650.12
976.876	3681.12
977.1	3755.12
977.324	3631.12
977.547	3634.12
977.771	3714.12
977.995	3658.12
978.219	3632.12
978.442	3724.12
978.666	3622.12
978.89	3604.12
979.113	3577.12
979.337	3609.12
979.56	3532.12
979.783	3631.12
980.007	3499.12
980.23	3519.12
980.453	3462.12
980.677	3489.12
980.9	3497.12
981.123	3413.12
981.346	3499.12
981.569	3451.12
981.792	3428.12
982.015	3363.12
982.238	3343.12
982.461	3358.12
982.684	3325.12
982.907	3281.12
983.129	3295.12
983.352	3301.12
983.575	3268.12
983.797	3270.12
984.02	3208.12
984.242	3249.12
984.465	3211.12
984.687	3256.12
984.91	3250.12
985.132	3183.12
985.354	3242.12
985.577	3124.12
985.799	3140.12
986.021	3056.12
986.243	3104.12
986.465	3106.12
986.687	3116.12
986.909	3187.12
987.131	3052.12
987.353	3019.12
987.575	3062.12
987.797	3019.12
988.019	2961.12
988.241	3014.12
988.462	2982.12
988.684	3005.12
988.906	3051.12
989.127	3064.12
989.349	2936.12
989.57	2959.12
989.792	2986.12
990.013	3018.12
990.234	2994.12
990.456	2959.12
990.677	2959.12
990.898	2891.12
991.119	2878.12
991.341	2905.12
991.562	2827.12
991.783	2890.12
992.004	2841.12
992.225	2774.12
992.446	2823.12
992.667	2723.12
992.887	2814.12
993.108	2705.12
993.329	2781.12
993.55	2750.12
993.77	2659.12
993.991	2676.12
994.212	2710.12
994.432	2665.12
994.653	2687.12
994.873	2665.12
995.093	2554.12
995.314	2595.12
995.534	2662.12
995.754	2648.12
995.975	2661.12
996.195	2598.12
996.415	2638.12
996.635	2605.12
996.855	2623.12
997.075	2562.12
997.295	2580.12
997.515	2554.12
997.735	2592.12
997.955	2566.12
998.174	2534.12
998.394	2522.12
998.614	2573.12
998.834	2516.12
999.053	2590.12
999.273	2568.12
999.492	2533.12
999.712	2531.12
999.931	2470.12
1000.151	2489.12
1000.37	2470.12
1000.589	2520.12
1000.809	2426.12
1001.028	2560.12
1001.247	2500.12
1001.466	2352.12
1001.685	2495.12
1001.904	2416.12
1002.123	2368.12
1002.342	2386.12
1002.561	2349.12
1002.78	2344.12
1002.999	2375.12
1003.218	2335.12
1003.436	2314.12
1003.655	2358.12
1003.874	2251.12
1004.092	2278.12
1004.311	2363.12
1004.53	2299.12
1004.748	2369.12
1004.966	2276.12
1005.185	2316.12
1005.403	2325.12
1005.622	2283.12
1005.84	2371.12
1006.058	2282.12
1006.276	2285.12
1006.494	2771.12
1006.712	2250.12
1006.931	2353.12
1007.149	2270.12
1007.367	2269.12
1007.584	2279.12
1007.802	2320.12
1008.02	2284.12
1008.238	2389.12
1008.456	2401.12
1008.673	2256.12
1008.891	2396.12
1009.109	2394.12
1009.326	2442.12
1009.544	2568.12
1009.761	2466.12
1009.979	2583.12
1010.196	2664.12
1010.413	2798.12
1010.631	2896.12
1010.848	2970.12
1011.065	3025.12
1011.282	2980.12
1011.5	2913.12
1011.717	3059.12
1011.934	2966.12
1012.151	2992.12
1012.368	2946.12
1012.585	2890.12
1012.801	2939.12
1013.018	2957.12
1013.235	2898.12
1013.452	2916.12
1013.669	2964.12
1013.885	2944.12
1014.102	2980.12
1014.318	2951.12
1014.535	2892.12
1014.751	2928.12
1014.968	2923.12
1015.184	2945.12
1015.401	2836.12
1015.617	2860.12
1015.833	2819.12
1016.049	2788.12
1016.266	2741.12
1016.482	2763.12
1016.698	2691.12
1016.914	2757.12
1017.13	2667.12
1017.346	2679.12
1017.562	2723.12
1017.778	2638.12
1017.993	2609.12
1018.209	2700.12
1018.425	2621.12
1018.641	2607.12
1018.856	2586.12
1019.072	2639.12
1019.288	2650.12
1019.503	2637.12
1019.719	2537.12
1019.934	2551.12
1020.149	2626.12
1020.365	2518.12
1020.58	2471.12
1020.795	2482.12
1021.011	2410.12
1021.226	2351.12
1021.441	2335.12
1021.656	2261.12
1021.871	2174.12
1022.086	2151.12
1022.301	2089.12
1022.516	2078.12
1022.731	2134.12
1022.946	2029.12
1023.16	1985.12
1023.375	1902.12
1023.59	1917.12
1023.804	1848.12
1024.019	1923.12
1024.234	1782.12
1024.448	1799.12
1024.663	1719.12
1024.877	1723.12
1025.092	1719.12
1025.306	1710.12
1025.52	1607.12
1025.734	1654.12
1025.949	1520.12
1026.163	1514.12
1026.377	1448.12
1026.591	1476.12
1026.805	1386.12
1027.019	1369.12
1027.233	1339.12
1027.447	1277.12
1027.661	1348.12
1027.875	1300.12
1028.088	1311.12
1028.302	1186.12
1028.516	1163.12
1028.73	1169.12
1028.943	1132.12
1029.157	1058.12
1029.37	1010.12
1029.584	0.12
1029.797	0.12
1030.011	-1.88
1030.224	-4.88
