Data from QEP037381__0__15-09-15-853.txt Node

Date: Fri Dec 16 15:09:15 EST 2022
User: dcclab
Spectrometer: QEP03738
Trigger mode: 4
Integration Time (sec): 1.000000E1
Scans to average: 1
Electric dark correction enabled: true
Nonlinearity correction enabled: false
Boxcar width: 0
XAxis mode: Wavelengths
Number of Pixels in Spectrum: 1044
>>>>>Begin Spectral Data<<<<<
784.041	14.12
784.3	0.12
784.558	-1.88
784.817	-4.88
785.075	78141.12
785.334	13587.12
785.592	6516.12
785.851	4483.12
786.109	3388.12
786.368	2615.12
786.626	2131.12
786.884	1800.12
787.143	1528.12
787.401	1272.12
787.659	1156.12
787.917	1006.12
788.175	936.12
788.433	822.12
788.691	746.12
788.949	712.12
789.207	664.12
789.465	589.12
789.723	566.12
789.98	520.12
790.238	571.12
790.496	527.12
790.753	512.12
791.011	557.12
791.268	501.12
791.526	485.12
791.783	517.12
792.041	486.12
792.298	416.12
792.556	492.12
792.813	471.12
793.07	441.12
793.327	434.12
793.584	515.12
793.841	449.12
794.099	465.12
794.356	524.12
794.613	436.12
794.869	445.12
795.126	405.12
795.383	412.12
795.64	420.12
795.897	381.12
796.153	434.12
796.41	423.12
796.667	404.12
796.923	408.12
797.18	418.12
797.436	471.12
797.693	419.12
797.949	461.12
798.206	487.12
798.462	410.12
798.718	461.12
798.974	451.12
799.231	482.12
799.487	467.12
799.743	493.12
799.999	520.12
800.255	526.12
800.511	511.12
800.767	564.12
801.023	564.12
801.279	586.12
801.534	608.12
801.79	648.12
802.046	668.12
802.302	817.12
802.557	944.12
802.813	1136.12
803.068	1428.12
803.324	1947.12
803.579	2722.12
803.835	3693.12
804.09	5109.12
804.345	6774.12
804.601	8613.12
804.856	10432.12
805.111	12110.12
805.366	13409.12
805.621	14377.12
805.876	15073.12
806.131	15492.12
806.386	15743.12
806.641	16081.12
806.896	16420.12
807.151	16654.12
807.406	16923.12
807.661	17291.12
807.915	17611.12
808.17	17889.12
808.425	18074.12
808.679	18199.12
808.934	18494.12
809.188	18675.12
809.443	18978.12
809.697	19223.12
809.951	19325.12
810.206	19440.12
810.46	19645.12
810.714	20007.12
810.968	20093.12
811.223	20209.12
811.477	20350.12
811.731	20496.12
811.985	20662.12
812.239	20647.12
812.493	20815.12
812.747	21008.12
813	20991.12
813.254	21185.12
813.508	21273.12
813.762	21277.12
814.015	21503.12
814.269	21752.12
814.522	21886.12
814.776	22030.12
815.03	22386.12
815.283	22742.12
815.536	23099.12
815.79	23445.12
816.043	23897.12
816.296	24006.12
816.55	24437.12
816.803	24662.12
817.056	25035.12
817.309	25345.12
817.562	25494.12
817.815	25762.12
818.068	25900.12
818.321	26372.12
818.574	26538.12
818.827	26776.12
819.079	27376.12
819.332	27732.12
819.585	28123.12
819.838	28533.12
820.09	28571.12
820.343	28929.12
820.595	29014.12
820.848	29192.12
821.1	29296.12
821.353	29331.12
821.605	29343.12
821.857	29469.12
822.11	29248.12
822.362	29135.12
822.614	29030.12
822.866	29159.12
823.118	29106.12
823.37	29259.12
823.622	29368.12
823.874	29421.12
824.126	29591.12
824.378	29547.12
824.63	29710.12
824.882	29703.12
825.134	29824.12
825.385	29769.12
825.637	29771.12
825.888	29588.12
826.14	29550.12
826.392	29470.12
826.643	29269.12
826.895	29201.12
827.146	29193.12
827.397	29105.12
827.649	29158.12
827.9	29049.12
828.151	29152.12
828.402	29178.12
828.653	29242.12
828.905	29280.12
829.156	29631.12
829.407	29405.12
829.658	29534.12
829.909	29411.12
830.159	29449.12
830.41	29257.12
830.661	29196.12
830.912	29034.12
831.162	28901.12
831.413	28906.12
831.664	28858.12
831.914	28881.12
832.165	28763.12
832.415	28773.12
832.666	28969.12
832.916	28901.12
833.167	28813.12
833.417	28807.12
833.667	28764.12
833.917	28653.12
834.168	28656.12
834.418	28500.12
834.668	28415.12
834.918	28310.12
835.168	28218.12
835.418	28118.12
835.668	27913.12
835.918	27908.12
836.167	28010.12
836.417	27761.12
836.667	27776.12
836.917	27791.12
837.166	27748.12
837.416	27817.12
837.666	27709.12
837.915	27794.12
838.165	27613.12
838.414	27587.12
838.663	27530.12
838.913	27429.12
839.162	27403.12
839.411	27438.12
839.661	27322.12
839.91	27368.12
840.159	27186.12
840.408	27314.12
840.657	27212.12
840.906	27191.12
841.155	27306.12
841.404	27222.12
841.653	27390.12
841.902	27326.12
842.15	27320.12
842.399	27374.12
842.648	27167.12
842.897	27159.12
843.145	26957.12
843.394	26870.12
843.642	26706.12
843.891	26608.12
844.139	26548.12
844.388	26317.12
844.636	26299.12
844.884	26186.12
845.133	26241.12
845.381	26203.12
845.629	26288.12
845.877	26093.12
846.125	26149.12
846.373	26167.12
846.621	25954.12
846.869	25918.12
847.117	25715.12
847.365	25629.12
847.613	25528.12
847.861	25526.12
848.108	25536.12
848.356	25503.12
848.604	25307.12
848.851	25282.12
849.099	25464.12
849.346	25513.12
849.594	25536.12
849.841	25696.12
850.089	25668.12
850.336	25773.12
850.583	25733.12
850.831	25595.12
851.078	25568.12
851.325	25501.12
851.572	25480.12
851.819	25350.12
852.066	24777.12
852.313	24413.12
852.56	24341.12
852.807	24218.12
853.054	24134.12
853.301	24164.12
853.548	24243.12
853.794	24287.12
854.041	24380.12
854.288	24548.12
854.534	24713.12
854.781	24694.12
855.028	24573.12
855.274	24540.12
855.52	24507.12
855.767	24293.12
856.013	24180.12
856.26	24540.12
856.506	24157.12
856.752	24030.12
856.998	24072.12
857.244	24240.12
857.49	24231.12
857.736	24253.12
857.982	24295.12
858.228	24092.12
858.474	24055.12
858.72	23902.12
858.966	23766.12
859.212	23524.12
859.458	23342.12
859.703	23106.12
859.949	22836.12
860.195	22805.12
860.44	22728.12
860.686	22525.12
860.931	22673.12
861.177	22414.12
861.422	22411.12
861.667	22265.12
861.913	22322.12
862.158	22357.12
862.403	22360.12
862.648	22427.12
862.893	22531.12
863.138	22478.12
863.384	22463.12
863.629	22341.12
863.873	22357.12
864.118	22364.12
864.363	22207.12
864.608	22178.12
864.853	22047.12
865.098	22006.12
865.342	21840.12
865.587	21775.12
865.832	21828.12
866.076	21748.12
866.321	21716.12
866.565	21524.12
866.81	21444.12
867.054	21590.12
867.298	21479.12
867.543	21294.12
867.787	21359.12
868.031	21372.12
868.275	21296.12
868.519	21321.12
868.764	21177.12
869.008	21153.12
869.252	21103.12
869.496	21060.12
869.739	20962.12
869.983	21157.12
870.227	21043.12
870.471	21044.12
870.715	21109.12
870.958	21205.12
871.202	21251.12
871.446	21223.12
871.689	21092.12
871.933	21336.12
872.176	21165.12
872.42	21193.12
872.663	21258.12
872.906	21147.12
873.15	21068.12
873.393	20907.12
873.636	20933.12
873.879	20693.12
874.122	20513.12
874.366	20207.12
874.609	20072.12
874.852	20066.12
875.095	19909.12
875.337	19879.12
875.58	19709.12
875.823	19722.12
876.066	19655.12
876.309	19602.12
876.551	19459.12
876.794	19360.12
877.037	19340.12
877.279	19293.12
877.522	19289.12
877.764	19319.12
878.007	19252.12
878.249	19331.12
878.491	19158.12
878.734	19252.12
878.976	19205.12
879.218	19062.12
879.46	18895.12
879.702	18828.12
879.945	18767.12
880.187	18539.12
880.429	18465.12
880.671	18350.12
880.912	18319.12
881.154	18236.12
881.396	18180.12
881.638	18245.12
881.88	18175.12
882.121	18191.12
882.363	18187.12
882.605	18163.12
882.846	18191.12
883.088	18118.12
883.329	18004.12
883.571	18074.12
883.812	18071.12
884.053	18264.12
884.295	18557.12
884.536	18842.12
884.777	18565.12
885.018	18474.12
885.259	18462.12
885.5	18417.12
885.742	18804.12
885.982	18385.12
886.223	18259.12
886.464	18148.12
886.705	17999.12
886.946	17926.12
887.187	17629.12
887.428	17509.12
887.668	17205.12
887.909	17020.12
888.15	16801.12
888.39	16786.12
888.631	16664.12
888.871	16632.12
889.111	16437.12
889.352	16274.12
889.592	16253.12
889.833	16191.12
890.073	16081.12
890.313	16064.12
890.553	15804.12
890.793	15759.12
891.033	15692.12
891.273	15720.12
891.513	15595.12
891.753	15664.12
891.993	15557.12
892.233	15585.12
892.473	15665.12
892.713	15749.12
892.952	15638.12
893.192	15716.12
893.432	15711.12
893.671	15716.12
893.911	15500.12
894.15	15479.12
894.39	15385.12
894.629	15261.12
894.869	15311.12
895.108	15131.12
895.347	15073.12
895.587	15121.12
895.826	15123.12
896.065	14961.12
896.304	15067.12
896.543	15031.12
896.782	14936.12
897.021	14934.12
897.26	14983.12
897.499	14946.12
897.738	15011.12
897.977	14786.12
898.216	14711.12
898.454	14627.12
898.693	14530.12
898.932	14573.12
899.17	14438.12
899.409	14434.12
899.647	14422.12
899.886	14460.12
900.124	14389.12
900.363	14505.12
900.601	14482.12
900.839	14458.12
901.078	14489.12
901.316	14586.12
901.554	14673.12
901.792	14685.12
902.03	14635.12
902.268	14732.12
902.506	14752.12
902.744	14543.12
902.982	14429.12
903.22	14161.12
903.458	13941.12
903.695	13906.12
903.933	13684.12
904.171	13412.12
904.409	13194.12
904.646	12984.12
904.884	12893.12
905.121	12728.12
905.359	12651.12
905.596	12534.12
905.833	12424.12
906.071	12253.12
906.308	12315.12
906.545	12209.12
906.783	12160.12
907.02	12176.12
907.257	12107.12
907.494	12142.12
907.731	12081.12
907.968	11962.12
908.205	11870.12
908.442	11795.12
908.679	11761.12
908.915	11714.12
909.152	11635.12
909.389	11420.12
909.626	11407.12
909.862	11302.12
910.099	11297.12
910.335	11296.12
910.572	11168.12
910.808	11193.12
911.045	11116.12
911.281	11030.12
911.518	11131.12
911.754	10975.12
911.99	10941.12
912.226	10887.12
912.463	10707.12
912.699	10684.12
912.935	10606.12
913.171	10509.12
913.407	10456.12
913.643	10422.12
913.879	10239.12
914.114	10168.12
914.35	10079.12
914.586	9943.12
914.822	9858.12
915.057	9977.12
915.293	9773.12
915.529	9768.12
915.764	9748.12
916	9748.12
916.235	9720.12
916.471	9677.12
916.706	9549.12
916.941	9692.12
917.177	9596.12
917.412	9636.12
917.647	9679.12
917.882	9589.12
918.117	9560.12
918.352	9570.12
918.588	9537.12
918.823	9370.12
919.057	9333.12
919.292	9225.12
919.527	9295.12
919.762	9123.12
919.997	9028.12
920.232	8972.12
920.466	8885.12
920.701	8739.12
920.935	8659.12
921.17	8587.12
921.405	8608.12
921.639	8633.12
921.873	8576.12
922.108	8516.12
922.342	8531.12
922.576	8426.12
922.811	8412.12
923.045	8441.12
923.279	8460.12
923.513	8289.12
923.747	8332.12
923.981	8219.12
924.215	8154.12
924.449	8124.12
924.683	8084.12
924.917	8027.12
925.151	8000.12
925.385	8060.12
925.618	7955.12
925.852	7996.12
926.086	7907.12
926.319	7877.12
926.553	7936.12
926.786	7910.12
927.02	7900.12
927.253	7956.12
927.486	7912.12
927.72	7817.12
927.953	7897.12
928.186	7781.12
928.42	7847.12
928.653	7739.12
928.886	7676.12
929.119	7714.12
929.352	7638.12
929.585	7607.12
929.818	7486.12
930.051	7501.12
930.284	7513.12
930.516	7384.12
930.749	7290.12
930.982	7330.12
931.215	7258.12
931.447	7260.12
931.68	7131.12
931.912	7132.12
932.145	7118.12
932.377	7126.12
932.61	7282.12
932.842	7145.12
933.074	7195.12
933.307	7134.12
933.539	7144.12
933.771	7194.12
934.003	7085.12
934.236	7225.12
934.468	7196.12
934.7	7145.12
934.932	7155.12
935.164	7035.12
935.395	7000.12
935.627	7032.12
935.859	7024.12
936.091	6872.12
936.323	6951.12
936.554	6974.12
936.786	6898.12
937.017	6810.12
937.249	6869.12
937.481	6839.12
937.712	6823.12
937.943	6806.12
938.175	6811.12
938.406	6727.12
938.637	6794.12
938.869	6709.12
939.1	6738.12
939.331	6741.12
939.562	6730.12
939.793	6676.12
940.024	6668.12
940.255	6630.12
940.486	6552.12
940.717	6531.12
940.948	6547.12
941.179	6427.12
941.409	6519.12
941.64	6495.12
941.871	6525.12
942.102	6440.12
942.332	6453.12
942.563	6515.12
942.793	6512.12
943.024	6406.12
943.254	6450.12
943.484	6452.12
943.715	6449.12
943.945	6440.12
944.175	6347.12
944.405	6370.12
944.636	6338.12
944.866	6376.12
945.096	6378.12
945.326	6292.12
945.556	6354.12
945.786	6317.12
946.016	6207.12
946.245	6104.12
946.475	6155.12
946.705	6094.12
946.935	6151.12
947.164	6077.12
947.394	6036.12
947.624	5965.12
947.853	6027.12
948.083	6002.12
948.312	5977.12
948.542	5862.12
948.771	5770.12
949	5762.12
949.23	5800.12
949.459	5829.12
949.688	5862.12
949.917	5826.12
950.146	5869.12
950.375	5891.12
950.604	5725.12
950.833	5806.12
951.062	5800.12
951.291	5738.12
951.52	5710.12
951.749	5716.12
951.978	5669.12
952.206	5700.12
952.435	5624.12
952.664	5656.12
952.892	5656.12
953.121	5559.12
953.349	5607.12
953.578	5539.12
953.806	5534.12
954.035	5437.12
954.263	5490.12
954.491	5431.12
954.719	5480.12
954.948	5408.12
955.176	5365.12
955.404	5267.12
955.632	5285.12
955.86	5310.12
956.088	5261.12
956.316	5256.12
956.544	5273.12
956.772	5149.12
956.999	5176.12
957.227	5181.12
957.455	5042.12
957.683	5111.12
957.91	5016.12
958.138	5022.12
958.365	5034.12
958.593	4995.12
958.82	4930.12
959.048	5006.12
959.275	4932.12
959.502	4898.12
959.73	4897.12
959.957	4921.12
960.184	4932.12
960.411	4829.12
960.638	4879.12
960.865	4859.12
961.092	4841.12
961.319	4745.12
961.546	4859.12
961.773	4842.12
962	4792.12
962.227	4837.12
962.454	4781.12
962.68	4747.12
962.907	4759.12
963.134	4694.12
963.36	4726.12
963.587	4756.12
963.813	4574.12
964.04	4637.12
964.266	4554.12
964.493	4655.12
964.719	4537.12
964.945	4541.12
965.171	4487.12
965.398	4521.12
965.624	4518.12
965.85	4441.12
966.076	4426.12
966.302	4403.12
966.528	4333.12
966.754	4386.12
966.98	4382.12
967.206	4308.12
967.431	4273.12
967.657	4351.12
967.883	4280.12
968.109	4287.12
968.334	4231.12
968.56	4270.12
968.785	4224.12
969.011	4169.12
969.236	4184.12
969.462	4165.12
969.687	4184.12
969.912	4171.12
970.138	4244.12
970.363	4127.12
970.588	4140.12
970.813	4071.12
971.038	4075.12
971.263	4114.12
971.488	4079.12
971.713	4084.12
971.938	4060.12
972.163	3925.12
972.388	3931.12
972.613	3925.12
972.838	3947.12
973.062	3962.12
973.287	3916.12
973.512	3845.12
973.736	3859.12
973.961	3842.12
974.185	3803.12
974.41	3845.12
974.634	3740.12
974.858	3735.12
975.083	3746.12
975.307	3770.12
975.531	3658.12
975.755	3667.12
975.98	3695.12
976.204	3554.12
976.428	3541.12
976.652	3555.12
976.876	3541.12
977.1	3569.12
977.324	3559.12
977.547	3567.12
977.771	3540.12
977.995	3525.12
978.219	3432.12
978.442	3545.12
978.666	3496.12
978.89	3491.12
979.113	3469.12
979.337	3444.12
979.56	3394.12
979.783	3502.12
980.007	3385.12
980.23	3366.12
980.453	3388.12
980.677	3394.12
980.9	3354.12
981.123	3301.12
981.346	3391.12
981.569	3307.12
981.792	3335.12
982.015	3242.12
982.238	3201.12
982.461	3209.12
982.684	3221.12
982.907	3166.12
983.129	3104.12
983.352	3199.12
983.575	3123.12
983.797	3158.12
984.02	3070.12
984.242	3094.12
984.465	3069.12
984.687	3107.12
984.91	3115.12
985.132	3078.12
985.354	3062.12
985.577	3047.12
985.799	3023.12
986.021	2895.12
986.243	2960.12
986.465	2988.12
986.687	3014.12
986.909	3028.12
987.131	2951.12
987.353	2904.12
987.575	2942.12
987.797	2905.12
988.019	2850.12
988.241	2895.12
988.462	2856.12
988.684	2900.12
988.906	2928.12
989.127	2953.12
989.349	2783.12
989.57	2845.12
989.792	2880.12
990.013	2893.12
990.234	2841.12
990.456	2853.12
990.677	2837.12
990.898	2806.12
991.119	2782.12
991.341	2817.12
991.562	2718.12
991.783	2765.12
992.004	2692.12
992.225	2631.12
992.446	2717.12
992.667	2599.12
992.887	2684.12
993.108	2578.12
993.329	2727.12
993.55	2632.12
993.77	2569.12
993.991	2599.12
994.212	2619.12
994.432	2572.12
994.653	2579.12
994.873	2558.12
995.093	2435.12
995.314	2467.12
995.534	2547.12
995.754	2517.12
995.975	2571.12
996.195	2428.12
996.415	2490.12
996.635	2455.12
996.855	2504.12
997.075	2450.12
997.295	2433.12
997.515	2472.12
997.735	2488.12
997.955	2442.12
998.174	2461.12
998.394	2418.12
998.614	2455.12
998.834	2428.12
999.053	2447.12
999.273	2452.12
999.492	2459.12
999.712	2386.12
999.931	2377.12
1000.151	2385.12
1000.37	2340.12
1000.589	2402.12
1000.809	2308.12
1001.028	2379.12
1001.247	2390.12
1001.466	2217.12
1001.685	2383.12
1001.904	2302.12
1002.123	2299.12
1002.342	2245.12
1002.561	2230.12
1002.78	2251.12
1002.999	2316.12
1003.218	2231.12
1003.436	2239.12
1003.655	2245.12
1003.874	2208.12
1004.092	2214.12
1004.311	2242.12
1004.53	2187.12
1004.748	2230.12
1004.966	2180.12
1005.185	2240.12
1005.403	2222.12
1005.622	2194.12
1005.84	2253.12
1006.058	2140.12
1006.276	2188.12
1006.494	2681.12
1006.712	2155.12
1006.931	2257.12
1007.149	2123.12
1007.367	2143.12
1007.584	2175.12
1007.802	2197.12
1008.02	2125.12
1008.238	2248.12
1008.456	2283.12
1008.673	2132.12
1008.891	2253.12
1009.109	2233.12
1009.326	2280.12
1009.544	2368.12
1009.761	2314.12
1009.979	2419.12
1010.196	2438.12
1010.413	2562.12
1010.631	2663.12
1010.848	2707.12
1011.065	2722.12
1011.282	2703.12
1011.5	2576.12
1011.717	2700.12
1011.934	2642.12
1012.151	2675.12
1012.368	2666.12
1012.585	2600.12
1012.801	2701.12
1013.018	2643.12
1013.235	2707.12
1013.452	2756.12
1013.669	2776.12
1013.885	2745.12
1014.102	2702.12
1014.318	2681.12
1014.535	2613.12
1014.751	2628.12
1014.968	2628.12
1015.184	2625.12
1015.401	2543.12
1015.617	2568.12
1015.833	2492.12
1016.049	2508.12
1016.266	2466.12
1016.482	2437.12
1016.698	2406.12
1016.914	2436.12
1017.13	2365.12
1017.346	2380.12
1017.562	2410.12
1017.778	2331.12
1017.993	2317.12
1018.209	2362.12
1018.425	2333.12
1018.641	2318.12
1018.856	2298.12
1019.072	2350.12
1019.288	2355.12
1019.503	2332.12
1019.719	2202.12
1019.934	2261.12
1020.149	2334.12
1020.365	2254.12
1020.58	2201.12
1020.795	2205.12
1021.011	2125.12
1021.226	2107.12
1021.441	2124.12
1021.656	2006.12
1021.871	1926.12
1022.086	1896.12
1022.301	1905.12
1022.516	1872.12
1022.731	1886.12
1022.946	1805.12
1023.16	1809.12
1023.375	1764.12
1023.59	1694.12
1023.804	1666.12
1024.019	1742.12
1024.234	1585.12
1024.448	1615.12
1024.663	1534.12
1024.877	1567.12
1025.092	1548.12
1025.306	1555.12
1025.52	1442.12
1025.734	1492.12
1025.949	1407.12
1026.163	1367.12
1026.377	1316.12
1026.591	1330.12
1026.805	1269.12
1027.019	1254.12
1027.233	1227.12
1027.447	1153.12
1027.661	1241.12
1027.875	1204.12
1028.088	1195.12
1028.302	1101.12
1028.516	1079.12
1028.73	1069.12
1028.943	1030.12
1029.157	961.12
1029.37	901.12
1029.584	-3.88
1029.797	-2.88
1030.011	-2.88
1030.224	2.12
