Data from QEP037381__64__15-19-55-861.txt Node

Date: Fri Dec 16 15:19:55 EST 2022
User: dcclab
Spectrometer: QEP03738
Trigger mode: 4
Integration Time (sec): 1.000000E1
Scans to average: 1
Electric dark correction enabled: true
Nonlinearity correction enabled: false
Boxcar width: 0
XAxis mode: Wavelengths
Number of Pixels in Spectrum: 1044
>>>>>Begin Spectral Data<<<<<
784.041	12.62
784.3	-1.38
784.558	-1.38
784.817	-4.38
785.075	89355.62
785.334	15642.62
785.592	7317.62
785.851	5093.62
786.109	3833.62
786.368	3006.62
786.626	2423.62
786.884	2026.62
787.143	1697.62
787.401	1398.62
787.659	1285.62
787.917	1100.62
788.175	1034.62
788.433	897.62
788.691	815.62
788.949	763.62
789.207	737.62
789.465	643.62
789.723	612.62
789.98	572.62
790.238	618.62
790.496	579.62
790.753	554.62
791.011	604.62
791.268	555.62
791.526	509.62
791.783	533.62
792.041	525.62
792.298	451.62
792.556	514.62
792.813	501.62
793.07	476.62
793.327	459.62
793.584	541.62
793.841	449.62
794.099	490.62
794.356	544.62
794.613	442.62
794.869	485.62
795.126	445.62
795.383	434.62
795.64	454.62
795.897	403.62
796.153	459.62
796.41	454.62
796.667	444.62
796.923	435.62
797.18	433.62
797.436	487.62
797.693	433.62
797.949	492.62
798.206	518.62
798.462	442.62
798.718	511.62
798.974	478.62
799.231	527.62
799.487	524.62
799.743	525.62
799.999	544.62
800.255	548.62
800.511	554.62
800.767	582.62
801.023	588.62
801.279	632.62
801.534	658.62
801.79	736.62
802.046	761.62
802.302	945.62
802.557	1110.62
802.813	1377.62
803.068	1743.62
803.324	2425.62
803.579	3315.62
803.835	4643.62
804.09	6488.62
804.345	8557.62
804.601	10894.62
804.856	13219.62
805.111	15347.62
805.366	16915.62
805.621	18070.62
805.876	18926.62
806.131	19384.62
806.386	19845.62
806.641	20041.62
806.896	20416.62
807.151	20936.62
807.406	21280.62
807.661	21722.62
807.915	22036.62
808.17	22469.62
808.425	22674.62
808.679	22930.62
808.934	23258.62
809.188	23476.62
809.443	23830.62
809.697	24174.62
809.951	24329.62
810.206	24604.62
810.46	24924.62
810.714	25108.62
810.968	25441.62
811.223	25591.62
811.477	25766.62
811.731	26076.62
811.985	26223.62
812.239	26303.62
812.493	26576.62
812.747	26800.62
813	26721.62
813.254	26848.62
813.508	27079.62
813.762	27210.62
814.015	27347.62
814.269	27491.62
814.522	27891.62
814.776	28249.62
815.03	28603.62
815.283	29096.62
815.536	29610.62
815.79	29953.62
816.043	30468.62
816.296	30929.62
816.55	31324.62
816.803	31677.62
817.056	32150.62
817.309	32522.62
817.562	32719.62
817.815	33143.62
818.068	33426.62
818.321	33832.62
818.574	34335.62
818.827	34759.62
819.079	35136.62
819.332	35991.62
819.585	36391.62
819.838	36908.62
820.09	36927.62
820.343	37426.62
820.595	37565.62
820.848	37927.62
821.1	38086.62
821.353	38061.62
821.605	38133.62
821.857	38170.62
822.11	37950.62
822.362	38014.62
822.614	37763.62
822.866	37882.62
823.118	37984.62
823.37	38069.62
823.622	38362.62
823.874	38377.62
824.126	38465.62
824.378	38518.62
824.63	38829.62
824.882	38852.62
825.134	38794.62
825.385	39026.62
825.637	38839.62
825.888	38673.62
826.14	38664.62
826.392	38481.62
826.643	38382.62
826.895	38269.62
827.146	38142.62
827.397	38122.62
827.649	38277.62
827.9	38105.62
828.151	38256.62
828.402	38284.62
828.653	38584.62
828.905	38573.62
829.156	38781.62
829.407	38735.62
829.658	38671.62
829.909	38818.62
830.159	38732.62
830.41	38557.62
830.661	38323.62
830.912	38170.62
831.162	38098.62
831.413	38079.62
831.664	38044.62
831.914	37987.62
832.165	38017.62
832.415	38081.62
832.666	38090.62
832.916	38164.62
833.167	38198.62
833.417	38184.62
833.667	38073.62
833.917	37849.62
834.168	38077.62
834.418	37670.62
834.668	37653.62
834.918	37407.62
835.168	37345.62
835.418	37146.62
835.668	37290.62
835.918	37241.62
836.167	37082.62
836.417	37038.62
836.667	36990.62
836.917	36971.62
837.166	36937.62
837.416	36996.62
837.666	37044.62
837.915	36916.62
838.165	36760.62
838.414	36667.62
838.663	36696.62
838.913	36656.62
839.162	36789.62
839.411	36646.62
839.661	36554.62
839.91	36468.62
840.159	36299.62
840.408	36401.62
840.657	36457.62
840.906	36609.62
841.155	36432.62
841.404	36506.62
841.653	36503.62
841.902	36531.62
842.15	36620.62
842.399	36672.62
842.648	36537.62
842.897	36534.62
843.145	36039.62
843.394	36047.62
843.642	35896.62
843.891	35770.62
844.139	35578.62
844.388	35379.62
844.636	35315.62
844.884	35249.62
845.133	35379.62
845.381	35222.62
845.629	35280.62
845.877	35252.62
846.125	35283.62
846.373	35225.62
846.621	35091.62
846.869	35051.62
847.117	34804.62
847.365	34702.62
847.613	34461.62
847.861	34452.62
848.108	34348.62
848.356	34391.62
848.604	34261.62
848.851	34353.62
849.099	34423.62
849.346	34475.62
849.594	34707.62
849.841	34904.62
850.089	34876.62
850.336	34830.62
850.583	34913.62
850.831	34619.62
851.078	34489.62
851.325	34541.62
851.572	34555.62
851.819	34284.62
852.066	33844.62
852.313	33275.62
852.56	33125.62
852.807	33042.62
853.054	32836.62
853.301	32845.62
853.548	32885.62
853.794	33072.62
854.041	33271.62
854.288	33398.62
854.534	33669.62
854.781	33622.62
855.028	33606.62
855.274	33567.62
855.52	33235.62
855.767	33160.62
856.013	33184.62
856.26	33263.62
856.506	32936.62
856.752	32956.62
856.998	32958.62
857.244	32934.62
857.49	33136.62
857.736	33116.62
857.982	33218.62
858.228	33147.62
858.474	32970.62
858.72	32780.62
858.966	32422.62
859.212	32112.62
859.458	31938.62
859.703	31625.62
859.949	31299.62
860.195	31249.62
860.44	31073.62
860.686	30982.62
860.931	30893.62
861.177	30741.62
861.422	30722.62
861.667	30645.62
861.913	30603.62
862.158	30794.62
862.403	30762.62
862.648	30967.62
862.893	31041.62
863.138	30969.62
863.384	30978.62
863.629	30900.62
863.873	30901.62
864.118	30832.62
864.363	30670.62
864.608	30535.62
864.853	30476.62
865.098	30336.62
865.342	30292.62
865.587	30163.62
865.832	30199.62
866.076	30121.62
866.321	30000.62
866.565	29926.62
866.81	29762.62
867.054	29775.62
867.298	29784.62
867.543	29665.62
867.787	29568.62
868.031	29449.62
868.275	29564.62
868.519	29513.62
868.764	29502.62
869.008	29427.62
869.252	29312.62
869.496	29189.62
869.739	29324.62
869.983	29370.62
870.227	29265.62
870.471	29231.62
870.715	29373.62
870.958	29432.62
871.202	29498.62
871.446	29508.62
871.689	29436.62
871.933	29643.62
872.176	29500.62
872.42	29528.62
872.663	29413.62
872.906	29405.62
873.15	29201.62
873.393	29077.62
873.636	28930.62
873.879	28761.62
874.122	28461.62
874.366	28200.62
874.609	28053.62
874.852	27845.62
875.095	27730.62
875.337	27554.62
875.58	27607.62
875.823	27528.62
876.066	27390.62
876.309	27363.62
876.551	27159.62
876.794	27023.62
877.037	27072.62
877.279	26961.62
877.522	27051.62
877.764	27084.62
878.007	26951.62
878.249	26958.62
878.491	26931.62
878.734	26867.62
878.976	26846.62
879.218	26653.62
879.46	26598.62
879.702	26419.62
879.945	26328.62
880.187	26031.62
880.429	25922.62
880.671	25802.62
880.912	25731.62
881.154	25773.62
881.396	25625.62
881.638	25535.62
881.88	25620.62
882.121	25557.62
882.363	25653.62
882.605	25539.62
882.846	25545.62
883.088	25422.62
883.329	25255.62
883.571	25300.62
883.812	25406.62
884.053	25652.62
884.295	25959.62
884.536	26158.62
884.777	26104.62
885.018	26006.62
885.259	25955.62
885.5	25850.62
885.742	26073.62
885.982	25894.62
886.223	25625.62
886.464	25532.62
886.705	25231.62
886.946	25085.62
887.187	24798.62
887.428	24610.62
887.668	24401.62
887.909	24130.62
888.15	23840.62
888.39	23829.62
888.631	23570.62
888.871	23435.62
889.111	23345.62
889.352	23264.62
889.592	22901.62
889.833	22873.62
890.073	22864.62
890.313	22738.62
890.553	22466.62
890.793	22381.62
891.033	22400.62
891.273	22215.62
891.513	22131.62
891.753	22120.62
891.993	22103.62
892.233	22170.62
892.473	22251.62
892.713	22217.62
892.952	22306.62
893.192	22347.62
893.432	22268.62
893.671	22275.62
893.911	22109.62
894.15	22026.62
894.39	21831.62
894.629	21804.62
894.869	21811.62
895.108	21594.62
895.347	21428.62
895.587	21596.62
895.826	21483.62
896.065	21441.62
896.304	21440.62
896.543	21436.62
896.782	21266.62
897.021	21421.62
897.26	21326.62
897.499	21267.62
897.738	21190.62
897.977	21096.62
898.216	20953.62
898.454	20973.62
898.693	20667.62
898.932	20678.62
899.17	20677.62
899.409	20663.62
899.647	20562.62
899.886	20552.62
900.124	20557.62
900.363	20627.62
900.601	20614.62
900.839	20677.62
901.078	20741.62
901.316	20786.62
901.554	20929.62
901.792	20953.62
902.03	20931.62
902.268	20861.62
902.506	20846.62
902.744	20797.62
902.982	20576.62
903.22	20318.62
903.458	20052.62
903.695	19846.62
903.933	19512.62
904.171	19240.62
904.409	18940.62
904.646	18696.62
904.884	18541.62
905.121	18383.62
905.359	18198.62
905.596	18054.62
905.833	17807.62
906.071	17779.62
906.308	17719.62
906.545	17624.62
906.783	17533.62
907.02	17561.62
907.257	17505.62
907.494	17426.62
907.731	17428.62
907.968	17279.62
908.205	17165.62
908.442	17093.62
908.679	17077.62
908.915	16830.62
909.152	16781.62
909.389	16509.62
909.626	16580.62
909.862	16413.62
910.099	16461.62
910.335	16267.62
910.572	16129.62
910.808	16123.62
911.045	16069.62
911.281	16067.62
911.518	16061.62
911.754	15947.62
911.99	15841.62
912.226	15715.62
912.463	15522.62
912.699	15524.62
912.935	15415.62
913.171	15325.62
913.407	15096.62
913.643	15023.62
913.879	14914.62
914.114	14821.62
914.35	14767.62
914.586	14557.62
914.822	14404.62
915.057	14476.62
915.293	14216.62
915.529	14142.62
915.764	14222.62
916	14231.62
916.235	14122.62
916.471	14097.62
916.706	14063.62
916.941	14038.62
917.177	14050.62
917.412	13994.62
917.647	13986.62
917.882	13955.62
918.117	13962.62
918.352	13858.62
918.588	13925.62
918.823	13715.62
919.057	13655.62
919.292	13520.62
919.527	13451.62
919.762	13276.62
919.997	13161.62
920.232	12867.62
920.466	12935.62
920.701	12777.62
920.935	12751.62
921.17	12662.62
921.405	12578.62
921.639	12624.62
921.873	12529.62
922.108	12491.62
922.342	12453.62
922.576	12357.62
922.811	12381.62
923.045	12412.62
923.279	12258.62
923.513	12117.62
923.747	12146.62
923.981	12071.62
924.215	12003.62
924.449	11973.62
924.683	11865.62
924.917	11772.62
925.151	11802.62
925.385	11734.62
925.618	11558.62
925.852	11639.62
926.086	11593.62
926.319	11639.62
926.553	11631.62
926.786	11588.62
927.02	11591.62
927.253	11668.62
927.486	11619.62
927.72	11556.62
927.953	11617.62
928.186	11491.62
928.42	11469.62
928.653	11497.62
928.886	11315.62
929.119	11308.62
929.352	11262.62
929.585	11173.62
929.818	11151.62
930.051	11103.62
930.284	10981.62
930.516	10776.62
930.749	10789.62
930.982	10819.62
931.215	10707.62
931.447	10624.62
931.68	10558.62
931.912	10554.62
932.145	10604.62
932.377	10632.62
932.61	10745.62
932.842	10549.62
933.074	10644.62
933.307	10555.62
933.539	10585.62
933.771	10647.62
934.003	10511.62
934.236	10673.62
934.468	10658.62
934.7	10501.62
934.932	10571.62
935.164	10405.62
935.395	10392.62
935.627	10402.62
935.859	10365.62
936.091	10291.62
936.323	10402.62
936.554	10359.62
936.786	10239.62
937.017	10166.62
937.249	10258.62
937.481	10112.62
937.712	10092.62
937.943	10088.62
938.175	10087.62
938.406	10090.62
938.637	10080.62
938.869	9972.62
939.1	10014.62
939.331	9988.62
939.562	9952.62
939.793	9972.62
940.024	9868.62
940.255	9858.62
940.486	9760.62
940.717	9767.62
940.948	9718.62
941.179	9655.62
941.409	9643.62
941.64	9623.62
941.871	9663.62
942.102	9618.62
942.332	9672.62
942.563	9596.62
942.793	9657.62
943.024	9555.62
943.254	9623.62
943.484	9576.62
943.715	9615.62
943.945	9541.62
944.175	9535.62
944.405	9480.62
944.636	9555.62
944.866	9479.62
945.096	9500.62
945.326	9440.62
945.556	9437.62
945.786	9437.62
946.016	9298.62
946.245	9282.62
946.475	9143.62
946.705	9154.62
946.935	9144.62
947.164	9050.62
947.394	8967.62
947.624	8979.62
947.853	8976.62
948.083	8927.62
948.312	8862.62
948.542	8842.62
948.771	8776.62
949	8761.62
949.23	8775.62
949.459	8710.62
949.688	8716.62
949.917	8705.62
950.146	8691.62
950.375	8690.62
950.604	8696.62
950.833	8721.62
951.062	8700.62
951.291	8638.62
951.52	8637.62
951.749	8638.62
951.978	8550.62
952.206	8561.62
952.435	8491.62
952.664	8519.62
952.892	8428.62
953.121	8440.62
953.349	8416.62
953.578	8314.62
953.806	8381.62
954.035	8247.62
954.263	8242.62
954.491	8142.62
954.719	8164.62
954.948	8147.62
955.176	8074.62
955.404	7959.62
955.632	8010.62
955.86	8025.62
956.088	8007.62
956.316	7962.62
956.544	7960.62
956.772	7849.62
956.999	7792.62
957.227	7825.62
957.455	7663.62
957.683	7673.62
957.91	7662.62
958.138	7555.62
958.365	7589.62
958.593	7487.62
958.82	7447.62
959.048	7511.62
959.275	7417.62
959.502	7436.62
959.73	7380.62
959.957	7303.62
960.184	7403.62
960.411	7333.62
960.638	7414.62
960.865	7382.62
961.092	7339.62
961.319	7240.62
961.546	7343.62
961.773	7310.62
962	7297.62
962.227	7285.62
962.454	7200.62
962.68	7227.62
962.907	7160.62
963.134	7065.62
963.36	7093.62
963.587	7046.62
963.813	6894.62
964.04	6961.62
964.266	6866.62
964.493	6898.62
964.719	6854.62
964.945	6838.62
965.171	6748.62
965.398	6753.62
965.624	6693.62
965.85	6607.62
966.076	6622.62
966.302	6692.62
966.528	6565.62
966.754	6606.62
966.98	6561.62
967.206	6564.62
967.431	6484.62
967.657	6525.62
967.883	6502.62
968.109	6466.62
968.334	6399.62
968.56	6388.62
968.785	6361.62
969.011	6301.62
969.236	6408.62
969.462	6305.62
969.687	6276.62
969.912	6314.62
970.138	6336.62
970.363	6223.62
970.588	6194.62
970.813	6167.62
971.038	6148.62
971.263	6177.62
971.488	6140.62
971.713	6178.62
971.938	6113.62
972.163	5974.62
972.388	6059.62
972.613	5956.62
972.838	5940.62
973.062	5908.62
973.287	5896.62
973.512	5815.62
973.736	5862.62
973.961	5814.62
974.185	5734.62
974.41	5802.62
974.634	5591.62
974.858	5718.62
975.083	5635.62
975.307	5695.62
975.531	5562.62
975.755	5515.62
975.98	5496.62
976.204	5456.62
976.428	5408.62
976.652	5380.62
976.876	5375.62
977.1	5406.62
977.324	5348.62
977.547	5386.62
977.771	5380.62
977.995	5283.62
978.219	5282.62
978.442	5366.62
978.666	5297.62
978.89	5225.62
979.113	5224.62
979.337	5237.62
979.56	5200.62
979.783	5267.62
980.007	5130.62
980.23	5125.62
980.453	5081.62
980.677	5132.62
980.9	5067.62
981.123	4957.62
981.346	5056.62
981.569	4991.62
981.792	4962.62
982.015	4974.62
982.238	4854.62
982.461	4868.62
982.684	4829.62
982.907	4798.62
983.129	4771.62
983.352	4779.62
983.575	4746.62
983.797	4699.62
984.02	4644.62
984.242	4667.62
984.465	4658.62
984.687	4640.62
984.91	4660.62
985.132	4579.62
985.354	4566.62
985.577	4529.62
985.799	4520.62
986.021	4403.62
986.243	4446.62
986.465	4508.62
986.687	4470.62
986.909	4490.62
987.131	4407.62
987.353	4395.62
987.575	4390.62
987.797	4342.62
988.019	4312.62
988.241	4318.62
988.462	4261.62
988.684	4328.62
988.906	4362.62
989.127	4348.62
989.349	4190.62
989.57	4204.62
989.792	4295.62
990.013	4266.62
990.234	4254.62
990.456	4230.62
990.677	4234.62
990.898	4143.62
991.119	4156.62
991.341	4133.62
991.562	4090.62
991.783	4108.62
992.004	3998.62
992.225	3946.62
992.446	3979.62
992.667	3919.62
992.887	3960.62
993.108	3870.62
993.329	3928.62
993.55	3903.62
993.77	3781.62
993.991	3786.62
994.212	3816.62
994.432	3761.62
994.653	3797.62
994.873	3723.62
995.093	3635.62
995.314	3673.62
995.534	3716.62
995.754	3738.62
995.975	3766.62
996.195	3586.62
996.415	3654.62
996.635	3611.62
996.855	3624.62
997.075	3597.62
997.295	3639.62
997.515	3557.62
997.735	3601.62
997.955	3593.62
998.174	3572.62
998.394	3540.62
998.614	3565.62
998.834	3526.62
999.053	3553.62
999.273	3517.62
999.492	3583.62
999.712	3475.62
999.931	3388.62
1000.151	3466.62
1000.37	3437.62
1000.589	3453.62
1000.809	3367.62
1001.028	3472.62
1001.247	3381.62
1001.466	3275.62
1001.685	3372.62
1001.904	3308.62
1002.123	3295.62
1002.342	3308.62
1002.561	3228.62
1002.78	3197.62
1002.999	3267.62
1003.218	3193.62
1003.436	3154.62
1003.655	3167.62
1003.874	3117.62
1004.092	3122.62
1004.311	3156.62
1004.53	3108.62
1004.748	3150.62
1004.966	3091.62
1005.185	3118.62
1005.403	3091.62
1005.622	3056.62
1005.84	3125.62
1006.058	3018.62
1006.276	3047.62
1006.494	3551.62
1006.712	3061.62
1006.931	3111.62
1007.149	3013.62
1007.367	3014.62
1007.584	3060.62
1007.802	3072.62
1008.02	3054.62
1008.238	3124.62
1008.456	3111.62
1008.673	2992.62
1008.891	3115.62
1009.109	3084.62
1009.326	3166.62
1009.544	3233.62
1009.761	3179.62
1009.979	3265.62
1010.196	3305.62
1010.413	3421.62
1010.631	3554.62
1010.848	3576.62
1011.065	3596.62
1011.282	3593.62
1011.5	3425.62
1011.717	3580.62
1011.934	3510.62
1012.151	3539.62
1012.368	3512.62
1012.585	3444.62
1012.801	3534.62
1013.018	3495.62
1013.235	3501.62
1013.452	3480.62
1013.669	3505.62
1013.885	3470.62
1014.102	3510.62
1014.318	3518.62
1014.535	3480.62
1014.751	3459.62
1014.968	3481.62
1015.184	3495.62
1015.401	3355.62
1015.617	3422.62
1015.833	3314.62
1016.049	3293.62
1016.266	3276.62
1016.482	3295.62
1016.698	3166.62
1016.914	3214.62
1017.13	3174.62
1017.346	3134.62
1017.562	3241.62
1017.778	3154.62
1017.993	3126.62
1018.209	3175.62
1018.425	3117.62
1018.641	3090.62
1018.856	3075.62
1019.072	3134.62
1019.288	3136.62
1019.503	3106.62
1019.719	3023.62
1019.934	3014.62
1020.149	3091.62
1020.365	2998.62
1020.58	2966.62
1020.795	2932.62
1021.011	2816.62
1021.226	2822.62
1021.441	2790.62
1021.656	2667.62
1021.871	2594.62
1022.086	2574.62
1022.301	2554.62
1022.516	2521.62
1022.731	2552.62
1022.946	2452.62
1023.16	2400.62
1023.375	2343.62
1023.59	2317.62
1023.804	2289.62
1024.019	2355.62
1024.234	2188.62
1024.448	2189.62
1024.663	2145.62
1024.877	2112.62
1025.092	2086.62
1025.306	2072.62
1025.52	1946.62
1025.734	1986.62
1025.949	1912.62
1026.163	1846.62
1026.377	1778.62
1026.591	1794.62
1026.805	1728.62
1027.019	1664.62
1027.233	1628.62
1027.447	1576.62
1027.661	1654.62
1027.875	1588.62
1028.088	1602.62
1028.302	1477.62
1028.516	1442.62
1028.73	1435.62
1028.943	1371.62
1029.157	1313.62
1029.37	1217.62
1029.584	-2.38
1029.797	-3.38
1030.011	0.62
1030.224	-0.38
