Data from QEP037381__72__15-21-15-861.txt Node

Date: Fri Dec 16 15:21:15 EST 2022
User: dcclab
Spectrometer: QEP03738
Trigger mode: 4
Integration Time (sec): 1.000000E1
Scans to average: 1
Electric dark correction enabled: true
Nonlinearity correction enabled: false
Boxcar width: 0
XAxis mode: Wavelengths
Number of Pixels in Spectrum: 1044
>>>>>Begin Spectral Data<<<<<
784.041	12.38
784.3	0.38
784.558	-2.62
784.817	-4.62
785.075	90300.38
785.334	15534.38
785.592	7273.38
785.851	5025.38
786.109	3777.38
786.368	2934.38
786.626	2404.38
786.884	2010.38
787.143	1677.38
787.401	1385.38
787.659	1284.38
787.917	1078.38
788.175	1016.38
788.433	884.38
788.691	796.38
788.949	740.38
789.207	733.38
789.465	626.38
789.723	601.38
789.98	573.38
790.238	600.38
790.496	572.38
790.753	548.38
791.011	603.38
791.268	532.38
791.526	499.38
791.783	532.38
792.041	508.38
792.298	437.38
792.556	492.38
792.813	479.38
793.07	451.38
793.327	441.38
793.584	532.38
793.841	449.38
794.099	479.38
794.356	509.38
794.613	438.38
794.869	477.38
795.126	430.38
795.383	413.38
795.64	435.38
795.897	385.38
796.153	446.38
796.41	445.38
796.667	422.38
796.923	424.38
797.18	431.38
797.436	453.38
797.693	415.38
797.949	473.38
798.206	500.38
798.462	414.38
798.718	482.38
798.974	455.38
799.231	499.38
799.487	487.38
799.743	497.38
799.999	522.38
800.255	518.38
800.511	511.38
800.767	550.38
801.023	525.38
801.279	575.38
801.534	616.38
801.79	683.38
802.046	702.38
802.302	866.38
802.557	966.38
802.813	1230.38
803.068	1492.38
803.324	2082.38
803.579	2837.38
803.835	3922.38
804.09	5434.38
804.345	7006.38
804.601	8927.38
804.856	10752.38
805.111	12424.38
805.366	13631.38
805.621	14609.38
805.876	15149.38
806.131	15575.38
806.386	15902.38
806.641	16145.38
806.896	16436.38
807.151	16785.38
807.406	17170.38
807.661	17367.38
807.915	17717.38
808.17	17970.38
808.425	18282.38
808.679	18400.38
808.934	18728.38
809.188	18880.38
809.443	19127.38
809.697	19354.38
809.951	19444.38
810.206	19686.38
810.46	19831.38
810.714	20060.38
810.968	20257.38
811.223	20370.38
811.477	20647.38
811.731	20789.38
811.985	20865.38
812.239	20946.38
812.493	20966.38
812.747	21212.38
813	21322.38
813.254	21491.38
813.508	21542.38
813.762	21676.38
814.015	21679.38
814.269	21986.38
814.522	22135.38
814.776	22411.38
815.03	22667.38
815.283	22945.38
815.536	23411.38
815.79	23720.38
816.043	24029.38
816.296	24404.38
816.55	24734.38
816.803	25051.38
817.056	25440.38
817.309	25530.38
817.562	25874.38
817.815	26200.38
818.068	26294.38
818.321	26555.38
818.574	26935.38
818.827	27266.38
819.079	27712.38
819.332	28251.38
819.585	28513.38
819.838	28921.38
820.09	29043.38
820.343	29397.38
820.595	29362.38
820.848	29599.38
821.1	29748.38
821.353	29815.38
821.605	29788.38
821.857	29825.38
822.11	29685.38
822.362	29501.38
822.614	29601.38
822.866	29633.38
823.118	29568.38
823.37	29584.38
823.622	29869.38
823.874	29829.38
824.126	30180.38
824.378	30118.38
824.63	30195.38
824.882	30210.38
825.134	30209.38
825.385	30216.38
825.637	30108.38
825.888	29956.38
826.14	29964.38
826.392	29965.38
826.643	29770.38
826.895	29787.38
827.146	29492.38
827.397	29625.38
827.649	29472.38
827.9	29388.38
828.151	29476.38
828.402	29586.38
828.653	29734.38
828.905	29743.38
829.156	29890.38
829.407	29781.38
829.658	29840.38
829.909	29953.38
830.159	29856.38
830.41	29833.38
830.661	29466.38
830.912	29432.38
831.162	29360.38
831.413	29263.38
831.664	29326.38
831.914	29291.38
832.165	29281.38
832.415	29216.38
832.666	29216.38
832.916	29369.38
833.167	29167.38
833.417	29273.38
833.667	29153.38
833.917	28987.38
834.168	28840.38
834.418	29048.38
834.668	28715.38
834.918	28697.38
835.168	28543.38
835.418	28526.38
835.668	28381.38
835.918	28335.38
836.167	28167.38
836.417	28303.38
836.667	28124.38
836.917	28233.38
837.166	28122.38
837.416	28238.38
837.666	28016.38
837.915	28093.38
838.165	28054.38
838.414	27929.38
838.663	27883.38
838.913	28000.38
839.162	27792.38
839.411	27896.38
839.661	27753.38
839.91	27708.38
840.159	27669.38
840.408	27592.38
840.657	27759.38
840.906	27578.38
841.155	27794.38
841.404	27772.38
841.653	27746.38
841.902	27657.38
842.15	27838.38
842.399	27769.38
842.648	27720.38
842.897	27520.38
843.145	27357.38
843.394	27226.38
843.642	27097.38
843.891	26979.38
844.139	26825.38
844.388	26588.38
844.636	26685.38
844.884	26672.38
845.133	26519.38
845.381	26510.38
845.629	26733.38
845.877	26508.38
846.125	26460.38
846.373	26428.38
846.621	26350.38
846.869	26381.38
847.117	26189.38
847.365	26040.38
847.613	25950.38
847.861	25932.38
848.108	25863.38
848.356	25790.38
848.604	25827.38
848.851	25740.38
849.099	25766.38
849.346	25839.38
849.594	26021.38
849.841	26093.38
850.089	26094.38
850.336	26076.38
850.583	26136.38
850.831	25907.38
851.078	25938.38
851.325	25809.38
851.572	25997.38
851.819	25766.38
852.066	25297.38
852.313	24883.38
852.56	24705.38
852.807	24659.38
853.054	24492.38
853.301	24523.38
853.548	24506.38
853.794	24767.38
854.041	24742.38
854.288	24826.38
854.534	25076.38
854.781	25076.38
855.028	24910.38
855.274	24920.38
855.52	24780.38
855.767	24668.38
856.013	24703.38
856.26	24984.38
856.506	24466.38
856.752	24591.38
856.998	24456.38
857.244	24569.38
857.49	24644.38
857.736	24743.38
857.982	24655.38
858.228	24575.38
858.474	24456.38
858.72	24401.38
858.966	24087.38
859.212	23784.38
859.458	23545.38
859.703	23380.38
859.949	23240.38
860.195	23186.38
860.44	23053.38
860.686	22996.38
860.931	22912.38
861.177	22661.38
861.422	22696.38
861.667	22475.38
861.913	22537.38
862.158	22643.38
862.403	22602.38
862.648	22720.38
862.893	22855.38
863.138	22819.38
863.384	22658.38
863.629	22657.38
863.873	22652.38
864.118	22517.38
864.363	22446.38
864.608	22632.38
864.853	22354.38
865.098	22273.38
865.342	22242.38
865.587	22077.38
865.832	22143.38
866.076	21964.38
866.321	22020.38
866.565	21929.38
866.81	21809.38
867.054	21846.38
867.298	21692.38
867.543	21695.38
867.787	21702.38
868.031	21681.38
868.275	21559.38
868.519	21477.38
868.764	21542.38
869.008	21477.38
869.252	21531.38
869.496	21424.38
869.739	21515.38
869.983	21483.38
870.227	21434.38
870.471	21419.38
870.715	21562.38
870.958	21509.38
871.202	21628.38
871.446	21568.38
871.689	21641.38
871.933	21601.38
872.176	21562.38
872.42	21479.38
872.663	21383.38
872.906	21379.38
873.15	21373.38
873.393	21260.38
873.636	21295.38
873.879	21113.38
874.122	20883.38
874.366	20493.38
874.609	20452.38
874.852	20376.38
875.095	20283.38
875.337	20102.38
875.58	20054.38
875.823	20011.38
876.066	19985.38
876.309	19855.38
876.551	19690.38
876.794	19605.38
877.037	19656.38
877.279	19705.38
877.522	19697.38
877.764	19585.38
878.007	19554.38
878.249	19641.38
878.491	19478.38
878.734	19440.38
878.976	19442.38
879.218	19213.38
879.46	19132.38
879.702	18989.38
879.945	18867.38
880.187	18648.38
880.429	18627.38
880.671	18475.38
880.912	18493.38
881.154	18446.38
881.396	18278.38
881.638	18460.38
881.88	18480.38
882.121	18382.38
882.363	18409.38
882.605	18371.38
882.846	18391.38
883.088	18262.38
883.329	18308.38
883.571	18254.38
883.812	18359.38
884.053	18705.38
884.295	19033.38
884.536	19187.38
884.777	19152.38
885.018	19096.38
885.259	19035.38
885.5	18944.38
885.742	19162.38
885.982	18843.38
886.223	18681.38
886.464	18574.38
886.705	18334.38
886.946	18183.38
887.187	17928.38
887.428	17628.38
887.668	17400.38
887.909	17241.38
888.15	16906.38
888.39	16925.38
888.631	16821.38
888.871	16730.38
889.111	16526.38
889.352	16421.38
889.592	16362.38
889.833	16242.38
890.073	16145.38
890.313	16163.38
890.553	15912.38
890.793	15915.38
891.033	15848.38
891.273	15794.38
891.513	15669.38
891.753	15662.38
891.993	15752.38
892.233	15705.38
892.473	15825.38
892.713	15796.38
892.952	15762.38
893.192	15807.38
893.432	15762.38
893.671	15786.38
893.911	15674.38
894.15	15657.38
894.39	15443.38
894.629	15400.38
894.869	15326.38
895.108	15264.38
895.347	15144.38
895.587	15284.38
895.826	15174.38
896.065	15159.38
896.304	15271.38
896.543	15154.38
896.782	15126.38
897.021	15225.38
897.26	15234.38
897.499	15166.38
897.738	15149.38
897.977	14956.38
898.216	14954.38
898.454	14756.38
898.693	14781.38
898.932	14691.38
899.17	14603.38
899.409	14670.38
899.647	14573.38
899.886	14632.38
900.124	14636.38
900.363	14558.38
900.601	14694.38
900.839	14723.38
901.078	14759.38
901.316	14819.38
901.554	14980.38
901.792	15030.38
902.03	15032.38
902.268	15035.38
902.506	15030.38
902.744	14908.38
902.982	14718.38
903.22	14430.38
903.458	14256.38
903.695	14095.38
903.933	13846.38
904.171	13542.38
904.409	13365.38
904.646	13221.38
904.884	13040.38
905.121	12891.38
905.359	12764.38
905.596	12578.38
905.833	12383.38
906.071	12345.38
906.308	12347.38
906.545	12289.38
906.783	12206.38
907.02	12147.38
907.257	12132.38
907.494	12179.38
907.731	12140.38
907.968	12015.38
908.205	12009.38
908.442	11868.38
908.679	11817.38
908.915	11655.38
909.152	11624.38
909.389	11486.38
909.626	11468.38
909.862	11343.38
910.099	11353.38
910.335	11343.38
910.572	11221.38
910.808	11328.38
911.045	11104.38
911.281	10964.38
911.518	11081.38
911.754	11068.38
911.99	10945.38
912.226	10867.38
912.463	10699.38
912.699	10644.38
912.935	10659.38
913.171	10527.38
913.407	10396.38
913.643	10419.38
913.879	10304.38
914.114	10212.38
914.35	10140.38
914.586	10064.38
914.822	9928.38
915.057	9916.38
915.293	9802.38
915.529	9747.38
915.764	9783.38
916	9783.38
916.235	9730.38
916.471	9697.38
916.706	9620.38
916.941	9660.38
917.177	9648.38
917.412	9588.38
917.647	9649.38
917.882	9623.38
918.117	9616.38
918.352	9591.38
918.588	9559.38
918.823	9387.38
919.057	9339.38
919.292	9193.38
919.527	9247.38
919.762	9108.38
919.997	9019.38
920.232	8849.38
920.466	8920.38
920.701	8816.38
920.935	8716.38
921.17	8695.38
921.405	8705.38
921.639	8697.38
921.873	8581.38
922.108	8563.38
922.342	8518.38
922.576	8435.38
922.811	8439.38
923.045	8465.38
923.279	8526.38
923.513	8270.38
923.747	8338.38
923.981	8282.38
924.215	8233.38
924.449	8145.38
924.683	8099.38
924.917	8078.38
925.151	8021.38
925.385	8117.38
925.618	8062.38
925.852	7980.38
926.086	7923.38
926.319	7940.38
926.553	7948.38
926.786	7916.38
927.02	7947.38
927.253	7979.38
927.486	7914.38
927.72	7847.38
927.953	7944.38
928.186	7869.38
928.42	7932.38
928.653	7763.38
928.886	7712.38
929.119	7772.38
929.352	7723.38
929.585	7627.38
929.818	7592.38
930.051	7594.38
930.284	7491.38
930.516	7381.38
930.749	7395.38
930.982	7336.38
931.215	7319.38
931.447	7281.38
931.68	7258.38
931.912	7228.38
932.145	7205.38
932.377	7246.38
932.61	7402.38
932.842	7126.38
933.074	7192.38
933.307	7130.38
933.539	7250.38
933.771	7277.38
934.003	7211.38
934.236	7268.38
934.468	7172.38
934.7	7153.38
934.932	7165.38
935.164	7103.38
935.395	7071.38
935.627	7054.38
935.859	7096.38
936.091	7000.38
936.323	7012.38
936.554	7008.38
936.786	7013.38
937.017	6818.38
937.249	6865.38
937.481	6836.38
937.712	6869.38
937.943	6806.38
938.175	6839.38
938.406	6817.38
938.637	6873.38
938.869	6761.38
939.1	6821.38
939.331	6769.38
939.562	6723.38
939.793	6695.38
940.024	6696.38
940.255	6715.38
940.486	6661.38
940.717	6556.38
940.948	6565.38
941.179	6529.38
941.409	6563.38
941.64	6472.38
941.871	6483.38
942.102	6481.38
942.332	6483.38
942.563	6543.38
942.793	6491.38
943.024	6429.38
943.254	6493.38
943.484	6520.38
943.715	6518.38
943.945	6499.38
944.175	6423.38
944.405	6439.38
944.636	6362.38
944.866	6382.38
945.096	6423.38
945.326	6341.38
945.556	6373.38
945.786	6368.38
946.016	6323.38
946.245	6231.38
946.475	6175.38
946.705	6149.38
946.935	6149.38
947.164	6179.38
947.394	6049.38
947.624	6007.38
947.853	6125.38
948.083	6039.38
948.312	5980.38
948.542	5942.38
948.771	5935.38
949	5901.38
949.23	5869.38
949.459	5890.38
949.688	5940.38
949.917	5860.38
950.146	5881.38
950.375	5900.38
950.604	5735.38
950.833	5845.38
951.062	5857.38
951.291	5816.38
951.52	5779.38
951.749	5748.38
951.978	5667.38
952.206	5684.38
952.435	5718.38
952.664	5664.38
952.892	5673.38
953.121	5638.38
953.349	5674.38
953.578	5570.38
953.806	5564.38
954.035	5496.38
954.263	5529.38
954.491	5448.38
954.719	5468.38
954.948	5401.38
955.176	5408.38
955.404	5332.38
955.632	5333.38
955.86	5382.38
956.088	5304.38
956.316	5309.38
956.544	5301.38
956.772	5202.38
956.999	5217.38
957.227	5220.38
957.455	5091.38
957.683	5103.38
957.91	5067.38
958.138	5014.38
958.365	5071.38
958.593	5017.38
958.82	4950.38
959.048	5023.38
959.275	4966.38
959.502	4951.38
959.73	4923.38
959.957	4971.38
960.184	4961.38
960.411	4890.38
960.638	4967.38
960.865	4886.38
961.092	4942.38
961.319	4756.38
961.546	4923.38
961.773	4869.38
962	4839.38
962.227	4866.38
962.454	4824.38
962.68	4851.38
962.907	4789.38
963.134	4723.38
963.36	4772.38
963.587	4731.38
963.813	4679.38
964.04	4704.38
964.266	4598.38
964.493	4597.38
964.719	4601.38
964.945	4599.38
965.171	4455.38
965.398	4569.38
965.624	4577.38
965.85	4451.38
966.076	4413.38
966.302	4476.38
966.528	4439.38
966.754	4424.38
966.98	4418.38
967.206	4355.38
967.431	4268.38
967.657	4333.38
967.883	4328.38
968.109	4306.38
968.334	4271.38
968.56	4255.38
968.785	4249.38
969.011	4191.38
969.236	4202.38
969.462	4188.38
969.687	4177.38
969.912	4189.38
970.138	4219.38
970.363	4131.38
970.588	4162.38
970.813	4125.38
971.038	4097.38
971.263	4130.38
971.488	4091.38
971.713	4128.38
971.938	4068.38
972.163	3942.38
972.388	3962.38
972.613	3993.38
972.838	4011.38
973.062	3961.38
973.287	3950.38
973.512	3847.38
973.736	3942.38
973.961	3882.38
974.185	3848.38
974.41	3888.38
974.634	3755.38
974.858	3744.38
975.083	3795.38
975.307	3796.38
975.531	3697.38
975.755	3675.38
975.98	3655.38
976.204	3600.38
976.428	3586.38
976.652	3574.38
976.876	3549.38
977.1	3592.38
977.324	3537.38
977.547	3567.38
977.771	3553.38
977.995	3530.38
978.219	3480.38
978.442	3567.38
978.666	3497.38
978.89	3549.38
979.113	3475.38
979.337	3498.38
979.56	3409.38
979.783	3504.38
980.007	3367.38
980.23	3412.38
980.453	3390.38
980.677	3404.38
980.9	3347.38
981.123	3258.38
981.346	3367.38
981.569	3344.38
981.792	3385.38
982.015	3268.38
982.238	3238.38
982.461	3270.38
982.684	3207.38
982.907	3164.38
983.129	3182.38
983.352	3227.38
983.575	3195.38
983.797	3167.38
984.02	3122.38
984.242	3087.38
984.465	3093.38
984.687	3120.38
984.91	3123.38
985.132	3103.38
985.354	3082.38
985.577	3042.38
985.799	3056.38
986.021	2966.38
986.243	2976.38
986.465	3015.38
986.687	3039.38
986.909	3053.38
987.131	2982.38
987.353	2972.38
987.575	3003.38
987.797	2931.38
988.019	2867.38
988.241	2932.38
988.462	2831.38
988.684	2930.38
988.906	2950.38
989.127	2949.38
989.349	2816.38
989.57	2859.38
989.792	2900.38
990.013	2899.38
990.234	2936.38
990.456	2888.38
990.677	2857.38
990.898	2777.38
991.119	2794.38
991.341	2826.38
991.562	2762.38
991.783	2790.38
992.004	2685.38
992.225	2682.38
992.446	2730.38
992.667	2682.38
992.887	2697.38
993.108	2601.38
993.329	2720.38
993.55	2628.38
993.77	2554.38
993.991	2594.38
994.212	2608.38
994.432	2586.38
994.653	2585.38
994.873	2541.38
995.093	2448.38
995.314	2494.38
995.534	2571.38
995.754	2572.38
995.975	2595.38
996.195	2499.38
996.415	2520.38
996.635	2500.38
996.855	2500.38
997.075	2479.38
997.295	2453.38
997.515	2422.38
997.735	2496.38
997.955	2488.38
998.174	2478.38
998.394	2422.38
998.614	2478.38
998.834	2427.38
999.053	2497.38
999.273	2450.38
999.492	2469.38
999.712	2432.38
999.931	2385.38
1000.151	2427.38
1000.37	2356.38
1000.589	2433.38
1000.809	2319.38
1001.028	2430.38
1001.247	2368.38
1001.466	2260.38
1001.685	2392.38
1001.904	2311.38
1002.123	2318.38
1002.342	2307.38
1002.561	2273.38
1002.78	2287.38
1002.999	2303.38
1003.218	2272.38
1003.436	2230.38
1003.655	2258.38
1003.874	2228.38
1004.092	2210.38
1004.311	2303.38
1004.53	2229.38
1004.748	2256.38
1004.966	2209.38
1005.185	2224.38
1005.403	2201.38
1005.622	2226.38
1005.84	2275.38
1006.058	2206.38
1006.276	2175.38
1006.494	2689.38
1006.712	2188.38
1006.931	2257.38
1007.149	2181.38
1007.367	2174.38
1007.584	2196.38
1007.802	2247.38
1008.02	2196.38
1008.238	2323.38
1008.456	2316.38
1008.673	2172.38
1008.891	2289.38
1009.109	2280.38
1009.326	2329.38
1009.544	2432.38
1009.761	2335.38
1009.979	2522.38
1010.196	2549.38
1010.413	2686.38
1010.631	2755.38
1010.848	2808.38
1011.065	2875.38
1011.282	2808.38
1011.5	2750.38
1011.717	2830.38
1011.934	2772.38
1012.151	2798.38
1012.368	2812.38
1012.585	2725.38
1012.801	2811.38
1013.018	2733.38
1013.235	2729.38
1013.452	2773.38
1013.669	2771.38
1013.885	2775.38
1014.102	2820.38
1014.318	2764.38
1014.535	2773.38
1014.751	2800.38
1014.968	2756.38
1015.184	2771.38
1015.401	2704.38
1015.617	2695.38
1015.833	2636.38
1016.049	2660.38
1016.266	2590.38
1016.482	2615.38
1016.698	2558.38
1016.914	2575.38
1017.13	2514.38
1017.346	2486.38
1017.562	2585.38
1017.778	2494.38
1017.993	2494.38
1018.209	2565.38
1018.425	2489.38
1018.641	2483.38
1018.856	2428.38
1019.072	2521.38
1019.288	2520.38
1019.503	2498.38
1019.719	2389.38
1019.934	2417.38
1020.149	2503.38
1020.365	2421.38
1020.58	2358.38
1020.795	2394.38
1021.011	2271.38
1021.226	2223.38
1021.441	2215.38
1021.656	2140.38
1021.871	2046.38
1022.086	2001.38
1022.301	2010.38
1022.516	1949.38
1022.731	2021.38
1022.946	1920.38
1023.16	1913.38
1023.375	1870.38
1023.59	1854.38
1023.804	1750.38
1024.019	1842.38
1024.234	1686.38
1024.448	1742.38
1024.663	1668.38
1024.877	1641.38
1025.092	1607.38
1025.306	1632.38
1025.52	1512.38
1025.734	1577.38
1025.949	1481.38
1026.163	1453.38
1026.377	1362.38
1026.591	1391.38
1026.805	1344.38
1027.019	1305.38
1027.233	1276.38
1027.447	1211.38
1027.661	1283.38
1027.875	1242.38
1028.088	1212.38
1028.302	1125.38
1028.516	1138.38
1028.73	1121.38
1028.943	1104.38
1029.157	1029.38
1029.37	966.38
1029.584	0.38
1029.797	2.38
1030.011	-2.62
1030.224	-5.62
