Data from QEP037381__53__15-18-05-860.txt Node

Date: Fri Dec 16 15:18:05 EST 2022
User: dcclab
Spectrometer: QEP03738
Trigger mode: 4
Integration Time (sec): 1.000000E1
Scans to average: 1
Electric dark correction enabled: true
Nonlinearity correction enabled: false
Boxcar width: 0
XAxis mode: Wavelengths
Number of Pixels in Spectrum: 1044
>>>>>Begin Spectral Data<<<<<
784.041	11.88
784.3	-0.12
784.558	-3.12
784.817	-8.12
785.075	88195.88
785.334	15245.88
785.592	7098.88
785.851	4895.88
786.109	3700.88
786.368	2900.88
786.626	2367.88
786.884	1976.88
787.143	1657.88
787.401	1352.88
787.659	1258.88
787.917	1062.88
788.175	993.88
788.433	897.88
788.691	802.88
788.949	747.88
789.207	711.88
789.465	629.88
789.723	580.88
789.98	546.88
790.238	603.88
790.496	570.88
790.753	529.88
791.011	598.88
791.268	513.88
791.526	518.88
791.783	523.88
792.041	508.88
792.298	429.88
792.556	488.88
792.813	468.88
793.07	432.88
793.327	441.88
793.584	521.88
793.841	441.88
794.099	476.88
794.356	513.88
794.613	408.88
794.869	464.88
795.126	418.88
795.383	390.88
795.64	431.88
795.897	387.88
796.153	436.88
796.41	415.88
796.667	416.88
796.923	415.88
797.18	425.88
797.436	444.88
797.693	408.88
797.949	467.88
798.206	491.88
798.462	404.88
798.718	471.88
798.974	450.88
799.231	483.88
799.487	461.88
799.743	456.88
799.999	500.88
800.255	492.88
800.511	479.88
800.767	530.88
801.023	520.88
801.279	555.88
801.534	600.88
801.79	628.88
802.046	669.88
802.302	799.88
802.557	904.88
802.813	1111.88
803.068	1371.88
803.324	1871.88
803.579	2575.88
803.835	3587.88
804.09	4843.88
804.345	6346.88
804.601	8051.88
804.856	9667.88
805.111	11208.88
805.366	12282.88
805.621	13095.88
805.876	13653.88
806.131	14024.88
806.386	14270.88
806.641	14462.88
806.896	14760.88
807.151	15148.88
807.406	15369.88
807.661	15619.88
807.915	16013.88
808.17	16084.88
808.425	16403.88
808.679	16442.88
808.934	16630.88
809.188	16846.88
809.443	17122.88
809.697	17240.88
809.951	17342.88
810.206	17618.88
810.46	17808.88
810.714	17961.88
810.968	18055.88
811.223	18207.88
811.477	18501.88
811.731	18509.88
811.985	18618.88
812.239	18710.88
812.493	18938.88
812.747	18834.88
813	18981.88
813.254	19066.88
813.508	19144.88
813.762	19188.88
814.015	19240.88
814.269	19435.88
814.522	19654.88
814.776	19997.88
815.03	20049.88
815.283	20361.88
815.536	20786.88
815.79	21166.88
816.043	21341.88
816.296	21604.88
816.55	21976.88
816.803	22188.88
817.056	22536.88
817.309	22696.88
817.562	22877.88
817.815	23209.88
818.068	23381.88
818.321	23526.88
818.574	23948.88
818.827	24259.88
819.079	24449.88
819.332	25005.88
819.585	25219.88
819.838	25527.88
820.09	25685.88
820.343	25830.88
820.595	25817.88
820.848	26132.88
821.1	26260.88
821.353	26286.88
821.605	26238.88
821.857	26191.88
822.11	26187.88
822.362	26010.88
822.614	26004.88
822.866	26048.88
823.118	25984.88
823.37	26275.88
823.622	26090.88
823.874	26236.88
824.126	26437.88
824.378	26391.88
824.63	26535.88
824.882	26671.88
825.134	26518.88
825.385	26471.88
825.637	26283.88
825.888	26336.88
826.14	26320.88
826.392	26082.88
826.643	25983.88
826.895	25833.88
827.146	25919.88
827.397	25836.88
827.649	25836.88
827.9	25689.88
828.151	25720.88
828.402	25902.88
828.653	25947.88
828.905	26177.88
829.156	26085.88
829.407	25934.88
829.658	26046.88
829.909	26155.88
830.159	26201.88
830.41	26013.88
830.661	25788.88
830.912	25673.88
831.162	25627.88
831.413	25636.88
831.664	25650.88
831.914	25625.88
832.165	25508.88
832.415	25532.88
832.666	25543.88
832.916	25601.88
833.167	25501.88
833.417	25584.88
833.667	25573.88
833.917	25411.88
834.168	25274.88
834.418	25362.88
834.668	25170.88
834.918	24971.88
835.168	24915.88
835.418	24900.88
835.668	24778.88
835.918	24820.88
836.167	24656.88
836.417	24604.88
836.667	24622.88
836.917	24564.88
837.166	24539.88
837.416	24562.88
837.666	24517.88
837.915	24703.88
838.165	24491.88
838.414	24415.88
838.663	24411.88
838.913	24433.88
839.162	24327.88
839.411	24421.88
839.661	24167.88
839.91	24263.88
840.159	24039.88
840.408	24087.88
840.657	24116.88
840.906	24178.88
841.155	24133.88
841.404	24111.88
841.653	24123.88
841.902	24129.88
842.15	24199.88
842.399	24257.88
842.648	24222.88
842.897	24149.88
843.145	23822.88
843.394	23816.88
843.642	23514.88
843.891	23608.88
844.139	23503.88
844.388	23224.88
844.636	23246.88
844.884	23296.88
845.133	23195.88
845.381	23230.88
845.629	23221.88
845.877	22975.88
846.125	23093.88
846.373	23068.88
846.621	23099.88
846.869	22933.88
847.117	22817.88
847.365	22766.88
847.613	22637.88
847.861	22702.88
848.108	22503.88
848.356	22446.88
848.604	22495.88
848.851	22410.88
849.099	22426.88
849.346	22564.88
849.594	22651.88
849.841	22774.88
850.089	22763.88
850.336	22667.88
850.583	22854.88
850.831	22577.88
851.078	22594.88
851.325	22515.88
851.572	22761.88
851.819	22591.88
852.066	22157.88
852.313	21634.88
852.56	21624.88
852.807	21339.88
853.054	21370.88
853.301	21327.88
853.548	21303.88
853.794	21528.88
854.041	21498.88
854.288	21631.88
854.534	21831.88
854.781	21716.88
855.028	21638.88
855.274	21636.88
855.52	21523.88
855.767	21542.88
856.013	21683.88
856.26	21967.88
856.506	21471.88
856.752	21367.88
856.998	21305.88
857.244	21398.88
857.49	21561.88
857.736	21563.88
857.982	21615.88
858.228	21441.88
858.474	21223.88
858.72	21173.88
858.966	20937.88
859.212	20727.88
859.458	20585.88
859.703	20357.88
859.949	20256.88
860.195	20103.88
860.44	20041.88
860.686	19856.88
860.931	19936.88
861.177	19779.88
861.422	19667.88
861.667	19551.88
861.913	19541.88
862.158	19523.88
862.403	19640.88
862.648	19706.88
862.893	19746.88
863.138	19680.88
863.384	19550.88
863.629	19571.88
863.873	19609.88
864.118	19591.88
864.363	19327.88
864.608	19304.88
864.853	19393.88
865.098	19206.88
865.342	19171.88
865.587	19012.88
865.832	19079.88
866.076	19073.88
866.321	18961.88
866.565	18915.88
866.81	18924.88
867.054	18809.88
867.298	18745.88
867.543	18624.88
867.787	18647.88
868.031	18627.88
868.275	18679.88
868.519	18568.88
868.764	18643.88
869.008	18523.88
869.252	18587.88
869.496	18499.88
869.739	18529.88
869.983	18613.88
870.227	18604.88
870.471	18593.88
870.715	18629.88
870.958	18774.88
871.202	18756.88
871.446	18845.88
871.689	18735.88
871.933	18825.88
872.176	18781.88
872.42	18632.88
872.663	18637.88
872.906	18629.88
873.15	18560.88
873.393	18658.88
873.636	18689.88
873.879	18398.88
874.122	18281.88
874.366	17913.88
874.609	17837.88
874.852	17726.88
875.095	17568.88
875.337	17489.88
875.58	17346.88
875.823	17469.88
876.066	17315.88
876.309	17388.88
876.551	17196.88
876.794	17009.88
877.037	17054.88
877.279	16976.88
877.522	16985.88
877.764	16955.88
878.007	16901.88
878.249	16916.88
878.491	16742.88
878.734	16825.88
878.976	16714.88
879.218	16665.88
879.46	16584.88
879.702	16362.88
879.945	16232.88
880.187	16115.88
880.429	16037.88
880.671	15995.88
880.912	15902.88
881.154	15877.88
881.396	15856.88
881.638	15935.88
881.88	15834.88
882.121	15756.88
882.363	15763.88
882.605	15814.88
882.846	15740.88
883.088	15745.88
883.329	15776.88
883.571	15867.88
883.812	15979.88
884.053	16347.88
884.295	16697.88
884.536	16943.88
884.777	16848.88
885.018	16724.88
885.259	16619.88
885.5	16560.88
885.742	16872.88
885.982	16542.88
886.223	16297.88
886.464	16235.88
886.705	15949.88
886.946	15799.88
887.187	15483.88
887.428	15279.88
887.668	14963.88
887.909	14762.88
888.15	14601.88
888.39	14479.88
888.631	14422.88
888.871	14323.88
889.111	14214.88
889.352	14186.88
889.592	13962.88
889.833	13885.88
890.073	13779.88
890.313	13741.88
890.553	13654.88
890.793	13634.88
891.033	13567.88
891.273	13529.88
891.513	13407.88
891.753	13463.88
891.993	13507.88
892.233	13616.88
892.473	13635.88
892.713	13651.88
892.952	13582.88
893.192	13623.88
893.432	13611.88
893.671	13595.88
893.911	13443.88
894.15	13392.88
894.39	13262.88
894.629	13227.88
894.869	13185.88
895.108	13047.88
895.347	13020.88
895.587	13115.88
895.826	13028.88
896.065	12931.88
896.304	13019.88
896.543	13080.88
896.782	12937.88
897.021	12924.88
897.26	12988.88
897.499	12951.88
897.738	13035.88
897.977	12928.88
898.216	12823.88
898.454	12709.88
898.693	12600.88
898.932	12670.88
899.17	12568.88
899.409	12554.88
899.647	12541.88
899.886	12484.88
900.124	12533.88
900.363	12510.88
900.601	12592.88
900.839	12615.88
901.078	12689.88
901.316	12746.88
901.554	12930.88
901.792	12952.88
902.03	12937.88
902.268	12902.88
902.506	12899.88
902.744	12762.88
902.982	12776.88
903.22	12453.88
903.458	12301.88
903.695	12026.88
903.933	11846.88
904.171	11539.88
904.409	11436.88
904.646	11232.88
904.884	11097.88
905.121	10986.88
905.359	10821.88
905.596	10677.88
905.833	10556.88
906.071	10461.88
906.308	10500.88
906.545	10456.88
906.783	10350.88
907.02	10394.88
907.257	10342.88
907.494	10303.88
907.731	10227.88
907.968	10198.88
908.205	10054.88
908.442	9998.88
908.679	10015.88
908.915	9892.88
909.152	9852.88
909.389	9676.88
909.626	9743.88
909.862	9639.88
910.099	9566.88
910.335	9534.88
910.572	9425.88
910.808	9553.88
911.045	9382.88
911.281	9345.88
911.518	9383.88
911.754	9298.88
911.99	9280.88
912.226	9191.88
912.463	9119.88
912.699	9000.88
912.935	8982.88
913.171	8873.88
913.407	8805.88
913.643	8765.88
913.879	8655.88
914.114	8609.88
914.35	8470.88
914.586	8512.88
914.822	8391.88
915.057	8425.88
915.293	8249.88
915.529	8213.88
915.764	8268.88
916	8189.88
916.235	8173.88
916.471	8200.88
916.706	8125.88
916.941	8165.88
917.177	8111.88
917.412	8148.88
917.647	8138.88
917.882	8043.88
918.117	8081.88
918.352	8054.88
918.588	8109.88
918.823	7958.88
919.057	7863.88
919.292	7716.88
919.527	7817.88
919.762	7679.88
919.997	7674.88
920.232	7505.88
920.466	7518.88
920.701	7386.88
920.935	7341.88
921.17	7248.88
921.405	7229.88
921.639	7295.88
921.873	7221.88
922.108	7260.88
922.342	7200.88
922.576	7134.88
922.811	7091.88
923.045	7105.88
923.279	7097.88
923.513	6950.88
923.747	6998.88
923.981	6935.88
924.215	6854.88
924.449	6892.88
924.683	6796.88
924.917	6770.88
925.151	6743.88
925.385	6833.88
925.618	6765.88
925.852	6684.88
926.086	6595.88
926.319	6721.88
926.553	6720.88
926.786	6761.88
927.02	6715.88
927.253	6664.88
927.486	6743.88
927.72	6594.88
927.953	6654.88
928.186	6555.88
928.42	6582.88
928.653	6513.88
928.886	6460.88
929.119	6480.88
929.352	6452.88
929.585	6410.88
929.818	6357.88
930.051	6332.88
930.284	6327.88
930.516	6178.88
930.749	6170.88
930.982	6176.88
931.215	6119.88
931.447	6045.88
931.68	6098.88
931.912	6056.88
932.145	6068.88
932.377	6038.88
932.61	6171.88
932.842	5980.88
933.074	6043.88
933.307	5969.88
933.539	6085.88
933.771	6067.88
934.003	5971.88
934.236	6117.88
934.468	6116.88
934.7	5993.88
934.932	6058.88
935.164	5939.88
935.395	5850.88
935.627	5890.88
935.859	5939.88
936.091	5849.88
936.323	5872.88
936.554	5859.88
936.786	5818.88
937.017	5757.88
937.249	5799.88
937.481	5706.88
937.712	5787.88
937.943	5740.88
938.175	5661.88
938.406	5712.88
938.637	5765.88
938.869	5670.88
939.1	5699.88
939.331	5611.88
939.562	5618.88
939.793	5593.88
940.024	5654.88
940.255	5615.88
940.486	5514.88
940.717	5461.88
940.948	5497.88
941.179	5399.88
941.409	5417.88
941.64	5479.88
941.871	5423.88
942.102	5401.88
942.332	5464.88
942.563	5502.88
942.793	5479.88
943.024	5401.88
943.254	5378.88
943.484	5437.88
943.715	5433.88
943.945	5412.88
944.175	5328.88
944.405	5304.88
944.636	5299.88
944.866	5392.88
945.096	5329.88
945.326	5292.88
945.556	5308.88
945.786	5301.88
946.016	5223.88
946.245	5168.88
946.475	5163.88
946.705	5117.88
946.935	5098.88
947.164	5080.88
947.394	5051.88
947.624	4996.88
947.853	5020.88
948.083	4999.88
948.312	4952.88
948.542	4942.88
948.771	4871.88
949	4847.88
949.23	4884.88
949.459	4899.88
949.688	4932.88
949.917	4887.88
950.146	4878.88
950.375	4929.88
950.604	4797.88
950.833	4859.88
951.062	4858.88
951.291	4815.88
951.52	4766.88
951.749	4825.88
951.978	4730.88
952.206	4752.88
952.435	4698.88
952.664	4747.88
952.892	4714.88
953.121	4700.88
953.349	4751.88
953.578	4698.88
953.806	4614.88
954.035	4568.88
954.263	4561.88
954.491	4508.88
954.719	4556.88
954.948	4499.88
955.176	4453.88
955.404	4417.88
955.632	4492.88
955.86	4472.88
956.088	4407.88
956.316	4452.88
956.544	4444.88
956.772	4305.88
956.999	4300.88
957.227	4375.88
957.455	4250.88
957.683	4268.88
957.91	4185.88
958.138	4206.88
958.365	4223.88
958.593	4166.88
958.82	4092.88
959.048	4181.88
959.275	4126.88
959.502	4139.88
959.73	4091.88
959.957	4134.88
960.184	4123.88
960.411	4065.88
960.638	4118.88
960.865	4076.88
961.092	4058.88
961.319	3993.88
961.546	4016.88
961.773	4087.88
962	4004.88
962.227	4031.88
962.454	4014.88
962.68	3981.88
962.907	3988.88
963.134	3886.88
963.36	3951.88
963.587	3958.88
963.813	3866.88
964.04	3898.88
964.266	3785.88
964.493	3868.88
964.719	3906.88
964.945	3814.88
965.171	3734.88
965.398	3757.88
965.624	3806.88
965.85	3661.88
966.076	3675.88
966.302	3711.88
966.528	3668.88
966.754	3673.88
966.98	3691.88
967.206	3657.88
967.431	3555.88
967.657	3655.88
967.883	3610.88
968.109	3565.88
968.334	3572.88
968.56	3518.88
968.785	3563.88
969.011	3487.88
969.236	3561.88
969.462	3521.88
969.687	3494.88
969.912	3534.88
970.138	3560.88
970.363	3457.88
970.588	3478.88
970.813	3430.88
971.038	3403.88
971.263	3416.88
971.488	3426.88
971.713	3430.88
971.938	3400.88
972.163	3246.88
972.388	3298.88
972.613	3299.88
972.838	3336.88
973.062	3246.88
973.287	3278.88
973.512	3189.88
973.736	3209.88
973.961	3200.88
974.185	3182.88
974.41	3266.88
974.634	3104.88
974.858	3143.88
975.083	3113.88
975.307	3170.88
975.531	3143.88
975.755	3016.88
975.98	3043.88
976.204	2978.88
976.428	2967.88
976.652	2944.88
976.876	2955.88
977.1	2975.88
977.324	2924.88
977.547	2952.88
977.771	2979.88
977.995	2904.88
978.219	2889.88
978.442	2994.88
978.666	2953.88
978.89	2930.88
979.113	2924.88
979.337	2876.88
979.56	2834.88
979.783	2956.88
980.007	2802.88
980.23	2850.88
980.453	2778.88
980.677	2851.88
980.9	2813.88
981.123	2709.88
981.346	2786.88
981.569	2779.88
981.792	2798.88
982.015	2730.88
982.238	2729.88
982.461	2745.88
982.684	2675.88
982.907	2654.88
983.129	2625.88
983.352	2688.88
983.575	2681.88
983.797	2658.88
984.02	2579.88
984.242	2609.88
984.465	2590.88
984.687	2671.88
984.91	2595.88
985.132	2639.88
985.354	2553.88
985.577	2571.88
985.799	2557.88
986.021	2480.88
986.243	2514.88
986.465	2512.88
986.687	2560.88
986.909	2579.88
987.131	2508.88
987.353	2440.88
987.575	2484.88
987.797	2452.88
988.019	2391.88
988.241	2464.88
988.462	2400.88
988.684	2436.88
988.906	2502.88
989.127	2489.88
989.349	2375.88
989.57	2412.88
989.792	2436.88
990.013	2442.88
990.234	2470.88
990.456	2489.88
990.677	2455.88
990.898	2382.88
991.119	2348.88
991.341	2385.88
991.562	2315.88
991.783	2347.88
992.004	2291.88
992.225	2253.88
992.446	2284.88
992.667	2202.88
992.887	2327.88
993.108	2184.88
993.329	2333.88
993.55	2228.88
993.77	2190.88
993.991	2176.88
994.212	2205.88
994.432	2194.88
994.653	2232.88
994.873	2159.88
995.093	2062.88
995.314	2096.88
995.534	2198.88
995.754	2199.88
995.975	2229.88
996.195	2105.88
996.415	2136.88
996.635	2111.88
996.855	2131.88
997.075	2118.88
997.295	2126.88
997.515	2089.88
997.735	2153.88
997.955	2132.88
998.174	2133.88
998.394	2078.88
998.614	2132.88
998.834	2067.88
999.053	2140.88
999.273	2086.88
999.492	2146.88
999.712	2055.88
999.931	2016.88
1000.151	2043.88
1000.37	2047.88
1000.589	2065.88
1000.809	1994.88
1001.028	2134.88
1001.247	2062.88
1001.466	1938.88
1001.685	2055.88
1001.904	2000.88
1002.123	1951.88
1002.342	1978.88
1002.561	1928.88
1002.78	1932.88
1002.999	2008.88
1003.218	1942.88
1003.436	1918.88
1003.655	1966.88
1003.874	1900.88
1004.092	1943.88
1004.311	1973.88
1004.53	1923.88
1004.748	1991.88
1004.966	1928.88
1005.185	1948.88
1005.403	1942.88
1005.622	1898.88
1005.84	1985.88
1006.058	1887.88
1006.276	1912.88
1006.494	2406.88
1006.712	1940.88
1006.931	1987.88
1007.149	1906.88
1007.367	1923.88
1007.584	1932.88
1007.802	1974.88
1008.02	1925.88
1008.238	2054.88
1008.456	2027.88
1008.673	1914.88
1008.891	2024.88
1009.109	1996.88
1009.326	2056.88
1009.544	2158.88
1009.761	2081.88
1009.979	2175.88
1010.196	2303.88
1010.413	2409.88
1010.631	2479.88
1010.848	2565.88
1011.065	2599.88
1011.282	2497.88
1011.5	2499.88
1011.717	2586.88
1011.934	2542.88
1012.151	2571.88
1012.368	2496.88
1012.585	2495.88
1012.801	2513.88
1013.018	2519.88
1013.235	2498.88
1013.452	2503.88
1013.669	2565.88
1013.885	2490.88
1014.102	2552.88
1014.318	2543.88
1014.535	2539.88
1014.751	2514.88
1014.968	2541.88
1015.184	2562.88
1015.401	2425.88
1015.617	2486.88
1015.833	2409.88
1016.049	2420.88
1016.266	2380.88
1016.482	2387.88
1016.698	2328.88
1016.914	2347.88
1017.13	2310.88
1017.346	2253.88
1017.562	2327.88
1017.778	2265.88
1017.993	2208.88
1018.209	2307.88
1018.425	2261.88
1018.641	2226.88
1018.856	2231.88
1019.072	2249.88
1019.288	2275.88
1019.503	2235.88
1019.719	2166.88
1019.934	2163.88
1020.149	2249.88
1020.365	2153.88
1020.58	2090.88
1020.795	2125.88
1021.011	2021.88
1021.226	1968.88
1021.441	1988.88
1021.656	1906.88
1021.871	1826.88
1022.086	1797.88
1022.301	1785.88
1022.516	1756.88
1022.731	1823.88
1022.946	1687.88
1023.16	1681.88
1023.375	1655.88
1023.59	1608.88
1023.804	1566.88
1024.019	1623.88
1024.234	1492.88
1024.448	1503.88
1024.663	1435.88
1024.877	1419.88
1025.092	1450.88
1025.306	1419.88
1025.52	1326.88
1025.734	1425.88
1025.949	1314.88
1026.163	1252.88
1026.377	1198.88
1026.591	1233.88
1026.805	1141.88
1027.019	1149.88
1027.233	1088.88
1027.447	1030.88
1027.661	1150.88
1027.875	1086.88
1028.088	1053.88
1028.302	1015.88
1028.516	968.88
1028.73	989.88
1028.943	944.88
1029.157	899.88
1029.37	829.88
1029.584	2.88
1029.797	-1.12
1030.011	-0.12
1030.224	-2.12
