Data from QEP037381__80__15-22-35-863.txt Node

Date: Fri Dec 16 15:22:35 EST 2022
User: dcclab
Spectrometer: QEP03738
Trigger mode: 4
Integration Time (sec): 1.000000E1
Scans to average: 1
Electric dark correction enabled: true
Nonlinearity correction enabled: false
Boxcar width: 0
XAxis mode: Wavelengths
Number of Pixels in Spectrum: 1044
>>>>>Begin Spectral Data<<<<<
784.041	10.75
784.3	-0.25
784.558	-2.25
784.817	-1.25
785.075	90007.75
785.334	15677.75
785.592	7264.75
785.851	4994.75
786.109	3790.75
786.368	2977.75
786.626	2416.75
786.884	1998.75
787.143	1709.75
787.401	1385.75
787.659	1274.75
787.917	1096.75
788.175	1021.75
788.433	911.75
788.691	795.75
788.949	763.75
789.207	715.75
789.465	636.75
789.723	619.75
789.98	566.75
790.238	616.75
790.496	574.75
790.753	543.75
791.011	586.75
791.268	525.75
791.526	524.75
791.783	530.75
792.041	516.75
792.298	439.75
792.556	504.75
792.813	482.75
793.07	452.75
793.327	457.75
793.584	532.75
793.841	463.75
794.099	464.75
794.356	536.75
794.613	437.75
794.869	471.75
795.126	419.75
795.383	427.75
795.64	452.75
795.897	398.75
796.153	452.75
796.41	455.75
796.667	419.75
796.923	436.75
797.18	426.75
797.436	467.75
797.693	436.75
797.949	489.75
798.206	503.75
798.462	424.75
798.718	494.75
798.974	455.75
799.231	512.75
799.487	502.75
799.743	529.75
799.999	539.75
800.255	527.75
800.511	521.75
800.767	573.75
801.023	574.75
801.279	599.75
801.534	668.75
801.79	708.75
802.046	734.75
802.302	885.75
802.557	1038.75
802.813	1282.75
803.068	1603.75
803.324	2213.75
803.579	3040.75
803.835	4253.75
804.09	5913.75
804.345	7822.75
804.601	9909.75
804.856	12089.75
805.111	14035.75
805.366	15619.75
805.621	16685.75
805.876	17480.75
806.131	18008.75
806.386	18330.75
806.641	18693.75
806.896	18984.75
807.151	19351.75
807.406	19728.75
807.661	20211.75
807.915	20569.75
808.17	20911.75
808.425	21243.75
808.679	21385.75
808.934	21644.75
809.188	21923.75
809.443	22147.75
809.697	22459.75
809.951	22555.75
810.206	22763.75
810.46	23017.75
810.714	23211.75
810.968	23638.75
811.223	23738.75
811.477	24063.75
811.731	24213.75
811.985	24272.75
812.239	24535.75
812.493	24558.75
812.747	24718.75
813	24800.75
813.254	25019.75
813.508	25084.75
813.762	25287.75
814.015	25340.75
814.269	25614.75
814.522	25813.75
814.776	26186.75
815.03	26515.75
815.283	26919.75
815.536	27380.75
815.79	27743.75
816.043	28366.75
816.296	28811.75
816.55	29108.75
816.803	29431.75
817.056	29879.75
817.309	30066.75
817.562	30540.75
817.815	30897.75
818.068	31099.75
818.321	31414.75
818.574	31773.75
818.827	32159.75
819.079	32723.75
819.332	33260.75
819.585	33640.75
819.838	34223.75
820.09	34299.75
820.343	34651.75
820.595	34707.75
820.848	35099.75
821.1	35201.75
821.353	35261.75
821.605	35116.75
821.857	35254.75
822.11	35174.75
822.362	35030.75
822.614	34998.75
822.866	35015.75
823.118	35068.75
823.37	35159.75
823.622	35189.75
823.874	35315.75
824.126	35676.75
824.378	35628.75
824.63	35903.75
824.882	35952.75
825.134	35794.75
825.385	35689.75
825.637	35787.75
825.888	35736.75
826.14	35653.75
826.392	35575.75
826.643	35238.75
826.895	35260.75
827.146	35142.75
827.397	34973.75
827.649	35028.75
827.9	35046.75
828.151	35213.75
828.402	35320.75
828.653	35526.75
828.905	35475.75
829.156	35771.75
829.407	35724.75
829.658	35672.75
829.909	35798.75
830.159	35734.75
830.41	35394.75
830.661	35336.75
830.912	35057.75
831.162	34984.75
831.413	35037.75
831.664	35083.75
831.914	35017.75
832.165	35049.75
832.415	34800.75
832.666	35142.75
832.916	34984.75
833.167	34899.75
833.417	34823.75
833.667	34856.75
833.917	34777.75
834.168	34726.75
834.418	34570.75
834.668	34370.75
834.918	34216.75
835.168	34300.75
835.418	33998.75
835.668	34079.75
835.918	34067.75
836.167	34054.75
836.417	33868.75
836.667	33886.75
836.917	33888.75
837.166	33778.75
837.416	33948.75
837.666	33780.75
837.915	33692.75
838.165	33820.75
838.414	33665.75
838.663	33574.75
838.913	33620.75
839.162	33506.75
839.411	33460.75
839.661	33459.75
839.91	33251.75
840.159	33319.75
840.408	33235.75
840.657	33265.75
840.906	33354.75
841.155	33317.75
841.404	33272.75
841.653	33211.75
841.902	33241.75
842.15	33278.75
842.399	33358.75
842.648	33376.75
842.897	33164.75
843.145	33020.75
843.394	32942.75
843.642	32610.75
843.891	32512.75
844.139	32270.75
844.388	32200.75
844.636	32116.75
844.884	32232.75
845.133	32056.75
845.381	31984.75
845.629	31969.75
845.877	32010.75
846.125	32010.75
846.373	31954.75
846.621	31848.75
846.869	31739.75
847.117	31655.75
847.365	31417.75
847.613	31241.75
847.861	31367.75
848.108	31241.75
848.356	31151.75
848.604	31139.75
848.851	31289.75
849.099	31179.75
849.346	31259.75
849.594	31552.75
849.841	31474.75
850.089	31563.75
850.336	31634.75
850.583	31592.75
850.831	31396.75
851.078	31331.75
851.325	31363.75
851.572	31455.75
851.819	31122.75
852.066	30547.75
852.313	30185.75
852.56	30001.75
852.807	29835.75
853.054	29819.75
853.301	29741.75
853.548	29792.75
853.794	29962.75
854.041	29986.75
854.288	30193.75
854.534	30396.75
854.781	30372.75
855.028	30316.75
855.274	30186.75
855.52	29932.75
855.767	29894.75
856.013	29988.75
856.26	30132.75
856.506	29623.75
856.752	29522.75
856.998	29610.75
857.244	29653.75
857.49	29976.75
857.736	30002.75
857.982	29921.75
858.228	29745.75
858.474	29623.75
858.72	29542.75
858.966	29287.75
859.212	28985.75
859.458	28641.75
859.703	28484.75
859.949	28258.75
860.195	28156.75
860.44	27855.75
860.686	27882.75
860.931	27893.75
861.177	27575.75
861.422	27694.75
861.667	27444.75
861.913	27485.75
862.158	27628.75
862.403	27646.75
862.648	27775.75
862.893	27816.75
863.138	27815.75
863.384	27734.75
863.629	27612.75
863.873	27591.75
864.118	27639.75
864.363	27462.75
864.608	27393.75
864.853	27303.75
865.098	27199.75
865.342	27222.75
865.587	26980.75
865.832	27076.75
866.076	26946.75
866.321	26894.75
866.565	26682.75
866.81	26477.75
867.054	26526.75
867.298	26518.75
867.543	26413.75
867.787	26458.75
868.031	26426.75
868.275	26215.75
868.519	26314.75
868.764	26197.75
869.008	26049.75
869.252	26212.75
869.496	25967.75
869.739	26054.75
869.983	26020.75
870.227	26020.75
870.471	26022.75
870.715	26186.75
870.958	26109.75
871.202	26253.75
871.446	26200.75
871.689	26371.75
871.933	26206.75
872.176	26291.75
872.42	26152.75
872.663	26067.75
872.906	26039.75
873.15	26048.75
873.393	25871.75
873.636	25759.75
873.879	25622.75
874.122	25328.75
874.366	25059.75
874.609	24905.75
874.852	24675.75
875.095	24591.75
875.337	24543.75
875.58	24366.75
875.823	24358.75
876.066	24343.75
876.309	24302.75
876.551	24152.75
876.794	23995.75
877.037	23983.75
877.279	23840.75
877.522	23920.75
877.764	24017.75
878.007	23760.75
878.249	23867.75
878.491	23688.75
878.734	23799.75
878.976	23729.75
879.218	23563.75
879.46	23525.75
879.702	23231.75
879.945	23045.75
880.187	22856.75
880.429	22744.75
880.671	22721.75
880.912	22634.75
881.154	22669.75
881.396	22484.75
881.638	22652.75
881.88	22649.75
882.121	22482.75
882.363	22436.75
882.605	22529.75
882.846	22426.75
883.088	22474.75
883.329	22240.75
883.571	22404.75
883.812	22500.75
884.053	22780.75
884.295	23168.75
884.536	23391.75
884.777	23075.75
885.018	23055.75
885.259	22963.75
885.5	22787.75
885.742	23076.75
885.982	22769.75
886.223	22684.75
886.464	22586.75
886.705	22301.75
886.946	22047.75
887.187	21860.75
887.428	21658.75
887.668	21352.75
887.909	21201.75
888.15	20895.75
888.39	20811.75
888.631	20685.75
888.871	20434.75
889.111	20266.75
889.352	20249.75
889.592	20063.75
889.833	20026.75
890.073	19876.75
890.313	19775.75
890.553	19570.75
890.793	19639.75
891.033	19430.75
891.273	19406.75
891.513	19288.75
891.753	19369.75
891.993	19279.75
892.233	19437.75
892.473	19437.75
892.713	19423.75
892.952	19344.75
893.192	19358.75
893.432	19286.75
893.671	19363.75
893.911	19235.75
894.15	19128.75
894.39	18929.75
894.629	18919.75
894.869	18857.75
895.108	18675.75
895.347	18705.75
895.587	18669.75
895.826	18550.75
896.065	18622.75
896.304	18644.75
896.543	18518.75
896.782	18433.75
897.021	18537.75
897.26	18487.75
897.499	18477.75
897.738	18470.75
897.977	18324.75
898.216	18226.75
898.454	18003.75
898.693	17964.75
898.932	17944.75
899.17	17778.75
899.409	17810.75
899.647	17710.75
899.886	17775.75
900.124	17775.75
900.363	17790.75
900.601	17828.75
900.839	17845.75
901.078	17916.75
901.316	17917.75
901.554	18059.75
901.792	18027.75
902.03	18105.75
902.268	18075.75
902.506	18049.75
902.744	17844.75
902.982	17769.75
903.22	17472.75
903.458	17321.75
903.695	17048.75
903.933	16845.75
904.171	16514.75
904.409	16228.75
904.646	16129.75
904.884	15888.75
905.121	15693.75
905.359	15440.75
905.596	15395.75
905.833	15160.75
906.071	15071.75
906.308	15180.75
906.545	14975.75
906.783	14924.75
907.02	14927.75
907.257	14883.75
907.494	14901.75
907.731	14804.75
907.968	14758.75
908.205	14692.75
908.442	14610.75
908.679	14496.75
908.915	14362.75
909.152	14303.75
909.389	14055.75
909.626	14045.75
909.862	13884.75
910.099	13888.75
910.335	13896.75
910.572	13782.75
910.808	13745.75
911.045	13690.75
911.281	13628.75
911.518	13668.75
911.754	13415.75
911.99	13425.75
912.226	13334.75
912.463	13186.75
912.699	13154.75
912.935	12905.75
913.171	12945.75
913.407	12793.75
913.643	12827.75
913.879	12751.75
914.114	12557.75
914.35	12420.75
914.586	12301.75
914.822	12164.75
915.057	12203.75
915.293	11988.75
915.529	11977.75
915.764	12090.75
916	11970.75
916.235	11946.75
916.471	11905.75
916.706	11759.75
916.941	11788.75
917.177	11786.75
917.412	11814.75
917.647	11792.75
917.882	11685.75
918.117	11755.75
918.352	11666.75
918.588	11707.75
918.823	11550.75
919.057	11399.75
919.292	11265.75
919.527	11251.75
919.762	11109.75
919.997	11036.75
920.232	10922.75
920.466	10847.75
920.701	10645.75
920.935	10629.75
921.17	10653.75
921.405	10494.75
921.639	10596.75
921.873	10462.75
922.108	10450.75
922.342	10461.75
922.576	10301.75
922.811	10276.75
923.045	10384.75
923.279	10296.75
923.513	10147.75
923.747	10104.75
923.981	10058.75
924.215	10002.75
924.449	9949.75
924.683	9892.75
924.917	9892.75
925.151	9868.75
925.385	9883.75
925.618	9828.75
925.852	9672.75
926.086	9698.75
926.319	9680.75
926.553	9697.75
926.786	9669.75
927.02	9675.75
927.253	9712.75
927.486	9677.75
927.72	9662.75
927.953	9683.75
928.186	9514.75
928.42	9541.75
928.653	9422.75
928.886	9398.75
929.119	9389.75
929.352	9336.75
929.585	9317.75
929.818	9107.75
930.051	9194.75
930.284	9194.75
930.516	8951.75
930.749	8927.75
930.982	8899.75
931.215	8921.75
931.447	8834.75
931.68	8788.75
931.912	8778.75
932.145	8763.75
932.377	8803.75
932.61	8939.75
932.842	8666.75
933.074	8766.75
933.307	8709.75
933.539	8790.75
933.771	8845.75
934.003	8746.75
934.236	8814.75
934.468	8746.75
934.7	8657.75
934.932	8647.75
935.164	8640.75
935.395	8563.75
935.627	8580.75
935.859	8519.75
936.091	8520.75
936.323	8474.75
936.554	8565.75
936.786	8498.75
937.017	8298.75
937.249	8385.75
937.481	8273.75
937.712	8366.75
937.943	8315.75
938.175	8225.75
938.406	8270.75
938.637	8314.75
938.869	8208.75
939.1	8209.75
939.331	8151.75
939.562	8191.75
939.793	8109.75
940.024	8121.75
940.255	8086.75
940.486	7992.75
940.717	8057.75
940.948	7941.75
941.179	7875.75
941.409	7908.75
941.64	7864.75
941.871	7870.75
942.102	7835.75
942.332	7905.75
942.563	7850.75
942.793	7880.75
943.024	7775.75
943.254	7864.75
943.484	7871.75
943.715	7838.75
943.945	7751.75
944.175	7758.75
944.405	7721.75
944.636	7735.75
944.866	7772.75
945.096	7750.75
945.326	7720.75
945.556	7724.75
945.786	7672.75
946.016	7661.75
946.245	7537.75
946.475	7510.75
946.705	7397.75
946.935	7463.75
947.164	7409.75
947.394	7277.75
947.624	7282.75
947.853	7335.75
948.083	7313.75
948.312	7213.75
948.542	7134.75
948.771	7077.75
949	7126.75
949.23	7064.75
949.459	7104.75
949.688	7165.75
949.917	7082.75
950.146	7108.75
950.375	7066.75
950.604	6968.75
950.833	7020.75
951.062	7041.75
951.291	6942.75
951.52	6955.75
951.749	6930.75
951.978	6870.75
952.206	6844.75
952.435	6816.75
952.664	6870.75
952.892	6860.75
953.121	6797.75
953.349	6795.75
953.578	6767.75
953.806	6695.75
954.035	6599.75
954.263	6602.75
954.491	6555.75
954.719	6601.75
954.948	6520.75
955.176	6479.75
955.404	6398.75
955.632	6416.75
955.86	6433.75
956.088	6348.75
956.316	6384.75
956.544	6394.75
956.772	6246.75
956.999	6274.75
957.227	6261.75
957.455	6218.75
957.683	6158.75
957.91	6069.75
958.138	6050.75
958.365	6053.75
958.593	6063.75
958.82	5950.75
959.048	6049.75
959.275	5959.75
959.502	5943.75
959.73	5917.75
959.957	5945.75
960.184	5933.75
960.411	5840.75
960.638	5913.75
960.865	5833.75
961.092	5864.75
961.319	5761.75
961.546	5831.75
961.773	5831.75
962	5836.75
962.227	5843.75
962.454	5824.75
962.68	5792.75
962.907	5748.75
963.134	5693.75
963.36	5668.75
963.587	5702.75
963.813	5578.75
964.04	5563.75
964.266	5457.75
964.493	5532.75
964.719	5478.75
964.945	5474.75
965.171	5392.75
965.398	5394.75
965.624	5422.75
965.85	5268.75
966.076	5274.75
966.302	5298.75
966.528	5242.75
966.754	5278.75
966.98	5259.75
967.206	5186.75
967.431	5173.75
967.657	5220.75
967.883	5208.75
968.109	5199.75
968.334	5117.75
968.56	5067.75
968.785	5095.75
969.011	5037.75
969.236	5062.75
969.462	5026.75
969.687	5006.75
969.912	5048.75
970.138	5074.75
970.363	4940.75
970.588	4971.75
970.813	4901.75
971.038	4890.75
971.263	4924.75
971.488	4900.75
971.713	4863.75
971.938	4882.75
972.163	4727.75
972.388	4782.75
972.613	4745.75
972.838	4746.75
973.062	4732.75
973.287	4669.75
973.512	4621.75
973.736	4633.75
973.961	4601.75
974.185	4616.75
974.41	4560.75
974.634	4467.75
974.858	4448.75
975.083	4464.75
975.307	4494.75
975.531	4447.75
975.755	4358.75
975.98	4331.75
976.204	4274.75
976.428	4251.75
976.652	4201.75
976.876	4236.75
977.1	4265.75
977.324	4216.75
977.547	4237.75
977.771	4245.75
977.995	4163.75
978.219	4115.75
978.442	4248.75
978.666	4157.75
978.89	4167.75
979.113	4127.75
979.337	4119.75
979.56	4030.75
979.783	4182.75
980.007	4018.75
980.23	4038.75
980.453	3940.75
980.677	4024.75
980.9	4018.75
981.123	3912.75
981.346	4021.75
981.569	3978.75
981.792	3973.75
982.015	3894.75
982.238	3822.75
982.461	3873.75
982.684	3828.75
982.907	3751.75
983.129	3788.75
983.352	3785.75
983.575	3778.75
983.797	3761.75
984.02	3716.75
984.242	3658.75
984.465	3695.75
984.687	3690.75
984.91	3694.75
985.132	3646.75
985.354	3622.75
985.577	3599.75
985.799	3538.75
986.021	3506.75
986.243	3513.75
986.465	3524.75
986.687	3584.75
986.909	3565.75
987.131	3509.75
987.353	3483.75
987.575	3469.75
987.797	3416.75
988.019	3365.75
988.241	3431.75
988.462	3346.75
988.684	3468.75
988.906	3422.75
989.127	3438.75
989.349	3323.75
989.57	3351.75
989.792	3393.75
990.013	3389.75
990.234	3398.75
990.456	3376.75
990.677	3349.75
990.898	3301.75
991.119	3324.75
991.341	3325.75
991.562	3222.75
991.783	3258.75
992.004	3175.75
992.225	3127.75
992.446	3173.75
992.667	3082.75
992.887	3166.75
993.108	3015.75
993.329	3181.75
993.55	3059.75
993.77	3013.75
993.991	3017.75
994.212	3033.75
994.432	3024.75
994.653	3025.75
994.873	3016.75
995.093	2860.75
995.314	2890.75
995.534	2985.75
995.754	2988.75
995.975	2993.75
996.195	2906.75
996.415	2919.75
996.635	2908.75
996.855	2944.75
997.075	2865.75
997.295	2856.75
997.515	2865.75
997.735	2863.75
997.955	2857.75
998.174	2875.75
998.394	2845.75
998.614	2885.75
998.834	2819.75
999.053	2852.75
999.273	2839.75
999.492	2843.75
999.712	2781.75
999.931	2727.75
1000.151	2792.75
1000.37	2721.75
1000.589	2747.75
1000.809	2678.75
1001.028	2808.75
1001.247	2752.75
1001.466	2616.75
1001.685	2697.75
1001.904	2659.75
1002.123	2660.75
1002.342	2651.75
1002.561	2550.75
1002.78	2615.75
1002.999	2657.75
1003.218	2588.75
1003.436	2570.75
1003.655	2603.75
1003.874	2543.75
1004.092	2504.75
1004.311	2554.75
1004.53	2524.75
1004.748	2570.75
1004.966	2484.75
1005.185	2532.75
1005.403	2506.75
1005.622	2501.75
1005.84	2563.75
1006.058	2444.75
1006.276	2489.75
1006.494	2959.75
1006.712	2468.75
1006.931	2521.75
1007.149	2464.75
1007.367	2472.75
1007.584	2517.75
1007.802	2521.75
1008.02	2470.75
1008.238	2613.75
1008.456	2619.75
1008.673	2442.75
1008.891	2571.75
1009.109	2534.75
1009.326	2595.75
1009.544	2725.75
1009.761	2634.75
1009.979	2736.75
1010.196	2819.75
1010.413	2960.75
1010.631	3022.75
1010.848	3120.75
1011.065	3102.75
1011.282	3049.75
1011.5	3030.75
1011.717	3104.75
1011.934	3055.75
1012.151	3056.75
1012.368	3060.75
1012.585	2976.75
1012.801	3040.75
1013.018	3058.75
1013.235	3026.75
1013.452	2995.75
1013.669	3019.75
1013.885	3022.75
1014.102	3068.75
1014.318	3070.75
1014.535	2984.75
1014.751	2980.75
1014.968	3001.75
1015.184	2983.75
1015.401	2909.75
1015.617	2911.75
1015.833	2852.75
1016.049	2885.75
1016.266	2856.75
1016.482	2844.75
1016.698	2726.75
1016.914	2743.75
1017.13	2729.75
1017.346	2739.75
1017.562	2779.75
1017.778	2677.75
1017.993	2667.75
1018.209	2700.75
1018.425	2685.75
1018.641	2666.75
1018.856	2650.75
1019.072	2689.75
1019.288	2696.75
1019.503	2650.75
1019.719	2542.75
1019.934	2569.75
1020.149	2658.75
1020.365	2571.75
1020.58	2489.75
1020.795	2506.75
1021.011	2442.75
1021.226	2370.75
1021.441	2357.75
1021.656	2290.75
1021.871	2191.75
1022.086	2156.75
1022.301	2152.75
1022.516	2150.75
1022.731	2147.75
1022.946	2067.75
1023.16	2009.75
1023.375	2005.75
1023.59	1927.75
1023.804	1915.75
1024.019	1957.75
1024.234	1838.75
1024.448	1839.75
1024.663	1763.75
1024.877	1743.75
1025.092	1750.75
1025.306	1752.75
1025.52	1620.75
1025.734	1692.75
1025.949	1598.75
1026.163	1561.75
1026.377	1461.75
1026.591	1532.75
1026.805	1418.75
1027.019	1400.75
1027.233	1374.75
1027.447	1298.75
1027.661	1369.75
1027.875	1330.75
1028.088	1321.75
1028.302	1237.75
1028.516	1213.75
1028.73	1201.75
1028.943	1150.75
1029.157	1100.75
1029.37	1039.75
1029.584	-2.25
1029.797	-1.25
1030.011	-2.25
1030.224	-1.25
