Data from QEP037381__42__15-16-15-859.txt Node

Date: Fri Dec 16 15:16:15 EST 2022
User: dcclab
Spectrometer: QEP03738
Trigger mode: 4
Integration Time (sec): 1.000000E1
Scans to average: 1
Electric dark correction enabled: true
Nonlinearity correction enabled: false
Boxcar width: 0
XAxis mode: Wavelengths
Number of Pixels in Spectrum: 1044
>>>>>Begin Spectral Data<<<<<
784.041	10.12
784.3	2.12
784.558	-5.88
784.817	-0.88
785.075	87166.12
785.334	15364.12
785.592	7393.12
785.851	5061.12
786.109	3872.12
786.368	3035.12
786.626	2452.12
786.884	2038.12
787.143	1754.12
787.401	1434.12
787.659	1294.12
787.917	1116.12
788.175	1050.12
788.433	934.12
788.691	829.12
788.949	756.12
789.207	734.12
789.465	646.12
789.723	631.12
789.98	568.12
790.238	595.12
790.496	584.12
790.753	555.12
791.011	595.12
791.268	537.12
791.526	515.12
791.783	530.12
792.041	512.12
792.298	446.12
792.556	494.12
792.813	495.12
793.07	470.12
793.327	441.12
793.584	538.12
793.841	452.12
794.099	465.12
794.356	529.12
794.613	429.12
794.869	473.12
795.126	432.12
795.383	434.12
795.64	455.12
795.897	400.12
796.153	473.12
796.41	457.12
796.667	434.12
796.923	444.12
797.18	431.12
797.436	475.12
797.693	424.12
797.949	487.12
798.206	530.12
798.462	416.12
798.718	498.12
798.974	464.12
799.231	530.12
799.487	506.12
799.743	509.12
799.999	547.12
800.255	553.12
800.511	523.12
800.767	577.12
801.023	568.12
801.279	592.12
801.534	658.12
801.79	709.12
802.046	748.12
802.302	897.12
802.557	1045.12
802.813	1308.12
803.068	1609.12
803.324	2209.12
803.579	3038.12
803.835	4258.12
804.09	5937.12
804.345	7883.12
804.601	10130.12
804.856	12414.12
805.111	14399.12
805.366	15951.12
805.621	17150.12
805.876	17920.12
806.131	18429.12
806.386	18862.12
806.641	19227.12
806.896	19653.12
807.151	20011.12
807.406	20425.12
807.661	20727.12
807.915	21212.12
808.17	21499.12
808.425	21767.12
808.679	21953.12
808.934	22337.12
809.188	22477.12
809.443	22744.12
809.697	23014.12
809.951	23153.12
810.206	23626.12
810.46	23903.12
810.714	24154.12
810.968	24346.12
811.223	24442.12
811.477	24796.12
811.731	24933.12
811.985	25139.12
812.239	25370.12
812.493	25384.12
812.747	25537.12
813	25553.12
813.254	25849.12
813.508	25966.12
813.762	26107.12
814.015	26244.12
814.269	26418.12
814.522	26645.12
814.776	27096.12
815.03	27421.12
815.283	27826.12
815.536	28290.12
815.79	28729.12
816.043	29212.12
816.296	29582.12
816.55	30047.12
816.803	30414.12
817.056	30960.12
817.309	31059.12
817.562	31518.12
817.815	31814.12
818.068	32214.12
818.321	32393.12
818.574	32938.12
818.827	33317.12
819.079	33781.12
819.332	34330.12
819.585	34801.12
819.838	35362.12
820.09	35652.12
820.343	35807.12
820.595	36141.12
820.848	36442.12
821.1	36697.12
821.353	36552.12
821.605	36596.12
821.857	36542.12
822.11	36466.12
822.362	36329.12
822.614	36266.12
822.866	36358.12
823.118	36318.12
823.37	36465.12
823.622	36701.12
823.874	36720.12
824.126	36947.12
824.378	36946.12
824.63	37183.12
824.882	37316.12
825.134	37098.12
825.385	37291.12
825.637	37137.12
825.888	36922.12
826.14	36914.12
826.392	36987.12
826.643	36767.12
826.895	36702.12
827.146	36593.12
827.397	36514.12
827.649	36505.12
827.9	36376.12
828.151	36508.12
828.402	36621.12
828.653	36784.12
828.905	36923.12
829.156	37086.12
829.407	36964.12
829.658	36987.12
829.909	37064.12
830.159	36928.12
830.41	36894.12
830.661	36713.12
830.912	36446.12
831.162	36340.12
831.413	36299.12
831.664	36358.12
831.914	36324.12
832.165	36386.12
832.415	36405.12
832.666	36315.12
832.916	36436.12
833.167	36472.12
833.417	36447.12
833.667	36318.12
833.917	36216.12
834.168	36056.12
834.418	35907.12
834.668	35967.12
834.918	35858.12
835.168	35730.12
835.418	35504.12
835.668	35337.12
835.918	35420.12
836.167	35376.12
836.417	35302.12
836.667	35202.12
836.917	35288.12
837.166	35287.12
837.416	35302.12
837.666	35108.12
837.915	35109.12
838.165	35094.12
838.414	35051.12
838.663	34839.12
838.913	34988.12
839.162	34725.12
839.411	35063.12
839.661	34785.12
839.91	34612.12
840.159	34751.12
840.408	34459.12
840.657	34781.12
840.906	34657.12
841.155	34694.12
841.404	34653.12
841.653	34709.12
841.902	34778.12
842.15	34854.12
842.399	34691.12
842.648	34670.12
842.897	34741.12
843.145	34570.12
843.394	34411.12
843.642	33991.12
843.891	33940.12
844.139	33834.12
844.388	33754.12
844.636	33557.12
844.884	33573.12
845.133	33557.12
845.381	33514.12
845.629	33658.12
845.877	33583.12
846.125	33574.12
846.373	33350.12
846.621	33341.12
846.869	33333.12
847.117	33235.12
847.365	32879.12
847.613	32820.12
847.861	32651.12
848.108	32664.12
848.356	32551.12
848.604	32512.12
848.851	32542.12
849.099	32714.12
849.346	32843.12
849.594	32916.12
849.841	33028.12
850.089	32963.12
850.336	33017.12
850.583	33103.12
850.831	32689.12
851.078	32717.12
851.325	32700.12
851.572	32919.12
851.819	32598.12
852.066	31929.12
852.313	31581.12
852.56	31281.12
852.807	31157.12
853.054	31062.12
853.301	31006.12
853.548	31181.12
853.794	31308.12
854.041	31333.12
854.288	31520.12
854.534	31691.12
854.781	31869.12
855.028	31584.12
855.274	31643.12
855.52	31350.12
855.767	31239.12
856.013	31372.12
856.26	31575.12
856.506	31149.12
856.752	31003.12
856.998	31092.12
857.244	31173.12
857.49	31294.12
857.736	31400.12
857.982	31483.12
858.228	31279.12
858.474	31126.12
858.72	31003.12
858.966	30764.12
859.212	30369.12
859.458	30156.12
859.703	29817.12
859.949	29527.12
860.195	29466.12
860.44	29333.12
860.686	29137.12
860.931	29256.12
861.177	29072.12
861.422	28911.12
861.667	28811.12
861.913	28806.12
862.158	28865.12
862.403	28938.12
862.648	29162.12
862.893	29125.12
863.138	29135.12
863.384	29115.12
863.629	29073.12
863.873	29061.12
864.118	28921.12
864.363	28885.12
864.608	28817.12
864.853	28705.12
865.098	28572.12
865.342	28476.12
865.587	28384.12
865.832	28359.12
866.076	28267.12
866.321	28185.12
866.565	28096.12
866.81	27936.12
867.054	27961.12
867.298	27879.12
867.543	27776.12
867.787	27864.12
868.031	27711.12
868.275	27743.12
868.519	27752.12
868.764	27748.12
869.008	27585.12
869.252	27627.12
869.496	27565.12
869.739	27497.12
869.983	27516.12
870.227	27492.12
870.471	27560.12
870.715	27669.12
870.958	27736.12
871.202	27828.12
871.446	27832.12
871.689	27762.12
871.933	27786.12
872.176	27822.12
872.42	27661.12
872.663	27771.12
872.906	27485.12
873.15	27442.12
873.393	27252.12
873.636	27334.12
873.879	27062.12
874.122	26829.12
874.366	26554.12
874.609	26357.12
874.852	26297.12
875.095	26037.12
875.337	25982.12
875.58	25807.12
875.823	25830.12
876.066	25718.12
876.309	25562.12
876.551	25465.12
876.794	25360.12
877.037	25460.12
877.279	25271.12
877.522	25297.12
877.764	25309.12
878.007	25263.12
878.249	25246.12
878.491	25144.12
878.734	25258.12
878.976	25132.12
879.218	25054.12
879.46	24873.12
879.702	24869.12
879.945	24559.12
880.187	24410.12
880.429	24180.12
880.671	24263.12
880.912	24011.12
881.154	24093.12
881.396	24001.12
881.638	24030.12
881.88	24076.12
882.121	23918.12
882.363	23952.12
882.605	23826.12
882.846	23870.12
883.088	23925.12
883.329	23766.12
883.571	23730.12
883.812	23770.12
884.053	24043.12
884.295	24409.12
884.536	24536.12
884.777	24514.12
885.018	24344.12
885.259	24425.12
885.5	24244.12
885.742	24585.12
885.982	24166.12
886.223	24091.12
886.464	24004.12
886.705	23735.12
886.946	23566.12
887.187	23030.12
887.428	22944.12
887.668	22629.12
887.909	22437.12
888.15	22213.12
888.39	22209.12
888.631	21999.12
888.871	21851.12
889.111	21676.12
889.352	21571.12
889.592	21376.12
889.833	21302.12
890.073	21156.12
890.313	21121.12
890.553	20905.12
890.793	20815.12
891.033	20700.12
891.273	20633.12
891.513	20745.12
891.753	20600.12
891.993	20578.12
892.233	20571.12
892.473	20707.12
892.713	20717.12
892.952	20658.12
893.192	20758.12
893.432	20696.12
893.671	20738.12
893.911	20581.12
894.15	20471.12
894.39	20295.12
894.629	20297.12
894.869	20161.12
895.108	20147.12
895.347	19946.12
895.587	19919.12
895.826	19874.12
896.065	19875.12
896.304	19944.12
896.543	19904.12
896.782	19789.12
897.021	19778.12
897.26	19708.12
897.499	19748.12
897.738	19747.12
897.977	19584.12
898.216	19509.12
898.454	19436.12
898.693	19194.12
898.932	19284.12
899.17	19185.12
899.409	19026.12
899.647	19110.12
899.886	19047.12
900.124	19059.12
900.363	19135.12
900.601	19190.12
900.839	19129.12
901.078	19269.12
901.316	19276.12
901.554	19466.12
901.792	19566.12
902.03	19562.12
902.268	19447.12
902.506	19496.12
902.744	19268.12
902.982	19142.12
903.22	18885.12
903.458	18668.12
903.695	18321.12
903.933	18160.12
904.171	17848.12
904.409	17578.12
904.646	17316.12
904.884	17128.12
905.121	17043.12
905.359	16815.12
905.596	16583.12
905.833	16491.12
906.071	16305.12
906.308	16285.12
906.545	16277.12
906.783	16147.12
907.02	16216.12
907.257	16006.12
907.494	16159.12
907.731	16070.12
907.968	15952.12
908.205	15884.12
908.442	15700.12
908.679	15597.12
908.915	15397.12
909.152	15208.12
909.389	15201.12
909.626	15191.12
909.862	15097.12
910.099	15016.12
910.335	15092.12
910.572	14874.12
910.808	14910.12
911.045	14787.12
911.281	14693.12
911.518	14743.12
911.754	14598.12
911.99	14522.12
912.226	14464.12
912.463	14364.12
912.699	14159.12
912.935	14110.12
913.171	13949.12
913.407	13889.12
913.643	13831.12
913.879	13644.12
914.114	13597.12
914.35	13463.12
914.586	13304.12
914.822	13232.12
915.057	13195.12
915.293	12963.12
915.529	13012.12
915.764	13047.12
916	12977.12
916.235	12901.12
916.471	12996.12
916.706	12805.12
916.941	12769.12
917.177	12752.12
917.412	12882.12
917.647	12816.12
917.882	12750.12
918.117	12769.12
918.352	12683.12
918.588	12661.12
918.823	12481.12
919.057	12447.12
919.292	12275.12
919.527	12229.12
919.762	12064.12
919.997	12074.12
920.232	11838.12
920.466	11847.12
920.701	11604.12
920.935	11596.12
921.17	11523.12
921.405	11486.12
921.639	11523.12
921.873	11338.12
922.108	11397.12
922.342	11397.12
922.576	11329.12
922.811	11310.12
923.045	11264.12
923.279	11275.12
923.513	11031.12
923.747	11038.12
923.981	10972.12
924.215	10889.12
924.449	10854.12
924.683	10827.12
924.917	10719.12
925.151	10644.12
925.385	10668.12
925.618	10611.12
925.852	10618.12
926.086	10497.12
926.319	10544.12
926.553	10549.12
926.786	10525.12
927.02	10525.12
927.253	10497.12
927.486	10469.12
927.72	10429.12
927.953	10450.12
928.186	10402.12
928.42	10416.12
928.653	10302.12
928.886	10218.12
929.119	10259.12
929.352	10194.12
929.585	10147.12
929.818	10007.12
930.051	9984.12
930.284	9917.12
930.516	9753.12
930.749	9755.12
930.982	9744.12
931.215	9698.12
931.447	9592.12
931.68	9631.12
931.912	9553.12
932.145	9536.12
932.377	9576.12
932.61	9641.12
932.842	9520.12
933.074	9572.12
933.307	9552.12
933.539	9612.12
933.771	9636.12
934.003	9497.12
934.236	9621.12
934.468	9620.12
934.7	9426.12
934.932	9426.12
935.164	9411.12
935.395	9388.12
935.627	9418.12
935.859	9378.12
936.091	9278.12
936.323	9235.12
936.554	9316.12
936.786	9263.12
937.017	9136.12
937.249	9162.12
937.481	9074.12
937.712	9176.12
937.943	9075.12
938.175	9040.12
938.406	9043.12
938.637	9075.12
938.869	8984.12
939.1	9053.12
939.331	9025.12
939.562	8918.12
939.793	8904.12
940.024	8859.12
940.255	8819.12
940.486	8803.12
940.717	8728.12
940.948	8705.12
941.179	8658.12
941.409	8642.12
941.64	8705.12
941.871	8570.12
942.102	8598.12
942.332	8677.12
942.563	8653.12
942.793	8616.12
943.024	8555.12
943.254	8613.12
943.484	8605.12
943.715	8649.12
943.945	8622.12
944.175	8461.12
944.405	8530.12
944.636	8478.12
944.866	8506.12
945.096	8498.12
945.326	8416.12
945.556	8469.12
945.786	8399.12
946.016	8329.12
946.245	8316.12
946.475	8238.12
946.705	8158.12
946.935	8168.12
947.164	8133.12
947.394	8014.12
947.624	8080.12
947.853	8074.12
948.083	7952.12
948.312	7928.12
948.542	7822.12
948.771	7783.12
949	7824.12
949.23	7804.12
949.459	7841.12
949.688	7829.12
949.917	7836.12
950.146	7819.12
950.375	7784.12
950.604	7688.12
950.833	7723.12
951.062	7722.12
951.291	7689.12
951.52	7644.12
951.749	7728.12
951.978	7644.12
952.206	7572.12
952.435	7583.12
952.664	7523.12
952.892	7545.12
953.121	7464.12
953.349	7482.12
953.578	7529.12
953.806	7386.12
954.035	7313.12
954.263	7330.12
954.491	7303.12
954.719	7270.12
954.948	7189.12
955.176	7234.12
955.404	7123.12
955.632	7184.12
955.86	7116.12
956.088	7047.12
956.316	7044.12
956.544	6992.12
956.772	6920.12
956.999	6912.12
957.227	6936.12
957.455	6838.12
957.683	6793.12
957.91	6764.12
958.138	6698.12
958.365	6728.12
958.593	6690.12
958.82	6609.12
959.048	6638.12
959.275	6608.12
959.502	6584.12
959.73	6580.12
959.957	6570.12
960.184	6558.12
960.411	6520.12
960.638	6550.12
960.865	6529.12
961.092	6498.12
961.319	6392.12
961.546	6509.12
961.773	6459.12
962	6452.12
962.227	6431.12
962.454	6422.12
962.68	6387.12
962.907	6347.12
963.134	6285.12
963.36	6316.12
963.587	6262.12
963.813	6142.12
964.04	6188.12
964.266	6084.12
964.493	6179.12
964.719	6086.12
964.945	6123.12
965.171	5965.12
965.398	5980.12
965.624	5978.12
965.85	5874.12
966.076	5869.12
966.302	5877.12
966.528	5797.12
966.754	5898.12
966.98	5843.12
967.206	5791.12
967.431	5717.12
967.657	5788.12
967.883	5779.12
968.109	5743.12
968.334	5666.12
968.56	5633.12
968.785	5656.12
969.011	5595.12
969.236	5633.12
969.462	5567.12
969.687	5550.12
969.912	5614.12
970.138	5593.12
970.363	5493.12
970.588	5529.12
970.813	5520.12
971.038	5430.12
971.263	5455.12
971.488	5432.12
971.713	5408.12
971.938	5354.12
972.163	5271.12
972.388	5339.12
972.613	5258.12
972.838	5255.12
973.062	5210.12
973.287	5238.12
973.512	5148.12
973.736	5136.12
973.961	5098.12
974.185	5065.12
974.41	5132.12
974.634	5016.12
974.858	4981.12
975.083	5021.12
975.307	4993.12
975.531	4923.12
975.755	4807.12
975.98	4827.12
976.204	4798.12
976.428	4759.12
976.652	4771.12
976.876	4736.12
977.1	4754.12
977.324	4680.12
977.547	4709.12
977.771	4692.12
977.995	4707.12
978.219	4589.12
978.442	4697.12
978.666	4679.12
978.89	4673.12
979.113	4578.12
979.337	4598.12
979.56	4519.12
979.783	4592.12
980.007	4492.12
980.23	4531.12
980.453	4431.12
980.677	4449.12
980.9	4469.12
981.123	4380.12
981.346	4447.12
981.569	4381.12
981.792	4428.12
982.015	4338.12
982.238	4285.12
982.461	4286.12
982.684	4255.12
982.907	4193.12
983.129	4191.12
983.352	4195.12
983.575	4191.12
983.797	4139.12
984.02	4087.12
984.242	4105.12
984.465	4062.12
984.687	4147.12
984.91	4084.12
985.132	4046.12
985.354	4017.12
985.577	4050.12
985.799	3995.12
986.021	3908.12
986.243	3875.12
986.465	3930.12
986.687	4014.12
986.909	3973.12
987.131	3928.12
987.353	3858.12
987.575	3856.12
987.797	3880.12
988.019	3768.12
988.241	3821.12
988.462	3764.12
988.684	3825.12
988.906	3831.12
989.127	3859.12
989.349	3746.12
989.57	3735.12
989.792	3756.12
990.013	3792.12
990.234	3739.12
990.456	3763.12
990.677	3722.12
990.898	3667.12
991.119	3629.12
991.341	3677.12
991.562	3555.12
991.783	3633.12
992.004	3496.12
992.225	3484.12
992.446	3544.12
992.667	3425.12
992.887	3517.12
993.108	3361.12
993.329	3468.12
993.55	3461.12
993.77	3358.12
993.991	3352.12
994.212	3400.12
994.432	3358.12
994.653	3375.12
994.873	3365.12
995.093	3210.12
995.314	3282.12
995.534	3305.12
995.754	3322.12
995.975	3320.12
996.195	3221.12
996.415	3238.12
996.635	3170.12
996.855	3228.12
997.075	3158.12
997.295	3170.12
997.515	3143.12
997.735	3181.12
997.955	3199.12
998.174	3152.12
998.394	3112.12
998.614	3130.12
998.834	3124.12
999.053	3196.12
999.273	3120.12
999.492	3170.12
999.712	3093.12
999.931	3019.12
1000.151	3035.12
1000.37	3020.12
1000.589	3085.12
1000.809	2970.12
1001.028	3065.12
1001.247	3013.12
1001.466	2898.12
1001.685	3004.12
1001.904	2964.12
1002.123	2888.12
1002.342	2914.12
1002.561	2847.12
1002.78	2847.12
1002.999	2920.12
1003.218	2870.12
1003.436	2818.12
1003.655	2859.12
1003.874	2756.12
1004.092	2780.12
1004.311	2806.12
1004.53	2780.12
1004.748	2805.12
1004.966	2737.12
1005.185	2843.12
1005.403	2792.12
1005.622	2759.12
1005.84	2831.12
1006.058	2708.12
1006.276	2727.12
1006.494	3237.12
1006.712	2723.12
1006.931	2808.12
1007.149	2697.12
1007.367	2694.12
1007.584	2792.12
1007.802	2810.12
1008.02	2704.12
1008.238	2812.12
1008.456	2846.12
1008.673	2676.12
1008.891	2756.12
1009.109	2750.12
1009.326	2849.12
1009.544	2948.12
1009.761	2860.12
1009.979	2962.12
1010.196	3030.12
1010.413	3134.12
1010.631	3281.12
1010.848	3324.12
1011.065	3353.12
1011.282	3282.12
1011.5	3243.12
1011.717	3299.12
1011.934	3235.12
1012.151	3300.12
1012.368	3269.12
1012.585	3219.12
1012.801	3231.12
1013.018	3277.12
1013.235	3224.12
1013.452	3290.12
1013.669	3252.12
1013.885	3261.12
1014.102	3301.12
1014.318	3271.12
1014.535	3174.12
1014.751	3232.12
1014.968	3248.12
1015.184	3233.12
1015.401	3117.12
1015.617	3134.12
1015.833	3108.12
1016.049	3126.12
1016.266	3083.12
1016.482	3056.12
1016.698	2968.12
1016.914	3012.12
1017.13	2969.12
1017.346	2924.12
1017.562	3013.12
1017.778	2969.12
1017.993	2878.12
1018.209	2954.12
1018.425	2914.12
1018.641	2937.12
1018.856	2883.12
1019.072	2929.12
1019.288	2967.12
1019.503	2913.12
1019.719	2833.12
1019.934	2852.12
1020.149	2918.12
1020.365	2816.12
1020.58	2724.12
1020.795	2829.12
1021.011	2664.12
1021.226	2619.12
1021.441	2627.12
1021.656	2538.12
1021.871	2458.12
1022.086	2413.12
1022.301	2356.12
1022.516	2384.12
1022.731	2402.12
1022.946	2273.12
1023.16	2250.12
1023.375	2184.12
1023.59	2144.12
1023.804	2098.12
1024.019	2174.12
1024.234	2044.12
1024.448	2042.12
1024.663	1965.12
1024.877	1960.12
1025.092	1934.12
1025.306	1926.12
1025.52	1838.12
1025.734	1838.12
1025.949	1772.12
1026.163	1704.12
1026.377	1648.12
1026.591	1660.12
1026.805	1575.12
1027.019	1564.12
1027.233	1492.12
1027.447	1438.12
1027.661	1531.12
1027.875	1480.12
1028.088	1454.12
1028.302	1357.12
1028.516	1343.12
1028.73	1326.12
1028.943	1279.12
1029.157	1223.12
1029.37	1139.12
1029.584	-0.88
1029.797	-1.88
1030.011	-0.88
1030.224	-1.88
