Data from QEP037381__44__15-16-35-859.txt Node

Date: Fri Dec 16 15:16:35 EST 2022
User: dcclab
Spectrometer: QEP03738
Trigger mode: 4
Integration Time (sec): 1.000000E1
Scans to average: 1
Electric dark correction enabled: true
Nonlinearity correction enabled: false
Boxcar width: 0
XAxis mode: Wavelengths
Number of Pixels in Spectrum: 1044
>>>>>Begin Spectral Data<<<<<
784.041	10.5
784.3	-1.5
784.558	-1.5
784.817	-4.5
785.075	90699.5
785.334	15849.5
785.592	7519.5
785.851	5136.5
786.109	3885.5
786.368	3028.5
786.626	2432.5
786.884	2049.5
787.143	1726.5
787.401	1409.5
787.659	1299.5
787.917	1128.5
788.175	1032.5
788.433	909.5
788.691	825.5
788.949	758.5
789.207	718.5
789.465	609.5
789.723	612.5
789.98	563.5
790.238	605.5
790.496	561.5
790.753	532.5
791.011	598.5
791.268	517.5
791.526	502.5
791.783	537.5
792.041	514.5
792.298	433.5
792.556	496.5
792.813	470.5
793.07	439.5
793.327	439.5
793.584	512.5
793.841	448.5
794.099	472.5
794.356	520.5
794.613	421.5
794.869	467.5
795.126	424.5
795.383	423.5
795.64	437.5
795.897	382.5
796.153	448.5
796.41	424.5
796.667	416.5
796.923	421.5
797.18	407.5
797.436	451.5
797.693	413.5
797.949	459.5
798.206	492.5
798.462	397.5
798.718	482.5
798.974	456.5
799.231	494.5
799.487	481.5
799.743	473.5
799.999	511.5
800.255	500.5
800.511	489.5
800.767	551.5
801.023	533.5
801.279	559.5
801.534	592.5
801.79	648.5
802.046	675.5
802.302	806.5
802.557	930.5
802.813	1163.5
803.068	1438.5
803.324	1978.5
803.579	2699.5
803.835	3693.5
804.09	5043.5
804.345	6573.5
804.601	8406.5
804.856	10105.5
805.111	11628.5
805.366	12810.5
805.621	13728.5
805.876	14352.5
806.131	14746.5
806.386	14942.5
806.641	15202.5
806.896	15537.5
807.151	15762.5
807.406	16044.5
807.661	16271.5
807.915	16610.5
808.17	16876.5
808.425	17068.5
808.679	17190.5
808.934	17380.5
809.188	17592.5
809.443	17866.5
809.697	18090.5
809.951	18168.5
810.206	18371.5
810.46	18519.5
810.714	18673.5
810.968	18857.5
811.223	18974.5
811.477	19158.5
811.731	19330.5
811.985	19421.5
812.239	19441.5
812.493	19581.5
812.747	19746.5
813	19759.5
813.254	19912.5
813.508	20031.5
813.762	20118.5
814.015	20207.5
814.269	20224.5
814.522	20497.5
814.776	20659.5
815.03	20945.5
815.283	21350.5
815.536	21606.5
815.79	21883.5
816.043	22179.5
816.296	22455.5
816.55	22799.5
816.803	23002.5
817.056	23354.5
817.309	23520.5
817.562	23713.5
817.815	23984.5
818.068	24252.5
818.321	24401.5
818.574	24647.5
818.827	25062.5
819.079	25402.5
819.332	25865.5
819.585	26126.5
819.838	26493.5
820.09	26577.5
820.343	26813.5
820.595	26934.5
820.848	27046.5
821.1	27212.5
821.353	27184.5
821.605	27111.5
821.857	27315.5
822.11	27092.5
822.362	26978.5
822.614	26872.5
822.866	26991.5
823.118	26939.5
823.37	27095.5
823.622	27148.5
823.874	27268.5
824.126	27453.5
824.378	27418.5
824.63	27434.5
824.882	27586.5
825.134	27492.5
825.385	27504.5
825.637	27371.5
825.888	27418.5
826.14	27359.5
826.392	27168.5
826.643	26957.5
826.895	27040.5
827.146	26965.5
827.397	26902.5
827.649	26855.5
827.9	26791.5
828.151	26888.5
828.402	26869.5
828.653	26992.5
828.905	27058.5
829.156	27148.5
829.407	26998.5
829.658	27095.5
829.909	27138.5
830.159	27085.5
830.41	26966.5
830.661	26806.5
830.912	26633.5
831.162	26601.5
831.413	26714.5
831.664	26506.5
831.914	26551.5
832.165	26545.5
832.415	26478.5
832.666	26541.5
832.916	26592.5
833.167	26627.5
833.417	26523.5
833.667	26447.5
833.917	26284.5
834.168	26351.5
834.418	26127.5
834.668	26172.5
834.918	25985.5
835.168	25868.5
835.418	25725.5
835.668	25797.5
835.918	25625.5
836.167	25699.5
836.417	25561.5
836.667	25524.5
836.917	25410.5
837.166	25482.5
837.416	25586.5
837.666	25553.5
837.915	25315.5
838.165	25313.5
838.414	25254.5
838.663	25237.5
838.913	25302.5
839.162	25179.5
839.411	25272.5
839.661	25059.5
839.91	25072.5
840.159	25010.5
840.408	24956.5
840.657	24862.5
840.906	25063.5
841.155	25038.5
841.404	24991.5
841.653	25060.5
841.902	25110.5
842.15	25132.5
842.399	25056.5
842.648	24965.5
842.897	24924.5
843.145	24800.5
843.394	24750.5
843.642	24424.5
843.891	24386.5
844.139	24252.5
844.388	24125.5
844.636	23906.5
844.884	23987.5
845.133	23970.5
845.381	23884.5
845.629	23949.5
845.877	23978.5
846.125	23925.5
846.373	23881.5
846.621	23680.5
846.869	23657.5
847.117	23603.5
847.365	23465.5
847.613	23405.5
847.861	23371.5
848.108	23306.5
848.356	23206.5
848.604	23133.5
848.851	23180.5
849.099	23274.5
849.346	23204.5
849.594	23361.5
849.841	23549.5
850.089	23370.5
850.336	23434.5
850.583	23359.5
850.831	23320.5
851.078	23229.5
851.325	23275.5
851.572	23411.5
851.819	23246.5
852.066	22723.5
852.313	22463.5
852.56	22188.5
852.807	22193.5
853.054	22026.5
853.301	22068.5
853.548	22112.5
853.794	22277.5
854.041	22326.5
854.288	22327.5
854.534	22515.5
854.781	22581.5
855.028	22449.5
855.274	22446.5
855.52	22389.5
855.767	22217.5
856.013	22359.5
856.26	22711.5
856.506	22000.5
856.752	22094.5
856.998	22033.5
857.244	22080.5
857.49	22142.5
857.736	22258.5
857.982	22284.5
858.228	22271.5
858.474	21950.5
858.72	21957.5
858.966	21636.5
859.212	21502.5
859.458	21288.5
859.703	21128.5
859.949	20945.5
860.195	20793.5
860.44	20758.5
860.686	20589.5
860.931	20636.5
861.177	20504.5
861.422	20359.5
861.667	20257.5
861.913	20228.5
862.158	20167.5
862.403	20370.5
862.648	20467.5
862.893	20514.5
863.138	20436.5
863.384	20447.5
863.629	20324.5
863.873	20343.5
864.118	20277.5
864.363	20170.5
864.608	20163.5
864.853	20078.5
865.098	20002.5
865.342	19892.5
865.587	19787.5
865.832	19896.5
866.076	19711.5
866.321	19667.5
866.565	19698.5
866.81	19569.5
867.054	19610.5
867.298	19411.5
867.543	19283.5
867.787	19392.5
868.031	19379.5
868.275	19341.5
868.519	19316.5
868.764	19298.5
869.008	19206.5
869.252	19284.5
869.496	19141.5
869.739	19220.5
869.983	19195.5
870.227	19161.5
870.471	19203.5
870.715	19244.5
870.958	19396.5
871.202	19379.5
871.446	19510.5
871.689	19397.5
871.933	19432.5
872.176	19377.5
872.42	19340.5
872.663	19362.5
872.906	19373.5
873.15	19245.5
873.393	19188.5
873.636	19116.5
873.879	18995.5
874.122	18793.5
874.366	18610.5
874.609	18421.5
874.852	18236.5
875.095	18187.5
875.337	18145.5
875.58	17989.5
875.823	17946.5
876.066	17949.5
876.309	17865.5
876.551	17817.5
876.794	17665.5
877.037	17632.5
877.279	17482.5
877.522	17600.5
877.764	17607.5
878.007	17450.5
878.249	17514.5
878.491	17397.5
878.734	17466.5
878.976	17419.5
879.218	17188.5
879.46	17207.5
879.702	17070.5
879.945	16903.5
880.187	16758.5
880.429	16780.5
880.671	16623.5
880.912	16538.5
881.154	16490.5
881.396	16425.5
881.638	16424.5
881.88	16433.5
882.121	16480.5
882.363	16426.5
882.605	16377.5
882.846	16459.5
883.088	16375.5
883.329	16331.5
883.571	16344.5
883.812	16552.5
884.053	16907.5
884.295	17169.5
884.536	17468.5
884.777	17329.5
885.018	17152.5
885.259	17178.5
885.5	17088.5
885.742	17217.5
885.982	16978.5
886.223	16828.5
886.464	16697.5
886.705	16354.5
886.946	16333.5
887.187	16095.5
887.428	15914.5
887.668	15616.5
887.909	15366.5
888.15	15155.5
888.39	15141.5
888.631	15092.5
888.871	14922.5
889.111	14779.5
889.352	14740.5
889.592	14478.5
889.833	14489.5
890.073	14324.5
890.313	14440.5
890.553	14301.5
890.793	14116.5
891.033	14123.5
891.273	14080.5
891.513	14028.5
891.753	14044.5
891.993	14010.5
892.233	14048.5
892.473	14098.5
892.713	14010.5
892.952	14079.5
893.192	14136.5
893.432	14028.5
893.671	14168.5
893.911	14017.5
894.15	13923.5
894.39	13846.5
894.629	13724.5
894.869	13747.5
895.108	13627.5
895.347	13532.5
895.587	13586.5
895.826	13588.5
896.065	13551.5
896.304	13578.5
896.543	13618.5
896.782	13498.5
897.021	13446.5
897.26	13490.5
897.499	13473.5
897.738	13533.5
897.977	13464.5
898.216	13330.5
898.454	13252.5
898.693	13061.5
898.932	13164.5
899.17	13015.5
899.409	13075.5
899.647	13043.5
899.886	13121.5
900.124	13075.5
900.363	13119.5
900.601	13197.5
900.839	13143.5
901.078	13240.5
901.316	13284.5
901.554	13373.5
901.792	13459.5
902.03	13404.5
902.268	13518.5
902.506	13436.5
902.744	13247.5
902.982	13212.5
903.22	12926.5
903.458	12779.5
903.695	12564.5
903.933	12409.5
904.171	12113.5
904.409	11885.5
904.646	11801.5
904.884	11594.5
905.121	11504.5
905.359	11314.5
905.596	11240.5
905.833	11075.5
906.071	11068.5
906.308	10962.5
906.545	10914.5
906.783	10867.5
907.02	10799.5
907.257	10823.5
907.494	10850.5
907.731	10840.5
907.968	10743.5
908.205	10594.5
908.442	10506.5
908.679	10470.5
908.915	10384.5
909.152	10350.5
909.389	10128.5
909.626	10197.5
909.862	10104.5
910.099	10037.5
910.335	10074.5
910.572	9930.5
910.808	9972.5
911.045	9885.5
911.281	9831.5
911.518	9868.5
911.754	9766.5
911.99	9679.5
912.226	9660.5
912.463	9557.5
912.699	9466.5
912.935	9427.5
913.171	9403.5
913.407	9223.5
913.643	9166.5
913.879	9110.5
914.114	9097.5
914.35	8998.5
914.586	8939.5
914.822	8830.5
915.057	8823.5
915.293	8640.5
915.529	8705.5
915.764	8656.5
916	8672.5
916.235	8610.5
916.471	8665.5
916.706	8517.5
916.941	8622.5
917.177	8552.5
917.412	8537.5
917.647	8574.5
917.882	8482.5
918.117	8534.5
918.352	8505.5
918.588	8540.5
918.823	8367.5
919.057	8291.5
919.292	8186.5
919.527	8211.5
919.762	8033.5
919.997	8102.5
920.232	7903.5
920.466	7893.5
920.701	7726.5
920.935	7788.5
921.17	7691.5
921.405	7586.5
921.639	7638.5
921.873	7648.5
922.108	7589.5
922.342	7536.5
922.576	7508.5
922.811	7521.5
923.045	7495.5
923.279	7516.5
923.513	7350.5
923.747	7438.5
923.981	7339.5
924.215	7289.5
924.449	7236.5
924.683	7203.5
924.917	7126.5
925.151	7176.5
925.385	7195.5
925.618	7108.5
925.852	7054.5
926.086	7000.5
926.319	7068.5
926.553	7037.5
926.786	7086.5
927.02	6997.5
927.253	7081.5
927.486	7021.5
927.72	7005.5
927.953	7008.5
928.186	6954.5
928.42	6986.5
928.653	6829.5
928.886	6825.5
929.119	6831.5
929.352	6817.5
929.585	6789.5
929.818	6744.5
930.051	6710.5
930.284	6720.5
930.516	6547.5
930.749	6486.5
930.982	6535.5
931.215	6483.5
931.447	6442.5
931.68	6418.5
931.912	6399.5
932.145	6426.5
932.377	6402.5
932.61	6527.5
932.842	6311.5
933.074	6413.5
933.307	6308.5
933.539	6350.5
933.771	6346.5
934.003	6364.5
934.236	6411.5
934.468	6432.5
934.7	6312.5
934.932	6360.5
935.164	6330.5
935.395	6235.5
935.627	6295.5
935.859	6338.5
936.091	6146.5
936.323	6277.5
936.554	6239.5
936.786	6161.5
937.017	6112.5
937.249	6087.5
937.481	6057.5
937.712	6143.5
937.943	6056.5
938.175	6110.5
938.406	6064.5
938.637	6135.5
938.869	5975.5
939.1	6063.5
939.331	6023.5
939.562	6033.5
939.793	5957.5
940.024	5975.5
940.255	5991.5
940.486	5924.5
940.717	5880.5
940.948	5868.5
941.179	5781.5
941.409	5817.5
941.64	5751.5
941.871	5788.5
942.102	5779.5
942.332	5784.5
942.563	5811.5
942.793	5775.5
943.024	5699.5
943.254	5725.5
943.484	5802.5
943.715	5769.5
943.945	5738.5
944.175	5660.5
944.405	5671.5
944.636	5697.5
944.866	5727.5
945.096	5699.5
945.326	5633.5
945.556	5697.5
945.786	5696.5
946.016	5571.5
946.245	5548.5
946.475	5496.5
946.705	5409.5
946.935	5429.5
947.164	5472.5
947.394	5362.5
947.624	5328.5
947.853	5430.5
948.083	5319.5
948.312	5285.5
948.542	5231.5
948.771	5162.5
949	5203.5
949.23	5204.5
949.459	5174.5
949.688	5216.5
949.917	5223.5
950.146	5158.5
950.375	5248.5
950.604	5124.5
950.833	5189.5
951.062	5196.5
951.291	5151.5
951.52	5070.5
951.749	5147.5
951.978	5042.5
952.206	5041.5
952.435	5047.5
952.664	5091.5
952.892	4977.5
953.121	4996.5
953.349	5066.5
953.578	5013.5
953.806	4923.5
954.035	4883.5
954.263	4917.5
954.491	4826.5
954.719	4862.5
954.948	4848.5
955.176	4769.5
955.404	4713.5
955.632	4788.5
955.86	4754.5
956.088	4699.5
956.316	4742.5
956.544	4729.5
956.772	4603.5
956.999	4558.5
957.227	4663.5
957.455	4511.5
957.683	4572.5
957.91	4488.5
958.138	4466.5
958.365	4472.5
958.593	4465.5
958.82	4421.5
959.048	4454.5
959.275	4438.5
959.502	4378.5
959.73	4329.5
959.957	4387.5
960.184	4386.5
960.411	4357.5
960.638	4405.5
960.865	4334.5
961.092	4356.5
961.319	4276.5
961.546	4346.5
961.773	4293.5
962	4297.5
962.227	4374.5
962.454	4273.5
962.68	4256.5
962.907	4264.5
963.134	4207.5
963.36	4176.5
963.587	4165.5
963.813	4185.5
964.04	4134.5
964.266	4050.5
964.493	4138.5
964.719	4098.5
964.945	4139.5
965.171	3943.5
965.398	4022.5
965.624	4016.5
965.85	3909.5
966.076	3923.5
966.302	3968.5
966.528	3865.5
966.754	3908.5
966.98	3915.5
967.206	3924.5
967.431	3796.5
967.657	3876.5
967.883	3811.5
968.109	3841.5
968.334	3791.5
968.56	3785.5
968.785	3778.5
969.011	3756.5
969.236	3768.5
969.462	3747.5
969.687	3709.5
969.912	3756.5
970.138	3761.5
970.363	3705.5
970.588	3686.5
970.813	3693.5
971.038	3601.5
971.263	3672.5
971.488	3636.5
971.713	3664.5
971.938	3648.5
972.163	3522.5
972.388	3545.5
972.613	3517.5
972.838	3486.5
973.062	3539.5
973.287	3476.5
973.512	3441.5
973.736	3460.5
973.961	3446.5
974.185	3447.5
974.41	3440.5
974.634	3338.5
974.858	3328.5
975.083	3362.5
975.307	3378.5
975.531	3296.5
975.755	3257.5
975.98	3280.5
976.204	3177.5
976.428	3201.5
976.652	3210.5
976.876	3149.5
977.1	3174.5
977.324	3099.5
977.547	3208.5
977.771	3163.5
977.995	3137.5
978.219	3082.5
978.442	3208.5
978.666	3125.5
978.89	3085.5
979.113	3115.5
979.337	3096.5
979.56	3051.5
979.783	3117.5
980.007	3035.5
980.23	3077.5
980.453	3031.5
980.677	3065.5
980.9	3057.5
981.123	2940.5
981.346	3008.5
981.569	2964.5
981.792	3004.5
982.015	2934.5
982.238	2916.5
982.461	2888.5
982.684	2902.5
982.907	2851.5
983.129	2843.5
983.352	2876.5
983.575	2854.5
983.797	2845.5
984.02	2778.5
984.242	2740.5
984.465	2789.5
984.687	2813.5
984.91	2819.5
985.132	2744.5
985.354	2797.5
985.577	2721.5
985.799	2738.5
986.021	2686.5
986.243	2653.5
986.465	2697.5
986.687	2738.5
986.909	2854.5
987.131	2927.5
987.353	2627.5
987.575	2672.5
987.797	2643.5
988.019	2551.5
988.241	2603.5
988.462	2564.5
988.684	2629.5
988.906	2649.5
989.127	2659.5
989.349	2555.5
989.57	2571.5
989.792	2618.5
990.013	2615.5
990.234	2618.5
990.456	2598.5
990.677	2609.5
990.898	2506.5
991.119	2525.5
991.341	2546.5
991.562	2451.5
991.783	2542.5
992.004	2450.5
992.225	2410.5
992.446	2479.5
992.667	2388.5
992.887	2478.5
993.108	2343.5
993.329	2459.5
993.55	2401.5
993.77	2333.5
993.991	2335.5
994.212	2392.5
994.432	2326.5
994.653	2333.5
994.873	2317.5
995.093	2210.5
995.314	2291.5
995.534	2324.5
995.754	2342.5
995.975	2320.5
996.195	2252.5
996.415	2305.5
996.635	2254.5
996.855	2313.5
997.075	2258.5
997.295	2268.5
997.515	2254.5
997.735	2313.5
997.955	2244.5
998.174	2252.5
998.394	2216.5
998.614	2231.5
998.834	2198.5
999.053	2275.5
999.273	2197.5
999.492	2297.5
999.712	2195.5
999.931	2189.5
1000.151	2217.5
1000.37	2163.5
1000.589	2242.5
1000.809	2134.5
1001.028	2239.5
1001.247	2177.5
1001.466	2075.5
1001.685	2201.5
1001.904	2154.5
1002.123	2082.5
1002.342	2092.5
1002.561	2059.5
1002.78	2075.5
1002.999	2124.5
1003.218	2068.5
1003.436	2040.5
1003.655	2076.5
1003.874	2019.5
1004.092	2016.5
1004.311	2101.5
1004.53	2025.5
1004.748	2109.5
1004.966	2026.5
1005.185	2065.5
1005.403	2064.5
1005.622	2042.5
1005.84	2105.5
1006.058	2004.5
1006.276	2035.5
1006.494	2554.5
1006.712	2037.5
1006.931	2080.5
1007.149	1999.5
1007.367	2029.5
1007.584	2066.5
1007.802	2095.5
1008.02	2034.5
1008.238	2163.5
1008.456	2152.5
1008.673	2073.5
1008.891	2146.5
1009.109	2140.5
1009.326	2181.5
1009.544	2308.5
1009.761	2239.5
1009.979	2355.5
1010.196	2429.5
1010.413	2534.5
1010.631	2665.5
1010.848	2703.5
1011.065	2770.5
1011.282	2707.5
1011.5	2649.5
1011.717	2750.5
1011.934	2659.5
1012.151	2691.5
1012.368	2684.5
1012.585	2648.5
1012.801	2684.5
1013.018	2675.5
1013.235	2649.5
1013.452	2666.5
1013.669	2684.5
1013.885	2673.5
1014.102	2708.5
1014.318	2694.5
1014.535	2635.5
1014.751	2646.5
1014.968	2660.5
1015.184	2638.5
1015.401	2571.5
1015.617	2632.5
1015.833	2551.5
1016.049	2549.5
1016.266	2508.5
1016.482	2484.5
1016.698	2449.5
1016.914	2444.5
1017.13	2395.5
1017.346	2398.5
1017.562	2457.5
1017.778	2359.5
1017.993	2352.5
1018.209	2413.5
1018.425	2415.5
1018.641	2352.5
1018.856	2346.5
1019.072	2367.5
1019.288	2427.5
1019.503	2352.5
1019.719	2289.5
1019.934	2302.5
1020.149	2363.5
1020.365	2256.5
1020.58	2237.5
1020.795	2261.5
1021.011	2135.5
1021.226	2129.5
1021.441	2102.5
1021.656	1964.5
1021.871	1944.5
1022.086	1933.5
1022.301	1893.5
1022.516	1854.5
1022.731	1901.5
1022.946	1804.5
1023.16	1806.5
1023.375	1737.5
1023.59	1698.5
1023.804	1652.5
1024.019	1744.5
1024.234	1586.5
1024.448	1598.5
1024.663	1546.5
1024.877	1536.5
1025.092	1559.5
1025.306	1503.5
1025.52	1397.5
1025.734	1473.5
1025.949	1391.5
1026.163	1368.5
1026.377	1293.5
1026.591	1325.5
1026.805	1247.5
1027.019	1218.5
1027.233	1200.5
1027.447	1151.5
1027.661	1228.5
1027.875	1137.5
1028.088	1158.5
1028.302	1082.5
1028.516	1040.5
1028.73	1057.5
1028.943	1007.5
1029.157	951.5
1029.37	888.5
1029.584	-0.5
1029.797	-0.5
1030.011	0.5
1030.224	-2.5
