Data from QEP037381__27__15-13-45-855.txt Node

Date: Fri Dec 16 15:13:45 EST 2022
User: dcclab
Spectrometer: QEP03738
Trigger mode: 4
Integration Time (sec): 1.000000E1
Scans to average: 1
Electric dark correction enabled: true
Nonlinearity correction enabled: false
Boxcar width: 0
XAxis mode: Wavelengths
Number of Pixels in Spectrum: 1044
>>>>>Begin Spectral Data<<<<<
784.041	9.5
784.3	0.5
784.558	-2.5
784.817	-4.5
785.075	88957.5
785.334	15364.5
785.592	7207.5
785.851	4981.5
786.109	3755.5
786.368	2952.5
786.626	2377.5
786.884	2014.5
787.143	1709.5
787.401	1398.5
787.659	1275.5
787.917	1074.5
788.175	1018.5
788.433	891.5
788.691	800.5
788.949	759.5
789.207	731.5
789.465	624.5
789.723	625.5
789.98	567.5
790.238	600.5
790.496	594.5
790.753	547.5
791.011	577.5
791.268	551.5
791.526	514.5
791.783	521.5
792.041	524.5
792.298	443.5
792.556	510.5
792.813	487.5
793.07	450.5
793.327	453.5
793.584	533.5
793.841	448.5
794.099	481.5
794.356	521.5
794.613	446.5
794.869	483.5
795.126	436.5
795.383	435.5
795.64	435.5
795.897	392.5
796.153	474.5
796.41	453.5
796.667	420.5
796.923	437.5
797.18	452.5
797.436	491.5
797.693	423.5
797.949	472.5
798.206	520.5
798.462	426.5
798.718	496.5
798.974	463.5
799.231	520.5
799.487	513.5
799.743	520.5
799.999	545.5
800.255	536.5
800.511	527.5
800.767	574.5
801.023	576.5
801.279	615.5
801.534	667.5
801.79	706.5
802.046	762.5
802.302	948.5
802.557	1071.5
802.813	1333.5
803.068	1710.5
803.324	2363.5
803.579	3230.5
803.835	4528.5
804.09	6255.5
804.345	8114.5
804.601	10394.5
804.856	12514.5
805.111	14550.5
805.366	16065.5
805.621	17269.5
805.876	17998.5
806.131	18605.5
806.386	18930.5
806.641	19301.5
806.896	19613.5
807.151	20005.5
807.406	20322.5
807.661	20688.5
807.915	21106.5
808.17	21495.5
808.425	21699.5
808.679	21933.5
808.934	22150.5
809.188	22339.5
809.443	22659.5
809.697	22936.5
809.951	23013.5
810.206	23357.5
810.46	23650.5
810.714	23852.5
810.968	24111.5
811.223	24279.5
811.477	24493.5
811.731	24736.5
811.985	24724.5
812.239	25061.5
812.493	25126.5
812.747	25213.5
813	25221.5
813.254	25513.5
813.508	25618.5
813.762	25664.5
814.015	25834.5
814.269	26021.5
814.522	26213.5
814.776	26399.5
815.03	26888.5
815.283	27246.5
815.536	27735.5
815.79	28122.5
816.043	28572.5
816.296	28923.5
816.55	29499.5
816.803	29712.5
817.056	30196.5
817.309	30331.5
817.562	30798.5
817.815	30996.5
818.068	31328.5
818.321	31624.5
818.574	32063.5
818.827	32426.5
819.079	32762.5
819.332	33347.5
819.585	33765.5
819.838	34265.5
820.09	34378.5
820.343	34523.5
820.595	34896.5
820.848	35270.5
821.1	35276.5
821.353	35455.5
821.605	35408.5
821.857	35305.5
822.11	35160.5
822.362	35364.5
822.614	35187.5
822.866	35133.5
823.118	35040.5
823.37	35308.5
823.622	35318.5
823.874	35400.5
824.126	35589.5
824.378	35458.5
824.63	35684.5
824.882	35778.5
825.134	35853.5
825.385	35626.5
825.637	35658.5
825.888	35631.5
826.14	35476.5
826.392	35326.5
826.643	35180.5
826.895	35184.5
827.146	35066.5
827.397	34916.5
827.649	35207.5
827.9	35051.5
828.151	34962.5
828.402	35195.5
828.653	35347.5
828.905	35444.5
829.156	35509.5
829.407	35474.5
829.658	35509.5
829.909	35456.5
830.159	35505.5
830.41	35335.5
830.661	35061.5
830.912	34970.5
831.162	34861.5
831.413	34773.5
831.664	34804.5
831.914	34665.5
832.165	34722.5
832.415	34664.5
832.666	34615.5
832.916	34821.5
833.167	34791.5
833.417	34747.5
833.667	34564.5
833.917	34518.5
834.168	34534.5
834.418	34299.5
834.668	34280.5
834.918	34060.5
835.168	33942.5
835.418	33874.5
835.668	33820.5
835.918	33802.5
836.167	33855.5
836.417	33691.5
836.667	33618.5
836.917	33469.5
837.166	33475.5
837.416	33583.5
837.666	33528.5
837.915	33418.5
838.165	33539.5
838.414	33272.5
838.663	33165.5
838.913	33221.5
839.162	33130.5
839.411	33145.5
839.661	33097.5
839.91	33097.5
840.159	32809.5
840.408	33003.5
840.657	32972.5
840.906	33018.5
841.155	32959.5
841.404	33010.5
841.653	33035.5
841.902	33079.5
842.15	32984.5
842.399	33135.5
842.648	32902.5
842.897	32879.5
843.145	32601.5
843.394	32371.5
843.642	32246.5
843.891	32157.5
844.139	32011.5
844.388	31787.5
844.636	31723.5
844.884	31670.5
845.133	31767.5
845.381	31616.5
845.629	31643.5
845.877	31759.5
846.125	31757.5
846.373	31606.5
846.621	31544.5
846.869	31471.5
847.117	31160.5
847.365	31042.5
847.613	30836.5
847.861	30881.5
848.108	30926.5
848.356	30859.5
848.604	30808.5
848.851	30913.5
849.099	30899.5
849.346	30921.5
849.594	31107.5
849.841	31217.5
850.089	31206.5
850.336	31226.5
850.583	31173.5
850.831	30983.5
851.078	30913.5
851.325	30918.5
851.572	30998.5
851.819	30719.5
852.066	30180.5
852.313	29885.5
852.56	29639.5
852.807	29411.5
853.054	29461.5
853.301	29345.5
853.548	29293.5
853.794	29502.5
854.041	29552.5
854.288	29599.5
854.534	29974.5
854.781	29891.5
855.028	29759.5
855.274	29876.5
855.52	29660.5
855.767	29462.5
856.013	29461.5
856.26	29808.5
856.506	29308.5
856.752	29265.5
856.998	29304.5
857.244	29265.5
857.49	29462.5
857.736	29626.5
857.982	29580.5
858.228	29545.5
858.474	29217.5
858.72	29202.5
858.966	28940.5
859.212	28605.5
859.458	28384.5
859.703	28070.5
859.949	27821.5
860.195	27675.5
860.44	27423.5
860.686	27396.5
860.931	27447.5
861.177	27238.5
861.422	27245.5
861.667	27144.5
861.913	27190.5
862.158	27201.5
862.403	27241.5
862.648	27460.5
862.893	27412.5
863.138	27356.5
863.384	27419.5
863.629	27265.5
863.873	27204.5
864.118	27180.5
864.363	27099.5
864.608	27057.5
864.853	26914.5
865.098	26768.5
865.342	26729.5
865.587	26727.5
865.832	26750.5
866.076	26655.5
866.321	26494.5
866.565	26417.5
866.81	26384.5
867.054	26289.5
867.298	26138.5
867.543	25992.5
867.787	26097.5
868.031	25994.5
868.275	26009.5
868.519	26049.5
868.764	25919.5
869.008	25907.5
869.252	25874.5
869.496	25827.5
869.739	25776.5
869.983	25818.5
870.227	25770.5
870.471	25708.5
870.715	25883.5
870.958	25959.5
871.202	26018.5
871.446	26027.5
871.689	25961.5
871.933	25981.5
872.176	26002.5
872.42	25886.5
872.663	25884.5
872.906	25754.5
873.15	25736.5
873.393	25454.5
873.636	25501.5
873.879	25212.5
874.122	24974.5
874.366	24796.5
874.609	24702.5
874.852	24431.5
875.095	24408.5
875.337	24263.5
875.58	24059.5
875.823	24127.5
876.066	24115.5
876.309	24012.5
876.551	23742.5
876.794	23687.5
877.037	23642.5
877.279	23568.5
877.522	23672.5
877.764	23565.5
878.007	23536.5
878.249	23610.5
878.491	23473.5
878.734	23609.5
878.976	23443.5
879.218	23248.5
879.46	23163.5
879.702	23116.5
879.945	22948.5
880.187	22718.5
880.429	22630.5
880.671	22533.5
880.912	22337.5
881.154	22338.5
881.396	22226.5
881.638	22287.5
881.88	22339.5
882.121	22272.5
882.363	22242.5
882.605	22286.5
882.846	22123.5
883.088	21970.5
883.329	21950.5
883.571	22069.5
883.812	22160.5
884.053	22329.5
884.295	22666.5
884.536	22917.5
884.777	22772.5
885.018	22764.5
885.259	22691.5
885.5	22578.5
885.742	22897.5
885.982	22464.5
886.223	22368.5
886.464	22307.5
886.705	22059.5
886.946	21903.5
887.187	21533.5
887.428	21315.5
887.668	21114.5
887.909	20880.5
888.15	20551.5
888.39	20586.5
888.631	20490.5
888.871	20308.5
889.111	20207.5
889.352	19962.5
889.592	19876.5
889.833	19748.5
890.073	19608.5
890.313	19576.5
890.553	19471.5
890.793	19352.5
891.033	19360.5
891.273	19253.5
891.513	19233.5
891.753	19214.5
891.993	19166.5
892.233	19150.5
892.473	19258.5
892.713	19279.5
892.952	19220.5
893.192	19196.5
893.432	19032.5
893.671	19234.5
893.911	19097.5
894.15	18997.5
894.39	18863.5
894.629	18744.5
894.869	18648.5
895.108	18470.5
895.347	18520.5
895.587	18466.5
895.826	18453.5
896.065	18414.5
896.304	18423.5
896.543	18486.5
896.782	18310.5
897.021	18352.5
897.26	18280.5
897.499	18372.5
897.738	18334.5
897.977	18225.5
898.216	17992.5
898.454	17923.5
898.693	17825.5
898.932	17744.5
899.17	17731.5
899.409	17665.5
899.647	17641.5
899.886	17664.5
900.124	17762.5
900.363	17659.5
900.601	17737.5
900.839	17738.5
901.078	17792.5
901.316	17836.5
901.554	17983.5
901.792	18003.5
902.03	17963.5
902.268	18128.5
902.506	17922.5
902.744	17795.5
902.982	17655.5
903.22	17411.5
903.458	17274.5
903.695	16958.5
903.933	16691.5
904.171	16397.5
904.409	16183.5
904.646	16015.5
904.884	15777.5
905.121	15669.5
905.359	15448.5
905.596	15395.5
905.833	15230.5
906.071	15120.5
906.308	15047.5
906.545	15052.5
906.783	14978.5
907.02	14953.5
907.257	14816.5
907.494	14789.5
907.731	14687.5
907.968	14754.5
908.205	14669.5
908.442	14467.5
908.679	14370.5
908.915	14251.5
909.152	14098.5
909.389	13949.5
909.626	13946.5
909.862	13923.5
910.099	13837.5
910.335	13892.5
910.572	13745.5
910.808	13685.5
911.045	13672.5
911.281	13583.5
911.518	13577.5
911.754	13492.5
911.99	13372.5
912.226	13356.5
912.463	13252.5
912.699	13029.5
912.935	12932.5
913.171	12884.5
913.407	12780.5
913.643	12774.5
913.879	12662.5
914.114	12478.5
914.35	12406.5
914.586	12352.5
914.822	12174.5
915.057	12172.5
915.293	12016.5
915.529	11956.5
915.764	12046.5
916	12014.5
916.235	11986.5
916.471	11864.5
916.706	11802.5
916.941	11873.5
917.177	11785.5
917.412	11793.5
917.647	11791.5
917.882	11771.5
918.117	11794.5
918.352	11771.5
918.588	11687.5
918.823	11517.5
919.057	11415.5
919.292	11281.5
919.527	11349.5
919.762	11175.5
919.997	11112.5
920.232	10957.5
920.466	10916.5
920.701	10736.5
920.935	10815.5
921.17	10684.5
921.405	10597.5
921.639	10645.5
921.873	10495.5
922.108	10495.5
922.342	10479.5
922.576	10406.5
922.811	10414.5
923.045	10368.5
923.279	10415.5
923.513	10238.5
923.747	10252.5
923.981	10166.5
924.215	10097.5
924.449	9943.5
924.683	9844.5
924.917	9896.5
925.151	9761.5
925.385	9906.5
925.618	9777.5
925.852	9741.5
926.086	9652.5
926.319	9730.5
926.553	9701.5
926.786	9778.5
927.02	9867.5
927.253	9774.5
927.486	9714.5
927.72	9621.5
927.953	9701.5
928.186	9589.5
928.42	9602.5
928.653	9473.5
928.886	9466.5
929.119	9441.5
929.352	9391.5
929.585	9405.5
929.818	9236.5
930.051	9230.5
930.284	9158.5
930.516	9058.5
930.749	9037.5
930.982	8996.5
931.215	8951.5
931.447	8831.5
931.68	8803.5
931.912	8873.5
932.145	8806.5
932.377	8897.5
932.61	8886.5
932.842	8795.5
933.074	8785.5
933.307	8728.5
933.539	8831.5
933.771	8793.5
934.003	8752.5
934.236	8816.5
934.468	8768.5
934.7	8755.5
934.932	8689.5
935.164	8698.5
935.395	8596.5
935.627	8633.5
935.859	8670.5
936.091	8547.5
936.323	8557.5
936.554	8619.5
936.786	8479.5
937.017	8413.5
937.249	8496.5
937.481	8393.5
937.712	8395.5
937.943	8316.5
938.175	8297.5
938.406	8256.5
938.637	8333.5
938.869	8232.5
939.1	8288.5
939.331	8208.5
939.562	8281.5
939.793	8179.5
940.024	8199.5
940.255	8130.5
940.486	8047.5
940.717	8032.5
940.948	8005.5
941.179	7922.5
941.409	7937.5
941.64	7914.5
941.871	7959.5
942.102	7932.5
942.332	7919.5
942.563	7901.5
942.793	7922.5
943.024	7818.5
943.254	7918.5
943.484	7934.5
943.715	7938.5
943.945	7880.5
944.175	7805.5
944.405	7800.5
944.636	7760.5
944.866	7845.5
945.096	7741.5
945.326	7687.5
945.556	7794.5
945.786	7725.5
946.016	7619.5
946.245	7537.5
946.475	7558.5
946.705	7547.5
946.935	7487.5
947.164	7425.5
947.394	7347.5
947.624	7340.5
947.853	7356.5
948.083	7293.5
948.312	7244.5
948.542	7187.5
948.771	7141.5
949	7128.5
949.23	7123.5
949.459	7129.5
949.688	7211.5
949.917	7144.5
950.146	7086.5
950.375	7125.5
950.604	7077.5
950.833	7072.5
951.062	7141.5
951.291	7042.5
951.52	6984.5
951.749	6993.5
951.978	6925.5
952.206	6904.5
952.435	6897.5
952.664	6912.5
952.892	6969.5
953.121	6857.5
953.349	6886.5
953.578	6842.5
953.806	6742.5
954.035	6695.5
954.263	6682.5
954.491	6635.5
954.719	6650.5
954.948	6640.5
955.176	6541.5
955.404	6489.5
955.632	6462.5
955.86	6516.5
956.088	6444.5
956.316	6444.5
956.544	6431.5
956.772	6315.5
956.999	6261.5
957.227	6307.5
957.455	6245.5
957.683	6119.5
957.91	6144.5
958.138	6106.5
958.365	6131.5
958.593	6076.5
958.82	6045.5
959.048	6106.5
959.275	5974.5
959.502	5928.5
959.73	5991.5
959.957	5931.5
960.184	5964.5
960.411	5900.5
960.638	5918.5
960.865	5880.5
961.092	5881.5
961.319	5786.5
961.546	5899.5
961.773	5876.5
962	5891.5
962.227	5896.5
962.454	5831.5
962.68	5833.5
962.907	5841.5
963.134	5690.5
963.36	5669.5
963.587	5713.5
963.813	5584.5
964.04	5629.5
964.266	5540.5
964.493	5594.5
964.719	5569.5
964.945	5516.5
965.171	5361.5
965.398	5423.5
965.624	5391.5
965.85	5342.5
966.076	5321.5
966.302	5359.5
966.528	5257.5
966.754	5272.5
966.98	5313.5
967.206	5238.5
967.431	5131.5
967.657	5251.5
967.883	5225.5
968.109	5242.5
968.334	5130.5
968.56	5115.5
968.785	5089.5
969.011	5093.5
969.236	5101.5
969.462	5008.5
969.687	5038.5
969.912	5036.5
970.138	5046.5
970.363	4960.5
970.588	4962.5
970.813	4933.5
971.038	4865.5
971.263	4904.5
971.488	4871.5
971.713	4909.5
971.938	4854.5
972.163	4806.5
972.388	4810.5
972.613	4733.5
972.838	4757.5
973.062	4703.5
973.287	4689.5
973.512	4629.5
973.736	4658.5
973.961	4626.5
974.185	4601.5
974.41	4579.5
974.634	4480.5
974.858	4442.5
975.083	4490.5
975.307	4505.5
975.531	4421.5
975.755	4361.5
975.98	4366.5
976.204	4265.5
976.428	4282.5
976.652	4284.5
976.876	4214.5
977.1	4302.5
977.324	4262.5
977.547	4270.5
977.771	4262.5
977.995	4171.5
978.219	4170.5
978.442	4248.5
978.666	4151.5
978.89	4165.5
979.113	4113.5
979.337	4175.5
979.56	4081.5
979.783	4129.5
980.007	4038.5
980.23	4060.5
980.453	4030.5
980.677	4051.5
980.9	4031.5
981.123	3924.5
981.346	3975.5
981.569	3945.5
981.792	3932.5
982.015	3863.5
982.238	3811.5
982.461	3818.5
982.684	3803.5
982.907	3775.5
983.129	3752.5
983.352	3821.5
983.575	3719.5
983.797	3739.5
984.02	3662.5
984.242	3682.5
984.465	3688.5
984.687	3722.5
984.91	3665.5
985.132	3640.5
985.354	3608.5
985.577	3570.5
985.799	3530.5
986.021	3480.5
986.243	3505.5
986.465	3510.5
986.687	3550.5
986.909	3523.5
987.131	3493.5
987.353	3453.5
987.575	3398.5
987.797	3447.5
988.019	3339.5
988.241	3396.5
988.462	3343.5
988.684	3423.5
988.906	3450.5
989.127	3426.5
989.349	3300.5
989.57	3345.5
989.792	3416.5
990.013	3345.5
990.234	3353.5
990.456	3370.5
990.677	3332.5
990.898	3245.5
991.119	3282.5
991.341	3283.5
991.562	3225.5
991.783	3245.5
992.004	3179.5
992.225	3105.5
992.446	3177.5
992.667	3054.5
992.887	3140.5
993.108	3036.5
993.329	3172.5
993.55	3083.5
993.77	3025.5
993.991	3012.5
994.212	3036.5
994.432	2968.5
994.653	3012.5
994.873	2974.5
995.093	2866.5
995.314	2917.5
995.534	2968.5
995.754	2937.5
995.975	2956.5
996.195	2851.5
996.415	2897.5
996.635	2888.5
996.855	2877.5
997.075	2853.5
997.295	2813.5
997.515	2815.5
997.735	2855.5
997.955	2837.5
998.174	2815.5
998.394	2828.5
998.614	2860.5
998.834	2770.5
999.053	2836.5
999.273	2796.5
999.492	2838.5
999.712	2776.5
999.931	2702.5
1000.151	2731.5
1000.37	2725.5
1000.589	2755.5
1000.809	2702.5
1001.028	2784.5
1001.247	2684.5
1001.466	2576.5
1001.685	2742.5
1001.904	2670.5
1002.123	2629.5
1002.342	2607.5
1002.561	2548.5
1002.78	2587.5
1002.999	2625.5
1003.218	2548.5
1003.436	2523.5
1003.655	2595.5
1003.874	2496.5
1004.092	2510.5
1004.311	2553.5
1004.53	2526.5
1004.748	2567.5
1004.966	2488.5
1005.185	2552.5
1005.403	2533.5
1005.622	2458.5
1005.84	2569.5
1006.058	2441.5
1006.276	2430.5
1006.494	2953.5
1006.712	2447.5
1006.931	2508.5
1007.149	2425.5
1007.367	2465.5
1007.584	2478.5
1007.802	2505.5
1008.02	2456.5
1008.238	2573.5
1008.456	2561.5
1008.673	2425.5
1008.891	2526.5
1009.109	2502.5
1009.326	2565.5
1009.544	2676.5
1009.761	2606.5
1009.979	2676.5
1010.196	2757.5
1010.413	2884.5
1010.631	2985.5
1010.848	3021.5
1011.065	3068.5
1011.282	3026.5
1011.5	2935.5
1011.717	3014.5
1011.934	2995.5
1012.151	3031.5
1012.368	2979.5
1012.585	2940.5
1012.801	3017.5
1013.018	2957.5
1013.235	2934.5
1013.452	2942.5
1013.669	2957.5
1013.885	2964.5
1014.102	3022.5
1014.318	2949.5
1014.535	2931.5
1014.751	2951.5
1014.968	2899.5
1015.184	2892.5
1015.401	2814.5
1015.617	2886.5
1015.833	2823.5
1016.049	2816.5
1016.266	2778.5
1016.482	2751.5
1016.698	2694.5
1016.914	2699.5
1017.13	2685.5
1017.346	2665.5
1017.562	2718.5
1017.778	2659.5
1017.993	2595.5
1018.209	2654.5
1018.425	2657.5
1018.641	2615.5
1018.856	2587.5
1019.072	2625.5
1019.288	2658.5
1019.503	2615.5
1019.719	2539.5
1019.934	2524.5
1020.149	2605.5
1020.365	2525.5
1020.58	2491.5
1020.795	2507.5
1021.011	2397.5
1021.226	2360.5
1021.441	2339.5
1021.656	2239.5
1021.871	2185.5
1022.086	2119.5
1022.301	2134.5
1022.516	2096.5
1022.731	2115.5
1022.946	2027.5
1023.16	2025.5
1023.375	1965.5
1023.59	1912.5
1023.804	1925.5
1024.019	1974.5
1024.234	1791.5
1024.448	1824.5
1024.663	1741.5
1024.877	1728.5
1025.092	1713.5
1025.306	1729.5
1025.52	1617.5
1025.734	1678.5
1025.949	1567.5
1026.163	1509.5
1026.377	1467.5
1026.591	1494.5
1026.805	1418.5
1027.019	1386.5
1027.233	1342.5
1027.447	1278.5
1027.661	1380.5
1027.875	1312.5
1028.088	1294.5
1028.302	1211.5
1028.516	1180.5
1028.73	1182.5
1028.943	1133.5
1029.157	1074.5
1029.37	1017.5
1029.584	-2.5
1029.797	3.5
1030.011	-2.5
1030.224	-1.5
