Data from QEP037381__71__15-21-05-862.txt Node

Date: Fri Dec 16 15:21:05 EST 2022
User: dcclab
Spectrometer: QEP03738
Trigger mode: 4
Integration Time (sec): 1.000000E1
Scans to average: 1
Electric dark correction enabled: true
Nonlinearity correction enabled: false
Boxcar width: 0
XAxis mode: Wavelengths
Number of Pixels in Spectrum: 1044
>>>>>Begin Spectral Data<<<<<
784.041	10.5
784.3	-0.5
784.558	-4.5
784.817	-4.5
785.075	90538.5
785.334	15624.5
785.592	7271.5
785.851	5032.5
786.109	3797.5
786.368	2962.5
786.626	2437.5
786.884	2004.5
787.143	1675.5
787.401	1403.5
787.659	1290.5
787.917	1102.5
788.175	994.5
788.433	887.5
788.691	807.5
788.949	740.5
789.207	719.5
789.465	641.5
789.723	616.5
789.98	557.5
790.238	612.5
790.496	561.5
790.753	545.5
791.011	595.5
791.268	522.5
791.526	513.5
791.783	518.5
792.041	520.5
792.298	443.5
792.556	507.5
792.813	491.5
793.07	453.5
793.327	450.5
793.584	515.5
793.841	437.5
794.099	473.5
794.356	516.5
794.613	441.5
794.869	464.5
795.126	432.5
795.383	422.5
795.64	438.5
795.897	386.5
796.153	462.5
796.41	442.5
796.667	405.5
796.923	439.5
797.18	431.5
797.436	464.5
797.693	430.5
797.949	474.5
798.206	494.5
798.462	406.5
798.718	488.5
798.974	459.5
799.231	510.5
799.487	481.5
799.743	494.5
799.999	527.5
800.255	524.5
800.511	524.5
800.767	551.5
801.023	550.5
801.279	608.5
801.534	623.5
801.79	688.5
802.046	719.5
802.302	853.5
802.557	1008.5
802.813	1233.5
803.068	1534.5
803.324	2143.5
803.579	2924.5
803.835	4023.5
804.09	5608.5
804.345	7358.5
804.601	9338.5
804.856	11418.5
805.111	13075.5
805.366	14442.5
805.621	15497.5
805.876	16149.5
806.131	16561.5
806.386	16875.5
806.641	17241.5
806.896	17472.5
807.151	17926.5
807.406	18125.5
807.661	18546.5
807.915	18830.5
808.17	19219.5
808.425	19428.5
808.679	19533.5
808.934	19887.5
809.188	20026.5
809.443	20279.5
809.697	20564.5
809.951	20694.5
810.206	20977.5
810.46	21186.5
810.714	21320.5
810.968	21506.5
811.223	21738.5
811.477	21973.5
811.731	22081.5
811.985	22193.5
812.239	22385.5
812.493	22685.5
812.747	22752.5
813	22664.5
813.254	22708.5
813.508	22941.5
813.762	23108.5
814.015	23193.5
814.269	23377.5
814.522	23630.5
814.776	23803.5
815.03	24203.5
815.283	24543.5
815.536	24969.5
815.79	25348.5
816.043	25663.5
816.296	26110.5
816.55	26435.5
816.803	26713.5
817.056	27242.5
817.309	27340.5
817.562	27609.5
817.815	28038.5
818.068	28268.5
818.321	28501.5
818.574	28914.5
818.827	29290.5
819.079	29595.5
819.332	30154.5
819.585	30484.5
819.838	30849.5
820.09	31114.5
820.343	31559.5
820.595	31522.5
820.848	31794.5
821.1	31941.5
821.353	32028.5
821.605	31991.5
821.857	31954.5
822.11	31857.5
822.362	31790.5
822.614	31715.5
822.866	31684.5
823.118	31734.5
823.37	31887.5
823.622	32084.5
823.874	32042.5
824.126	32316.5
824.378	32224.5
824.63	32380.5
824.882	32399.5
825.134	32488.5
825.385	32455.5
825.637	32295.5
825.888	32310.5
826.14	32273.5
826.392	32314.5
826.643	31929.5
826.895	32011.5
827.146	31691.5
827.397	31744.5
827.649	31858.5
827.9	31891.5
828.151	31785.5
828.402	31824.5
828.653	31945.5
828.905	32093.5
829.156	32177.5
829.407	32151.5
829.658	32116.5
829.909	32024.5
830.159	32040.5
830.41	32040.5
830.661	31891.5
830.912	31813.5
831.162	31592.5
831.413	31542.5
831.664	31651.5
831.914	31632.5
832.165	31633.5
832.415	31606.5
832.666	31578.5
832.916	31605.5
833.167	31613.5
833.417	31654.5
833.667	31487.5
833.917	31349.5
834.168	31312.5
834.418	31247.5
834.668	31292.5
834.918	31060.5
835.168	30914.5
835.418	30828.5
835.668	30662.5
835.918	30645.5
836.167	30720.5
836.417	30434.5
836.667	30606.5
836.917	30486.5
837.166	30387.5
837.416	30543.5
837.666	30503.5
837.915	30359.5
838.165	30527.5
838.414	30261.5
838.663	30365.5
838.913	30276.5
839.162	30178.5
839.411	30194.5
839.661	30128.5
839.91	30029.5
840.159	29974.5
840.408	29916.5
840.657	30109.5
840.906	30074.5
841.155	30138.5
841.404	30016.5
841.653	30061.5
841.902	30059.5
842.15	30001.5
842.399	30038.5
842.648	29972.5
842.897	29892.5
843.145	29787.5
843.394	29607.5
843.642	29498.5
843.891	29327.5
844.139	29090.5
844.388	29012.5
844.636	28881.5
844.884	29011.5
845.133	28893.5
845.381	28897.5
845.629	28949.5
845.877	28886.5
846.125	28846.5
846.373	28740.5
846.621	28676.5
846.869	28730.5
847.117	28494.5
847.365	28381.5
847.613	28235.5
847.861	28190.5
848.108	28168.5
848.356	28097.5
848.604	28058.5
848.851	28042.5
849.099	27946.5
849.346	28161.5
849.594	28145.5
849.841	28350.5
850.089	28456.5
850.336	28427.5
850.583	28405.5
850.831	28323.5
851.078	28208.5
851.325	28091.5
851.572	28207.5
851.819	28056.5
852.066	27569.5
852.313	27134.5
852.56	27087.5
852.807	26840.5
853.054	26829.5
853.301	26808.5
853.548	26840.5
853.794	26977.5
854.041	27064.5
854.288	27095.5
854.534	27355.5
854.781	27269.5
855.028	27266.5
855.274	27104.5
855.52	27007.5
855.767	26939.5
856.013	27069.5
856.26	27365.5
856.506	26709.5
856.752	26794.5
856.998	26680.5
857.244	26830.5
857.49	27013.5
857.736	27089.5
857.982	26886.5
858.228	26809.5
858.474	26803.5
858.72	26478.5
858.966	26336.5
859.212	26127.5
859.458	25869.5
859.703	25609.5
859.949	25276.5
860.195	25151.5
860.44	25064.5
860.686	25059.5
860.931	25121.5
861.177	24940.5
861.422	24804.5
861.667	24739.5
861.913	24802.5
862.158	24905.5
862.403	24844.5
862.648	24961.5
862.893	25000.5
863.138	24948.5
863.384	24914.5
863.629	24933.5
863.873	24893.5
864.118	24710.5
864.363	24671.5
864.608	24618.5
864.853	24628.5
865.098	24397.5
865.342	24344.5
865.587	24364.5
865.832	24293.5
866.076	24181.5
866.321	24177.5
866.565	24088.5
866.81	23902.5
867.054	23898.5
867.298	23939.5
867.543	23764.5
867.787	23930.5
868.031	23779.5
868.275	23731.5
868.519	23759.5
868.764	23649.5
869.008	23576.5
869.252	23602.5
869.496	23494.5
869.739	23508.5
869.983	23498.5
870.227	23560.5
870.471	23467.5
870.715	23586.5
870.958	23687.5
871.202	23853.5
871.446	23804.5
871.689	23811.5
871.933	23814.5
872.176	23791.5
872.42	23732.5
872.663	23559.5
872.906	23622.5
873.15	23451.5
873.393	23369.5
873.636	23403.5
873.879	23176.5
874.122	22868.5
874.366	22601.5
874.609	22580.5
874.852	22393.5
875.095	22311.5
875.337	22181.5
875.58	22009.5
875.823	22132.5
876.066	22075.5
876.309	21951.5
876.551	21851.5
876.794	21654.5
877.037	21659.5
877.279	21630.5
877.522	21571.5
877.764	21682.5
878.007	21565.5
878.249	21676.5
878.491	21460.5
878.734	21499.5
878.976	21459.5
879.218	21193.5
879.46	21194.5
879.702	21091.5
879.945	20903.5
880.187	20675.5
880.429	20694.5
880.671	20486.5
880.912	20445.5
881.154	20438.5
881.396	20343.5
881.638	20406.5
881.88	20403.5
882.121	20347.5
882.363	20301.5
882.605	20232.5
882.846	20208.5
883.088	20276.5
883.329	20210.5
883.571	20201.5
883.812	20298.5
884.053	20583.5
884.295	20958.5
884.536	21179.5
884.777	21048.5
885.018	20959.5
885.259	20917.5
885.5	20853.5
885.742	21054.5
885.982	20751.5
886.223	20553.5
886.464	20431.5
886.705	20285.5
886.946	20166.5
887.187	19811.5
887.428	19712.5
887.668	19367.5
887.909	19096.5
888.15	18979.5
888.39	18800.5
888.631	18722.5
888.871	18572.5
889.111	18413.5
889.352	18300.5
889.592	18147.5
889.833	18119.5
890.073	18103.5
890.313	18020.5
890.553	17844.5
890.793	17775.5
891.033	17590.5
891.273	17622.5
891.513	17574.5
891.753	17504.5
891.993	17464.5
892.233	17588.5
892.473	17547.5
892.713	17594.5
892.952	17610.5
893.192	17534.5
893.432	17525.5
893.671	17575.5
893.911	17479.5
894.15	17372.5
894.39	17153.5
894.629	17232.5
894.869	17211.5
895.108	17041.5
895.347	17010.5
895.587	16952.5
895.826	16953.5
896.065	16998.5
896.304	16899.5
896.543	16935.5
896.782	16769.5
897.021	16894.5
897.26	16928.5
897.499	16858.5
897.738	16919.5
897.977	16750.5
898.216	16618.5
898.454	16561.5
898.693	16433.5
898.932	16386.5
899.17	16369.5
899.409	16340.5
899.647	16318.5
899.886	16210.5
900.124	16365.5
900.363	16330.5
900.601	16415.5
900.839	16422.5
901.078	16526.5
901.316	16562.5
901.554	16711.5
901.792	16720.5
902.03	16672.5
902.268	16687.5
902.506	16675.5
902.744	16521.5
902.982	16354.5
903.22	16109.5
903.458	15958.5
903.695	15615.5
903.933	15441.5
904.171	15233.5
904.409	14923.5
904.646	14821.5
904.884	14545.5
905.121	14422.5
905.359	14215.5
905.596	14106.5
905.833	14005.5
906.071	13890.5
906.308	13982.5
906.545	13832.5
906.783	13756.5
907.02	13716.5
907.257	13658.5
907.494	13585.5
907.731	13591.5
907.968	13580.5
908.205	13401.5
908.442	13354.5
908.679	13251.5
908.915	13171.5
909.152	13073.5
909.389	12969.5
909.626	12928.5
909.862	12794.5
910.099	12731.5
910.335	12693.5
910.572	12622.5
910.808	12641.5
911.045	12524.5
911.281	12405.5
911.518	12487.5
911.754	12424.5
911.99	12400.5
912.226	12197.5
912.463	12098.5
912.699	12042.5
912.935	11945.5
913.171	11917.5
913.407	11692.5
913.643	11723.5
913.879	11626.5
914.114	11544.5
914.35	11408.5
914.586	11311.5
914.822	11159.5
915.057	11190.5
915.293	11070.5
915.529	11022.5
915.764	11147.5
916	11007.5
916.235	10950.5
916.471	10956.5
916.706	10874.5
916.941	10909.5
917.177	10855.5
917.412	10821.5
917.647	10886.5
917.882	10841.5
918.117	10894.5
918.352	10828.5
918.588	10803.5
918.823	10649.5
919.057	10483.5
919.292	10369.5
919.527	10437.5
919.762	10283.5
919.997	10244.5
920.232	10104.5
920.466	10037.5
920.701	9909.5
920.935	9918.5
921.17	9844.5
921.405	9779.5
921.639	9817.5
921.873	9673.5
922.108	9678.5
922.342	9625.5
922.576	9535.5
922.811	9516.5
923.045	9558.5
923.279	9543.5
923.513	9386.5
923.747	9394.5
923.981	9351.5
924.215	9290.5
924.449	9276.5
924.683	9209.5
924.917	9151.5
925.151	9088.5
925.385	9135.5
925.618	9025.5
925.852	9098.5
926.086	8946.5
926.319	9009.5
926.553	8985.5
926.786	8972.5
927.02	9016.5
927.253	8978.5
927.486	8989.5
927.72	8886.5
927.953	8955.5
928.186	8854.5
928.42	8949.5
928.653	8838.5
928.886	8752.5
929.119	8776.5
929.352	8758.5
929.585	8686.5
929.818	8609.5
930.051	8489.5
930.284	8503.5
930.516	8357.5
930.749	8269.5
930.982	8299.5
931.215	8296.5
931.447	8206.5
931.68	8243.5
931.912	8224.5
932.145	8166.5
932.377	8198.5
932.61	8363.5
932.842	8082.5
933.074	8161.5
933.307	8145.5
933.539	8255.5
933.771	8190.5
934.003	8150.5
934.236	8120.5
934.468	8193.5
934.7	8147.5
934.932	8169.5
935.164	8015.5
935.395	8028.5
935.627	8055.5
935.859	8007.5
936.091	7870.5
936.323	7981.5
936.554	7963.5
936.786	7949.5
937.017	7832.5
937.249	7881.5
937.481	7815.5
937.712	7835.5
937.943	7758.5
938.175	7801.5
938.406	7774.5
938.637	7767.5
938.869	7682.5
939.1	7728.5
939.331	7628.5
939.562	7636.5
939.793	7618.5
940.024	7628.5
940.255	7668.5
940.486	7558.5
940.717	7526.5
940.948	7468.5
941.179	7442.5
941.409	7407.5
941.64	7411.5
941.871	7489.5
942.102	7362.5
942.332	7459.5
942.563	7421.5
942.793	7399.5
943.024	7354.5
943.254	7404.5
943.484	7452.5
943.715	7404.5
943.945	7407.5
944.175	7282.5
944.405	7259.5
944.636	7299.5
944.866	7321.5
945.096	7298.5
945.326	7252.5
945.556	7281.5
945.786	7233.5
946.016	7213.5
946.245	7067.5
946.475	7088.5
946.705	7001.5
946.935	7032.5
947.164	6958.5
947.394	6885.5
947.624	6927.5
947.853	6894.5
948.083	6900.5
948.312	6816.5
948.542	6784.5
948.771	6726.5
949	6722.5
949.23	6726.5
949.459	6739.5
949.688	6785.5
949.917	6696.5
950.146	6695.5
950.375	6718.5
950.604	6587.5
950.833	6679.5
951.062	6689.5
951.291	6583.5
951.52	6577.5
951.749	6570.5
951.978	6533.5
952.206	6540.5
952.435	6574.5
952.664	6555.5
952.892	6517.5
953.121	6469.5
953.349	6413.5
953.578	6448.5
953.806	6386.5
954.035	6238.5
954.263	6340.5
954.491	6265.5
954.719	6283.5
954.948	6221.5
955.176	6198.5
955.404	6052.5
955.632	6164.5
955.86	6125.5
956.088	6101.5
956.316	6123.5
956.544	6133.5
956.772	6053.5
956.999	5957.5
957.227	6065.5
957.455	5891.5
957.683	5916.5
957.91	5802.5
958.138	5806.5
958.365	5785.5
958.593	5778.5
958.82	5689.5
959.048	5747.5
959.275	5724.5
959.502	5702.5
959.73	5596.5
959.957	5658.5
960.184	5638.5
960.411	5621.5
960.638	5689.5
960.865	5611.5
961.092	5587.5
961.319	5553.5
961.546	5649.5
961.773	5643.5
962	5571.5
962.227	5562.5
962.454	5563.5
962.68	5463.5
962.907	5454.5
963.134	5476.5
963.36	5439.5
963.587	5450.5
963.813	5372.5
964.04	5330.5
964.266	5264.5
964.493	5323.5
964.719	5285.5
964.945	5303.5
965.171	5152.5
965.398	5118.5
965.624	5198.5
965.85	5074.5
966.076	5064.5
966.302	5081.5
966.528	5056.5
966.754	5033.5
966.98	5021.5
967.206	5012.5
967.431	4941.5
967.657	5052.5
967.883	5031.5
968.109	4973.5
968.334	4880.5
968.56	4836.5
968.785	4875.5
969.011	4839.5
969.236	4833.5
969.462	4817.5
969.687	4821.5
969.912	4841.5
970.138	4858.5
970.363	4770.5
970.588	4773.5
970.813	4731.5
971.038	4712.5
971.263	4738.5
971.488	4730.5
971.713	4757.5
971.938	4725.5
972.163	4599.5
972.388	4644.5
972.613	4557.5
972.838	4585.5
973.062	4506.5
973.287	4562.5
973.512	4466.5
973.736	4470.5
973.961	4503.5
974.185	4430.5
974.41	4442.5
974.634	4293.5
974.858	4341.5
975.083	4345.5
975.307	4369.5
975.531	4298.5
975.755	4157.5
975.98	4223.5
976.204	4137.5
976.428	4113.5
976.652	4154.5
976.876	4110.5
977.1	4123.5
977.324	4088.5
977.547	4093.5
977.771	4097.5
977.995	4076.5
978.219	4012.5
978.442	4101.5
978.666	4062.5
978.89	4055.5
979.113	4014.5
979.337	3994.5
979.56	3919.5
979.783	4062.5
980.007	3946.5
980.23	3899.5
980.453	3872.5
980.677	3952.5
980.9	3920.5
981.123	3789.5
981.346	3895.5
981.569	3836.5
981.792	3836.5
982.015	3827.5
982.238	3705.5
982.461	3814.5
982.684	3691.5
982.907	3645.5
983.129	3668.5
983.352	3624.5
983.575	3650.5
983.797	3653.5
984.02	3583.5
984.242	3576.5
984.465	3602.5
984.687	3604.5
984.91	3590.5
985.132	3517.5
985.354	3572.5
985.577	3544.5
985.799	3753.5
986.021	4637.5
986.243	3688.5
986.465	3480.5
986.687	3478.5
986.909	3496.5
987.131	3474.5
987.353	3384.5
987.575	3409.5
987.797	3371.5
988.019	3313.5
988.241	3367.5
988.462	3327.5
988.684	3349.5
988.906	3373.5
989.127	3421.5
989.349	3208.5
989.57	3288.5
989.792	3328.5
990.013	3318.5
990.234	3283.5
990.456	3307.5
990.677	3262.5
990.898	3224.5
991.119	3213.5
991.341	3259.5
991.562	3134.5
991.783	3193.5
992.004	3136.5
992.225	3060.5
992.446	3113.5
992.667	3048.5
992.887	3097.5
993.108	2981.5
993.329	3101.5
993.55	3033.5
993.77	3000.5
993.991	2940.5
994.212	3012.5
994.432	2953.5
994.653	2951.5
994.873	2926.5
995.093	2825.5
995.314	2860.5
995.534	2924.5
995.754	2920.5
995.975	2950.5
996.195	2826.5
996.415	2861.5
996.635	2829.5
996.855	2875.5
997.075	2831.5
997.295	2815.5
997.515	2820.5
997.735	2855.5
997.955	2789.5
998.174	2810.5
998.394	2788.5
998.614	2827.5
998.834	2780.5
999.053	2858.5
999.273	2800.5
999.492	2814.5
999.712	2754.5
999.931	2695.5
1000.151	2745.5
1000.37	2712.5
1000.589	2736.5
1000.809	2650.5
1001.028	2815.5
1001.247	2687.5
1001.466	2582.5
1001.685	2714.5
1001.904	2634.5
1002.123	2626.5
1002.342	2617.5
1002.561	2575.5
1002.78	2552.5
1002.999	2621.5
1003.218	2584.5
1003.436	2467.5
1003.655	2537.5
1003.874	2491.5
1004.092	2550.5
1004.311	2561.5
1004.53	2505.5
1004.748	2547.5
1004.966	2439.5
1005.185	2503.5
1005.403	2509.5
1005.622	2477.5
1005.84	2554.5
1006.058	2446.5
1006.276	2485.5
1006.494	2954.5
1006.712	2482.5
1006.931	2504.5
1007.149	2464.5
1007.367	2447.5
1007.584	2474.5
1007.802	2533.5
1008.02	2458.5
1008.238	2548.5
1008.456	2580.5
1008.673	2451.5
1008.891	2553.5
1009.109	2536.5
1009.326	2592.5
1009.544	2681.5
1009.761	2595.5
1009.979	2705.5
1010.196	2764.5
1010.413	2898.5
1010.631	2987.5
1010.848	3059.5
1011.065	3122.5
1011.282	3076.5
1011.5	2995.5
1011.717	3121.5
1011.934	3007.5
1012.151	3042.5
1012.368	3014.5
1012.585	2953.5
1012.801	3074.5
1013.018	3019.5
1013.235	2977.5
1013.452	3018.5
1013.669	3014.5
1013.885	3016.5
1014.102	3041.5
1014.318	3036.5
1014.535	3010.5
1014.751	3022.5
1014.968	3002.5
1015.184	3013.5
1015.401	2924.5
1015.617	2928.5
1015.833	2887.5
1016.049	2886.5
1016.266	2864.5
1016.482	2839.5
1016.698	2705.5
1016.914	2802.5
1017.13	2728.5
1017.346	2783.5
1017.562	2768.5
1017.778	2696.5
1017.993	2729.5
1018.209	2746.5
1018.425	2697.5
1018.641	2677.5
1018.856	2619.5
1019.072	2701.5
1019.288	2753.5
1019.503	2711.5
1019.719	2605.5
1019.934	2621.5
1020.149	2691.5
1020.365	2599.5
1020.58	2543.5
1020.795	2553.5
1021.011	2476.5
1021.226	2442.5
1021.441	2427.5
1021.656	2325.5
1021.871	2247.5
1022.086	2193.5
1022.301	2192.5
1022.516	2189.5
1022.731	2198.5
1022.946	2065.5
1023.16	2068.5
1023.375	2036.5
1023.59	1993.5
1023.804	1948.5
1024.019	2001.5
1024.234	1843.5
1024.448	1884.5
1024.663	1772.5
1024.877	1786.5
1025.092	1776.5
1025.306	1765.5
1025.52	1652.5
1025.734	1721.5
1025.949	1602.5
1026.163	1568.5
1026.377	1489.5
1026.591	1543.5
1026.805	1452.5
1027.019	1425.5
1027.233	1394.5
1027.447	1333.5
1027.661	1408.5
1027.875	1364.5
1028.088	1364.5
1028.302	1234.5
1028.516	1235.5
1028.73	1221.5
1028.943	1176.5
1029.157	1113.5
1029.37	1048.5
1029.584	2.5
1029.797	-0.5
1030.011	-2.5
1030.224	-0.5
