Data from QEP037381__84__15-23-15-864.txt Node

Date: Fri Dec 16 15:23:15 EST 2022
User: dcclab
Spectrometer: QEP03738
Trigger mode: 4
Integration Time (sec): 1.000000E1
Scans to average: 1
Electric dark correction enabled: true
Nonlinearity correction enabled: false
Boxcar width: 0
XAxis mode: Wavelengths
Number of Pixels in Spectrum: 1044
>>>>>Begin Spectral Data<<<<<
784.041	15.25
784.3	-1.75
784.558	-1.75
784.817	-3.75
785.075	89105.25
785.334	15608.25
785.592	7336.25
785.851	5052.25
786.109	3870.25
786.368	2976.25
786.626	2419.25
786.884	2037.25
787.143	1718.25
787.401	1400.25
787.659	1299.25
787.917	1108.25
788.175	1014.25
788.433	869.25
788.691	822.25
788.949	745.25
789.207	742.25
789.465	635.25
789.723	622.25
789.98	565.25
790.238	595.25
790.496	567.25
790.753	557.25
791.011	586.25
791.268	549.25
791.526	526.25
791.783	544.25
792.041	514.25
792.298	446.25
792.556	505.25
792.813	475.25
793.07	462.25
793.327	453.25
793.584	540.25
793.841	444.25
794.099	479.25
794.356	534.25
794.613	446.25
794.869	488.25
795.126	418.25
795.383	414.25
795.64	434.25
795.897	403.25
796.153	459.25
796.41	445.25
796.667	422.25
796.923	422.25
797.18	436.25
797.436	460.25
797.693	432.25
797.949	478.25
798.206	504.25
798.462	420.25
798.718	483.25
798.974	478.25
799.231	509.25
799.487	501.25
799.743	507.25
799.999	540.25
800.255	535.25
800.511	521.25
800.767	579.25
801.023	578.25
801.279	602.25
801.534	651.25
801.79	698.25
802.046	734.25
802.302	915.25
802.557	1054.25
802.813	1321.25
803.068	1650.25
803.324	2313.25
803.579	3184.25
803.835	4413.25
804.09	6159.25
804.345	8103.25
804.601	10203.25
804.856	12340.25
805.111	14106.25
805.366	15649.25
805.621	16715.25
805.876	17440.25
806.131	17865.25
806.386	18168.25
806.641	18580.25
806.896	18907.25
807.151	19199.25
807.406	19601.25
807.661	19966.25
807.915	20392.25
808.17	20644.25
808.425	20924.25
808.679	21252.25
808.934	21395.25
809.188	21702.25
809.443	21968.25
809.697	22198.25
809.951	22435.25
810.206	22539.25
810.46	22826.25
810.714	23045.25
810.968	23345.25
811.223	23456.25
811.477	23649.25
811.731	24017.25
811.985	23997.25
812.239	24210.25
812.493	24365.25
812.747	24445.25
813	24545.25
813.254	24642.25
813.508	24891.25
813.762	24970.25
814.015	25031.25
814.269	25234.25
814.522	25557.25
814.776	25859.25
815.03	26204.25
815.283	26538.25
815.536	27109.25
815.79	27269.25
816.043	27864.25
816.296	28319.25
816.55	28583.25
816.803	29014.25
817.056	29585.25
817.309	29666.25
817.562	29989.25
817.815	30301.25
818.068	30614.25
818.321	30943.25
818.574	31427.25
818.827	31803.25
819.079	32222.25
819.332	32708.25
819.585	33155.25
819.838	33511.25
820.09	33804.25
820.343	34082.25
820.595	34316.25
820.848	34601.25
821.1	34781.25
821.353	34731.25
821.605	34720.25
821.857	34832.25
822.11	34363.25
822.362	34598.25
822.614	34549.25
822.866	34580.25
823.118	34606.25
823.37	34714.25
823.622	34757.25
823.874	34768.25
824.126	34955.25
824.378	34983.25
824.63	35208.25
824.882	35302.25
825.134	35204.25
825.385	35260.25
825.637	35275.25
825.888	35180.25
826.14	35104.25
826.392	34919.25
826.643	34787.25
826.895	34711.25
827.146	34554.25
827.397	34603.25
827.649	34524.25
827.9	34534.25
828.151	34625.25
828.402	34676.25
828.653	34732.25
828.905	34913.25
829.156	34935.25
829.407	34927.25
829.658	34884.25
829.909	35005.25
830.159	35164.25
830.41	34845.25
830.661	34463.25
830.912	34459.25
831.162	34337.25
831.413	34359.25
831.664	34276.25
831.914	34285.25
832.165	34266.25
832.415	34314.25
832.666	34316.25
832.916	34335.25
833.167	34313.25
833.417	34327.25
833.667	34285.25
833.917	34206.25
834.168	34008.25
834.418	33979.25
834.668	33799.25
834.918	33673.25
835.168	33542.25
835.418	33480.25
835.668	33470.25
835.918	33303.25
836.167	33434.25
836.417	33191.25
836.667	33267.25
836.917	33084.25
837.166	33139.25
837.416	33159.25
837.666	33107.25
837.915	32954.25
838.165	32957.25
838.414	32861.25
838.663	32886.25
838.913	32858.25
839.162	32836.25
839.411	32858.25
839.661	32680.25
839.91	32569.25
840.159	32504.25
840.408	32570.25
840.657	32511.25
840.906	32468.25
841.155	32693.25
841.404	32495.25
841.653	32510.25
841.902	32603.25
842.15	32634.25
842.399	32681.25
842.648	32710.25
842.897	32357.25
843.145	32419.25
843.394	32129.25
843.642	31993.25
843.891	31868.25
844.139	31632.25
844.388	31467.25
844.636	31483.25
844.884	31475.25
845.133	31326.25
845.381	31337.25
845.629	31395.25
845.877	31339.25
846.125	31255.25
846.373	31215.25
846.621	31202.25
846.869	31061.25
847.117	31046.25
847.365	30728.25
847.613	30587.25
847.861	30527.25
848.108	30553.25
848.356	30392.25
848.604	30392.25
848.851	30336.25
849.099	30480.25
849.346	30514.25
849.594	30619.25
849.841	30837.25
850.089	31048.25
850.336	30728.25
850.583	30884.25
850.831	30835.25
851.078	30586.25
851.325	30604.25
851.572	30608.25
851.819	30269.25
852.066	29823.25
852.313	29478.25
852.56	29225.25
852.807	29185.25
853.054	29196.25
853.301	28964.25
853.548	29081.25
853.794	29379.25
854.041	29265.25
854.288	29441.25
854.534	29760.25
854.781	29677.25
855.028	29563.25
855.274	29593.25
855.52	29287.25
855.767	29199.25
856.013	29207.25
856.26	29551.25
856.506	28954.25
856.752	28883.25
856.998	29010.25
857.244	29106.25
857.49	29225.25
857.736	29152.25
857.982	29387.25
858.228	29255.25
858.474	29054.25
858.72	28808.25
858.966	28610.25
859.212	28352.25
859.458	28158.25
859.703	27852.25
859.949	27513.25
860.195	27392.25
860.44	27281.25
860.686	27209.25
860.931	27199.25
861.177	27076.25
861.422	26882.25
861.667	26912.25
861.913	26870.25
862.158	26992.25
862.403	26977.25
862.648	27190.25
862.893	27182.25
863.138	27223.25
863.384	27043.25
863.629	27018.25
863.873	26902.25
864.118	26920.25
864.363	26785.25
864.608	26725.25
864.853	26764.25
865.098	26526.25
865.342	26402.25
865.587	26352.25
865.832	26320.25
866.076	26276.25
866.321	26150.25
866.565	26103.25
866.81	26045.25
867.054	26020.25
867.298	25726.25
867.543	25698.25
867.787	25819.25
868.031	25737.25
868.275	25737.25
868.519	25590.25
868.764	25588.25
869.008	25589.25
869.252	25593.25
869.496	25506.25
869.739	25462.25
869.983	25417.25
870.227	25527.25
870.471	25315.25
870.715	25559.25
870.958	25502.25
871.202	25567.25
871.446	25732.25
871.689	25653.25
871.933	25645.25
872.176	25678.25
872.42	25601.25
872.663	25467.25
872.906	25411.25
873.15	25334.25
873.393	25224.25
873.636	25285.25
873.879	24926.25
874.122	24733.25
874.366	24556.25
874.609	24336.25
874.852	24158.25
875.095	24119.25
875.337	23953.25
875.58	23834.25
875.823	23803.25
876.066	23695.25
876.309	23715.25
876.551	23534.25
876.794	23415.25
877.037	23462.25
877.279	23364.25
877.522	23351.25
877.764	23437.25
878.007	23335.25
878.249	23297.25
878.491	23284.25
878.734	23325.25
878.976	23170.25
879.218	23037.25
879.46	22983.25
879.702	22835.25
879.945	22618.25
880.187	22504.25
880.429	22475.25
880.671	22298.25
880.912	22224.25
881.154	22144.25
881.396	21984.25
881.638	22049.25
881.88	22246.25
882.121	22094.25
882.363	21987.25
882.605	22020.25
882.846	21946.25
883.088	22043.25
883.329	21903.25
883.571	21922.25
883.812	22019.25
884.053	22252.25
884.295	22606.25
884.536	22625.25
884.777	22506.25
885.018	22565.25
885.259	22469.25
885.5	22319.25
885.742	22551.25
885.982	22257.25
886.223	22221.25
886.464	22116.25
886.705	21888.25
886.946	21739.25
887.187	21329.25
887.428	21274.25
887.668	20981.25
887.909	20698.25
888.15	20461.25
888.39	20364.25
888.631	20319.25
888.871	20139.25
889.111	19947.25
889.352	19954.25
889.592	19632.25
889.833	19620.25
890.073	19529.25
890.313	19478.25
890.553	19203.25
890.793	19231.25
891.033	19194.25
891.273	19071.25
891.513	19070.25
891.753	19055.25
891.993	19012.25
892.233	18988.25
892.473	19073.25
892.713	19052.25
892.952	18927.25
893.192	19116.25
893.432	19109.25
893.671	19039.25
893.911	18870.25
894.15	18824.25
894.39	18720.25
894.629	18561.25
894.869	18566.25
895.108	18602.25
895.347	18342.25
895.587	18381.25
895.826	18289.25
896.065	18321.25
896.304	18236.25
896.543	18340.25
896.782	18196.25
897.021	18174.25
897.26	18215.25
897.499	18187.25
897.738	18089.25
897.977	18033.25
898.216	17976.25
898.454	17789.25
898.693	17777.25
898.932	17743.25
899.17	17563.25
899.409	17486.25
899.647	17584.25
899.886	17502.25
900.124	17522.25
900.363	17529.25
900.601	17653.25
900.839	17669.25
901.078	17748.25
901.316	17652.25
901.554	17787.25
901.792	17939.25
902.03	17734.25
902.268	17846.25
902.506	17872.25
902.744	17661.25
902.982	17600.25
903.22	17233.25
903.458	17061.25
903.695	16863.25
903.933	16629.25
904.171	16329.25
904.409	16081.25
904.646	15880.25
904.884	15667.25
905.121	15643.25
905.359	15373.25
905.596	15285.25
905.833	15106.25
906.071	15028.25
906.308	15019.25
906.545	14915.25
906.783	14779.25
907.02	14851.25
907.257	14710.25
907.494	14726.25
907.731	14597.25
907.968	14597.25
908.205	14556.25
908.442	14542.25
908.679	14406.25
908.915	14155.25
909.152	14182.25
909.389	13951.25
909.626	13893.25
909.862	13742.25
910.099	13772.25
910.335	13819.25
910.572	13627.25
910.808	13586.25
911.045	13535.25
911.281	13527.25
911.518	13506.25
911.754	13339.25
911.99	13417.25
912.226	13262.25
912.463	13092.25
912.699	12980.25
912.935	12984.25
913.171	12953.25
913.407	12764.25
913.643	12652.25
913.879	12570.25
914.114	12512.25
914.35	12391.25
914.586	12232.25
914.822	12097.25
915.057	12143.25
915.293	11923.25
915.529	11793.25
915.764	11962.25
916	11898.25
916.235	11862.25
916.471	11827.25
916.706	11819.25
916.941	11801.25
917.177	11846.25
917.412	11876.25
917.647	11775.25
917.882	11672.25
918.117	11726.25
918.352	11652.25
918.588	11689.25
918.823	11454.25
919.057	11478.25
919.292	11237.25
919.527	11322.25
919.762	11194.25
919.997	11023.25
920.232	10884.25
920.466	10878.25
920.701	10666.25
920.935	10715.25
921.17	10558.25
921.405	10566.25
921.639	10535.25
921.873	10421.25
922.108	10496.25
922.342	10487.25
922.576	10338.25
922.811	10338.25
923.045	10326.25
923.279	10344.25
923.513	10044.25
923.747	10213.25
923.981	10069.25
924.215	10059.25
924.449	9950.25
924.683	9930.25
924.917	9871.25
925.151	9792.25
925.385	9822.25
925.618	9727.25
925.852	9796.25
926.086	9684.25
926.319	9689.25
926.553	9703.25
926.786	9762.25
927.02	9689.25
927.253	9674.25
927.486	9686.25
927.72	9631.25
927.953	9675.25
928.186	9607.25
928.42	9597.25
928.653	9499.25
928.886	9441.25
929.119	9469.25
929.352	9381.25
929.585	9283.25
929.818	9273.25
930.051	9250.25
930.284	9174.25
930.516	9058.25
930.749	8934.25
930.982	8952.25
931.215	8878.25
931.447	8790.25
931.68	8847.25
931.912	8804.25
932.145	8808.25
932.377	8842.25
932.61	8968.25
932.842	8752.25
933.074	8817.25
933.307	8748.25
933.539	8824.25
933.771	8823.25
934.003	8770.25
934.236	8834.25
934.468	8853.25
934.7	8699.25
934.932	8790.25
935.164	8656.25
935.395	8601.25
935.627	8659.25
935.859	8602.25
936.091	8569.25
936.323	8561.25
936.554	8546.25
936.786	8442.25
937.017	8408.25
937.249	8475.25
937.481	8340.25
937.712	8470.25
937.943	8452.25
938.175	8373.25
938.406	8411.25
938.637	8404.25
938.869	8286.25
939.1	8270.25
939.331	8233.25
939.562	8223.25
939.793	8211.25
940.024	8214.25
940.255	8188.25
940.486	8089.25
940.717	8010.25
940.948	8034.25
941.179	7980.25
941.409	8003.25
941.64	7983.25
941.871	8010.25
942.102	7931.25
942.332	7919.25
942.563	7998.25
942.793	7933.25
943.024	7909.25
943.254	7957.25
943.484	7969.25
943.715	7969.25
943.945	7904.25
944.175	7862.25
944.405	7843.25
944.636	7853.25
944.866	7860.25
945.096	7863.25
945.326	7725.25
945.556	7803.25
945.786	7792.25
946.016	7694.25
946.245	7629.25
946.475	7538.25
946.705	7515.25
946.935	7538.25
947.164	7488.25
947.394	7337.25
947.624	7401.25
947.853	7453.25
948.083	7365.25
948.312	7336.25
948.542	7214.25
948.771	7167.25
949	7214.25
949.23	7172.25
949.459	7254.25
949.688	7257.25
949.917	7187.25
950.146	7215.25
950.375	7236.25
950.604	7086.25
950.833	7177.25
951.062	7183.25
951.291	7083.25
951.52	7048.25
951.749	7046.25
951.978	6952.25
952.206	6907.25
952.435	6994.25
952.664	6949.25
952.892	6940.25
953.121	6937.25
953.349	6910.25
953.578	6902.25
953.806	6821.25
954.035	6776.25
954.263	6754.25
954.491	6736.25
954.719	6776.25
954.948	6688.25
955.176	6634.25
955.404	6536.25
955.632	6559.25
955.86	6524.25
956.088	6545.25
956.316	6537.25
956.544	6459.25
956.772	6445.25
956.999	6375.25
957.227	6450.25
957.455	6329.25
957.683	6293.25
957.91	6194.25
958.138	6200.25
958.365	6195.25
958.593	6192.25
958.82	6044.25
959.048	6111.25
959.275	6105.25
959.502	6081.25
959.73	6081.25
959.957	6067.25
960.184	6049.25
960.411	6031.25
960.638	6090.25
960.865	6003.25
961.092	6007.25
961.319	5914.25
961.546	5996.25
961.773	5993.25
962	5971.25
962.227	6034.25
962.454	5918.25
962.68	5937.25
962.907	5851.25
963.134	5796.25
963.36	5824.25
963.587	5810.25
963.813	5676.25
964.04	5677.25
964.266	5622.25
964.493	5653.25
964.719	5620.25
964.945	5686.25
965.171	5479.25
965.398	5511.25
965.624	5551.25
965.85	5508.25
966.076	5451.25
966.302	5444.25
966.528	5400.25
966.754	5419.25
966.98	5364.25
967.206	5336.25
967.431	5233.25
967.657	5353.25
967.883	5317.25
968.109	5325.25
968.334	5230.25
968.56	5172.25
968.785	5193.25
969.011	5177.25
969.236	5185.25
969.462	5113.25
969.687	5137.25
969.912	5165.25
970.138	5228.25
970.363	5078.25
970.588	5044.25
970.813	5054.25
971.038	5052.25
971.263	5029.25
971.488	5028.25
971.713	5046.25
971.938	5006.25
972.163	4861.25
972.388	4904.25
972.613	4902.25
972.838	4882.25
973.062	4898.25
973.287	4842.25
973.512	4765.25
973.736	4803.25
973.961	4728.25
974.185	4737.25
974.41	4718.25
974.634	4610.25
974.858	4606.25
975.083	4656.25
975.307	4662.25
975.531	4519.25
975.755	4499.25
975.98	4517.25
976.204	4467.25
976.428	4417.25
976.652	4352.25
976.876	4339.25
977.1	4373.25
977.324	4338.25
977.547	4402.25
977.771	4368.25
977.995	4331.25
978.219	4261.25
978.442	4349.25
978.666	4320.25
978.89	4252.25
979.113	4287.25
979.337	4257.25
979.56	4224.25
979.783	4343.25
980.007	4191.25
980.23	4171.25
980.453	4118.25
980.677	4139.25
980.9	4113.25
981.123	4039.25
981.346	4118.25
981.569	4059.25
981.792	4098.25
982.015	4028.25
982.238	4059.25
982.461	3967.25
982.684	3943.25
982.907	3889.25
983.129	3892.25
983.352	3922.25
983.575	3887.25
983.797	3883.25
984.02	3792.25
984.242	3769.25
984.465	3798.25
984.687	3815.25
984.91	3816.25
985.132	3753.25
985.354	3773.25
985.577	3704.25
985.799	3706.25
986.021	3622.25
986.243	3643.25
986.465	3642.25
986.687	3673.25
986.909	3670.25
987.131	3633.25
987.353	3577.25
987.575	3585.25
987.797	3571.25
988.019	3485.25
988.241	3566.25
988.462	3515.25
988.684	3537.25
988.906	3532.25
989.127	3581.25
989.349	3460.25
989.57	3504.25
989.792	3462.25
990.013	3523.25
990.234	3501.25
990.456	3491.25
990.677	3476.25
990.898	3411.25
991.119	3427.25
991.341	3428.25
991.562	3353.25
991.783	3388.25
992.004	3286.25
992.225	3243.25
992.446	3300.25
992.667	3165.25
992.887	3272.25
993.108	3112.25
993.329	3263.25
993.55	3172.25
993.77	3166.25
993.991	3134.25
994.212	3147.25
994.432	3136.25
994.653	3090.25
994.873	3123.25
995.093	2983.25
995.314	3033.25
995.534	3102.25
995.754	3090.25
995.975	3131.25
996.195	3003.25
996.415	3055.25
996.635	3005.25
996.855	2999.25
997.075	2981.25
997.295	2973.25
997.515	2927.25
997.735	2997.25
997.955	2902.25
998.174	2938.25
998.394	2912.25
998.614	2926.25
998.834	2908.25
999.053	2945.25
999.273	2952.25
999.492	2948.25
999.712	2864.25
999.931	2848.25
1000.151	2873.25
1000.37	2799.25
1000.589	2884.25
1000.809	2769.25
1001.028	2881.25
1001.247	2784.25
1001.466	2702.25
1001.685	2876.25
1001.904	2785.25
1002.123	2723.25
1002.342	2747.25
1002.561	2677.25
1002.78	2678.25
1002.999	2736.25
1003.218	2685.25
1003.436	2642.25
1003.655	2707.25
1003.874	2605.25
1004.092	2633.25
1004.311	2654.25
1004.53	2625.25
1004.748	2658.25
1004.966	2596.25
1005.185	2622.25
1005.403	2603.25
1005.622	2580.25
1005.84	2681.25
1006.058	2555.25
1006.276	2604.25
1006.494	3061.25
1006.712	2559.25
1006.931	2641.25
1007.149	2514.25
1007.367	2543.25
1007.584	2562.25
1007.802	2598.25
1008.02	2563.25
1008.238	2660.25
1008.456	2667.25
1008.673	2519.25
1008.891	2647.25
1009.109	2635.25
1009.326	2668.25
1009.544	2817.25
1009.761	2702.25
1009.979	2825.25
1010.196	2880.25
1010.413	3021.25
1010.631	3070.25
1010.848	3159.25
1011.065	3196.25
1011.282	3103.25
1011.5	3055.25
1011.717	3181.25
1011.934	3088.25
1012.151	3097.25
1012.368	3086.25
1012.585	3047.25
1012.801	3093.25
1013.018	3073.25
1013.235	3041.25
1013.452	3042.25
1013.669	3071.25
1013.885	3052.25
1014.102	3096.25
1014.318	3066.25
1014.535	3031.25
1014.751	3023.25
1014.968	3045.25
1015.184	3038.25
1015.401	2985.25
1015.617	2991.25
1015.833	2902.25
1016.049	2923.25
1016.266	2858.25
1016.482	2873.25
1016.698	2786.25
1016.914	2833.25
1017.13	2749.25
1017.346	2750.25
1017.562	2786.25
1017.778	2728.25
1017.993	2711.25
1018.209	2755.25
1018.425	2748.25
1018.641	2725.25
1018.856	2660.25
1019.072	2706.25
1019.288	2743.25
1019.503	2701.25
1019.719	2617.25
1019.934	2660.25
1020.149	2661.25
1020.365	2615.25
1020.58	2529.25
1020.795	2564.25
1021.011	2464.25
1021.226	2408.25
1021.441	2399.25
1021.656	2348.25
1021.871	2207.25
1022.086	2225.25
1022.301	2206.25
1022.516	2180.25
1022.731	2207.25
1022.946	2125.25
1023.16	2071.25
1023.375	2016.25
1023.59	2022.25
1023.804	1953.25
1024.019	2037.25
1024.234	1882.25
1024.448	1886.25
1024.663	1816.25
1024.877	1792.25
1025.092	1817.25
1025.306	1774.25
1025.52	1699.25
1025.734	1698.25
1025.949	1619.25
1026.163	1606.25
1026.377	1521.25
1026.591	1549.25
1026.805	1469.25
1027.019	1461.25
1027.233	1429.25
1027.447	1317.25
1027.661	1438.25
1027.875	1359.25
1028.088	1367.25
1028.302	1277.25
1028.516	1250.25
1028.73	1210.25
1028.943	1203.25
1029.157	1144.25
1029.37	1063.25
1029.584	-2.75
1029.797	-2.75
1030.011	-0.75
1030.224	-1.75
