Data from QEP037381__49__14-36-53-472.txt Node

Date: Wed Dec 21 14:36:53 EST 2022
User: dcclab
Spectrometer: QEP03738
Trigger mode: 4
Integration Time (sec): 1.000000E1
Scans to average: 1
Electric dark correction enabled: true
Nonlinearity correction enabled: false
Boxcar width: 0
XAxis mode: Wavelengths
Number of Pixels in Spectrum: 1044
>>>>>Begin Spectral Data<<<<<
784.041	13.38
784.3	-1.62
784.558	-2.62
784.817	-5.62
785.075	87924.38
785.334	15395.38
785.592	7262.38
785.851	5043.38
786.109	3793.38
786.368	2982.38
786.626	2421.38
786.884	1989.38
787.143	1706.38
787.401	1369.38
787.659	1250.38
787.917	1099.38
788.175	996.38
788.433	869.38
788.691	776.38
788.949	723.38
789.207	704.38
789.465	601.38
789.723	591.38
789.98	535.38
790.238	564.38
790.496	560.38
790.753	513.38
791.011	570.38
791.268	498.38
791.526	492.38
791.783	511.38
792.041	470.38
792.298	407.38
792.556	477.38
792.813	461.38
793.07	429.38
793.327	421.38
793.584	499.38
793.841	428.38
794.099	445.38
794.356	500.38
794.613	393.38
794.869	428.38
795.126	405.38
795.383	393.38
795.64	415.38
795.897	346.38
796.153	402.38
796.41	397.38
796.667	397.38
796.923	396.38
797.18	394.38
797.436	428.38
797.693	374.38
797.949	450.38
798.206	462.38
798.462	378.38
798.718	444.38
798.974	399.38
799.231	446.38
799.487	432.38
799.743	429.38
799.999	455.38
800.255	449.38
800.511	420.38
800.767	459.38
801.023	445.38
801.279	472.38
801.534	489.38
801.79	518.38
802.046	526.38
802.302	605.38
802.557	642.38
802.813	758.38
803.068	843.38
803.324	1146.38
803.579	1460.38
803.835	1994.38
804.09	2697.38
804.345	3546.38
804.601	4548.38
804.856	5506.38
805.111	6396.38
805.366	7032.38
805.621	7411.38
805.876	7682.38
806.131	7903.38
806.386	7989.38
806.641	8168.38
806.896	8348.38
807.151	8556.38
807.406	8667.38
807.661	8793.38
807.915	8989.38
808.17	9144.38
808.425	9242.38
808.679	9307.38
808.934	9427.38
809.188	9540.38
809.443	9699.38
809.697	9824.38
809.951	9817.38
810.206	10066.38
810.46	10130.38
810.714	10217.38
810.968	10335.38
811.223	10291.38
811.477	10463.38
811.731	10578.38
811.985	10570.38
812.239	10659.38
812.493	10688.38
812.747	10760.38
813	10827.38
813.254	10903.38
813.508	10879.38
813.762	10956.38
814.015	11050.38
814.269	11066.38
814.522	11284.38
814.776	11339.38
815.03	11499.38
815.283	11632.38
815.536	11928.38
815.79	12020.38
816.043	12273.38
816.296	12361.38
816.55	12525.38
816.803	12698.38
817.056	12962.38
817.309	12975.38
817.562	13094.38
817.815	13375.38
818.068	13438.38
818.321	13616.38
818.574	13822.38
818.827	13964.38
819.079	14222.38
819.332	14539.38
819.585	14672.38
819.838	14802.38
820.09	14803.38
820.343	15096.38
820.595	15094.38
820.848	15196.38
821.1	15222.38
821.353	15227.38
821.605	15278.38
821.857	15245.38
822.11	15153.38
822.362	15121.38
822.614	15147.38
822.866	15084.38
823.118	15083.38
823.37	15203.38
823.622	15207.38
823.874	15253.38
824.126	15403.38
824.378	15465.38
824.63	15474.38
824.882	15579.38
825.134	15416.38
825.385	15442.38
825.637	15494.38
825.888	15351.38
826.14	15362.38
826.392	15336.38
826.643	15182.38
826.895	15248.38
827.146	15115.38
827.397	15038.38
827.649	15128.38
827.9	15047.38
828.151	15112.38
828.402	15114.38
828.653	15180.38
828.905	15305.38
829.156	15270.38
829.407	15250.38
829.658	15234.38
829.909	15280.38
830.159	15271.38
830.41	15151.38
830.661	15060.38
830.912	14989.38
831.162	15027.38
831.413	15097.38
831.664	15146.38
831.914	14980.38
832.165	15046.38
832.415	15042.38
832.666	15012.38
832.916	15078.38
833.167	14943.38
833.417	15005.38
833.667	14919.38
833.917	14908.38
834.168	14997.38
834.418	14896.38
834.668	14841.38
834.918	14811.38
835.168	14734.38
835.418	14668.38
835.668	14695.38
835.918	14617.38
836.167	14643.38
836.417	14454.38
836.667	14619.38
836.917	14593.38
837.166	14484.38
837.416	14582.38
837.666	14548.38
837.915	14453.38
838.165	14573.38
838.414	14443.38
838.663	14464.38
838.913	14395.38
839.162	14367.38
839.411	14350.38
839.661	14358.38
839.91	14307.38
840.159	14362.38
840.408	14389.38
840.657	14359.38
840.906	14410.38
841.155	14440.38
841.404	14395.38
841.653	14366.38
841.902	14366.38
842.15	14388.38
842.399	14505.38
842.648	14489.38
842.897	14394.38
843.145	14275.38
843.394	14123.38
843.642	14091.38
843.891	14042.38
844.139	13948.38
844.388	13834.38
844.636	13751.38
844.884	13762.38
845.133	13805.38
845.381	13750.38
845.629	13793.38
845.877	13709.38
846.125	13752.38
846.373	13745.38
846.621	13698.38
846.869	13627.38
847.117	13654.38
847.365	13520.38
847.613	13431.38
847.861	13477.38
848.108	13516.38
848.356	13413.38
848.604	13330.38
848.851	13484.38
849.099	13629.38
849.346	13554.38
849.594	13696.38
849.841	13809.38
850.089	13933.38
850.336	14039.38
850.583	14189.38
850.831	14251.38
851.078	14116.38
851.325	14077.38
851.572	14103.38
851.819	13860.38
852.066	13361.38
852.313	13198.38
852.56	13042.38
852.807	13001.38
853.054	12953.38
853.301	13043.38
853.548	13090.38
853.794	13203.38
854.041	13205.38
854.288	13303.38
854.534	13458.38
854.781	13300.38
855.028	13287.38
855.274	13196.38
855.52	13157.38
855.767	13104.38
856.013	13156.38
856.26	13376.38
856.506	12919.38
856.752	12976.38
856.998	13065.38
857.244	13032.38
857.49	13047.38
857.736	13050.38
857.982	13079.38
858.228	13024.38
858.474	12944.38
858.72	12875.38
858.966	12733.38
859.212	12612.38
859.458	12521.38
859.703	12408.38
859.949	12235.38
860.195	12198.38
860.44	12128.38
860.686	12044.38
860.931	12136.38
861.177	11980.38
861.422	12017.38
861.667	11980.38
861.913	11899.38
862.158	11959.38
862.403	12057.38
862.648	12113.38
862.893	12143.38
863.138	12066.38
863.384	12108.38
863.629	12105.38
863.873	12087.38
864.118	12066.38
864.363	11961.38
864.608	12027.38
864.853	11925.38
865.098	11852.38
865.342	11858.38
865.587	11802.38
865.832	11763.38
866.076	11837.38
866.321	11697.38
866.565	11692.38
866.81	11640.38
867.054	11647.38
867.298	11649.38
867.543	11578.38
867.787	11618.38
868.031	11613.38
868.275	11542.38
868.519	11547.38
868.764	11546.38
869.008	11547.38
869.252	11578.38
869.496	11436.38
869.739	11467.38
869.983	11539.38
870.227	11544.38
870.471	11503.38
870.715	11531.38
870.958	11575.38
871.202	11663.38
871.446	11693.38
871.689	11584.38
871.933	11604.38
872.176	11617.38
872.42	11559.38
872.663	11557.38
872.906	11553.38
873.15	11507.38
873.393	11436.38
873.636	11440.38
873.879	11321.38
874.122	11300.38
874.366	11123.38
874.609	11093.38
874.852	10940.38
875.095	10919.38
875.337	10916.38
875.58	10832.38
875.823	10822.38
876.066	10801.38
876.309	10817.38
876.551	10636.38
876.794	10644.38
877.037	10610.38
877.279	10620.38
877.522	10690.38
877.764	10696.38
878.007	10608.38
878.249	10658.38
878.491	10574.38
878.734	10728.38
878.976	10572.38
879.218	10493.38
879.46	10489.38
879.702	10376.38
879.945	10358.38
880.187	10224.38
880.429	10265.38
880.671	10115.38
880.912	10218.38
881.154	10076.38
881.396	10109.38
881.638	10130.38
881.88	10090.38
882.121	10021.38
882.363	10029.38
882.605	10142.38
882.846	10005.38
883.088	10051.38
883.329	10011.38
883.571	9983.38
883.812	10066.38
884.053	10217.38
884.295	10410.38
884.536	10577.38
884.777	10430.38
885.018	10481.38
885.259	10488.38
885.5	10331.38
885.742	10604.38
885.982	10335.38
886.223	10251.38
886.464	10200.38
886.705	10081.38
886.946	10045.38
887.187	9818.38
887.428	9836.38
887.668	9707.38
887.909	9589.38
888.15	9464.38
888.39	9522.38
888.631	9529.38
888.871	9317.38
889.111	9317.38
889.352	9234.38
889.592	9171.38
889.833	9092.38
890.073	9041.38
890.313	9043.38
890.553	8923.38
890.793	8841.38
891.033	8831.38
891.273	8829.38
891.513	8809.38
891.753	8913.38
891.993	8766.38
892.233	8816.38
892.473	8884.38
892.713	8883.38
892.952	8850.38
893.192	8926.38
893.432	8959.38
893.671	8901.38
893.911	8848.38
894.15	8844.38
894.39	8713.38
894.629	8852.38
894.869	8736.38
895.108	8674.38
895.347	8657.38
895.587	8682.38
895.826	8671.38
896.065	8650.38
896.304	8734.38
896.543	8674.38
896.782	8656.38
897.021	8711.38
897.26	8706.38
897.499	8726.38
897.738	8725.38
897.977	8708.38
898.216	8613.38
898.454	8567.38
898.693	8527.38
898.932	8534.38
899.17	8426.38
899.409	8517.38
899.647	8550.38
899.886	8465.38
900.124	8509.38
900.363	8532.38
900.601	8532.38
900.839	8546.38
901.078	8602.38
901.316	8597.38
901.554	8697.38
901.792	8702.38
902.03	8675.38
902.268	8684.38
902.506	8667.38
902.744	8548.38
902.982	8528.38
903.22	8397.38
903.458	8198.38
903.695	8161.38
903.933	8015.38
904.171	7878.38
904.409	7784.38
904.646	7719.38
904.884	7531.38
905.121	7520.38
905.359	7390.38
905.596	7300.38
905.833	7202.38
906.071	7189.38
906.308	7200.38
906.545	7088.38
906.783	7004.38
907.02	7084.38
907.257	7055.38
907.494	7025.38
907.731	7042.38
907.968	6951.38
908.205	6950.38
908.442	6835.38
908.679	6843.38
908.915	6780.38
909.152	6756.38
909.389	6585.38
909.626	6617.38
909.862	6551.38
910.099	6553.38
910.335	6557.38
910.572	6458.38
910.808	6467.38
911.045	6450.38
911.281	6372.38
911.518	6434.38
911.754	6367.38
911.99	6402.38
912.226	6326.38
912.463	6246.38
912.699	6188.38
912.935	6166.38
913.171	6100.38
913.407	6004.38
913.643	6066.38
913.879	6049.38
914.114	5972.38
914.35	5877.38
914.586	5846.38
914.822	5755.38
915.057	5863.38
915.293	5647.38
915.529	5650.38
915.764	5707.38
916	5671.38
916.235	5717.38
916.471	5729.38
916.706	5607.38
916.941	5633.38
917.177	5597.38
917.412	5641.38
917.647	5684.38
917.882	5612.38
918.117	5632.38
918.352	5579.38
918.588	5666.38
918.823	5477.38
919.057	5516.38
919.292	5369.38
919.527	5509.38
919.762	5345.38
919.997	5374.38
920.232	5218.38
920.466	5277.38
920.701	5082.38
920.935	5210.38
921.17	5112.38
921.405	5049.38
921.639	5143.38
921.873	5050.38
922.108	5044.38
922.342	5063.38
922.576	5021.38
922.811	4951.38
923.045	5053.38
923.279	5065.38
923.513	4884.38
923.747	4978.38
923.981	4936.38
924.215	4877.38
924.449	4853.38
924.683	4772.38
924.917	4803.38
925.151	4819.38
925.385	4830.38
925.618	4754.38
925.852	4777.38
926.086	4670.38
926.319	4781.38
926.553	4761.38
926.786	4787.38
927.02	4734.38
927.253	4844.38
927.486	4833.38
927.72	4756.38
927.953	4774.38
928.186	4706.38
928.42	4752.38
928.653	4636.38
928.886	4664.38
929.119	4715.38
929.352	4714.38
929.585	4696.38
929.818	4583.38
930.051	4611.38
930.284	4572.38
930.516	4467.38
930.749	4450.38
930.982	4503.38
931.215	4506.38
931.447	4413.38
931.68	4385.38
931.912	4383.38
932.145	4394.38
932.377	4453.38
932.61	4519.38
932.842	4369.38
933.074	4424.38
933.307	4399.38
933.539	4518.38
933.771	4468.38
934.003	4385.38
934.236	4466.38
934.468	4469.38
934.7	4375.38
934.932	4456.38
935.164	4412.38
935.395	4368.38
935.627	4407.38
935.859	4370.38
936.091	4291.38
936.323	4380.38
936.554	4397.38
936.786	4338.38
937.017	4283.38
937.249	4324.38
937.481	4225.38
937.712	4314.38
937.943	4266.38
938.175	4262.38
938.406	4266.38
938.637	4333.38
938.869	4207.38
939.1	4287.38
939.331	4186.38
939.562	4262.38
939.793	4179.38
940.024	4237.38
940.255	4237.38
940.486	4176.38
940.717	4126.38
940.948	4143.38
941.179	4121.38
941.409	4117.38
941.64	4097.38
941.871	4133.38
942.102	4126.38
942.332	4084.38
942.563	4149.38
942.793	4139.38
943.024	4104.38
943.254	4105.38
943.484	4168.38
943.715	4183.38
943.945	4112.38
944.175	4095.38
944.405	4058.38
944.636	4079.38
944.866	4131.38
945.096	4114.38
945.326	3983.38
945.556	4124.38
945.786	4102.38
946.016	4066.38
946.245	3994.38
946.475	3980.38
946.705	3929.38
946.935	3908.38
947.164	3990.38
947.394	3866.38
947.624	3899.38
947.853	3968.38
948.083	3858.38
948.312	3845.38
948.542	3847.38
948.771	3798.38
949	3794.38
949.23	3807.38
949.459	3795.38
949.688	3866.38
949.917	3828.38
950.146	3855.38
950.375	3873.38
950.604	3809.38
950.833	3841.38
951.062	3843.38
951.291	3775.38
951.52	3764.38
951.749	3802.38
951.978	3727.38
952.206	3723.38
952.435	3683.38
952.664	3729.38
952.892	3705.38
953.121	3745.38
953.349	3729.38
953.578	3701.38
953.806	3657.38
954.035	3609.38
954.263	3648.38
954.491	3639.38
954.719	3646.38
954.948	3618.38
955.176	3548.38
955.404	3484.38
955.632	3586.38
955.86	3565.38
956.088	3526.38
956.316	3559.38
956.544	3558.38
956.772	3471.38
956.999	3481.38
957.227	3538.38
957.455	3394.38
957.683	3429.38
957.91	3395.38
958.138	3403.38
958.365	3372.38
958.593	3363.38
958.82	3297.38
959.048	3408.38
959.275	3298.38
959.502	3324.38
959.73	3321.38
959.957	3345.38
960.184	3345.38
960.411	3313.38
960.638	3353.38
960.865	3368.38
961.092	3321.38
961.319	3231.38
961.546	3333.38
961.773	3352.38
962	3277.38
962.227	3332.38
962.454	3297.38
962.68	3228.38
962.907	3277.38
963.134	3232.38
963.36	3274.38
963.587	3228.38
963.813	3164.38
964.04	3198.38
964.266	3158.38
964.493	3207.38
964.719	3155.38
964.945	3161.38
965.171	3012.38
965.398	3095.38
965.624	3099.38
965.85	3056.38
966.076	3061.38
966.302	3087.38
966.528	3015.38
966.754	3077.38
966.98	3076.38
967.206	3052.38
967.431	2937.38
967.657	3066.38
967.883	2979.38
968.109	3048.38
968.334	2956.38
968.56	2921.38
968.785	2953.38
969.011	2909.38
969.236	2958.38
969.462	2944.38
969.687	2941.38
969.912	2949.38
970.138	2995.38
970.363	2882.38
970.588	2900.38
970.813	2892.38
971.038	2875.38
971.263	2901.38
971.488	2887.38
971.713	2951.38
971.938	2885.38
972.163	2762.38
972.388	2852.38
972.613	2793.38
972.838	2806.38
973.062	2804.38
973.287	2779.38
973.512	2714.38
973.736	2785.38
973.961	2727.38
974.185	2705.38
974.41	2763.38
974.634	2688.38
974.858	2679.38
975.083	2682.38
975.307	2699.38
975.531	2612.38
975.755	2601.38
975.98	2577.38
976.204	2524.38
976.428	2536.38
976.652	2546.38
976.876	2525.38
977.1	2550.38
977.324	2519.38
977.547	2569.38
977.771	2585.38
977.995	2536.38
978.219	2475.38
978.442	2577.38
978.666	2500.38
978.89	2529.38
979.113	2480.38
979.337	2512.38
979.56	2459.38
979.783	2551.38
980.007	2431.38
980.23	2471.38
980.453	2418.38
980.677	2454.38
980.9	2445.38
981.123	2342.38
981.346	2449.38
981.569	2421.38
981.792	2406.38
982.015	2392.38
982.238	2368.38
982.461	2366.38
982.684	2349.38
982.907	2332.38
983.129	2287.38
983.352	2317.38
983.575	2341.38
983.797	2339.38
984.02	2254.38
984.242	2280.38
984.465	2246.38
984.687	2284.38
984.91	2329.38
985.132	2255.38
985.354	2297.38
985.577	2271.38
985.799	2247.38
986.021	2161.38
986.243	2185.38
986.465	2202.38
986.687	2260.38
986.909	2291.38
987.131	2233.38
987.353	2167.38
987.575	2222.38
987.797	2133.38
988.019	2091.38
988.241	2208.38
988.462	2115.38
988.684	2191.38
988.906	2198.38
989.127	2233.38
989.349	2132.38
989.57	2153.38
989.792	2161.38
990.013	2183.38
990.234	2167.38
990.456	2229.38
990.677	2168.38
990.898	2115.38
991.119	2121.38
991.341	2165.38
991.562	2082.38
991.783	2092.38
992.004	2025.38
992.225	2042.38
992.446	2081.38
992.667	2000.38
992.887	2045.38
993.108	1944.38
993.329	2073.38
993.55	2052.38
993.77	1989.38
993.991	1967.38
994.212	2035.38
994.432	1955.38
994.653	1972.38
994.873	1987.38
995.093	1891.38
995.314	1926.38
995.534	1983.38
995.754	1989.38
995.975	2025.38
996.195	1902.38
996.415	1955.38
996.635	1925.38
996.855	1950.38
997.075	1902.38
997.295	1945.38
997.515	1867.38
997.735	1953.38
997.955	1914.38
998.174	1912.38
998.394	1906.38
998.614	1945.38
998.834	1891.38
999.053	1951.38
999.273	1903.38
999.492	1953.38
999.712	1885.38
999.931	1852.38
1000.151	1894.38
1000.37	1902.38
1000.589	1959.38
1000.809	1825.38
1001.028	1962.38
1001.247	1921.38
1001.466	1784.38
1001.685	1924.38
1001.904	1877.38
1002.123	1849.38
1002.342	1868.38
1002.561	1812.38
1002.78	1825.38
1002.999	1873.38
1003.218	1852.38
1003.436	1791.38
1003.655	1853.38
1003.874	1811.38
1004.092	1814.38
1004.311	1859.38
1004.53	1830.38
1004.748	1885.38
1004.966	1811.38
1005.185	1857.38
1005.403	1844.38
1005.622	1828.38
1005.84	1893.38
1006.058	1780.38
1006.276	1805.38
1006.494	2324.38
1006.712	1821.38
1006.931	1890.38
1007.149	1791.38
1007.367	1795.38
1007.584	1844.38
1007.802	1881.38
1008.02	1841.38
1008.238	1923.38
1008.456	1918.38
1008.673	1772.38
1008.891	1927.38
1009.109	1885.38
1009.326	1927.38
1009.544	1987.38
1009.761	1926.38
1009.979	2020.38
1010.196	2048.38
1010.413	2153.38
1010.631	2234.38
1010.848	2288.38
1011.065	2336.38
1011.282	2243.38
1011.5	2194.38
1011.717	2317.38
1011.934	2269.38
1012.151	2288.38
1012.368	2260.38
1012.585	2222.38
1012.801	2277.38
1013.018	2217.38
1013.235	2190.38
1013.452	2226.38
1013.669	2253.38
1013.885	2218.38
1014.102	2304.38
1014.318	2235.38
1014.535	2236.38
1014.751	2257.38
1014.968	2240.38
1015.184	2283.38
1015.401	2196.38
1015.617	2217.38
1015.833	2160.38
1016.049	2162.38
1016.266	2180.38
1016.482	2182.38
1016.698	2091.38
1016.914	2132.38
1017.13	2095.38
1017.346	2070.38
1017.562	2171.38
1017.778	2071.38
1017.993	2065.38
1018.209	2113.38
1018.425	2086.38
1018.641	2087.38
1018.856	2066.38
1019.072	2094.38
1019.288	2157.38
1019.503	2100.38
1019.719	1980.38
1019.934	2023.38
1020.149	2111.38
1020.365	2018.38
1020.58	1943.38
1020.795	1992.38
1021.011	1903.38
1021.226	1899.38
1021.441	1897.38
1021.656	1798.38
1021.871	1736.38
1022.086	1729.38
1022.301	1705.38
1022.516	1698.38
1022.731	1762.38
1022.946	1658.38
1023.16	1617.38
1023.375	1597.38
1023.59	1584.38
1023.804	1545.38
1024.019	1642.38
1024.234	1493.38
1024.448	1507.38
1024.663	1448.38
1024.877	1450.38
1025.092	1465.38
1025.306	1461.38
1025.52	1352.38
1025.734	1438.38
1025.949	1349.38
1026.163	1300.38
1026.377	1270.38
1026.591	1293.38
1026.805	1209.38
1027.019	1209.38
1027.233	1152.38
1027.447	1096.38
1027.661	1218.38
1027.875	1152.38
1028.088	1143.38
1028.302	1068.38
1028.516	1067.38
1028.73	1015.38
1028.943	1024.38
1029.157	946.38
1029.37	901.38
1029.584	-0.62
1029.797	-1.62
1030.011	-0.62
1030.224	-0.62
