Data from QEP037381__40__14-35-23-472.txt Node

Date: Wed Dec 21 14:35:23 EST 2022
User: dcclab
Spectrometer: QEP03738
Trigger mode: 4
Integration Time (sec): 1.000000E1
Scans to average: 1
Electric dark correction enabled: true
Nonlinearity correction enabled: false
Boxcar width: 0
XAxis mode: Wavelengths
Number of Pixels in Spectrum: 1044
>>>>>Begin Spectral Data<<<<<
784.041	12.12
784.3	-0.88
784.558	-1.88
784.817	-4.88
785.075	63400.12
785.334	12669.12
785.592	6581.12
785.851	4695.12
786.109	3561.12
786.368	2820.12
786.626	2256.12
786.884	1868.12
787.143	1586.12
787.401	1312.12
787.659	1203.12
787.917	1057.12
788.175	933.12
788.433	849.12
788.691	748.12
788.949	708.12
789.207	672.12
789.465	584.12
789.723	572.12
789.98	520.12
790.238	560.12
790.496	535.12
790.753	507.12
791.011	552.12
791.268	484.12
791.526	464.12
791.783	486.12
792.041	487.12
792.298	411.12
792.556	461.12
792.813	443.12
793.07	427.12
793.327	414.12
793.584	500.12
793.841	423.12
794.099	438.12
794.356	495.12
794.613	392.12
794.869	441.12
795.126	389.12
795.383	384.12
795.64	401.12
795.897	353.12
796.153	416.12
796.41	395.12
796.667	382.12
796.923	389.12
797.18	387.12
797.436	414.12
797.693	367.12
797.949	426.12
798.206	467.12
798.462	385.12
798.718	417.12
798.974	398.12
799.231	441.12
799.487	424.12
799.743	422.12
799.999	458.12
800.255	445.12
800.511	434.12
800.767	458.12
801.023	442.12
801.279	464.12
801.534	493.12
801.79	512.12
802.046	509.12
802.302	600.12
802.557	635.12
802.813	741.12
803.068	848.12
803.324	1139.12
803.579	1475.12
803.835	1987.12
804.09	2666.12
804.345	3446.12
804.601	4363.12
804.856	5291.12
805.111	6148.12
805.366	6723.12
805.621	7179.12
805.876	7493.12
806.131	7730.12
806.386	7841.12
806.641	7893.12
806.896	8103.12
807.151	8304.12
807.406	8396.12
807.661	8547.12
807.915	8718.12
808.17	8924.12
808.425	8926.12
808.679	9014.12
808.934	9195.12
809.188	9244.12
809.443	9460.12
809.697	9529.12
809.951	9611.12
810.206	9693.12
810.46	9775.12
810.714	9875.12
810.968	10016.12
811.223	9991.12
811.477	10124.12
811.731	10248.12
811.985	10263.12
812.239	10355.12
812.493	10344.12
812.747	10500.12
813	10433.12
813.254	10547.12
813.508	10631.12
813.762	10658.12
814.015	10688.12
814.269	10778.12
814.522	10877.12
814.776	11042.12
815.03	11218.12
815.283	11265.12
815.536	11537.12
815.79	11740.12
816.043	11891.12
816.296	12061.12
816.55	12129.12
816.803	12361.12
817.056	12544.12
817.309	12677.12
817.562	12772.12
817.815	13019.12
818.068	13022.12
818.321	13238.12
818.574	13285.12
818.827	13573.12
819.079	13758.12
819.332	14131.12
819.585	14168.12
819.838	14458.12
820.09	14398.12
820.343	14581.12
820.595	14556.12
820.848	14775.12
821.1	14744.12
821.353	14720.12
821.605	14735.12
821.857	14713.12
822.11	14686.12
822.362	14688.12
822.614	14578.12
822.866	14693.12
823.118	14650.12
823.37	14768.12
823.622	14795.12
823.874	14802.12
824.126	14861.12
824.378	14953.12
824.63	15013.12
824.882	15050.12
825.134	14991.12
825.385	14983.12
825.637	14887.12
825.888	14836.12
826.14	14907.12
826.392	14789.12
826.643	14740.12
826.895	14658.12
827.146	14674.12
827.397	14687.12
827.649	14610.12
827.9	14540.12
828.151	14644.12
828.402	14584.12
828.653	14729.12
828.905	14722.12
829.156	14832.12
829.407	14824.12
829.658	14836.12
829.909	14868.12
830.159	14788.12
830.41	14801.12
830.661	14665.12
830.912	14592.12
831.162	14633.12
831.413	14567.12
831.664	14551.12
831.914	14546.12
832.165	14588.12
832.415	14519.12
832.666	14613.12
832.916	14659.12
833.167	14544.12
833.417	14585.12
833.667	14587.12
833.917	14543.12
834.168	14528.12
834.418	14434.12
834.668	14431.12
834.918	14344.12
835.168	14341.12
835.418	14133.12
835.668	14197.12
835.918	14183.12
836.167	14212.12
836.417	14050.12
836.667	14201.12
836.917	14132.12
837.166	14032.12
837.416	14124.12
837.666	14183.12
837.915	14133.12
838.165	14024.12
838.414	14054.12
838.663	13983.12
838.913	13994.12
839.162	13918.12
839.411	13959.12
839.661	13996.12
839.91	13935.12
840.159	13922.12
840.408	13963.12
840.657	14005.12
840.906	13970.12
841.155	14028.12
841.404	13957.12
841.653	13942.12
841.902	13961.12
842.15	13997.12
842.399	14118.12
842.648	14112.12
842.897	14020.12
843.145	13788.12
843.394	13823.12
843.642	13694.12
843.891	13726.12
844.139	13584.12
844.388	13420.12
844.636	13420.12
844.884	13398.12
845.133	13408.12
845.381	13406.12
845.629	13435.12
845.877	13379.12
846.125	13360.12
846.373	13334.12
846.621	13327.12
846.869	13322.12
847.117	13235.12
847.365	13233.12
847.613	13157.12
847.861	13109.12
848.108	13116.12
848.356	13077.12
848.604	13023.12
848.851	13070.12
849.099	13209.12
849.346	13241.12
849.594	13306.12
849.841	13469.12
850.089	13561.12
850.336	13710.12
850.583	13777.12
850.831	13739.12
851.078	13730.12
851.325	13663.12
851.572	13673.12
851.819	13348.12
852.066	13046.12
852.313	12813.12
852.56	12612.12
852.807	12591.12
853.054	12572.12
853.301	12560.12
853.548	12617.12
853.794	12783.12
854.041	12850.12
854.288	12823.12
854.534	12946.12
854.781	12952.12
855.028	12849.12
855.274	12950.12
855.52	12835.12
855.767	12708.12
856.013	12807.12
856.26	13030.12
856.506	12577.12
856.752	12707.12
856.998	12665.12
857.244	12619.12
857.49	12726.12
857.736	12747.12
857.982	12809.12
858.228	12722.12
858.474	12604.12
858.72	12507.12
858.966	12429.12
859.212	12324.12
859.458	12207.12
859.703	12020.12
859.949	11906.12
860.195	11826.12
860.44	11791.12
860.686	11742.12
860.931	11815.12
861.177	11649.12
861.422	11706.12
861.667	11529.12
861.913	11547.12
862.158	11666.12
862.403	11610.12
862.648	11787.12
862.893	11734.12
863.138	11721.12
863.384	11779.12
863.629	11742.12
863.873	11782.12
864.118	11702.12
864.363	11549.12
864.608	11651.12
864.853	11608.12
865.098	11512.12
865.342	11568.12
865.587	11391.12
865.832	11483.12
866.076	11531.12
866.321	11312.12
866.565	11420.12
866.81	11278.12
867.054	11297.12
867.298	11308.12
867.543	11132.12
867.787	11248.12
868.031	11261.12
868.275	11267.12
868.519	11217.12
868.764	11252.12
869.008	11297.12
869.252	11242.12
869.496	11199.12
869.739	11216.12
869.983	11259.12
870.227	11225.12
870.471	11172.12
870.715	11248.12
870.958	11313.12
871.202	11293.12
871.446	11393.12
871.689	11311.12
871.933	11315.12
872.176	11441.12
872.42	11285.12
872.663	11280.12
872.906	11318.12
873.15	11240.12
873.393	11145.12
873.636	11183.12
873.879	11126.12
874.122	10939.12
874.366	10881.12
874.609	10872.12
874.852	10581.12
875.095	10641.12
875.337	10649.12
875.58	10540.12
875.823	10510.12
876.066	10552.12
876.309	10491.12
876.551	10432.12
876.794	10334.12
877.037	10383.12
877.279	10311.12
877.522	10414.12
877.764	10404.12
878.007	10322.12
878.249	10323.12
878.491	10343.12
878.734	10300.12
878.976	10321.12
879.218	10216.12
879.46	10185.12
879.702	10091.12
879.945	10044.12
880.187	9957.12
880.429	9937.12
880.671	9852.12
880.912	9844.12
881.154	9801.12
881.396	9806.12
881.638	9865.12
881.88	9812.12
882.121	9807.12
882.363	9776.12
882.605	9768.12
882.846	9751.12
883.088	9736.12
883.329	9767.12
883.571	9824.12
883.812	9865.12
884.053	10075.12
884.295	10310.12
884.536	10381.12
884.777	10328.12
885.018	10305.12
885.259	10251.12
885.5	10142.12
885.742	10408.12
885.982	10146.12
886.223	10012.12
886.464	10015.12
886.705	9869.12
886.946	9888.12
887.187	9602.12
887.428	9564.12
887.668	9364.12
887.909	9248.12
888.15	9171.12
888.39	9159.12
888.631	9175.12
888.871	9056.12
889.111	8969.12
889.352	8951.12
889.592	8856.12
889.833	8739.12
890.073	8723.12
890.313	8710.12
890.553	8593.12
890.793	8560.12
891.033	8530.12
891.273	8536.12
891.513	8500.12
891.753	8472.12
891.993	8469.12
892.233	8559.12
892.473	8617.12
892.713	8557.12
892.952	8517.12
893.192	8630.12
893.432	8575.12
893.671	8636.12
893.911	8551.12
894.15	8525.12
894.39	8396.12
894.629	8432.12
894.869	8420.12
895.108	8465.12
895.347	8317.12
895.587	8341.12
895.826	8281.12
896.065	8391.12
896.304	8396.12
896.543	8429.12
896.782	8323.12
897.021	8390.12
897.26	8385.12
897.499	8413.12
897.738	8453.12
897.977	8345.12
898.216	8223.12
898.454	8252.12
898.693	8168.12
898.932	8233.12
899.17	8161.12
899.409	8202.12
899.647	8144.12
899.886	8180.12
900.124	8193.12
900.363	8216.12
900.601	8291.12
900.839	8268.12
901.078	8358.12
901.316	8399.12
901.554	8430.12
901.792	8514.12
902.03	8498.12
902.268	8452.12
902.506	8478.12
902.744	8361.12
902.982	8266.12
903.22	8115.12
903.458	7938.12
903.695	7917.12
903.933	7773.12
904.171	7526.12
904.409	7542.12
904.646	7389.12
904.884	7209.12
905.121	7206.12
905.359	7152.12
905.596	7042.12
905.833	6944.12
906.071	6900.12
906.308	6927.12
906.545	6818.12
906.783	6809.12
907.02	6778.12
907.257	6797.12
907.494	6768.12
907.731	6748.12
907.968	6716.12
908.205	6592.12
908.442	6648.12
908.679	6564.12
908.915	6507.12
909.152	6516.12
909.389	6376.12
909.626	6311.12
909.862	6271.12
910.099	6325.12
910.335	6292.12
910.572	6185.12
910.808	6236.12
911.045	6147.12
911.281	6182.12
911.518	6192.12
911.754	6079.12
911.99	6075.12
912.226	6009.12
912.463	5985.12
912.699	5872.12
912.935	5893.12
913.171	5894.12
913.407	5769.12
913.643	5847.12
913.879	5832.12
914.114	5726.12
914.35	5659.12
914.586	5564.12
914.822	5575.12
915.057	5579.12
915.293	5428.12
915.529	5477.12
915.764	5534.12
916	5475.12
916.235	5493.12
916.471	5503.12
916.706	5395.12
916.941	5397.12
917.177	5428.12
917.412	5419.12
917.647	5447.12
917.882	5322.12
918.117	5408.12
918.352	5395.12
918.588	5412.12
918.823	5342.12
919.057	5297.12
919.292	5197.12
919.527	5252.12
919.762	5148.12
919.997	5152.12
920.232	5086.12
920.466	5040.12
920.701	4879.12
920.935	5008.12
921.17	4940.12
921.405	4863.12
921.639	4940.12
921.873	4900.12
922.108	4855.12
922.342	4830.12
922.576	4795.12
922.811	4823.12
923.045	4857.12
923.279	4851.12
923.513	4702.12
923.747	4818.12
923.981	4701.12
924.215	4679.12
924.449	4681.12
924.683	4649.12
924.917	4623.12
925.151	4630.12
925.385	4682.12
925.618	4605.12
925.852	4579.12
926.086	4509.12
926.319	4594.12
926.553	4577.12
926.786	4593.12
927.02	4517.12
927.253	4650.12
927.486	4641.12
927.72	4521.12
927.953	4625.12
928.186	4534.12
928.42	4512.12
928.653	4494.12
928.886	4485.12
929.119	4478.12
929.352	4490.12
929.585	4473.12
929.818	4361.12
930.051	4416.12
930.284	4373.12
930.516	4302.12
930.749	4250.12
930.982	4313.12
931.215	4307.12
931.447	4217.12
931.68	4242.12
931.912	4195.12
932.145	4198.12
932.377	4278.12
932.61	4339.12
932.842	4144.12
933.074	4249.12
933.307	4179.12
933.539	4353.12
933.771	4294.12
934.003	4184.12
934.236	4308.12
934.468	4291.12
934.7	4270.12
934.932	4236.12
935.164	4195.12
935.395	4193.12
935.627	4211.12
935.859	4224.12
936.091	4159.12
936.323	4215.12
936.554	4193.12
936.786	4170.12
937.017	4077.12
937.249	4077.12
937.481	4101.12
937.712	4117.12
937.943	4058.12
938.175	4070.12
938.406	4041.12
938.637	4120.12
938.869	4038.12
939.1	4167.12
939.331	4047.12
939.562	4059.12
939.793	4059.12
940.024	4067.12
940.255	4048.12
940.486	3987.12
940.717	4020.12
940.948	3984.12
941.179	3946.12
941.409	3935.12
941.64	3942.12
941.871	3957.12
942.102	3939.12
942.332	3951.12
942.563	3986.12
942.793	3990.12
943.024	3903.12
943.254	3943.12
943.484	4000.12
943.715	3995.12
943.945	3930.12
944.175	3885.12
944.405	3887.12
944.636	3860.12
944.866	3917.12
945.096	3923.12
945.326	3879.12
945.556	3897.12
945.786	3885.12
946.016	3843.12
946.245	3785.12
946.475	3816.12
946.705	3763.12
946.935	3793.12
947.164	3765.12
947.394	3719.12
947.624	3716.12
947.853	3720.12
948.083	3767.12
948.312	3657.12
948.542	3609.12
948.771	3602.12
949	3620.12
949.23	3647.12
949.459	3675.12
949.688	3686.12
949.917	3599.12
950.146	3628.12
950.375	3645.12
950.604	3587.12
950.833	3684.12
951.062	3670.12
951.291	3581.12
951.52	3553.12
951.749	3582.12
951.978	3523.12
952.206	3529.12
952.435	3536.12
952.664	3592.12
952.892	3523.12
953.121	3531.12
953.349	3554.12
953.578	3527.12
953.806	3502.12
954.035	3425.12
954.263	3460.12
954.491	3422.12
954.719	3434.12
954.948	3389.12
955.176	3379.12
955.404	3304.12
955.632	3390.12
955.86	3371.12
956.088	3392.12
956.316	3374.12
956.544	3383.12
956.772	3327.12
956.999	3285.12
957.227	3386.12
957.455	3249.12
957.683	3249.12
957.91	3231.12
958.138	3229.12
958.365	3225.12
958.593	3152.12
958.82	3154.12
959.048	3212.12
959.275	3162.12
959.502	3134.12
959.73	3172.12
959.957	3166.12
960.184	3209.12
960.411	3106.12
960.638	3207.12
960.865	3137.12
961.092	3198.12
961.319	3068.12
961.546	3185.12
961.773	3123.12
962	3112.12
962.227	3157.12
962.454	3125.12
962.68	3083.12
962.907	3069.12
963.134	3056.12
963.36	3032.12
963.587	3061.12
963.813	3000.12
964.04	3019.12
964.266	2982.12
964.493	3043.12
964.719	3026.12
964.945	2968.12
965.171	2899.12
965.398	2951.12
965.624	2968.12
965.85	2898.12
966.076	2874.12
966.302	2884.12
966.528	2897.12
966.754	2905.12
966.98	2871.12
967.206	2880.12
967.431	2812.12
967.657	2896.12
967.883	2864.12
968.109	2823.12
968.334	2790.12
968.56	2756.12
968.785	2815.12
969.011	2729.12
969.236	2819.12
969.462	2790.12
969.687	2787.12
969.912	2837.12
970.138	2830.12
970.363	2717.12
970.588	2729.12
970.813	2725.12
971.038	2668.12
971.263	2753.12
971.488	2719.12
971.713	2777.12
971.938	2733.12
972.163	2620.12
972.388	2638.12
972.613	2668.12
972.838	2673.12
973.062	2633.12
973.287	2640.12
973.512	2556.12
973.736	2642.12
973.961	2586.12
974.185	2596.12
974.41	2584.12
974.634	2501.12
974.858	2540.12
975.083	2554.12
975.307	2572.12
975.531	2503.12
975.755	2470.12
975.98	2461.12
976.204	2399.12
976.428	2412.12
976.652	2405.12
976.876	2391.12
977.1	2420.12
977.324	2338.12
977.547	2414.12
977.771	2395.12
977.995	2368.12
978.219	2356.12
978.442	2413.12
978.666	2392.12
978.89	2352.12
979.113	2368.12
979.337	2343.12
979.56	2344.12
979.783	2428.12
980.007	2305.12
980.23	2315.12
980.453	2295.12
980.677	2320.12
980.9	2307.12
981.123	2263.12
981.346	2323.12
981.569	2285.12
981.792	2292.12
982.015	2250.12
982.238	2234.12
982.461	2239.12
982.684	2188.12
982.907	2178.12
983.129	2200.12
983.352	2217.12
983.575	2187.12
983.797	2222.12
984.02	2158.12
984.242	2145.12
984.465	2123.12
984.687	2180.12
984.91	2221.12
985.132	2163.12
985.354	2190.12
985.577	2147.12
985.799	2130.12
986.021	2068.12
986.243	2090.12
986.465	2128.12
986.687	2125.12
986.909	2194.12
987.131	2092.12
987.353	2081.12
987.575	2119.12
987.797	2068.12
988.019	2022.12
988.241	2052.12
988.462	2051.12
988.684	2095.12
988.906	2119.12
989.127	2139.12
989.349	2016.12
989.57	2054.12
989.792	2072.12
990.013	2058.12
990.234	2090.12
990.456	2115.12
990.677	2069.12
990.898	2039.12
991.119	2038.12
991.341	2051.12
991.562	1970.12
991.783	2004.12
992.004	1927.12
992.225	1921.12
992.446	1974.12
992.667	1881.12
992.887	1988.12
993.108	1863.12
993.329	1952.12
993.55	1923.12
993.77	1887.12
993.991	1865.12
994.212	1920.12
994.432	1903.12
994.653	1898.12
994.873	1873.12
995.093	1785.12
995.314	1847.12
995.534	1884.12
995.754	1899.12
995.975	1930.12
996.195	1827.12
996.415	1880.12
996.635	1846.12
996.855	1891.12
997.075	1843.12
997.295	1861.12
997.515	1814.12
997.735	1836.12
997.955	1882.12
998.174	1833.12
998.394	1820.12
998.614	1847.12
998.834	1782.12
999.053	1867.12
999.273	1828.12
999.492	1869.12
999.712	1809.12
999.931	1810.12
1000.151	1829.12
1000.37	1780.12
1000.589	1884.12
1000.809	1782.12
1001.028	1852.12
1001.247	1827.12
1001.466	1697.12
1001.685	1869.12
1001.904	1782.12
1002.123	1748.12
1002.342	1770.12
1002.561	1706.12
1002.78	1750.12
1002.999	1808.12
1003.218	1784.12
1003.436	1726.12
1003.655	1781.12
1003.874	1734.12
1004.092	1711.12
1004.311	1797.12
1004.53	1706.12
1004.748	1816.12
1004.966	1741.12
1005.185	1798.12
1005.403	1791.12
1005.622	1748.12
1005.84	1820.12
1006.058	1728.12
1006.276	1784.12
1006.494	2274.12
1006.712	1757.12
1006.931	1814.12
1007.149	1749.12
1007.367	1736.12
1007.584	1764.12
1007.802	1826.12
1008.02	1771.12
1008.238	1872.12
1008.456	1920.12
1008.673	1781.12
1008.891	1909.12
1009.109	1843.12
1009.326	1891.12
1009.544	2028.12
1009.761	1934.12
1009.979	2062.12
1010.196	2090.12
1010.413	2248.12
1010.631	2305.12
1010.848	2368.12
1011.065	2361.12
1011.282	2326.12
1011.5	2257.12
1011.717	2374.12
1011.934	2325.12
1012.151	2355.12
1012.368	2325.12
1012.585	2285.12
1012.801	2337.12
1013.018	2339.12
1013.235	2294.12
1013.452	2331.12
1013.669	2345.12
1013.885	2323.12
1014.102	2392.12
1014.318	2385.12
1014.535	2306.12
1014.751	2311.12
1014.968	2332.12
1015.184	2368.12
1015.401	2249.12
1015.617	2320.12
1015.833	2256.12
1016.049	2279.12
1016.266	2234.12
1016.482	2225.12
1016.698	2162.12
1016.914	2208.12
1017.13	2172.12
1017.346	2156.12
1017.562	2222.12
1017.778	2147.12
1017.993	2126.12
1018.209	2197.12
1018.425	2185.12
1018.641	2117.12
1018.856	2101.12
1019.072	2184.12
1019.288	2225.12
1019.503	2159.12
1019.719	2079.12
1019.934	2086.12
1020.149	2155.12
1020.365	2098.12
1020.58	2004.12
1020.795	2040.12
1021.011	1961.12
1021.226	1921.12
1021.441	1934.12
1021.656	1855.12
1021.871	1781.12
1022.086	1767.12
1022.301	1737.12
1022.516	1724.12
1022.731	1721.12
1022.946	1660.12
1023.16	1663.12
1023.375	1585.12
1023.59	1588.12
1023.804	1569.12
1024.019	1620.12
1024.234	1481.12
1024.448	1509.12
1024.663	1421.12
1024.877	1472.12
1025.092	1459.12
1025.306	1425.12
1025.52	1324.12
1025.734	1428.12
1025.949	1329.12
1026.163	1278.12
1026.377	1229.12
1026.591	1260.12
1026.805	1199.12
1027.019	1175.12
1027.233	1138.12
1027.447	1080.12
1027.661	1190.12
1027.875	1100.12
1028.088	1094.12
1028.302	1032.12
1028.516	1027.12
1028.73	1007.12
1028.943	997.12
1029.157	927.12
1029.37	861.12
1029.584	1.12
1029.797	-0.88
1030.011	-4.88
1030.224	0.12
