Data from QEP037381__45__14-36-13-471.txt Node

Date: Wed Dec 21 14:36:13 EST 2022
User: dcclab
Spectrometer: QEP03738
Trigger mode: 4
Integration Time (sec): 1.000000E1
Scans to average: 1
Electric dark correction enabled: true
Nonlinearity correction enabled: false
Boxcar width: 0
XAxis mode: Wavelengths
Number of Pixels in Spectrum: 1044
>>>>>Begin Spectral Data<<<<<
784.041	13.5
784.3	0.5
784.558	-0.5
784.817	-6.5
785.075	86160.5
785.334	15492.5
785.592	7428.5
785.851	5070.5
786.109	3873.5
786.368	3011.5
786.626	2428.5
786.884	2064.5
787.143	1706.5
787.401	1420.5
787.659	1272.5
787.917	1102.5
788.175	983.5
788.433	874.5
788.691	804.5
788.949	742.5
789.207	709.5
789.465	613.5
789.723	573.5
789.98	558.5
790.238	582.5
790.496	535.5
790.753	529.5
791.011	581.5
791.268	506.5
791.526	486.5
791.783	509.5
792.041	495.5
792.298	416.5
792.556	464.5
792.813	469.5
793.07	424.5
793.327	416.5
793.584	508.5
793.841	415.5
794.099	442.5
794.356	484.5
794.613	404.5
794.869	436.5
795.126	400.5
795.383	379.5
795.64	411.5
795.897	360.5
796.153	429.5
796.41	404.5
796.667	383.5
796.923	391.5
797.18	387.5
797.436	425.5
797.693	383.5
797.949	426.5
798.206	462.5
798.462	370.5
798.718	413.5
798.974	392.5
799.231	439.5
799.487	438.5
799.743	426.5
799.999	446.5
800.255	441.5
800.511	433.5
800.767	455.5
801.023	443.5
801.279	461.5
801.534	481.5
801.79	504.5
802.046	505.5
802.302	610.5
802.557	631.5
802.813	749.5
803.068	839.5
803.324	1103.5
803.579	1429.5
803.835	1926.5
804.09	2572.5
804.345	3325.5
804.601	4185.5
804.856	5074.5
805.111	5864.5
805.366	6447.5
805.621	6845.5
805.876	7117.5
806.131	7316.5
806.386	7461.5
806.641	7557.5
806.896	7659.5
807.151	7911.5
807.406	7967.5
807.661	8128.5
807.915	8288.5
808.17	8434.5
808.425	8598.5
808.679	8616.5
808.934	8824.5
809.188	8773.5
809.443	8923.5
809.697	9143.5
809.951	9089.5
810.206	9174.5
810.46	9351.5
810.714	9417.5
810.968	9485.5
811.223	9537.5
811.477	9686.5
811.731	9770.5
811.985	9800.5
812.239	9868.5
812.493	9867.5
812.747	9920.5
813	9879.5
813.254	10037.5
813.508	10059.5
813.762	10129.5
814.015	10176.5
814.269	10215.5
814.522	10383.5
814.776	10425.5
815.03	10633.5
815.283	10736.5
815.536	11066.5
815.79	11158.5
816.043	11289.5
816.296	11446.5
816.55	11615.5
816.803	11728.5
817.056	11892.5
817.309	12009.5
817.562	12117.5
817.815	12332.5
818.068	12395.5
818.321	12529.5
818.574	12694.5
818.827	12964.5
819.079	13046.5
819.332	13432.5
819.585	13496.5
819.838	13686.5
820.09	13782.5
820.343	13867.5
820.595	13942.5
820.848	14001.5
821.1	14039.5
821.353	14053.5
821.605	13993.5
821.857	14129.5
822.11	13897.5
822.362	13875.5
822.614	13865.5
822.866	14016.5
823.118	13918.5
823.37	14008.5
823.622	14000.5
823.874	14093.5
824.126	14221.5
824.378	14130.5
824.63	14249.5
824.882	14367.5
825.134	14270.5
825.385	14247.5
825.637	14275.5
825.888	14183.5
826.14	14138.5
826.392	14111.5
826.643	13978.5
826.895	13999.5
827.146	13895.5
827.397	13846.5
827.649	14030.5
827.9	13903.5
828.151	13940.5
828.402	13906.5
828.653	13949.5
828.905	14048.5
829.156	14129.5
829.407	14069.5
829.658	14036.5
829.909	14137.5
830.159	14154.5
830.41	14052.5
830.661	13930.5
830.912	13945.5
831.162	13938.5
831.413	13869.5
831.664	13977.5
831.914	13914.5
832.165	13886.5
832.415	13915.5
832.666	13880.5
832.916	13927.5
833.167	13857.5
833.417	13921.5
833.667	13930.5
833.917	13791.5
834.168	13811.5
834.418	13792.5
834.668	13759.5
834.918	13707.5
835.168	13578.5
835.418	13614.5
835.668	13562.5
835.918	13572.5
836.167	13547.5
836.417	13525.5
836.667	13421.5
836.917	13518.5
837.166	13463.5
837.416	13469.5
837.666	13474.5
837.915	13518.5
838.165	13466.5
838.414	13419.5
838.663	13336.5
838.913	13473.5
839.162	13359.5
839.411	13398.5
839.661	13278.5
839.91	13372.5
840.159	13391.5
840.408	13358.5
840.657	13346.5
840.906	13356.5
841.155	13401.5
841.404	13306.5
841.653	13395.5
841.902	13381.5
842.15	13528.5
842.399	13548.5
842.648	13492.5
842.897	13439.5
843.145	13321.5
843.394	13236.5
843.642	13094.5
843.891	13088.5
844.139	13028.5
844.388	12996.5
844.636	12762.5
844.884	12846.5
845.133	12847.5
845.381	12839.5
845.629	12953.5
845.877	12776.5
846.125	12825.5
846.373	12932.5
846.621	12855.5
846.869	12822.5
847.117	12692.5
847.365	12703.5
847.613	12668.5
847.861	12575.5
848.108	12548.5
848.356	12537.5
848.604	12577.5
848.851	12606.5
849.099	12638.5
849.346	12767.5
849.594	12785.5
849.841	12921.5
850.089	13005.5
850.336	13117.5
850.583	13078.5
850.831	13201.5
851.078	13096.5
851.325	13119.5
851.572	13268.5
851.819	13044.5
852.066	12573.5
852.313	12294.5
852.56	12197.5
852.807	12069.5
853.054	12063.5
853.301	12137.5
853.548	12187.5
853.794	12403.5
854.041	12346.5
854.288	12349.5
854.534	12538.5
854.781	12530.5
855.028	12426.5
855.274	12439.5
855.52	12287.5
855.767	12298.5
856.013	12425.5
856.26	12672.5
856.506	12265.5
856.752	12185.5
856.998	12211.5
857.244	12247.5
857.49	12341.5
857.736	12301.5
857.982	12322.5
858.228	12324.5
858.474	12180.5
858.72	12151.5
858.966	11963.5
859.212	11869.5
859.458	11710.5
859.703	11568.5
859.949	11526.5
860.195	11366.5
860.44	11435.5
860.686	11353.5
860.931	11468.5
861.177	11267.5
861.422	11199.5
861.667	11158.5
861.913	11172.5
862.158	11102.5
862.403	11222.5
862.648	11261.5
862.893	11353.5
863.138	11259.5
863.384	11275.5
863.629	11283.5
863.873	11240.5
864.118	11228.5
864.363	11189.5
864.608	11211.5
864.853	11151.5
865.098	11051.5
865.342	11056.5
865.587	11031.5
865.832	11003.5
866.076	11100.5
866.321	10969.5
866.565	11043.5
866.81	10868.5
867.054	10884.5
867.298	10862.5
867.543	10846.5
867.787	10862.5
868.031	10868.5
868.275	10801.5
868.519	10798.5
868.764	10835.5
869.008	10771.5
869.252	10894.5
869.496	10771.5
869.739	10769.5
869.983	10908.5
870.227	10958.5
870.471	10893.5
870.715	10946.5
870.958	11027.5
871.202	11005.5
871.446	11038.5
871.689	11036.5
871.933	11006.5
872.176	10984.5
872.42	11046.5
872.663	10940.5
872.906	11031.5
873.15	10912.5
873.393	10914.5
873.636	10944.5
873.879	10832.5
874.122	10696.5
874.366	10590.5
874.609	10574.5
874.852	10410.5
875.095	10403.5
875.337	10205.5
875.58	10155.5
875.823	10256.5
876.066	10259.5
876.309	10254.5
876.551	10049.5
876.794	10064.5
877.037	10085.5
877.279	9973.5
877.522	10088.5
877.764	10077.5
878.007	9949.5
878.249	9925.5
878.491	9890.5
878.734	9930.5
878.976	9888.5
879.218	9808.5
879.46	9849.5
879.702	9811.5
879.945	9670.5
880.187	9598.5
880.429	9575.5
880.671	9422.5
880.912	9493.5
881.154	9429.5
881.396	9338.5
881.638	9438.5
881.88	9474.5
882.121	9440.5
882.363	9360.5
882.605	9441.5
882.846	9414.5
883.088	9436.5
883.329	9423.5
883.571	9469.5
883.812	9659.5
884.053	9853.5
884.295	10070.5
884.536	10384.5
884.777	10278.5
885.018	10252.5
885.259	10211.5
885.5	10084.5
885.742	10312.5
885.982	10004.5
886.223	9874.5
886.464	9870.5
886.705	9643.5
886.946	9583.5
887.187	9354.5
887.428	9279.5
887.668	9035.5
887.909	8923.5
888.15	8795.5
888.39	8809.5
888.631	8722.5
888.871	8628.5
889.111	8584.5
889.352	8499.5
889.592	8410.5
889.833	8382.5
890.073	8358.5
890.313	8324.5
890.553	8196.5
890.793	8247.5
891.033	8172.5
891.273	8087.5
891.513	8128.5
891.753	8128.5
891.993	8119.5
892.233	8154.5
892.473	8203.5
892.713	8216.5
892.952	8183.5
893.192	8235.5
893.432	8151.5
893.671	8277.5
893.911	8154.5
894.15	8135.5
894.39	8080.5
894.629	8019.5
894.869	7982.5
895.108	7992.5
895.347	7953.5
895.587	7997.5
895.826	7959.5
896.065	7926.5
896.304	7942.5
896.543	7988.5
896.782	7842.5
897.021	7918.5
897.26	8006.5
897.499	8024.5
897.738	8117.5
897.977	7933.5
898.216	7909.5
898.454	7875.5
898.693	7828.5
898.932	7878.5
899.17	7790.5
899.409	7788.5
899.647	7749.5
899.886	7760.5
900.124	7774.5
900.363	7846.5
900.601	7898.5
900.839	7918.5
901.078	7945.5
901.316	8025.5
901.554	8119.5
901.792	8143.5
902.03	8224.5
902.268	8205.5
902.506	8177.5
902.744	8059.5
902.982	8010.5
903.22	7808.5
903.458	7683.5
903.695	7532.5
903.933	7428.5
904.171	7258.5
904.409	7206.5
904.646	7117.5
904.884	6949.5
905.121	6850.5
905.359	6781.5
905.596	6684.5
905.833	6588.5
906.071	6606.5
906.308	6588.5
906.545	6521.5
906.783	6417.5
907.02	6484.5
907.257	6370.5
907.494	6410.5
907.731	6420.5
907.968	6438.5
908.205	6322.5
908.442	6279.5
908.679	6251.5
908.915	6230.5
909.152	6173.5
909.389	6029.5
909.626	6057.5
909.862	6015.5
910.099	6031.5
910.335	6032.5
910.572	5966.5
910.808	5922.5
911.045	5905.5
911.281	5836.5
911.518	5935.5
911.754	5845.5
911.99	5869.5
912.226	5738.5
912.463	5718.5
912.699	5668.5
912.935	5662.5
913.171	5610.5
913.407	5502.5
913.643	5533.5
913.879	5498.5
914.114	5406.5
914.35	5415.5
914.586	5354.5
914.822	5273.5
915.057	5380.5
915.293	5186.5
915.529	5168.5
915.764	5251.5
916	5184.5
916.235	5226.5
916.471	5218.5
916.706	5113.5
916.941	5134.5
917.177	5156.5
917.412	5137.5
917.647	5137.5
917.882	5155.5
918.117	5158.5
918.352	5127.5
918.588	5133.5
918.823	5090.5
919.057	5083.5
919.292	4913.5
919.527	5018.5
919.762	4918.5
919.997	4916.5
920.232	4795.5
920.466	4875.5
920.701	4728.5
920.935	4741.5
921.17	4685.5
921.405	4648.5
921.639	4679.5
921.873	4658.5
922.108	4624.5
922.342	4641.5
922.576	4602.5
922.811	4600.5
923.045	4614.5
923.279	4620.5
923.513	4496.5
923.747	4577.5
923.981	4564.5
924.215	4505.5
924.449	4459.5
924.683	4355.5
924.917	4403.5
925.151	4409.5
925.385	4440.5
925.618	4380.5
925.852	4421.5
926.086	4307.5
926.319	4368.5
926.553	4368.5
926.786	4426.5
927.02	4340.5
927.253	4412.5
927.486	4363.5
927.72	4316.5
927.953	4312.5
928.186	4297.5
928.42	4331.5
928.653	4259.5
928.886	4287.5
929.119	4289.5
929.352	4253.5
929.585	4220.5
929.818	4181.5
930.051	4172.5
930.284	4185.5
930.516	4080.5
930.749	4092.5
930.982	4135.5
931.215	4124.5
931.447	4014.5
931.68	4017.5
931.912	4018.5
932.145	4041.5
932.377	4045.5
932.61	4176.5
932.842	3959.5
933.074	4047.5
933.307	4022.5
933.539	4073.5
933.771	4092.5
934.003	3993.5
934.236	4098.5
934.468	4088.5
934.7	4024.5
934.932	4082.5
935.164	3970.5
935.395	3967.5
935.627	4007.5
935.859	3976.5
936.091	3887.5
936.323	3958.5
936.554	4004.5
936.786	3919.5
937.017	3844.5
937.249	3949.5
937.481	3861.5
937.712	3955.5
937.943	3889.5
938.175	3900.5
938.406	3855.5
938.637	3919.5
938.869	3814.5
939.1	3887.5
939.331	3844.5
939.562	3856.5
939.793	3863.5
940.024	3874.5
940.255	3827.5
940.486	3816.5
940.717	3821.5
940.948	3790.5
941.179	3738.5
941.409	3705.5
941.64	3774.5
941.871	3747.5
942.102	3686.5
942.332	3744.5
942.563	3800.5
942.793	3786.5
943.024	3718.5
943.254	3741.5
943.484	3830.5
943.715	3779.5
943.945	3731.5
944.175	3691.5
944.405	3658.5
944.636	3683.5
944.866	3700.5
945.096	3736.5
945.326	3643.5
945.556	3690.5
945.786	3689.5
946.016	3627.5
946.245	3586.5
946.475	3568.5
946.705	3619.5
946.935	3560.5
947.164	3560.5
947.394	3485.5
947.624	3517.5
947.853	3576.5
948.083	3512.5
948.312	3532.5
948.542	3434.5
948.771	3428.5
949	3395.5
949.23	3457.5
949.459	3492.5
949.688	3491.5
949.917	3435.5
950.146	3456.5
950.375	3516.5
950.604	3404.5
950.833	3471.5
951.062	3467.5
951.291	3442.5
951.52	3377.5
951.749	3417.5
951.978	3380.5
952.206	3381.5
952.435	3346.5
952.664	3378.5
952.892	3383.5
953.121	3345.5
953.349	3365.5
953.578	3359.5
953.806	3322.5
954.035	3263.5
954.263	3314.5
954.491	3237.5
954.719	3263.5
954.948	3227.5
955.176	3228.5
955.404	3134.5
955.632	3217.5
955.86	3191.5
956.088	3179.5
956.316	3202.5
956.544	3257.5
956.772	3164.5
956.999	3110.5
957.227	3211.5
957.455	3107.5
957.683	3111.5
957.91	3039.5
958.138	3047.5
958.365	3019.5
958.593	3063.5
958.82	2976.5
959.048	3069.5
959.275	3014.5
959.502	3004.5
959.73	3016.5
959.957	2971.5
960.184	3024.5
960.411	3012.5
960.638	3038.5
960.865	3015.5
961.092	3039.5
961.319	2925.5
961.546	3015.5
961.773	2994.5
962	2990.5
962.227	3034.5
962.454	2953.5
962.68	2942.5
962.907	2952.5
963.134	2883.5
963.36	2919.5
963.587	2935.5
963.813	2887.5
964.04	2923.5
964.266	2823.5
964.493	2896.5
964.719	2887.5
964.945	2878.5
965.171	2734.5
965.398	2780.5
965.624	2818.5
965.85	2725.5
966.076	2727.5
966.302	2805.5
966.528	2741.5
966.754	2771.5
966.98	2721.5
967.206	2797.5
967.431	2684.5
967.657	2774.5
967.883	2717.5
968.109	2727.5
968.334	2654.5
968.56	2682.5
968.785	2659.5
969.011	2635.5
969.236	2699.5
969.462	2611.5
969.687	2635.5
969.912	2653.5
970.138	2697.5
970.363	2593.5
970.588	2609.5
970.813	2596.5
971.038	2583.5
971.263	2602.5
971.488	2603.5
971.713	2667.5
971.938	2599.5
972.163	2550.5
972.388	2540.5
972.613	2520.5
972.838	2507.5
973.062	2491.5
973.287	2540.5
973.512	2470.5
973.736	2494.5
973.961	2493.5
974.185	2455.5
974.41	2480.5
974.634	2356.5
974.858	2365.5
975.083	2435.5
975.307	2458.5
975.531	2384.5
975.755	2372.5
975.98	2342.5
976.204	2303.5
976.428	2318.5
976.652	2290.5
976.876	2292.5
977.1	2283.5
977.324	2261.5
977.547	2294.5
977.771	2293.5
977.995	2283.5
978.219	2265.5
978.442	2311.5
978.666	2278.5
978.89	2270.5
979.113	2280.5
979.337	2247.5
979.56	2215.5
979.783	2324.5
980.007	2202.5
980.23	2224.5
980.453	2198.5
980.677	2242.5
980.9	2215.5
981.123	2134.5
981.346	2207.5
981.569	2217.5
981.792	2208.5
982.015	2147.5
982.238	2133.5
982.461	2135.5
982.684	2097.5
982.907	2105.5
983.129	2098.5
983.352	2118.5
983.575	2096.5
983.797	2137.5
984.02	2057.5
984.242	2082.5
984.465	2061.5
984.687	2079.5
984.91	2078.5
985.132	2060.5
985.354	2074.5
985.577	2044.5
985.799	2051.5
986.021	1972.5
986.243	2001.5
986.465	2015.5
986.687	2047.5
986.909	2112.5
987.131	2003.5
987.353	1986.5
987.575	2024.5
987.797	1989.5
988.019	1931.5
988.241	1975.5
988.462	1931.5
988.684	1997.5
988.906	2015.5
989.127	2040.5
989.349	1922.5
989.57	1971.5
989.792	2000.5
990.013	2013.5
990.234	1995.5
990.456	2037.5
990.677	2013.5
990.898	1955.5
991.119	1909.5
991.341	1954.5
991.562	1886.5
991.783	1919.5
992.004	1851.5
992.225	1864.5
992.446	1916.5
992.667	1824.5
992.887	1872.5
993.108	1789.5
993.329	1920.5
993.55	1857.5
993.77	1813.5
993.991	1828.5
994.212	1859.5
994.432	1818.5
994.653	1819.5
994.873	1817.5
995.093	1718.5
995.314	1763.5
995.534	1832.5
995.754	1830.5
995.975	1865.5
996.195	1753.5
996.415	1813.5
996.635	1764.5
996.855	1776.5
997.075	1781.5
997.295	1800.5
997.515	1779.5
997.735	1836.5
997.955	1784.5
998.174	1765.5
998.394	1758.5
998.614	1827.5
998.834	1778.5
999.053	1814.5
999.273	1788.5
999.492	1825.5
999.712	1775.5
999.931	1708.5
1000.151	1746.5
1000.37	1741.5
1000.589	1786.5
1000.809	1726.5
1001.028	1831.5
1001.247	1751.5
1001.466	1646.5
1001.685	1787.5
1001.904	1719.5
1002.123	1722.5
1002.342	1718.5
1002.561	1666.5
1002.78	1708.5
1002.999	1768.5
1003.218	1702.5
1003.436	1672.5
1003.655	1755.5
1003.874	1640.5
1004.092	1690.5
1004.311	1711.5
1004.53	1672.5
1004.748	1749.5
1004.966	1694.5
1005.185	1740.5
1005.403	1719.5
1005.622	1690.5
1005.84	1766.5
1006.058	1682.5
1006.276	1720.5
1006.494	2169.5
1006.712	1704.5
1006.931	1803.5
1007.149	1699.5
1007.367	1705.5
1007.584	1742.5
1007.802	1749.5
1008.02	1738.5
1008.238	1849.5
1008.456	1852.5
1008.673	1702.5
1008.891	1862.5
1009.109	1811.5
1009.326	1920.5
1009.544	2007.5
1009.761	1948.5
1009.979	2034.5
1010.196	2123.5
1010.413	2242.5
1010.631	2297.5
1010.848	2394.5
1011.065	2415.5
1011.282	2420.5
1011.5	2374.5
1011.717	2471.5
1011.934	2407.5
1012.151	2459.5
1012.368	2393.5
1012.585	2336.5
1012.801	2395.5
1013.018	2392.5
1013.235	2378.5
1013.452	2374.5
1013.669	2436.5
1013.885	2412.5
1014.102	2476.5
1014.318	2456.5
1014.535	2404.5
1014.751	2455.5
1014.968	2406.5
1015.184	2449.5
1015.401	2357.5
1015.617	2371.5
1015.833	2319.5
1016.049	2311.5
1016.266	2304.5
1016.482	2307.5
1016.698	2217.5
1016.914	2273.5
1017.13	2192.5
1017.346	2202.5
1017.562	2302.5
1017.778	2233.5
1017.993	2188.5
1018.209	2272.5
1018.425	2223.5
1018.641	2240.5
1018.856	2190.5
1019.072	2217.5
1019.288	2250.5
1019.503	2210.5
1019.719	2122.5
1019.934	2161.5
1020.149	2223.5
1020.365	2129.5
1020.58	2084.5
1020.795	2095.5
1021.011	1987.5
1021.226	1949.5
1021.441	1958.5
1021.656	1845.5
1021.871	1797.5
1022.086	1789.5
1022.301	1769.5
1022.516	1753.5
1022.731	1757.5
1022.946	1661.5
1023.16	1678.5
1023.375	1612.5
1023.59	1555.5
1023.804	1529.5
1024.019	1569.5
1024.234	1456.5
1024.448	1477.5
1024.663	1393.5
1024.877	1429.5
1025.092	1417.5
1025.306	1398.5
1025.52	1284.5
1025.734	1375.5
1025.949	1283.5
1026.163	1248.5
1026.377	1180.5
1026.591	1230.5
1026.805	1154.5
1027.019	1126.5
1027.233	1072.5
1027.447	1050.5
1027.661	1106.5
1027.875	1069.5
1028.088	1070.5
1028.302	1004.5
1028.516	982.5
1028.73	970.5
1028.943	966.5
1029.157	879.5
1029.37	824.5
1029.584	-1.5
1029.797	-2.5
1030.011	-3.5
1030.224	0.5
