Data from QEP037381__27__14-33-13-471.txt Node

Date: Wed Dec 21 14:33:13 EST 2022
User: dcclab
Spectrometer: QEP03738
Trigger mode: 4
Integration Time (sec): 1.000000E1
Scans to average: 1
Electric dark correction enabled: true
Nonlinearity correction enabled: false
Boxcar width: 0
XAxis mode: Wavelengths
Number of Pixels in Spectrum: 1044
>>>>>Begin Spectral Data<<<<<
784.041	13.62
784.3	-0.38
784.558	-3.38
784.817	-5.38
785.075	82737.62
785.334	14131.62
785.592	6670.62
785.851	4597.62
786.109	3514.62
786.368	2740.62
786.626	2221.62
786.884	1867.62
787.143	1588.62
787.401	1315.62
787.659	1199.62
787.917	1023.62
788.175	940.62
788.433	852.62
788.691	760.62
788.949	706.62
789.207	682.62
789.465	596.62
789.723	564.62
789.98	533.62
790.238	550.62
790.496	531.62
790.753	503.62
791.011	543.62
791.268	508.62
791.526	462.62
791.783	476.62
792.041	468.62
792.298	389.62
792.556	474.62
792.813	448.62
793.07	421.62
793.327	404.62
793.584	495.62
793.841	407.62
794.099	425.62
794.356	486.62
794.613	400.62
794.869	435.62
795.126	401.62
795.383	383.62
795.64	415.62
795.897	351.62
796.153	417.62
796.41	399.62
796.667	378.62
796.923	393.62
797.18	390.62
797.436	414.62
797.693	389.62
797.949	435.62
798.206	446.62
798.462	390.62
798.718	428.62
798.974	417.62
799.231	433.62
799.487	427.62
799.743	434.62
799.999	454.62
800.255	440.62
800.511	428.62
800.767	467.62
801.023	453.62
801.279	468.62
801.534	496.62
801.79	530.62
802.046	530.62
802.302	625.62
802.557	670.62
802.813	803.62
803.068	885.62
803.324	1232.62
803.579	1531.62
803.835	2093.62
804.09	2812.62
804.345	3628.62
804.601	4495.62
804.856	5445.62
805.111	6262.62
805.366	6886.62
805.621	7367.62
805.876	7680.62
806.131	7901.62
806.386	8044.62
806.641	8235.62
806.896	8355.62
807.151	8599.62
807.406	8704.62
807.661	8750.62
807.915	8990.62
808.17	9141.62
808.425	9183.62
808.679	9322.62
808.934	9549.62
809.188	9516.62
809.443	9626.62
809.697	9824.62
809.951	9827.62
810.206	9983.62
810.46	10088.62
810.714	10127.62
810.968	10272.62
811.223	10319.62
811.477	10403.62
811.731	10488.62
811.985	10490.62
812.239	10572.62
812.493	10577.62
812.747	10626.62
813	10641.62
813.254	10791.62
813.508	10851.62
813.762	10884.62
814.015	10915.62
814.269	10965.62
814.522	11089.62
814.776	11301.62
815.03	11376.62
815.283	11558.62
815.536	11779.62
815.79	11987.62
816.043	12127.62
816.296	12322.62
816.55	12497.62
816.803	12594.62
817.056	12807.62
817.309	12863.62
817.562	13081.62
817.815	13202.62
818.068	13223.62
818.321	13391.62
818.574	13566.62
818.827	13845.62
819.079	13939.62
819.332	14333.62
819.585	14485.62
819.838	14712.62
820.09	14701.62
820.343	14797.62
820.595	14795.62
820.848	14931.62
821.1	15055.62
821.353	14973.62
821.605	14959.62
821.857	15065.62
822.11	14921.62
822.362	14885.62
822.614	14859.62
822.866	14928.62
823.118	14830.62
823.37	15057.62
823.622	15060.62
823.874	15193.62
824.126	15245.62
824.378	15083.62
824.63	15162.62
824.882	15315.62
825.134	15175.62
825.385	15108.62
825.637	15067.62
825.888	15088.62
826.14	15084.62
826.392	14923.62
826.643	15000.62
826.895	14992.62
827.146	14822.62
827.397	14822.62
827.649	14875.62
827.9	14790.62
828.151	14776.62
828.402	14815.62
828.653	14939.62
828.905	14934.62
829.156	14971.62
829.407	15002.62
829.658	15058.62
829.909	15206.62
830.159	15207.62
830.41	15118.62
830.661	14999.62
830.912	14857.62
831.162	14925.62
831.413	14902.62
831.664	14921.62
831.914	14853.62
832.165	14883.62
832.415	14837.62
832.666	14840.62
832.916	14883.62
833.167	14823.62
833.417	14834.62
833.667	14758.62
833.917	14700.62
834.168	14838.62
834.418	14780.62
834.668	14646.62
834.918	14592.62
835.168	14608.62
835.418	14513.62
835.668	14514.62
835.918	14438.62
836.167	14349.62
836.417	14298.62
836.667	14319.62
836.917	14364.62
837.166	14400.62
837.416	14360.62
837.666	14395.62
837.915	14437.62
838.165	14415.62
838.414	14274.62
838.663	14283.62
838.913	14432.62
839.162	14305.62
839.411	14363.62
839.661	14252.62
839.91	14281.62
840.159	14163.62
840.408	14375.62
840.657	14391.62
840.906	14373.62
841.155	14396.62
841.404	14388.62
841.653	14449.62
841.902	14339.62
842.15	14462.62
842.399	14462.62
842.648	14512.62
842.897	14403.62
843.145	14218.62
843.394	14147.62
843.642	14113.62
843.891	14065.62
844.139	13958.62
844.388	13882.62
844.636	13767.62
844.884	13736.62
845.133	13806.62
845.381	13770.62
845.629	13774.62
845.877	13819.62
846.125	13839.62
846.373	13851.62
846.621	13764.62
846.869	13692.62
847.117	13661.62
847.365	13526.62
847.613	13619.62
847.861	13563.62
848.108	13549.62
848.356	13545.62
848.604	13475.62
848.851	13514.62
849.099	13522.62
849.346	13592.62
849.594	13700.62
849.841	13781.62
850.089	13801.62
850.336	13857.62
850.583	13971.62
850.831	13904.62
851.078	13775.62
851.325	13951.62
851.572	14144.62
851.819	13894.62
852.066	13437.62
852.313	13146.62
852.56	12950.62
852.807	12914.62
853.054	12928.62
853.301	12895.62
853.548	13043.62
853.794	13176.62
854.041	13092.62
854.288	13144.62
854.534	13313.62
854.781	13271.62
855.028	13259.62
855.274	13249.62
855.52	13200.62
855.767	13124.62
856.013	13191.62
856.26	13496.62
856.506	13002.62
856.752	13105.62
856.998	12941.62
857.244	12990.62
857.49	13139.62
857.736	13201.62
857.982	13254.62
858.228	13184.62
858.474	13044.62
858.72	12878.62
858.966	12787.62
859.212	12740.62
859.458	12468.62
859.703	12334.62
859.949	12201.62
860.195	12227.62
860.44	12215.62
860.686	12110.62
860.931	12181.62
861.177	11994.62
861.422	11915.62
861.667	11778.62
861.913	11847.62
862.158	11907.62
862.403	11879.62
862.648	11997.62
862.893	11946.62
863.138	12020.62
863.384	11952.62
863.629	11900.62
863.873	11930.62
864.118	11972.62
864.363	11845.62
864.608	11888.62
864.853	11790.62
865.098	11636.62
865.342	11662.62
865.587	11648.62
865.832	11650.62
866.076	11675.62
866.321	11607.62
866.565	11632.62
866.81	11486.62
867.054	11543.62
867.298	11609.62
867.543	11523.62
867.787	11503.62
868.031	11462.62
868.275	11400.62
868.519	11496.62
868.764	11494.62
869.008	11481.62
869.252	11541.62
869.496	11539.62
869.739	11538.62
869.983	11626.62
870.227	11588.62
870.471	11501.62
870.715	11694.62
870.958	11684.62
871.202	11674.62
871.446	11783.62
871.689	11688.62
871.933	11808.62
872.176	11707.62
872.42	11737.62
872.663	11651.62
872.906	11603.62
873.15	11613.62
873.393	11612.62
873.636	11681.62
873.879	11559.62
874.122	11441.62
874.366	11150.62
874.609	11141.62
874.852	10986.62
875.095	11018.62
875.337	10835.62
875.58	10798.62
875.823	10767.62
876.066	10773.62
876.309	10773.62
876.551	10702.62
876.794	10560.62
877.037	10703.62
877.279	10617.62
877.522	10574.62
877.764	10623.62
878.007	10503.62
878.249	10456.62
878.491	10453.62
878.734	10446.62
878.976	10391.62
879.218	10259.62
879.46	10232.62
879.702	10140.62
879.945	10110.62
880.187	10024.62
880.429	9980.62
880.671	9931.62
880.912	9906.62
881.154	9863.62
881.396	9874.62
881.638	9832.62
881.88	9827.62
882.121	9903.62
882.363	9834.62
882.605	9856.62
882.846	9876.62
883.088	9898.62
883.329	9868.62
883.571	9967.62
883.812	10113.62
884.053	10420.62
884.295	10776.62
884.536	11051.62
884.777	10947.62
885.018	10916.62
885.259	10814.62
885.5	10789.62
885.742	10988.62
885.982	10640.62
886.223	10429.62
886.464	10412.62
886.705	10217.62
886.946	10109.62
887.187	9822.62
887.428	9706.62
887.668	9443.62
887.909	9280.62
888.15	9152.62
888.39	9130.62
888.631	9074.62
888.871	8976.62
889.111	8852.62
889.352	8780.62
889.592	8650.62
889.833	8588.62
890.073	8579.62
890.313	8660.62
890.553	8480.62
890.793	8428.62
891.033	8380.62
891.273	8311.62
891.513	8330.62
891.753	8383.62
891.993	8322.62
892.233	8338.62
892.473	8404.62
892.713	8339.62
892.952	8299.62
893.192	8366.62
893.432	8386.62
893.671	8401.62
893.911	8341.62
894.15	8374.62
894.39	8221.62
894.629	8234.62
894.869	8231.62
895.108	8126.62
895.347	8044.62
895.587	8161.62
895.826	8095.62
896.065	8121.62
896.304	8051.62
896.543	8163.62
896.782	8048.62
897.021	8110.62
897.26	8044.62
897.499	8164.62
897.738	8169.62
897.977	8129.62
898.216	8009.62
898.454	7898.62
898.693	7908.62
898.932	7870.62
899.17	7934.62
899.409	7866.62
899.647	7844.62
899.886	7870.62
900.124	7888.62
900.363	7890.62
900.601	7994.62
900.839	8059.62
901.078	8065.62
901.316	8188.62
901.554	8244.62
901.792	8401.62
902.03	8380.62
902.268	8460.62
902.506	8395.62
902.744	8316.62
902.982	8184.62
903.22	7903.62
903.458	7799.62
903.695	7695.62
903.933	7530.62
904.171	7392.62
904.409	7210.62
904.646	7141.62
904.884	6994.62
905.121	6868.62
905.359	6873.62
905.596	6788.62
905.833	6674.62
906.071	6619.62
906.308	6702.62
906.545	6669.62
906.783	6513.62
907.02	6542.62
907.257	6481.62
907.494	6504.62
907.731	6493.62
907.968	6529.62
908.205	6380.62
908.442	6416.62
908.679	6370.62
908.915	6256.62
909.152	6275.62
909.389	6125.62
909.626	6131.62
909.862	6054.62
910.099	6066.62
910.335	6053.62
910.572	5946.62
910.808	5945.62
911.045	5948.62
911.281	5873.62
911.518	5992.62
911.754	5872.62
911.99	5873.62
912.226	5814.62
912.463	5744.62
912.699	5682.62
912.935	5671.62
913.171	5642.62
913.407	5594.62
913.643	5607.62
913.879	5535.62
914.114	5493.62
914.35	5453.62
914.586	5424.62
914.822	5311.62
915.057	5388.62
915.293	5228.62
915.529	5218.62
915.764	5281.62
916	5244.62
916.235	5222.62
916.471	5228.62
916.706	5155.62
916.941	5214.62
917.177	5230.62
917.412	5205.62
917.647	5221.62
917.882	5143.62
918.117	5189.62
918.352	5208.62
918.588	5202.62
918.823	5122.62
919.057	5064.62
919.292	4962.62
919.527	5034.62
919.762	4889.62
919.997	4980.62
920.232	4836.62
920.466	4825.62
920.701	4699.62
920.935	4733.62
921.17	4691.62
921.405	4706.62
921.639	4686.62
921.873	4613.62
922.108	4676.62
922.342	4658.62
922.576	4575.62
922.811	4602.62
923.045	4616.62
923.279	4613.62
923.513	4441.62
923.747	4556.62
923.981	4517.62
924.215	4460.62
924.449	4481.62
924.683	4426.62
924.917	4373.62
925.151	4361.62
925.385	4437.62
925.618	4368.62
925.852	4349.62
926.086	4291.62
926.319	4336.62
926.553	4351.62
926.786	4351.62
927.02	4337.62
927.253	4336.62
927.486	4389.62
927.72	4262.62
927.953	4336.62
928.186	4254.62
928.42	4331.62
928.653	4219.62
928.886	4211.62
929.119	4246.62
929.352	4220.62
929.585	4173.62
929.818	4118.62
930.051	4133.62
930.284	4108.62
930.516	4038.62
930.749	4027.62
930.982	4040.62
931.215	4025.62
931.447	3990.62
931.68	3978.62
931.912	3910.62
932.145	3969.62
932.377	4012.62
932.61	4110.62
932.842	3936.62
933.074	3981.62
933.307	3945.62
933.539	3999.62
933.771	3995.62
934.003	3950.62
934.236	4066.62
934.468	4022.62
934.7	3918.62
934.932	3993.62
935.164	3948.62
935.395	3890.62
935.627	3937.62
935.859	3918.62
936.091	3869.62
936.323	3889.62
936.554	3899.62
936.786	3845.62
937.017	3774.62
937.249	3869.62
937.481	3793.62
937.712	3819.62
937.943	3767.62
938.175	3817.62
938.406	3759.62
938.637	3801.62
938.869	3746.62
939.1	3786.62
939.331	3711.62
939.562	3788.62
939.793	3736.62
940.024	3751.62
940.255	3770.62
940.486	3726.62
940.717	3709.62
940.948	3662.62
941.179	3612.62
941.409	3664.62
941.64	3641.62
941.871	3626.62
942.102	3581.62
942.332	3648.62
942.563	3683.62
942.793	3671.62
943.024	3586.62
943.254	3581.62
943.484	3653.62
943.715	3697.62
943.945	3662.62
944.175	3556.62
944.405	3555.62
944.636	3571.62
944.866	3604.62
945.096	3593.62
945.326	3526.62
945.556	3664.62
945.786	3614.62
946.016	3578.62
946.245	3459.62
946.475	3498.62
946.705	3466.62
946.935	3491.62
947.164	3442.62
947.394	3394.62
947.624	3436.62
947.853	3409.62
948.083	3462.62
948.312	3375.62
948.542	3316.62
948.771	3309.62
949	3293.62
949.23	3314.62
949.459	3354.62
949.688	3369.62
949.917	3345.62
950.146	3313.62
950.375	3386.62
950.604	3273.62
950.833	3340.62
951.062	3375.62
951.291	3284.62
951.52	3285.62
951.749	3291.62
951.978	3260.62
952.206	3229.62
952.435	3229.62
952.664	3301.62
952.892	3237.62
953.121	3257.62
953.349	3252.62
953.578	3233.62
953.806	3201.62
954.035	3177.62
954.263	3228.62
954.491	3135.62
954.719	3170.62
954.948	3130.62
955.176	3059.62
955.404	3059.62
955.632	3111.62
955.86	3145.62
956.088	3074.62
956.316	3087.62
956.544	3078.62
956.772	3031.62
956.999	3058.62
957.227	3070.62
957.455	3004.62
957.683	2969.62
957.91	2937.62
958.138	2958.62
958.365	2957.62
958.593	2883.62
958.82	2884.62
959.048	2945.62
959.275	2897.62
959.502	2876.62
959.73	2848.62
959.957	2908.62
960.184	2955.62
960.411	2823.62
960.638	2933.62
960.865	2903.62
961.092	2876.62
961.319	2774.62
961.546	2877.62
961.773	2894.62
962	2831.62
962.227	2863.62
962.454	2818.62
962.68	2825.62
962.907	2830.62
963.134	2763.62
963.36	2762.62
963.587	2801.62
963.813	2698.62
964.04	2755.62
964.266	2697.62
964.493	2748.62
964.719	2741.62
964.945	2735.62
965.171	2636.62
965.398	2692.62
965.624	2728.62
965.85	2619.62
966.076	2617.62
966.302	2677.62
966.528	2638.62
966.754	2672.62
966.98	2604.62
967.206	2613.62
967.431	2572.62
967.657	2653.62
967.883	2616.62
968.109	2598.62
968.334	2570.62
968.56	2522.62
968.785	2534.62
969.011	2492.62
969.236	2577.62
969.462	2510.62
969.687	2485.62
969.912	2552.62
970.138	2558.62
970.363	2478.62
970.588	2539.62
970.813	2457.62
971.038	2472.62
971.263	2491.62
971.488	2464.62
971.713	2489.62
971.938	2488.62
972.163	2386.62
972.388	2384.62
972.613	2388.62
972.838	2423.62
973.062	2392.62
973.287	2351.62
973.512	2296.62
973.736	2378.62
973.961	2351.62
974.185	2313.62
974.41	2365.62
974.634	2268.62
974.858	2274.62
975.083	2321.62
975.307	2333.62
975.531	2284.62
975.755	2203.62
975.98	2247.62
976.204	2139.62
976.428	2174.62
976.652	2187.62
976.876	2152.62
977.1	2208.62
977.324	2121.62
977.547	2202.62
977.771	2194.62
977.995	2159.62
978.219	2089.62
978.442	2217.62
978.666	2189.62
978.89	2125.62
979.113	2130.62
979.337	2116.62
979.56	2090.62
979.783	2178.62
980.007	2050.62
980.23	2107.62
980.453	2052.62
980.677	2097.62
980.9	2077.62
981.123	2008.62
981.346	2110.62
981.569	2086.62
981.792	2058.62
982.015	2032.62
982.238	2013.62
982.461	2009.62
982.684	1992.62
982.907	1960.62
983.129	1983.62
983.352	2019.62
983.575	2008.62
983.797	1987.62
984.02	1942.62
984.242	1944.62
984.465	1950.62
984.687	1977.62
984.91	1976.62
985.132	1986.62
985.354	1946.62
985.577	1940.62
985.799	1946.62
986.021	1876.62
986.243	1853.62
986.465	1891.62
986.687	1942.62
986.909	1989.62
987.131	1908.62
987.353	1873.62
987.575	1903.62
987.797	1906.62
988.019	1808.62
988.241	1849.62
988.462	1843.62
988.684	1895.62
988.906	1908.62
989.127	1940.62
989.349	1806.62
989.57	1849.62
989.792	1888.62
990.013	1876.62
990.234	1898.62
990.456	1917.62
990.677	1921.62
990.898	1848.62
991.119	1847.62
991.341	1868.62
991.562	1786.62
991.783	1854.62
992.004	1784.62
992.225	1759.62
992.446	1783.62
992.667	1700.62
992.887	1820.62
993.108	1699.62
993.329	1810.62
993.55	1752.62
993.77	1675.62
993.991	1718.62
994.212	1734.62
994.432	1690.62
994.653	1745.62
994.873	1712.62
995.093	1625.62
995.314	1649.62
995.534	1745.62
995.754	1741.62
995.975	1749.62
996.195	1661.62
996.415	1685.62
996.635	1685.62
996.855	1676.62
997.075	1672.62
997.295	1706.62
997.515	1657.62
997.735	1698.62
997.955	1676.62
998.174	1673.62
998.394	1655.62
998.614	1701.62
998.834	1645.62
999.053	1725.62
999.273	1705.62
999.492	1734.62
999.712	1683.62
999.931	1604.62
1000.151	1687.62
1000.37	1665.62
1000.589	1691.62
1000.809	1619.62
1001.028	1733.62
1001.247	1666.62
1001.466	1563.62
1001.685	1708.62
1001.904	1645.62
1002.123	1608.62
1002.342	1618.62
1002.561	1595.62
1002.78	1605.62
1002.999	1670.62
1003.218	1591.62
1003.436	1598.62
1003.655	1649.62
1003.874	1561.62
1004.092	1580.62
1004.311	1640.62
1004.53	1589.62
1004.748	1659.62
1004.966	1548.62
1005.185	1631.62
1005.403	1651.62
1005.622	1592.62
1005.84	1682.62
1006.058	1569.62
1006.276	1613.62
1006.494	2103.62
1006.712	1602.62
1006.931	1686.62
1007.149	1573.62
1007.367	1586.62
1007.584	1650.62
1007.802	1672.62
1008.02	1649.62
1008.238	1740.62
1008.456	1739.62
1008.673	1625.62
1008.891	1742.62
1009.109	1711.62
1009.326	1804.62
1009.544	1914.62
1009.761	1844.62
1009.979	1938.62
1010.196	1996.62
1010.413	2157.62
1010.631	2263.62
1010.848	2306.62
1011.065	2346.62
1011.282	2315.62
1011.5	2244.62
1011.717	2351.62
1011.934	2290.62
1012.151	2313.62
1012.368	2332.62
1012.585	2256.62
1012.801	2361.62
1013.018	2307.62
1013.235	2246.62
1013.452	2269.62
1013.669	2354.62
1013.885	2320.62
1014.102	2338.62
1014.318	2358.62
1014.535	2331.62
1014.751	2350.62
1014.968	2292.62
1015.184	2360.62
1015.401	2285.62
1015.617	2304.62
1015.833	2223.62
1016.049	2247.62
1016.266	2195.62
1016.482	2185.62
1016.698	2141.62
1016.914	2164.62
1017.13	2141.62
1017.346	2124.62
1017.562	2179.62
1017.778	2125.62
1017.993	2101.62
1018.209	2140.62
1018.425	2168.62
1018.641	2092.62
1018.856	2064.62
1019.072	2122.62
1019.288	2137.62
1019.503	2100.62
1019.719	2053.62
1019.934	2009.62
1020.149	2089.62
1020.365	2016.62
1020.58	1975.62
1020.795	1974.62
1021.011	1885.62
1021.226	1878.62
1021.441	1849.62
1021.656	1760.62
1021.871	1665.62
1022.086	1647.62
1022.301	1641.62
1022.516	1610.62
1022.731	1662.62
1022.946	1552.62
1023.16	1545.62
1023.375	1510.62
1023.59	1488.62
1023.804	1411.62
1024.019	1511.62
1024.234	1351.62
1024.448	1378.62
1024.663	1268.62
1024.877	1304.62
1025.092	1275.62
1025.306	1299.62
1025.52	1150.62
1025.734	1247.62
1025.949	1164.62
1026.163	1136.62
1026.377	1068.62
1026.591	1108.62
1026.805	1035.62
1027.019	1019.62
1027.233	989.62
1027.447	939.62
1027.661	1028.62
1027.875	969.62
1028.088	960.62
1028.302	890.62
1028.516	884.62
1028.73	878.62
1028.943	864.62
1029.157	771.62
1029.37	743.62
1029.584	2.62
1029.797	-2.38
1030.011	-2.38
1030.224	-2.38
