Data from QEP037381__30__14-33-43-471.txt Node

Date: Wed Dec 21 14:33:43 EST 2022
User: dcclab
Spectrometer: QEP03738
Trigger mode: 4
Integration Time (sec): 1.000000E1
Scans to average: 1
Electric dark correction enabled: true
Nonlinearity correction enabled: false
Boxcar width: 0
XAxis mode: Wavelengths
Number of Pixels in Spectrum: 1044
>>>>>Begin Spectral Data<<<<<
784.041	13.12
784.3	0.12
784.558	-1.88
784.817	-3.88
785.075	72083.12
785.334	13689.12
785.592	6922.12
785.851	4825.12
786.109	3625.12
786.368	2850.12
786.626	2321.12
786.884	1941.12
787.143	1628.12
787.401	1335.12
787.659	1214.12
787.917	1068.12
788.175	991.12
788.433	852.12
788.691	794.12
788.949	736.12
789.207	723.12
789.465	612.12
789.723	583.12
789.98	549.12
790.238	596.12
790.496	540.12
790.753	534.12
791.011	576.12
791.268	491.12
791.526	513.12
791.783	516.12
792.041	490.12
792.298	415.12
792.556	472.12
792.813	468.12
793.07	448.12
793.327	431.12
793.584	512.12
793.841	440.12
794.099	474.12
794.356	495.12
794.613	398.12
794.869	449.12
795.126	411.12
795.383	406.12
795.64	425.12
795.897	374.12
796.153	441.12
796.41	426.12
796.667	411.12
796.923	411.12
797.18	399.12
797.436	427.12
797.693	400.12
797.949	451.12
798.206	481.12
798.462	391.12
798.718	449.12
798.974	441.12
799.231	480.12
799.487	444.12
799.743	463.12
799.999	467.12
800.255	481.12
800.511	466.12
800.767	514.12
801.023	493.12
801.279	516.12
801.534	554.12
801.79	589.12
802.046	604.12
802.302	738.12
802.557	789.12
802.813	948.12
803.068	1159.12
803.324	1569.12
803.579	2107.12
803.835	2912.12
804.09	4007.12
804.345	5279.12
804.601	6655.12
804.856	8150.12
805.111	9361.12
805.366	10281.12
805.621	10940.12
805.876	11414.12
806.131	11676.12
806.386	11903.12
806.641	12075.12
806.896	12254.12
807.151	12640.12
807.406	12805.12
807.661	13058.12
807.915	13365.12
808.17	13591.12
808.425	13786.12
808.679	13922.12
808.934	14157.12
809.188	14145.12
809.443	14417.12
809.697	14601.12
809.951	14728.12
810.206	14825.12
810.46	15132.12
810.714	15181.12
810.968	15484.12
811.223	15518.12
811.477	15676.12
811.731	15804.12
811.985	15982.12
812.239	15941.12
812.493	16098.12
812.747	16186.12
813	16194.12
813.254	16384.12
813.508	16464.12
813.762	16630.12
814.015	16604.12
814.269	16814.12
814.522	17010.12
814.776	17169.12
815.03	17510.12
815.283	17671.12
815.536	18088.12
815.79	18369.12
816.043	18693.12
816.296	18897.12
816.55	19057.12
816.803	19413.12
817.056	19882.12
817.309	19921.12
817.562	20134.12
817.815	20456.12
818.068	20583.12
818.321	20922.12
818.574	21236.12
818.827	21553.12
819.079	21777.12
819.332	22344.12
819.585	22596.12
819.838	22918.12
820.09	22999.12
820.343	23197.12
820.595	23300.12
820.848	23480.12
821.1	23599.12
821.353	23676.12
821.605	23548.12
821.857	23699.12
822.11	23549.12
822.362	23654.12
822.614	23588.12
822.866	23629.12
823.118	23515.12
823.37	23888.12
823.622	23745.12
823.874	23888.12
824.126	24106.12
824.378	24080.12
824.63	24278.12
824.882	24381.12
825.134	24288.12
825.385	24334.12
825.637	24195.12
825.888	24294.12
826.14	24219.12
826.392	24138.12
826.643	24083.12
826.895	24047.12
827.146	23998.12
827.397	23936.12
827.649	23926.12
827.9	23885.12
828.151	24042.12
828.402	24052.12
828.653	23992.12
828.905	24129.12
829.156	24316.12
829.407	24227.12
829.658	24342.12
829.909	24459.12
830.159	24297.12
830.41	24264.12
830.661	24112.12
830.912	24122.12
831.162	23993.12
831.413	23986.12
831.664	23992.12
831.914	24009.12
832.165	24094.12
832.415	24050.12
832.666	24075.12
832.916	24214.12
833.167	24132.12
833.417	24133.12
833.667	24153.12
833.917	24001.12
834.168	24017.12
834.418	23888.12
834.668	23836.12
834.918	23759.12
835.168	23769.12
835.418	23684.12
835.668	23632.12
835.918	23620.12
836.167	23619.12
836.417	23546.12
836.667	23701.12
836.917	23707.12
837.166	23643.12
837.416	23655.12
837.666	23624.12
837.915	23494.12
838.165	23495.12
838.414	23345.12
838.663	23364.12
838.913	23431.12
839.162	23343.12
839.411	23416.12
839.661	23232.12
839.91	23513.12
840.159	23296.12
840.408	23441.12
840.657	23500.12
840.906	23434.12
841.155	23578.12
841.404	23464.12
841.653	23521.12
841.902	23474.12
842.15	23677.12
842.399	23594.12
842.648	23669.12
842.897	23549.12
843.145	23279.12
843.394	23176.12
843.642	23192.12
843.891	23106.12
844.139	23027.12
844.388	22879.12
844.636	22863.12
844.884	22723.12
845.133	22753.12
845.381	22804.12
845.629	22955.12
845.877	22934.12
846.125	22838.12
846.373	22796.12
846.621	22705.12
846.869	22698.12
847.117	22671.12
847.365	22521.12
847.613	22518.12
847.861	22360.12
848.108	22431.12
848.356	22328.12
848.604	22429.12
848.851	22404.12
849.099	22487.12
849.346	22594.12
849.594	22771.12
849.841	22874.12
850.089	23035.12
850.336	23162.12
850.583	23166.12
850.831	23152.12
851.078	22980.12
851.325	23025.12
851.572	23034.12
851.819	22660.12
852.066	22248.12
852.313	22009.12
852.56	21828.12
852.807	21771.12
853.054	21705.12
853.301	21744.12
853.548	21741.12
853.794	21860.12
854.041	22011.12
854.288	21959.12
854.534	22338.12
854.781	22226.12
855.028	22212.12
855.274	22197.12
855.52	22019.12
855.767	21893.12
856.013	22069.12
856.26	22191.12
856.506	21775.12
856.752	21831.12
856.998	21812.12
857.244	21999.12
857.49	22109.12
857.736	22067.12
857.982	22182.12
858.228	22144.12
858.474	21947.12
858.72	21866.12
858.966	21682.12
859.212	21482.12
859.458	21261.12
859.703	20962.12
859.949	20825.12
860.195	20669.12
860.44	20646.12
860.686	20609.12
860.931	20716.12
861.177	20480.12
861.422	20406.12
861.667	20429.12
861.913	20354.12
862.158	20478.12
862.403	20554.12
862.648	20694.12
862.893	20663.12
863.138	20611.12
863.384	20531.12
863.629	20639.12
863.873	20700.12
864.118	20640.12
864.363	20573.12
864.608	20483.12
864.853	20538.12
865.098	20234.12
865.342	20295.12
865.587	20189.12
865.832	20204.12
866.076	20232.12
866.321	20142.12
866.565	20069.12
866.81	19964.12
867.054	20018.12
867.298	20075.12
867.543	19949.12
867.787	19950.12
868.031	19969.12
868.275	19911.12
868.519	19897.12
868.764	19942.12
869.008	19840.12
869.252	19948.12
869.496	19797.12
869.739	19915.12
869.983	19857.12
870.227	19881.12
870.471	19895.12
870.715	20000.12
870.958	20039.12
871.202	20034.12
871.446	20151.12
871.689	20147.12
871.933	20175.12
872.176	20016.12
872.42	20091.12
872.663	19950.12
872.906	19921.12
873.15	19857.12
873.393	19739.12
873.636	19766.12
873.879	19564.12
874.122	19430.12
874.366	19225.12
874.609	19148.12
874.852	19038.12
875.095	19006.12
875.337	18982.12
875.58	18848.12
875.823	18835.12
876.066	18788.12
876.309	18814.12
876.551	18619.12
876.794	18552.12
877.037	18633.12
877.279	18462.12
877.522	18580.12
877.764	18680.12
878.007	18605.12
878.249	18559.12
878.491	18464.12
878.734	18547.12
878.976	18560.12
879.218	18328.12
879.46	18391.12
879.702	18180.12
879.945	18188.12
880.187	17973.12
880.429	17825.12
880.671	17744.12
880.912	17738.12
881.154	17731.12
881.396	17691.12
881.638	17693.12
881.88	17683.12
882.121	17739.12
882.363	17759.12
882.605	17720.12
882.846	17593.12
883.088	17648.12
883.329	17493.12
883.571	17601.12
883.812	17798.12
884.053	17924.12
884.295	18211.12
884.536	18365.12
884.777	18236.12
885.018	18257.12
885.259	18256.12
885.5	18123.12
885.742	18360.12
885.982	18133.12
886.223	18007.12
886.464	17883.12
886.705	17714.12
886.946	17606.12
887.187	17338.12
887.428	17322.12
887.668	17072.12
887.909	16843.12
888.15	16704.12
888.39	16657.12
888.631	16614.12
888.871	16431.12
889.111	16396.12
889.352	16204.12
889.592	16105.12
889.833	16004.12
890.073	15938.12
890.313	15917.12
890.553	15701.12
890.793	15680.12
891.033	15645.12
891.273	15506.12
891.513	15548.12
891.753	15558.12
891.993	15541.12
892.233	15646.12
892.473	15680.12
892.713	15657.12
892.952	15632.12
893.192	15730.12
893.432	15646.12
893.671	15707.12
893.911	15727.12
894.15	15666.12
894.39	15428.12
894.629	15359.12
894.869	15355.12
895.108	15303.12
895.347	15136.12
895.587	15210.12
895.826	15118.12
896.065	15221.12
896.304	15185.12
896.543	15239.12
896.782	14997.12
897.021	15113.12
897.26	15066.12
897.499	15067.12
897.738	15035.12
897.977	14976.12
898.216	14873.12
898.454	14768.12
898.693	14735.12
898.932	14739.12
899.17	14673.12
899.409	14654.12
899.647	14603.12
899.886	14582.12
900.124	14625.12
900.363	14650.12
900.601	14687.12
900.839	14735.12
901.078	14786.12
901.316	14787.12
901.554	14911.12
901.792	15046.12
902.03	14935.12
902.268	14953.12
902.506	14950.12
902.744	14761.12
902.982	14774.12
903.22	14502.12
903.458	14427.12
903.695	14195.12
903.933	14018.12
904.171	13839.12
904.409	13596.12
904.646	13460.12
904.884	13237.12
905.121	13183.12
905.359	13022.12
905.596	12896.12
905.833	12726.12
906.071	12671.12
906.308	12669.12
906.545	12743.12
906.783	12600.12
907.02	12604.12
907.257	12576.12
907.494	12614.12
907.731	12573.12
907.968	12491.12
908.205	12431.12
908.442	12307.12
908.679	12299.12
908.915	12124.12
909.152	12088.12
909.389	11902.12
909.626	11928.12
909.862	11872.12
910.099	11797.12
910.335	11822.12
910.572	11730.12
910.808	11771.12
911.045	11684.12
911.281	11623.12
911.518	11685.12
911.754	11582.12
911.99	11493.12
912.226	11385.12
912.463	11331.12
912.699	11324.12
912.935	11173.12
913.171	11134.12
913.407	10997.12
913.643	10980.12
913.879	10857.12
914.114	10819.12
914.35	10637.12
914.586	10684.12
914.822	10550.12
915.057	10623.12
915.293	10319.12
915.529	10395.12
915.764	10418.12
916	10400.12
916.235	10354.12
916.471	10333.12
916.706	10247.12
916.941	10276.12
917.177	10271.12
917.412	10305.12
917.647	10292.12
917.882	10301.12
918.117	10317.12
918.352	10259.12
918.588	10238.12
918.823	10146.12
919.057	10033.12
919.292	9916.12
919.527	9944.12
919.762	9812.12
919.997	9689.12
920.232	9602.12
920.466	9537.12
920.701	9452.12
920.935	9398.12
921.17	9338.12
921.405	9317.12
921.639	9337.12
921.873	9268.12
922.108	9249.12
922.342	9249.12
922.576	9212.12
922.811	9162.12
923.045	9164.12
923.279	9214.12
923.513	8929.12
923.747	9074.12
923.981	8992.12
924.215	8890.12
924.449	8874.12
924.683	8856.12
924.917	8812.12
925.151	8738.12
925.385	8809.12
925.618	8664.12
925.852	8666.12
926.086	8580.12
926.319	8685.12
926.553	8668.12
926.786	8665.12
927.02	8618.12
927.253	8683.12
927.486	8630.12
927.72	8590.12
927.953	8668.12
928.186	8588.12
928.42	8615.12
928.653	8436.12
928.886	8521.12
929.119	8509.12
929.352	8481.12
929.585	8387.12
929.818	8315.12
930.051	8334.12
930.284	8273.12
930.516	8057.12
930.749	8057.12
930.982	8154.12
931.215	8048.12
931.447	8006.12
931.68	7981.12
931.912	7934.12
932.145	7980.12
932.377	8003.12
932.61	8111.12
932.842	7961.12
933.074	7965.12
933.307	7925.12
933.539	8018.12
933.771	7953.12
934.003	7963.12
934.236	7987.12
934.468	8065.12
934.7	7968.12
934.932	7969.12
935.164	7927.12
935.395	7932.12
935.627	7881.12
935.859	7868.12
936.091	7702.12
936.323	7888.12
936.554	7864.12
936.786	7778.12
937.017	7712.12
937.249	7757.12
937.481	7615.12
937.712	7754.12
937.943	7619.12
938.175	7655.12
938.406	7649.12
938.637	7699.12
938.869	7616.12
939.1	7629.12
939.331	7569.12
939.562	7574.12
939.793	7592.12
940.024	7534.12
940.255	7538.12
940.486	7465.12
940.717	7475.12
940.948	7409.12
941.179	7397.12
941.409	7416.12
941.64	7373.12
941.871	7315.12
942.102	7372.12
942.332	7332.12
942.563	7465.12
942.793	7363.12
943.024	7351.12
943.254	7385.12
943.484	7447.12
943.715	7435.12
943.945	7346.12
944.175	7317.12
944.405	7289.12
944.636	7349.12
944.866	7286.12
945.096	7361.12
945.326	7248.12
945.556	7329.12
945.786	7268.12
946.016	7243.12
946.245	7122.12
946.475	7122.12
946.705	7102.12
946.935	7021.12
947.164	7068.12
947.394	6947.12
947.624	6903.12
947.853	6986.12
948.083	6926.12
948.312	6886.12
948.542	6855.12
948.771	6739.12
949	6804.12
949.23	6778.12
949.459	6815.12
949.688	6823.12
949.917	6757.12
950.146	6809.12
950.375	6855.12
950.604	6794.12
950.833	6814.12
951.062	6824.12
951.291	6773.12
951.52	6669.12
951.749	6718.12
951.978	6617.12
952.206	6645.12
952.435	6709.12
952.664	6660.12
952.892	6652.12
953.121	6663.12
953.349	6647.12
953.578	6552.12
953.806	6533.12
954.035	6478.12
954.263	6475.12
954.491	6430.12
954.719	6477.12
954.948	6366.12
955.176	6357.12
955.404	6292.12
955.632	6323.12
955.86	6327.12
956.088	6305.12
956.316	6276.12
956.544	6297.12
956.772	6221.12
956.999	6192.12
957.227	6263.12
957.455	6173.12
957.683	6084.12
957.91	6049.12
958.138	6014.12
958.365	6041.12
958.593	6001.12
958.82	5895.12
959.048	6016.12
959.275	5929.12
959.502	5916.12
959.73	5865.12
959.957	5951.12
960.184	5921.12
960.411	5873.12
960.638	5936.12
960.865	5835.12
961.092	5910.12
961.319	5794.12
961.546	5860.12
961.773	5864.12
962	5876.12
962.227	5879.12
962.454	5816.12
962.68	5753.12
962.907	5770.12
963.134	5756.12
963.36	5723.12
963.587	5738.12
963.813	5540.12
964.04	5599.12
964.266	5535.12
964.493	5563.12
964.719	5538.12
964.945	5601.12
965.171	5444.12
965.398	5478.12
965.624	5512.12
965.85	5374.12
966.076	5368.12
966.302	5402.12
966.528	5338.12
966.754	5394.12
966.98	5351.12
967.206	5325.12
967.431	5209.12
967.657	5291.12
967.883	5308.12
968.109	5303.12
968.334	5255.12
968.56	5198.12
968.785	5186.12
969.011	5134.12
969.236	5178.12
969.462	5110.12
969.687	5133.12
969.912	5168.12
970.138	5164.12
970.363	5043.12
970.588	5092.12
970.813	5018.12
971.038	5034.12
971.263	5062.12
971.488	4995.12
971.713	5069.12
971.938	5041.12
972.163	4860.12
972.388	4917.12
972.613	4912.12
972.838	4915.12
973.062	4846.12
973.287	4846.12
973.512	4793.12
973.736	4795.12
973.961	4773.12
974.185	4694.12
974.41	4759.12
974.634	4634.12
974.858	4674.12
975.083	4602.12
975.307	4663.12
975.531	4584.12
975.755	4542.12
975.98	4505.12
976.204	4487.12
976.428	4431.12
976.652	4414.12
976.876	4387.12
977.1	4368.12
977.324	4325.12
977.547	4450.12
977.771	4426.12
977.995	4364.12
978.219	4322.12
978.442	4386.12
978.666	4338.12
978.89	4328.12
979.113	4301.12
979.337	4314.12
979.56	4252.12
979.783	4305.12
980.007	4252.12
980.23	4200.12
980.453	4177.12
980.677	4199.12
980.9	4170.12
981.123	4101.12
981.346	4177.12
981.569	4150.12
981.792	4116.12
982.015	4136.12
982.238	4008.12
982.461	4049.12
982.684	3987.12
982.907	3905.12
983.129	3928.12
983.352	3985.12
983.575	3970.12
983.797	3928.12
984.02	3845.12
984.242	3851.12
984.465	3837.12
984.687	3881.12
984.91	3835.12
985.132	3823.12
985.354	3819.12
985.577	3799.12
985.799	3776.12
986.021	3662.12
986.243	3765.12
986.465	3682.12
986.687	3711.12
986.909	3765.12
987.131	3691.12
987.353	3679.12
987.575	3707.12
987.797	3629.12
988.019	3564.12
988.241	3596.12
988.462	3596.12
988.684	3611.12
988.906	3626.12
989.127	3633.12
989.349	3540.12
989.57	3565.12
989.792	3635.12
990.013	3578.12
990.234	3555.12
990.456	3600.12
990.677	3572.12
990.898	3518.12
991.119	3504.12
991.341	3517.12
991.562	3446.12
991.783	3426.12
992.004	3384.12
992.225	3363.12
992.446	3408.12
992.667	3271.12
992.887	3368.12
993.108	3256.12
993.329	3357.12
993.55	3276.12
993.77	3222.12
993.991	3227.12
994.212	3243.12
994.432	3217.12
994.653	3249.12
994.873	3185.12
995.093	3074.12
995.314	3084.12
995.534	3180.12
995.754	3199.12
995.975	3172.12
996.195	3085.12
996.415	3099.12
996.635	3063.12
996.855	3105.12
997.075	3074.12
997.295	3012.12
997.515	3068.12
997.735	3092.12
997.955	3008.12
998.174	3064.12
998.394	2997.12
998.614	3007.12
998.834	2966.12
999.053	3059.12
999.273	3010.12
999.492	3038.12
999.712	2985.12
999.931	2940.12
1000.151	2982.12
1000.37	2935.12
1000.589	3010.12
1000.809	2910.12
1001.028	2992.12
1001.247	2907.12
1001.466	2769.12
1001.685	2948.12
1001.904	2856.12
1002.123	2826.12
1002.342	2827.12
1002.561	2737.12
1002.78	2786.12
1002.999	2842.12
1003.218	2794.12
1003.436	2765.12
1003.655	2783.12
1003.874	2699.12
1004.092	2716.12
1004.311	2774.12
1004.53	2687.12
1004.748	2762.12
1004.966	2692.12
1005.185	2705.12
1005.403	2734.12
1005.622	2696.12
1005.84	2737.12
1006.058	2629.12
1006.276	2702.12
1006.494	3146.12
1006.712	2671.12
1006.931	2702.12
1007.149	2614.12
1007.367	2585.12
1007.584	2682.12
1007.802	2723.12
1008.02	2633.12
1008.238	2770.12
1008.456	2766.12
1008.673	2647.12
1008.891	2741.12
1009.109	2689.12
1009.326	2760.12
1009.544	2882.12
1009.761	2810.12
1009.979	2944.12
1010.196	2950.12
1010.413	3110.12
1010.631	3181.12
1010.848	3245.12
1011.065	3243.12
1011.282	3188.12
1011.5	3122.12
1011.717	3213.12
1011.934	3161.12
1012.151	3224.12
1012.368	3170.12
1012.585	3126.12
1012.801	3199.12
1013.018	3174.12
1013.235	3151.12
1013.452	3174.12
1013.669	3204.12
1013.885	3172.12
1014.102	3188.12
1014.318	3154.12
1014.535	3109.12
1014.751	3164.12
1014.968	3135.12
1015.184	3151.12
1015.401	3047.12
1015.617	3103.12
1015.833	3023.12
1016.049	2997.12
1016.266	2960.12
1016.482	2966.12
1016.698	2912.12
1016.914	2947.12
1017.13	2913.12
1017.346	2884.12
1017.562	2953.12
1017.778	2875.12
1017.993	2855.12
1018.209	2891.12
1018.425	2850.12
1018.641	2838.12
1018.856	2798.12
1019.072	2861.12
1019.288	2911.12
1019.503	2835.12
1019.719	2758.12
1019.934	2760.12
1020.149	2835.12
1020.365	2763.12
1020.58	2652.12
1020.795	2707.12
1021.011	2590.12
1021.226	2563.12
1021.441	2547.12
1021.656	2454.12
1021.871	2325.12
1022.086	2343.12
1022.301	2339.12
1022.516	2244.12
1022.731	2299.12
1022.946	2190.12
1023.16	2182.12
1023.375	2131.12
1023.59	2111.12
1023.804	2040.12
1024.019	2109.12
1024.234	1958.12
1024.448	1963.12
1024.663	1906.12
1024.877	1868.12
1025.092	1873.12
1025.306	1854.12
1025.52	1744.12
1025.734	1790.12
1025.949	1713.12
1026.163	1676.12
1026.377	1598.12
1026.591	1615.12
1026.805	1531.12
1027.019	1523.12
1027.233	1446.12
1027.447	1392.12
1027.661	1480.12
1027.875	1447.12
1028.088	1439.12
1028.302	1323.12
1028.516	1301.12
1028.73	1273.12
1028.943	1240.12
1029.157	1180.12
1029.37	1102.12
1029.584	2.12
1029.797	-3.88
1030.011	-2.88
1030.224	-2.88
