Data from QEP037381__153__15-22-00-384.txt Node

Date: Wed Dec 21 15:22:00 EST 2022
User: dcclab
Spectrometer: QEP03738
Trigger mode: 4
Integration Time (sec): 1.000000E1
Scans to average: 1
Electric dark correction enabled: true
Nonlinearity correction enabled: false
Boxcar width: 0
XAxis mode: Wavelengths
Number of Pixels in Spectrum: 1044
>>>>>Begin Spectral Data<<<<<
784.041	12.75
784.3	-0.25
784.558	-3.25
784.817	-1.25
785.075	93912.75
785.334	16428.75
785.592	7819.75
785.851	5416.75
786.109	4047.75
786.368	3193.75
786.626	2538.75
786.884	2141.75
787.143	1813.75
787.401	1474.75
787.659	1330.75
787.917	1136.75
788.175	1049.75
788.433	939.75
788.691	824.75
788.949	760.75
789.207	743.75
789.465	646.75
789.723	626.75
789.98	573.75
790.238	606.75
790.496	575.75
790.753	553.75
791.011	589.75
791.268	517.75
791.526	502.75
791.783	543.75
792.041	516.75
792.298	420.75
792.556	498.75
792.813	492.75
793.07	448.75
793.327	445.75
793.584	526.75
793.841	446.75
794.099	463.75
794.356	503.75
794.613	428.75
794.869	468.75
795.126	424.75
795.383	410.75
795.64	423.75
795.897	380.75
796.153	429.75
796.41	439.75
796.667	410.75
796.923	423.75
797.18	417.75
797.436	438.75
797.693	401.75
797.949	455.75
798.206	493.75
798.462	412.75
798.718	469.75
798.974	447.75
799.231	475.75
799.487	489.75
799.743	477.75
799.999	512.75
800.255	511.75
800.511	494.75
800.767	530.75
801.023	532.75
801.279	564.75
801.534	603.75
801.79	642.75
802.046	670.75
802.302	815.75
802.557	954.75
802.813	1172.75
803.068	1445.75
803.324	2012.75
803.579	2747.75
803.835	3785.75
804.09	5148.75
804.345	6671.75
804.601	8364.75
804.856	10124.75
805.111	11643.75
805.366	12797.75
805.621	13677.75
805.876	14223.75
806.131	14617.75
806.386	14917.75
806.641	15068.75
806.896	15390.75
807.151	15697.75
807.406	15821.75
807.661	16053.75
807.915	16426.75
808.17	16579.75
808.425	16716.75
808.679	16729.75
808.934	16986.75
809.188	16945.75
809.443	17166.75
809.697	17445.75
809.951	17549.75
810.206	17585.75
810.46	17860.75
810.714	17941.75
810.968	18124.75
811.223	18343.75
811.477	18422.75
811.731	18534.75
811.985	18633.75
812.239	18474.75
812.493	18752.75
812.747	18693.75
813	18750.75
813.254	18872.75
813.508	18998.75
813.762	19013.75
814.015	19023.75
814.269	19124.75
814.522	19298.75
814.776	19451.75
815.03	19571.75
815.283	19883.75
815.536	20214.75
815.79	20566.75
816.043	20818.75
816.296	21028.75
816.55	21180.75
816.803	21506.75
817.056	21820.75
817.309	21978.75
817.562	22105.75
817.815	22348.75
818.068	22401.75
818.321	22615.75
818.574	22816.75
818.827	23005.75
819.079	23228.75
819.332	23834.75
819.585	24154.75
819.838	24504.75
820.09	24341.75
820.343	24540.75
820.595	24545.75
820.848	24649.75
821.1	24814.75
821.353	24881.75
821.605	24777.75
821.857	24760.75
822.11	24462.75
822.362	24565.75
822.614	24419.75
822.866	24534.75
823.118	24491.75
823.37	24604.75
823.622	24655.75
823.874	24847.75
824.126	24962.75
824.378	24843.75
824.63	24906.75
824.882	24891.75
825.134	24849.75
825.385	24821.75
825.637	24680.75
825.888	24583.75
826.14	24479.75
826.392	24510.75
826.643	24244.75
826.895	24142.75
827.146	23994.75
827.397	23879.75
827.649	24115.75
827.9	23952.75
828.151	23923.75
828.402	24143.75
828.653	24166.75
828.905	24280.75
829.156	24258.75
829.407	24194.75
829.658	24452.75
829.909	24609.75
830.159	24805.75
830.41	24582.75
830.661	24364.75
830.912	24018.75
831.162	23932.75
831.413	23987.75
831.664	23942.75
831.914	23935.75
832.165	23900.75
832.415	23868.75
832.666	23792.75
832.916	23909.75
833.167	23890.75
833.417	23868.75
833.667	23587.75
833.917	23593.75
834.168	23552.75
834.418	23451.75
834.668	23393.75
834.918	23199.75
835.168	23229.75
835.418	23132.75
835.668	23000.75
835.918	22959.75
836.167	22962.75
836.417	22785.75
836.667	22875.75
836.917	22872.75
837.166	22824.75
837.416	23006.75
837.666	23017.75
837.915	22957.75
838.165	22858.75
838.414	22745.75
838.663	22714.75
838.913	22750.75
839.162	22646.75
839.411	22754.75
839.661	22584.75
839.91	22565.75
840.159	22551.75
840.408	22524.75
840.657	22644.75
840.906	22668.75
841.155	22606.75
841.404	22403.75
841.653	22455.75
841.902	22599.75
842.15	22676.75
842.399	22736.75
842.648	22711.75
842.897	22638.75
843.145	22398.75
843.394	22377.75
843.642	22014.75
843.891	21972.75
844.139	21759.75
844.388	21508.75
844.636	21483.75
844.884	21579.75
845.133	21525.75
845.381	21551.75
845.629	21458.75
845.877	21476.75
846.125	21503.75
846.373	21412.75
846.621	21312.75
846.869	21209.75
847.117	21116.75
847.365	20937.75
847.613	20890.75
847.861	20828.75
848.108	20854.75
848.356	20810.75
848.604	20725.75
848.851	20787.75
849.099	20784.75
849.346	20847.75
849.594	20842.75
849.841	20980.75
850.089	20958.75
850.336	20950.75
850.583	20935.75
850.831	20815.75
851.078	20752.75
851.325	20654.75
851.572	20853.75
851.819	20645.75
852.066	20283.75
852.313	19961.75
852.56	19978.75
852.807	19807.75
853.054	19629.75
853.301	19772.75
853.548	19708.75
853.794	19828.75
854.041	19889.75
854.288	19895.75
854.534	20199.75
854.781	20229.75
855.028	20020.75
855.274	20184.75
855.52	20103.75
855.767	20183.75
856.013	20359.75
856.26	20640.75
856.506	19947.75
856.752	19789.75
856.998	19923.75
857.244	19951.75
857.49	20105.75
857.736	20149.75
857.982	20075.75
858.228	19866.75
858.474	19612.75
858.72	19527.75
858.966	19271.75
859.212	19023.75
859.458	18921.75
859.703	18686.75
859.949	18439.75
860.195	18331.75
860.44	18339.75
860.686	18317.75
860.931	18268.75
861.177	18166.75
861.422	18071.75
861.667	17921.75
861.913	17720.75
862.158	17757.75
862.403	17705.75
862.648	17739.75
862.893	17822.75
863.138	17721.75
863.384	17704.75
863.629	17781.75
863.873	17752.75
864.118	17625.75
864.363	17511.75
864.608	17549.75
864.853	17400.75
865.098	17345.75
865.342	17219.75
865.587	17152.75
865.832	17116.75
866.076	17104.75
866.321	16969.75
866.565	16979.75
866.81	16827.75
867.054	16849.75
867.298	16897.75
867.543	16751.75
867.787	16708.75
868.031	16659.75
868.275	16650.75
868.519	16655.75
868.764	16571.75
869.008	16554.75
869.252	16600.75
869.496	16540.75
869.739	16514.75
869.983	16530.75
870.227	16631.75
870.471	16751.75
870.715	16839.75
870.958	16677.75
871.202	16797.75
871.446	16768.75
871.689	16780.75
871.933	16826.75
872.176	16744.75
872.42	16766.75
872.663	16804.75
872.906	16794.75
873.15	16933.75
873.393	17073.75
873.636	17149.75
873.879	16889.75
874.122	16633.75
874.366	16342.75
874.609	16054.75
874.852	15805.75
875.095	15708.75
875.337	15555.75
875.58	15310.75
875.823	15450.75
876.066	15274.75
876.309	15283.75
876.551	15121.75
876.794	15048.75
877.037	15063.75
877.279	14911.75
877.522	14923.75
877.764	14962.75
878.007	14820.75
878.249	14800.75
878.491	14770.75
878.734	14783.75
878.976	14618.75
879.218	14591.75
879.46	14547.75
879.702	14471.75
879.945	14286.75
880.187	14173.75
880.429	14048.75
880.671	13915.75
880.912	13818.75
881.154	13819.75
881.396	13715.75
881.638	13845.75
881.88	13730.75
882.121	13740.75
882.363	13805.75
882.605	13754.75
882.846	13729.75
883.088	13847.75
883.329	13928.75
883.571	14175.75
883.812	14578.75
884.053	15267.75
884.295	15879.75
884.536	16225.75
884.777	16016.75
885.018	15783.75
885.259	15537.75
885.5	15279.75
885.742	15478.75
885.982	15024.75
886.223	14887.75
886.464	14664.75
886.705	14536.75
886.946	14159.75
887.187	13841.75
887.428	13587.75
887.668	13254.75
887.909	12898.75
888.15	12702.75
888.39	12581.75
888.631	12449.75
888.871	12305.75
889.111	12215.75
889.352	12084.75
889.592	11927.75
889.833	11912.75
890.073	11798.75
890.313	11748.75
890.553	11564.75
890.793	11528.75
891.033	11473.75
891.273	11456.75
891.513	11362.75
891.753	11383.75
891.993	11345.75
892.233	11358.75
892.473	11443.75
892.713	11386.75
892.952	11312.75
893.192	11304.75
893.432	11298.75
893.671	11294.75
893.911	11231.75
894.15	11220.75
894.39	10998.75
894.629	11114.75
894.869	10977.75
895.108	10862.75
895.347	10728.75
895.587	10871.75
895.826	10740.75
896.065	10745.75
896.304	10692.75
896.543	10727.75
896.782	10635.75
897.021	10628.75
897.26	10597.75
897.499	10598.75
897.738	10536.75
897.977	10498.75
898.216	10399.75
898.454	10273.75
898.693	10209.75
898.932	10276.75
899.17	10209.75
899.409	10128.75
899.647	10082.75
899.886	10118.75
900.124	10122.75
900.363	10095.75
900.601	10188.75
900.839	10175.75
901.078	10249.75
901.316	10392.75
901.554	10511.75
901.792	10518.75
902.03	10482.75
902.268	10519.75
902.506	10570.75
902.744	10435.75
902.982	10364.75
903.22	10167.75
903.458	9975.75
903.695	9866.75
903.933	9617.75
904.171	9425.75
904.409	9316.75
904.646	9136.75
904.884	9006.75
905.121	9012.75
905.359	8807.75
905.596	8742.75
905.833	8653.75
906.071	8647.75
906.308	8630.75
906.545	8620.75
906.783	8524.75
907.02	8567.75
907.257	8534.75
907.494	8491.75
907.731	8482.75
907.968	8555.75
908.205	8401.75
908.442	8341.75
908.679	8275.75
908.915	8237.75
909.152	8165.75
909.389	8066.75
909.626	8048.75
909.862	7951.75
910.099	7941.75
910.335	7983.75
910.572	7809.75
910.808	7797.75
911.045	7805.75
911.281	7763.75
911.518	7759.75
911.754	7687.75
911.99	7600.75
912.226	7571.75
912.463	7537.75
912.699	7449.75
912.935	7463.75
913.171	7396.75
913.407	7251.75
913.643	7243.75
913.879	7205.75
914.114	7131.75
914.35	7050.75
914.586	7032.75
914.822	6911.75
915.057	6947.75
915.293	6800.75
915.529	6727.75
915.764	6827.75
916	6827.75
916.235	6753.75
916.471	6749.75
916.706	6639.75
916.941	6647.75
917.177	6715.75
917.412	6685.75
917.647	6732.75
917.882	6636.75
918.117	6662.75
918.352	6643.75
918.588	6627.75
918.823	6586.75
919.057	6440.75
919.292	6272.75
919.527	6365.75
919.762	6314.75
919.997	6289.75
920.232	6147.75
920.466	6175.75
920.701	6006.75
920.935	6096.75
921.17	5988.75
921.405	5909.75
921.639	6015.75
921.873	5913.75
922.108	5919.75
922.342	5904.75
922.576	5835.75
922.811	5819.75
923.045	5852.75
923.279	5860.75
923.513	5717.75
923.747	5716.75
923.981	5733.75
924.215	5643.75
924.449	5611.75
924.683	5592.75
924.917	5559.75
925.151	5451.75
925.385	5533.75
925.618	5531.75
925.852	5481.75
926.086	5454.75
926.319	5428.75
926.553	5394.75
926.786	5466.75
927.02	5456.75
927.253	5452.75
927.486	5390.75
927.72	5368.75
927.953	5432.75
928.186	5324.75
928.42	5371.75
928.653	5290.75
928.886	5253.75
929.119	5306.75
929.352	5232.75
929.585	5216.75
929.818	5140.75
930.051	5135.75
930.284	5069.75
930.516	4982.75
930.749	4937.75
930.982	4990.75
931.215	4954.75
931.447	4882.75
931.68	4881.75
931.912	4857.75
932.145	4881.75
932.377	4866.75
932.61	5030.75
932.842	4807.75
933.074	4868.75
933.307	4797.75
933.539	4894.75
933.771	4914.75
934.003	4842.75
934.236	4916.75
934.468	4909.75
934.7	4767.75
934.932	4865.75
935.164	4752.75
935.395	4703.75
935.627	4785.75
935.859	4765.75
936.091	4710.75
936.323	4739.75
936.554	4752.75
936.786	4700.75
937.017	4607.75
937.249	4654.75
937.481	4592.75
937.712	4626.75
937.943	4603.75
938.175	4575.75
938.406	4561.75
938.637	4609.75
938.869	4515.75
939.1	4596.75
939.331	4559.75
939.562	4586.75
939.793	4507.75
940.024	4515.75
940.255	4529.75
940.486	4487.75
940.717	4447.75
940.948	4383.75
941.179	4340.75
941.409	4377.75
941.64	4365.75
941.871	4386.75
942.102	4331.75
942.332	4325.75
942.563	4373.75
942.793	4318.75
943.024	4362.75
943.254	4337.75
943.484	4392.75
943.715	4345.75
943.945	4282.75
944.175	4297.75
944.405	4246.75
944.636	4285.75
944.866	4340.75
945.096	4259.75
945.326	4209.75
945.556	4255.75
945.786	4244.75
946.016	4208.75
946.245	4198.75
946.475	4166.75
946.705	4121.75
946.935	4158.75
947.164	4116.75
947.394	4052.75
947.624	4064.75
947.853	4097.75
948.083	4008.75
948.312	3973.75
948.542	3947.75
948.771	3923.75
949	3943.75
949.23	3924.75
949.459	3907.75
949.688	4035.75
949.917	3954.75
950.146	3984.75
950.375	3988.75
950.604	3866.75
950.833	3981.75
951.062	3966.75
951.291	3860.75
951.52	3900.75
951.749	3905.75
951.978	3803.75
952.206	3840.75
952.435	3820.75
952.664	3868.75
952.892	3823.75
953.121	3812.75
953.349	3810.75
953.578	3754.75
953.806	3745.75
954.035	3653.75
954.263	3717.75
954.491	3650.75
954.719	3712.75
954.948	3664.75
955.176	3640.75
955.404	3575.75
955.632	3630.75
955.86	3669.75
956.088	3613.75
956.316	3618.75
956.544	3580.75
956.772	3538.75
956.999	3500.75
957.227	3582.75
957.455	3504.75
957.683	3457.75
957.91	3428.75
958.138	3425.75
958.365	3370.75
958.593	3397.75
958.82	3356.75
959.048	3405.75
959.275	3344.75
959.502	3351.75
959.73	3322.75
959.957	3351.75
960.184	3396.75
960.411	3332.75
960.638	3396.75
960.865	3302.75
961.092	3317.75
961.319	3238.75
961.546	3347.75
961.773	3338.75
962	3247.75
962.227	3353.75
962.454	3292.75
962.68	3244.75
962.907	3243.75
963.134	3197.75
963.36	3224.75
963.587	3206.75
963.813	3140.75
964.04	3168.75
964.266	3054.75
964.493	3181.75
964.719	3154.75
964.945	3121.75
965.171	3006.75
965.398	3083.75
965.624	3081.75
965.85	3037.75
966.076	3030.75
966.302	3053.75
966.528	3014.75
966.754	3014.75
966.98	3008.75
967.206	2977.75
967.431	2889.75
967.657	2982.75
967.883	2989.75
968.109	2998.75
968.334	2919.75
968.56	2914.75
968.785	2920.75
969.011	2850.75
969.236	2914.75
969.462	2864.75
969.687	2861.75
969.912	2916.75
970.138	2936.75
970.363	2850.75
970.588	2853.75
970.813	2795.75
971.038	2777.75
971.263	2813.75
971.488	2808.75
971.713	2860.75
971.938	2846.75
972.163	2694.75
972.388	2707.75
972.613	2704.75
972.838	2743.75
973.062	2716.75
973.287	2682.75
973.512	2657.75
973.736	2686.75
973.961	2689.75
974.185	2636.75
974.41	2632.75
974.634	2560.75
974.858	2564.75
975.083	2615.75
975.307	2601.75
975.531	2544.75
975.755	2498.75
975.98	2494.75
976.204	2433.75
976.428	2470.75
976.652	2429.75
976.876	2443.75
977.1	2452.75
977.324	2445.75
977.547	2456.75
977.771	2470.75
977.995	2451.75
978.219	2366.75
978.442	2490.75
978.666	2415.75
978.89	2410.75
979.113	2402.75
979.337	2378.75
979.56	2348.75
979.783	2463.75
980.007	2334.75
980.23	2383.75
980.453	2293.75
980.677	2350.75
980.9	2337.75
981.123	2256.75
981.346	2361.75
981.569	2273.75
981.792	2297.75
982.015	2287.75
982.238	2248.75
982.461	2288.75
982.684	2230.75
982.907	2219.75
983.129	2199.75
983.352	2265.75
983.575	2217.75
983.797	2211.75
984.02	2125.75
984.242	2162.75
984.465	2170.75
984.687	2216.75
984.91	2188.75
985.132	2183.75
985.354	2177.75
985.577	2140.75
985.799	2154.75
986.021	2041.75
986.243	2101.75
986.465	2104.75
986.687	2148.75
986.909	2189.75
987.131	2108.75
987.353	2076.75
987.575	2107.75
987.797	2063.75
988.019	2011.75
988.241	2041.75
988.462	2016.75
988.684	2110.75
988.906	2091.75
989.127	2120.75
989.349	1996.75
989.57	2022.75
989.792	2073.75
990.013	2084.75
990.234	2082.75
990.456	2084.75
990.677	2089.75
990.898	2029.75
991.119	2005.75
991.341	2064.75
991.562	1962.75
991.783	2030.75
992.004	1947.75
992.225	1938.75
992.446	1952.75
992.667	1890.75
992.887	1968.75
993.108	1858.75
993.329	1970.75
993.55	1904.75
993.77	1864.75
993.991	1839.75
994.212	1907.75
994.432	1902.75
994.653	1894.75
994.873	1886.75
995.093	1798.75
995.314	1830.75
995.534	1884.75
995.754	1933.75
995.975	1953.75
996.195	1849.75
996.415	1867.75
996.635	1879.75
996.855	1887.75
997.075	1873.75
997.295	1846.75
997.515	1828.75
997.735	1892.75
997.955	1852.75
998.174	1858.75
998.394	1842.75
998.614	1886.75
998.834	1823.75
999.053	1922.75
999.273	1845.75
999.492	1895.75
999.712	1797.75
999.931	1778.75
1000.151	1780.75
1000.37	1774.75
1000.589	1802.75
1000.809	1755.75
1001.028	1833.75
1001.247	1777.75
1001.466	1655.75
1001.685	1813.75
1001.904	1770.75
1002.123	1726.75
1002.342	1724.75
1002.561	1672.75
1002.78	1681.75
1002.999	1762.75
1003.218	1680.75
1003.436	1683.75
1003.655	1730.75
1003.874	1688.75
1004.092	1673.75
1004.311	1730.75
1004.53	1668.75
1004.748	1770.75
1004.966	1691.75
1005.185	1756.75
1005.403	1707.75
1005.622	1704.75
1005.84	1746.75
1006.058	1685.75
1006.276	1688.75
1006.494	2208.75
1006.712	1745.75
1006.931	1774.75
1007.149	1694.75
1007.367	1705.75
1007.584	1773.75
1007.802	1829.75
1008.02	1762.75
1008.238	1886.75
1008.456	1910.75
1008.673	1788.75
1008.891	1919.75
1009.109	1922.75
1009.326	2015.75
1009.544	2155.75
1009.761	2121.75
1009.979	2270.75
1010.196	2409.75
1010.413	2576.75
1010.631	2743.75
1010.848	2807.75
1011.065	2872.75
1011.282	2836.75
1011.5	2742.75
1011.717	2842.75
1011.934	2751.75
1012.151	2771.75
1012.368	2757.75
1012.585	2677.75
1012.801	2730.75
1013.018	2699.75
1013.235	2692.75
1013.452	2667.75
1013.669	2709.75
1013.885	2748.75
1014.102	2796.75
1014.318	2822.75
1014.535	2739.75
1014.751	2790.75
1014.968	2780.75
1015.184	2764.75
1015.401	2663.75
1015.617	2643.75
1015.833	2565.75
1016.049	2540.75
1016.266	2504.75
1016.482	2517.75
1016.698	2388.75
1016.914	2494.75
1017.13	2350.75
1017.346	2334.75
1017.562	2368.75
1017.778	2312.75
1017.993	2255.75
1018.209	2274.75
1018.425	2280.75
1018.641	2201.75
1018.856	2195.75
1019.072	2221.75
1019.288	2248.75
1019.503	2196.75
1019.719	2138.75
1019.934	2106.75
1020.149	2162.75
1020.365	2078.75
1020.58	1970.75
1020.795	2023.75
1021.011	1894.75
1021.226	1852.75
1021.441	1855.75
1021.656	1733.75
1021.871	1664.75
1022.086	1641.75
1022.301	1627.75
1022.516	1600.75
1022.731	1654.75
1022.946	1513.75
1023.16	1497.75
1023.375	1435.75
1023.59	1430.75
1023.804	1361.75
1024.019	1440.75
1024.234	1286.75
1024.448	1323.75
1024.663	1227.75
1024.877	1227.75
1025.092	1233.75
1025.306	1215.75
1025.52	1092.75
1025.734	1196.75
1025.949	1095.75
1026.163	1050.75
1026.377	979.75
1026.591	1027.75
1026.805	966.75
1027.019	952.75
1027.233	906.75
1027.447	837.75
1027.661	944.75
1027.875	894.75
1028.088	880.75
1028.302	804.75
1028.516	792.75
1028.73	787.75
1028.943	771.75
1029.157	710.75
1029.37	672.75
1029.584	-1.25
1029.797	-6.25
1030.011	0.75
1030.224	-1.25
