Data from QEP037381__174__15-25-30-385.txt Node

Date: Wed Dec 21 15:25:30 EST 2022
User: dcclab
Spectrometer: QEP03738
Trigger mode: 4
Integration Time (sec): 1.000000E1
Scans to average: 1
Electric dark correction enabled: true
Nonlinearity correction enabled: false
Boxcar width: 0
XAxis mode: Wavelengths
Number of Pixels in Spectrum: 1044
>>>>>Begin Spectral Data<<<<<
784.041	11.38
784.3	1.38
784.558	-6.62
784.817	-3.62
785.075	104327.38
785.334	17794.38
785.592	8219.38
785.851	5686.38
786.109	4228.38
786.368	3313.38
786.626	2658.38
786.884	2242.38
787.143	1855.38
787.401	1539.38
787.659	1398.38
787.917	1178.38
788.175	1087.38
788.433	942.38
788.691	866.38
788.949	784.38
789.207	769.38
789.465	666.38
789.723	640.38
789.98	589.38
790.238	615.38
790.496	583.38
790.753	561.38
791.011	606.38
791.268	539.38
791.526	537.38
791.783	530.38
792.041	514.38
792.298	443.38
792.556	517.38
792.813	478.38
793.07	457.38
793.327	435.38
793.584	525.38
793.841	441.38
794.099	466.38
794.356	524.38
794.613	430.38
794.869	452.38
795.126	424.38
795.383	410.38
795.64	420.38
795.897	388.38
796.153	444.38
796.41	416.38
796.667	393.38
796.923	417.38
797.18	415.38
797.436	443.38
797.693	392.38
797.949	459.38
798.206	468.38
798.462	393.38
798.718	462.38
798.974	440.38
799.231	465.38
799.487	476.38
799.743	465.38
799.999	485.38
800.255	509.38
800.511	473.38
800.767	512.38
801.023	510.38
801.279	545.38
801.534	565.38
801.79	610.38
802.046	630.38
802.302	752.38
802.557	844.38
802.813	1050.38
803.068	1287.38
803.324	1716.38
803.579	2311.38
803.835	3152.38
804.09	4325.38
804.345	5555.38
804.601	6932.38
804.856	8374.38
805.111	9587.38
805.366	10558.38
805.621	11332.38
805.876	11798.38
806.131	12070.38
806.386	12320.38
806.641	12496.38
806.896	12677.38
807.151	13003.38
807.406	13112.38
807.661	13293.38
807.915	13492.38
808.17	13739.38
808.425	13832.38
808.679	13935.38
808.934	14015.38
809.188	14097.38
809.443	14258.38
809.697	14501.38
809.951	14509.38
810.206	14680.38
810.46	14737.38
810.714	14813.38
810.968	15089.38
811.223	15081.38
811.477	15298.38
811.731	15521.38
811.985	15348.38
812.239	15385.38
812.493	15460.38
812.747	15551.38
813	15425.38
813.254	15562.38
813.508	15599.38
813.762	15718.38
814.015	15684.38
814.269	15886.38
814.522	15889.38
814.776	16120.38
815.03	16253.38
815.283	16485.38
815.536	16739.38
815.79	17017.38
816.043	17159.38
816.296	17391.38
816.55	17601.38
816.803	17827.38
817.056	17993.38
817.309	18307.38
817.562	18366.38
817.815	18457.38
818.068	18506.38
818.321	18730.38
818.574	18827.38
818.827	19247.38
819.079	19271.38
819.332	19784.38
819.585	20016.38
819.838	20209.38
820.09	20229.38
820.343	20289.38
820.595	20230.38
820.848	20526.38
821.1	20543.38
821.353	20605.38
821.605	20534.38
821.857	20411.38
822.11	20212.38
822.362	20300.38
822.614	20308.38
822.866	20361.38
823.118	20237.38
823.37	20459.38
823.622	20559.38
823.874	20509.38
824.126	20642.38
824.378	20474.38
824.63	20535.38
824.882	20655.38
825.134	20592.38
825.385	20547.38
825.637	20498.38
825.888	20372.38
826.14	20364.38
826.392	20375.38
826.643	20093.38
826.895	20161.38
827.146	19917.38
827.397	19918.38
827.649	20015.38
827.9	20002.38
828.151	19902.38
828.402	19846.38
828.653	20028.38
828.905	20043.38
829.156	20080.38
829.407	20103.38
829.658	20267.38
829.909	20496.38
830.159	20653.38
830.41	20479.38
830.661	20262.38
830.912	20021.38
831.162	19924.38
831.413	19929.38
831.664	19978.38
831.914	19948.38
832.165	19781.38
832.415	19817.38
832.666	19819.38
832.916	19821.38
833.167	19791.38
833.417	19852.38
833.667	19794.38
833.917	19544.38
834.168	19598.38
834.418	19578.38
834.668	19568.38
834.918	19402.38
835.168	19370.38
835.418	19284.38
835.668	19218.38
835.918	19116.38
836.167	19000.38
836.417	18955.38
836.667	19106.38
836.917	19092.38
837.166	19094.38
837.416	19167.38
837.666	19219.38
837.915	19134.38
838.165	19040.38
838.414	18962.38
838.663	19057.38
838.913	19017.38
839.162	18867.38
839.411	18958.38
839.661	18948.38
839.91	18920.38
840.159	18907.38
840.408	18921.38
840.657	18958.38
840.906	18881.38
841.155	18832.38
841.404	18861.38
841.653	18886.38
841.902	18969.38
842.15	18963.38
842.399	19072.38
842.648	19079.38
842.897	19053.38
843.145	18823.38
843.394	18705.38
843.642	18581.38
843.891	18457.38
844.139	18208.38
844.388	18196.38
844.636	18075.38
844.884	18046.38
845.133	17930.38
845.381	17936.38
845.629	18058.38
845.877	18121.38
846.125	18018.38
846.373	18035.38
846.621	17806.38
846.869	17851.38
847.117	17808.38
847.365	17640.38
847.613	17483.38
847.861	17581.38
848.108	17628.38
848.356	17597.38
848.604	17607.38
848.851	17545.38
849.099	17543.38
849.346	17574.38
849.594	17639.38
849.841	17675.38
850.089	17612.38
850.336	17647.38
850.583	17674.38
850.831	17634.38
851.078	17502.38
851.325	17484.38
851.572	17651.38
851.819	17571.38
852.066	17164.38
852.313	16883.38
852.56	16711.38
852.807	16652.38
853.054	16633.38
853.301	16752.38
853.548	16695.38
853.794	16734.38
854.041	16795.38
854.288	16968.38
854.534	17124.38
854.781	17089.38
855.028	17064.38
855.274	17092.38
855.52	17096.38
855.767	17107.38
856.013	17351.38
856.26	17668.38
856.506	17057.38
856.752	16874.38
856.998	16831.38
857.244	16899.38
857.49	17078.38
857.736	17163.38
857.982	17097.38
858.228	16993.38
858.474	16657.38
858.72	16497.38
858.966	16475.38
859.212	16214.38
859.458	16012.38
859.703	15896.38
859.949	15740.38
860.195	15650.38
860.44	15530.38
860.686	15579.38
860.931	15684.38
861.177	15488.38
861.422	15253.38
861.667	15213.38
861.913	15024.38
862.158	15062.38
862.403	15065.38
862.648	15023.38
862.893	15176.38
863.138	15008.38
863.384	14986.38
863.629	14929.38
863.873	15039.38
864.118	14930.38
864.363	14927.38
864.608	14788.38
864.853	14795.38
865.098	14713.38
865.342	14589.38
865.587	14500.38
865.832	14580.38
866.076	14487.38
866.321	14448.38
866.565	14336.38
866.81	14343.38
867.054	14343.38
867.298	14333.38
867.543	14246.38
867.787	14216.38
868.031	14188.38
868.275	14173.38
868.519	14128.38
868.764	14166.38
869.008	14112.38
869.252	14168.38
869.496	14105.38
869.739	14128.38
869.983	14112.38
870.227	14215.38
870.471	14245.38
870.715	14301.38
870.958	14335.38
871.202	14342.38
871.446	14508.38
871.689	14458.38
871.933	14419.38
872.176	14448.38
872.42	14421.38
872.663	14386.38
872.906	14437.38
873.15	14558.38
873.393	14665.38
873.636	14777.38
873.879	14603.38
874.122	14305.38
874.366	14052.38
874.609	13836.38
874.852	13558.38
875.095	13400.38
875.337	13311.38
875.58	13207.38
875.823	13248.38
876.066	13179.38
876.309	13144.38
876.551	12896.38
876.794	12877.38
877.037	12844.38
877.279	12835.38
877.522	12827.38
877.764	12818.38
878.007	12717.38
878.249	12700.38
878.491	12595.38
878.734	12579.38
878.976	12462.38
879.218	12450.38
879.46	12468.38
879.702	12308.38
879.945	12202.38
880.187	12053.38
880.429	11956.38
880.671	11864.38
880.912	11798.38
881.154	11842.38
881.396	11718.38
881.638	11771.38
881.88	11771.38
882.121	11771.38
882.363	11700.38
882.605	11784.38
882.846	11752.38
883.088	11867.38
883.329	11973.38
883.571	12111.38
883.812	12549.38
884.053	13146.38
884.295	13784.38
884.536	14131.38
884.777	14015.38
885.018	13648.38
885.259	13455.38
885.5	13277.38
885.742	13436.38
885.982	13077.38
886.223	12922.38
886.464	12755.38
886.705	12499.38
886.946	12259.38
887.187	11814.38
887.428	11670.38
887.668	11306.38
887.909	11025.38
888.15	10912.38
888.39	10719.38
888.631	10777.38
888.871	10598.38
889.111	10483.38
889.352	10437.38
889.592	10221.38
889.833	10096.38
890.073	10106.38
890.313	10011.38
890.553	9960.38
890.793	9803.38
891.033	9754.38
891.273	9681.38
891.513	9716.38
891.753	9692.38
891.993	9696.38
892.233	9709.38
892.473	9794.38
892.713	9738.38
892.952	9630.38
893.192	9740.38
893.432	9642.38
893.671	9725.38
893.911	9606.38
894.15	9577.38
894.39	9474.38
894.629	9442.38
894.869	9405.38
895.108	9400.38
895.347	9248.38
895.587	9322.38
895.826	9197.38
896.065	9144.38
896.304	9186.38
896.543	9251.38
896.782	9097.38
897.021	9156.38
897.26	9078.38
897.499	9139.38
897.738	8982.38
897.977	9000.38
898.216	8911.38
898.454	8847.38
898.693	8795.38
898.932	8743.38
899.17	8739.38
899.409	8745.38
899.647	8724.38
899.886	8648.38
900.124	8711.38
900.363	8701.38
900.601	8798.38
900.839	8772.38
901.078	8928.38
901.316	9010.38
901.554	8995.38
901.792	9143.38
902.03	9114.38
902.268	9171.38
902.506	9198.38
902.744	9080.38
902.982	8984.38
903.22	8798.38
903.458	8720.38
903.695	8491.38
903.933	8314.38
904.171	8112.38
904.409	7931.38
904.646	7891.38
904.884	7754.38
905.121	7679.38
905.359	7648.38
905.596	7567.38
905.833	7461.38
906.071	7447.38
906.308	7424.38
906.545	7385.38
906.783	7297.38
907.02	7330.38
907.257	7325.38
907.494	7334.38
907.731	7321.38
907.968	7308.38
908.205	7203.38
908.442	7146.38
908.679	7140.38
908.915	7034.38
909.152	7019.38
909.389	6841.38
909.626	6900.38
909.862	6871.38
910.099	6840.38
910.335	6818.38
910.572	6718.38
910.808	6714.38
911.045	6680.38
911.281	6623.38
911.518	6697.38
911.754	6605.38
911.99	6559.38
912.226	6482.38
912.463	6448.38
912.699	6370.38
912.935	6366.38
913.171	6328.38
913.407	6262.38
913.643	6250.38
913.879	6168.38
914.114	6115.38
914.35	6070.38
914.586	6029.38
914.822	5944.38
915.057	5975.38
915.293	5806.38
915.529	5784.38
915.764	5889.38
916	5852.38
916.235	5775.38
916.471	5828.38
916.706	5711.38
916.941	5779.38
917.177	5719.38
917.412	5738.38
917.647	5727.38
917.882	5691.38
918.117	5725.38
918.352	5712.38
918.588	5726.38
918.823	5618.38
919.057	5577.38
919.292	5450.38
919.527	5531.38
919.762	5398.38
919.997	5390.38
920.232	5329.38
920.466	5331.38
920.701	5172.38
920.935	5176.38
921.17	5143.38
921.405	5059.38
921.639	5162.38
921.873	5087.38
922.108	5119.38
922.342	5112.38
922.576	5043.38
922.811	4996.38
923.045	5030.38
923.279	5039.38
923.513	4920.38
923.747	4918.38
923.981	4882.38
924.215	4812.38
924.449	4825.38
924.683	4785.38
924.917	4763.38
925.151	4780.38
925.385	4781.38
925.618	4726.38
925.852	4717.38
926.086	4703.38
926.319	4693.38
926.553	4662.38
926.786	4670.38
927.02	4686.38
927.253	4680.38
927.486	4731.38
927.72	4612.38
927.953	4615.38
928.186	4595.38
928.42	4650.38
928.653	4541.38
928.886	4521.38
929.119	4556.38
929.352	4499.38
929.585	4513.38
929.818	4439.38
930.051	4412.38
930.284	4423.38
930.516	4291.38
930.749	4313.38
930.982	4374.38
931.215	4274.38
931.447	4193.38
931.68	4232.38
931.912	4229.38
932.145	4247.38
932.377	4261.38
932.61	4322.38
932.842	4152.38
933.074	4248.38
933.307	4191.38
933.539	4284.38
933.771	4243.38
934.003	4214.38
934.236	4200.38
934.468	4228.38
934.7	4138.38
934.932	4215.38
935.164	4177.38
935.395	4147.38
935.627	4104.38
935.859	4101.38
936.091	4076.38
936.323	4063.38
936.554	4082.38
936.786	4037.38
937.017	4004.38
937.249	4035.38
937.481	3950.38
937.712	4079.38
937.943	3973.38
938.175	3973.38
938.406	3951.38
938.637	4015.38
938.869	3961.38
939.1	3969.38
939.331	3897.38
939.562	3919.38
939.793	3948.38
940.024	3931.38
940.255	3926.38
940.486	3889.38
940.717	3888.38
940.948	3819.38
941.179	3777.38
941.409	3832.38
941.64	3783.38
941.871	3785.38
942.102	3743.38
942.332	3760.38
942.563	3825.38
942.793	3792.38
943.024	3762.38
943.254	3746.38
943.484	3851.38
943.715	3830.38
943.945	3761.38
944.175	3764.38
944.405	3705.38
944.636	3712.38
944.866	3722.38
945.096	3774.38
945.326	3662.38
945.556	3762.38
945.786	3731.38
946.016	3644.38
946.245	3610.38
946.475	3632.38
946.705	3606.38
946.935	3579.38
947.164	3616.38
947.394	3535.38
947.624	3540.38
947.853	3559.38
948.083	3529.38
948.312	3495.38
948.542	3417.38
948.771	3423.38
949	3428.38
949.23	3451.38
949.459	3499.38
949.688	3493.38
949.917	3409.38
950.146	3475.38
950.375	3476.38
950.604	3399.38
950.833	3504.38
951.062	3443.38
951.291	3408.38
951.52	3340.38
951.749	3403.38
951.978	3314.38
952.206	3338.38
952.435	3329.38
952.664	3369.38
952.892	3348.38
953.121	3310.38
953.349	3324.38
953.578	3325.38
953.806	3299.38
954.035	3225.38
954.263	3253.38
954.491	3224.38
954.719	3200.38
954.948	3187.38
955.176	3159.38
955.404	3122.38
955.632	3189.38
955.86	3156.38
956.088	3128.38
956.316	3167.38
956.544	3123.38
956.772	3080.38
956.999	3058.38
957.227	3140.38
957.455	3040.38
957.683	3004.38
957.91	3013.38
958.138	2998.38
958.365	2998.38
958.593	2990.38
958.82	2969.38
959.048	2968.38
959.275	2963.38
959.502	2953.38
959.73	2908.38
959.957	2961.38
960.184	2950.38
960.411	2920.38
960.638	3017.38
960.865	2916.38
961.092	2959.38
961.319	2857.38
961.546	2940.38
961.773	2890.38
962	2853.38
962.227	2919.38
962.454	2895.38
962.68	2846.38
962.907	2904.38
963.134	2818.38
963.36	2820.38
963.587	2840.38
963.813	2747.38
964.04	2791.38
964.266	2717.38
964.493	2797.38
964.719	2738.38
964.945	2751.38
965.171	2662.38
965.398	2717.38
965.624	2742.38
965.85	2678.38
966.076	2646.38
966.302	2662.38
966.528	2651.38
966.754	2652.38
966.98	2677.38
967.206	2653.38
967.431	2572.38
967.657	2674.38
967.883	2603.38
968.109	2640.38
968.334	2530.38
968.56	2554.38
968.785	2575.38
969.011	2517.38
969.236	2578.38
969.462	2522.38
969.687	2513.38
969.912	2553.38
970.138	2606.38
970.363	2448.38
970.588	2515.38
970.813	2518.38
971.038	2458.38
971.263	2485.38
971.488	2485.38
971.713	2508.38
971.938	2479.38
972.163	2394.38
972.388	2422.38
972.613	2402.38
972.838	2410.38
973.062	2392.38
973.287	2413.38
973.512	2329.38
973.736	2358.38
973.961	2343.38
974.185	2313.38
974.41	2366.38
974.634	2270.38
974.858	2282.38
975.083	2297.38
975.307	2332.38
975.531	2247.38
975.755	2198.38
975.98	2220.38
976.204	2187.38
976.428	2175.38
976.652	2170.38
976.876	2145.38
977.1	2157.38
977.324	2162.38
977.547	2205.38
977.771	2194.38
977.995	2165.38
978.219	2096.38
978.442	2205.38
978.666	2157.38
978.89	2130.38
979.113	2124.38
979.337	2122.38
979.56	2094.38
979.783	2173.38
980.007	2040.38
980.23	2069.38
980.453	2067.38
980.677	2105.38
980.9	2090.38
981.123	1970.38
981.346	2081.38
981.569	2046.38
981.792	2067.38
982.015	2051.38
982.238	1973.38
982.461	1995.38
982.684	2009.38
982.907	1956.38
983.129	1971.38
983.352	1987.38
983.575	1987.38
983.797	1973.38
984.02	1946.38
984.242	1935.38
984.465	1946.38
984.687	1964.38
984.91	1972.38
985.132	1951.38
985.354	1925.38
985.577	1930.38
985.799	1915.38
986.021	1848.38
986.243	1843.38
986.465	1889.38
986.687	1938.38
986.909	1978.38
987.131	1900.38
987.353	1874.38
987.575	1891.38
987.797	1861.38
988.019	1796.38
988.241	1889.38
988.462	1808.38
988.684	1883.38
988.906	1889.38
989.127	1916.38
989.349	1784.38
989.57	1816.38
989.792	1890.38
990.013	1881.38
990.234	1869.38
990.456	1929.38
990.677	1862.38
990.898	1824.38
991.119	1812.38
991.341	1859.38
991.562	1767.38
991.783	1833.38
992.004	1764.38
992.225	1731.38
992.446	1791.38
992.667	1689.38
992.887	1786.38
993.108	1688.38
993.329	1826.38
993.55	1743.38
993.77	1690.38
993.991	1692.38
994.212	1723.38
994.432	1707.38
994.653	1726.38
994.873	1722.38
995.093	1613.38
995.314	1644.38
995.534	1720.38
995.754	1732.38
995.975	1750.38
996.195	1640.38
996.415	1717.38
996.635	1699.38
996.855	1701.38
997.075	1684.38
997.295	1692.38
997.515	1670.38
997.735	1760.38
997.955	1695.38
998.174	1699.38
998.394	1649.38
998.614	1696.38
998.834	1643.38
999.053	1712.38
999.273	1669.38
999.492	1729.38
999.712	1666.38
999.931	1594.38
1000.151	1645.38
1000.37	1658.38
1000.589	1702.38
1000.809	1585.38
1001.028	1693.38
1001.247	1631.38
1001.466	1523.38
1001.685	1669.38
1001.904	1611.38
1002.123	1601.38
1002.342	1577.38
1002.561	1556.38
1002.78	1552.38
1002.999	1633.38
1003.218	1570.38
1003.436	1558.38
1003.655	1588.38
1003.874	1537.38
1004.092	1550.38
1004.311	1568.38
1004.53	1549.38
1004.748	1618.38
1004.966	1535.38
1005.185	1590.38
1005.403	1596.38
1005.622	1587.38
1005.84	1649.38
1006.058	1551.38
1006.276	1605.38
1006.494	2070.38
1006.712	1581.38
1006.931	1639.38
1007.149	1558.38
1007.367	1577.38
1007.584	1627.38
1007.802	1687.38
1008.02	1663.38
1008.238	1749.38
1008.456	1781.38
1008.673	1619.38
1008.891	1811.38
1009.109	1792.38
1009.326	1882.38
1009.544	1983.38
1009.761	1957.38
1009.979	2114.38
1010.196	2192.38
1010.413	2381.38
1010.631	2496.38
1010.848	2575.38
1011.065	2626.38
1011.282	2548.38
1011.5	2495.38
1011.717	2598.38
1011.934	2495.38
1012.151	2527.38
1012.368	2525.38
1012.585	2473.38
1012.801	2526.38
1013.018	2505.38
1013.235	2475.38
1013.452	2471.38
1013.669	2496.38
1013.885	2529.38
1014.102	2596.38
1014.318	2536.38
1014.535	2509.38
1014.751	2552.38
1014.968	2565.38
1015.184	2569.38
1015.401	2431.38
1015.617	2462.38
1015.833	2390.38
1016.049	2356.38
1016.266	2311.38
1016.482	2306.38
1016.698	2209.38
1016.914	2244.38
1017.13	2192.38
1017.346	2142.38
1017.562	2229.38
1017.778	2111.38
1017.993	2089.38
1018.209	2127.38
1018.425	2115.38
1018.641	2057.38
1018.856	2019.38
1019.072	2075.38
1019.288	2128.38
1019.503	2047.38
1019.719	1970.38
1019.934	1962.38
1020.149	2033.38
1020.365	1929.38
1020.58	1860.38
1020.795	1887.38
1021.011	1785.38
1021.226	1750.38
1021.441	1750.38
1021.656	1616.38
1021.871	1602.38
1022.086	1563.38
1022.301	1525.38
1022.516	1515.38
1022.731	1538.38
1022.946	1454.38
1023.16	1417.38
1023.375	1381.38
1023.59	1325.38
1023.804	1286.38
1024.019	1351.38
1024.234	1217.38
1024.448	1219.38
1024.663	1176.38
1024.877	1151.38
1025.092	1154.38
1025.306	1138.38
1025.52	1051.38
1025.734	1131.38
1025.949	1027.38
1026.163	987.38
1026.377	942.38
1026.591	978.38
1026.805	899.38
1027.019	887.38
1027.233	881.38
1027.447	817.38
1027.661	888.38
1027.875	839.38
1028.088	839.38
1028.302	760.38
1028.516	764.38
1028.73	761.38
1028.943	741.38
1029.157	680.38
1029.37	627.38
1029.584	1.38
1029.797	-2.62
1030.011	-1.62
1030.224	0.38
