Data from QEP037381__166__15-24-10-384.txt Node

Date: Wed Dec 21 15:24:10 EST 2022
User: dcclab
Spectrometer: QEP03738
Trigger mode: 4
Integration Time (sec): 1.000000E1
Scans to average: 1
Electric dark correction enabled: true
Nonlinearity correction enabled: false
Boxcar width: 0
XAxis mode: Wavelengths
Number of Pixels in Spectrum: 1044
>>>>>Begin Spectral Data<<<<<
784.041	12.12
784.3	-0.88
784.558	-4.88
784.817	-5.88
785.075	99720.12
785.334	16975.12
785.592	7945.12
785.851	5378.12
786.109	4112.12
786.368	3233.12
786.626	2588.12
786.884	2175.12
787.143	1802.12
787.401	1460.12
787.659	1343.12
787.917	1162.12
788.175	1054.12
788.433	948.12
788.691	853.12
788.949	788.12
789.207	778.12
789.465	644.12
789.723	643.12
789.98	591.12
790.238	606.12
790.496	586.12
790.753	550.12
791.011	592.12
791.268	533.12
791.526	508.12
791.783	533.12
792.041	511.12
792.298	414.12
792.556	488.12
792.813	469.12
793.07	458.12
793.327	446.12
793.584	528.12
793.841	446.12
794.099	466.12
794.356	507.12
794.613	417.12
794.869	457.12
795.126	418.12
795.383	395.12
795.64	441.12
795.897	384.12
796.153	431.12
796.41	426.12
796.667	398.12
796.923	409.12
797.18	415.12
797.436	455.12
797.693	393.12
797.949	454.12
798.206	481.12
798.462	388.12
798.718	449.12
798.974	423.12
799.231	459.12
799.487	463.12
799.743	463.12
799.999	481.12
800.255	486.12
800.511	466.12
800.767	497.12
801.023	504.12
801.279	524.12
801.534	555.12
801.79	584.12
802.046	611.12
802.302	719.12
802.557	829.12
802.813	1024.12
803.068	1247.12
803.324	1660.12
803.579	2224.12
803.835	3024.12
804.09	4128.12
804.345	5311.12
804.601	6616.12
804.856	7968.12
805.111	9142.12
805.366	10069.12
805.621	10865.12
805.876	11369.12
806.131	11607.12
806.386	11782.12
806.641	11987.12
806.896	12216.12
807.151	12376.12
807.406	12515.12
807.661	12703.12
807.915	12928.12
808.17	13140.12
808.425	13267.12
808.679	13317.12
808.934	13440.12
809.188	13457.12
809.443	13643.12
809.697	13806.12
809.951	13867.12
810.206	13984.12
810.46	14113.12
810.714	14231.12
810.968	14344.12
811.223	14470.12
811.477	14667.12
811.731	14791.12
811.985	14813.12
812.239	14755.12
812.493	14754.12
812.747	14752.12
813	14813.12
813.254	14949.12
813.508	14978.12
813.762	15034.12
814.015	15022.12
814.269	15155.12
814.522	15161.12
814.776	15299.12
815.03	15628.12
815.283	15745.12
815.536	16077.12
815.79	16327.12
816.043	16504.12
816.296	16687.12
816.55	16764.12
816.803	16949.12
817.056	17182.12
817.309	17307.12
817.562	17484.12
817.815	17681.12
818.068	17693.12
818.321	17932.12
818.574	18022.12
818.827	18216.12
819.079	18405.12
819.332	18842.12
819.585	19117.12
819.838	19375.12
820.09	19269.12
820.343	19214.12
820.595	19377.12
820.848	19388.12
821.1	19514.12
821.353	19601.12
821.605	19510.12
821.857	19460.12
822.11	19302.12
822.362	19292.12
822.614	19371.12
822.866	19375.12
823.118	19249.12
823.37	19480.12
823.622	19462.12
823.874	19723.12
824.126	19662.12
824.378	19475.12
824.63	19615.12
824.882	19645.12
825.134	19608.12
825.385	19540.12
825.637	19413.12
825.888	19367.12
826.14	19408.12
826.392	19251.12
826.643	19021.12
826.895	19140.12
827.146	19085.12
827.397	19010.12
827.649	18951.12
827.9	18846.12
828.151	18940.12
828.402	18953.12
828.653	19077.12
828.905	19053.12
829.156	19107.12
829.407	19179.12
829.658	19287.12
829.909	19536.12
830.159	19790.12
830.41	19673.12
830.661	19278.12
830.912	19053.12
831.162	19085.12
831.413	18980.12
831.664	19025.12
831.914	19008.12
832.165	18955.12
832.415	18926.12
832.666	18863.12
832.916	18962.12
833.167	19033.12
833.417	19014.12
833.667	18894.12
833.917	18768.12
834.168	18770.12
834.418	18798.12
834.668	18543.12
834.918	18496.12
835.168	18464.12
835.418	18310.12
835.668	18247.12
835.918	18317.12
836.167	18232.12
836.417	18119.12
836.667	18290.12
836.917	18177.12
837.166	18253.12
837.416	18392.12
837.666	18369.12
837.915	18304.12
838.165	18213.12
838.414	18274.12
838.663	18171.12
838.913	18169.12
839.162	18215.12
839.411	18211.12
839.661	18121.12
839.91	18160.12
840.159	18196.12
840.408	18187.12
840.657	18146.12
840.906	18216.12
841.155	18067.12
841.404	18073.12
841.653	18127.12
841.902	18132.12
842.15	18271.12
842.399	18358.12
842.648	18283.12
842.897	18276.12
843.145	18030.12
843.394	17991.12
843.642	17791.12
843.891	17769.12
844.139	17525.12
844.388	17366.12
844.636	17289.12
844.884	17334.12
845.133	17334.12
845.381	17402.12
845.629	17332.12
845.877	17363.12
846.125	17386.12
846.373	17273.12
846.621	17190.12
846.869	17168.12
847.117	17066.12
847.365	16959.12
847.613	16949.12
847.861	16925.12
848.108	16964.12
848.356	16908.12
848.604	16869.12
848.851	16987.12
849.099	16938.12
849.346	16913.12
849.594	16955.12
849.841	16953.12
850.089	16990.12
850.336	17023.12
850.583	17060.12
850.831	16898.12
851.078	16913.12
851.325	16868.12
851.572	17065.12
851.819	16948.12
852.066	16560.12
852.313	16192.12
852.56	16115.12
852.807	16102.12
853.054	16102.12
853.301	16175.12
853.548	16122.12
853.794	16328.12
854.041	16343.12
854.288	16266.12
854.534	16569.12
854.781	16518.12
855.028	16323.12
855.274	16555.12
855.52	16581.12
855.767	16672.12
856.013	16956.12
856.26	17224.12
856.506	16636.12
856.752	16471.12
856.998	16381.12
857.244	16499.12
857.49	16642.12
857.736	16684.12
857.982	16613.12
858.228	16522.12
858.474	16193.12
858.72	16024.12
858.966	15848.12
859.212	15673.12
859.458	15480.12
859.703	15435.12
859.949	15146.12
860.195	15093.12
860.44	15134.12
860.686	15110.12
860.931	15236.12
861.177	14979.12
861.422	14840.12
861.667	14564.12
861.913	14513.12
862.158	14553.12
862.403	14563.12
862.648	14525.12
862.893	14594.12
863.138	14421.12
863.384	14465.12
863.629	14507.12
863.873	14419.12
864.118	14390.12
864.363	14427.12
864.608	14427.12
864.853	14273.12
865.098	14152.12
865.342	14089.12
865.587	14093.12
865.832	14071.12
866.076	14045.12
866.321	13891.12
866.565	13886.12
866.81	13872.12
867.054	13796.12
867.298	13762.12
867.543	13688.12
867.787	13760.12
868.031	13672.12
868.275	13647.12
868.519	13685.12
868.764	13698.12
869.008	13620.12
869.252	13691.12
869.496	13668.12
869.739	13674.12
869.983	13831.12
870.227	13811.12
870.471	13859.12
870.715	13901.12
870.958	13974.12
871.202	14022.12
871.446	14150.12
871.689	14126.12
871.933	14131.12
872.176	14106.12
872.42	14062.12
872.663	14043.12
872.906	14167.12
873.15	14304.12
873.393	14485.12
873.636	14564.12
873.879	14459.12
874.122	14100.12
874.366	13831.12
874.609	13577.12
874.852	13251.12
875.095	13143.12
875.337	12994.12
875.58	12822.12
875.823	12853.12
876.066	12901.12
876.309	12723.12
876.551	12609.12
876.794	12467.12
877.037	12572.12
877.279	12435.12
877.522	12478.12
877.764	12436.12
878.007	12335.12
878.249	12299.12
878.491	12222.12
878.734	12270.12
878.976	12158.12
879.218	12115.12
879.46	12026.12
879.702	11910.12
879.945	11815.12
880.187	11709.12
880.429	11608.12
880.671	11470.12
880.912	11457.12
881.154	11388.12
881.396	11404.12
881.638	11371.12
881.88	11440.12
882.121	11339.12
882.363	11343.12
882.605	11501.12
882.846	11493.12
883.088	11582.12
883.329	11632.12
883.571	11936.12
883.812	12481.12
884.053	13116.12
884.295	13838.12
884.536	14264.12
884.777	14021.12
885.018	13790.12
885.259	13508.12
885.5	13326.12
885.742	13385.12
885.982	13130.12
886.223	12857.12
886.464	12680.12
886.705	12339.12
886.946	12169.12
887.187	11641.12
887.428	11479.12
887.668	11047.12
887.909	10799.12
888.15	10613.12
888.39	10442.12
888.631	10385.12
888.871	10213.12
889.111	10115.12
889.352	9994.12
889.592	9907.12
889.833	9769.12
890.073	9662.12
890.313	9697.12
890.553	9516.12
890.793	9524.12
891.033	9418.12
891.273	9383.12
891.513	9381.12
891.753	9364.12
891.993	9363.12
892.233	9286.12
892.473	9415.12
892.713	9386.12
892.952	9347.12
893.192	9406.12
893.432	9275.12
893.671	9295.12
893.911	9248.12
894.15	9267.12
894.39	9093.12
894.629	9084.12
894.869	9077.12
895.108	8976.12
895.347	8904.12
895.587	8962.12
895.826	8864.12
896.065	8864.12
896.304	8826.12
896.543	8908.12
896.782	8732.12
897.021	8809.12
897.26	8776.12
897.499	8791.12
897.738	8829.12
897.977	8701.12
898.216	8668.12
898.454	8595.12
898.693	8559.12
898.932	8538.12
899.17	8483.12
899.409	8384.12
899.647	8471.12
899.886	8386.12
900.124	8449.12
900.363	8507.12
900.601	8539.12
900.839	8605.12
901.078	8642.12
901.316	8739.12
901.554	8827.12
901.792	8982.12
902.03	9072.12
902.268	8990.12
902.506	9071.12
902.744	8914.12
902.982	8869.12
903.22	8687.12
903.458	8496.12
903.695	8351.12
903.933	8092.12
904.171	7906.12
904.409	7785.12
904.646	7695.12
904.884	7516.12
905.121	7489.12
905.359	7335.12
905.596	7296.12
905.833	7119.12
906.071	7208.12
906.308	7206.12
906.545	7162.12
906.783	7092.12
907.02	7095.12
907.257	7068.12
907.494	7108.12
907.731	7029.12
907.968	7013.12
908.205	6931.12
908.442	6879.12
908.679	6841.12
908.915	6786.12
909.152	6758.12
909.389	6700.12
909.626	6646.12
909.862	6568.12
910.099	6548.12
910.335	6554.12
910.572	6482.12
910.808	6493.12
911.045	6383.12
911.281	6419.12
911.518	6472.12
911.754	6278.12
911.99	6311.12
912.226	6293.12
912.463	6226.12
912.699	6135.12
912.935	6140.12
913.171	6083.12
913.407	6033.12
913.643	6034.12
913.879	5978.12
914.114	5873.12
914.35	5799.12
914.586	5747.12
914.822	5720.12
915.057	5783.12
915.293	5624.12
915.529	5604.12
915.764	5671.12
916	5662.12
916.235	5567.12
916.471	5637.12
916.706	5553.12
916.941	5545.12
917.177	5599.12
917.412	5547.12
917.647	5553.12
917.882	5499.12
918.117	5526.12
918.352	5506.12
918.588	5444.12
918.823	5448.12
919.057	5418.12
919.292	5277.12
919.527	5343.12
919.762	5197.12
919.997	5263.12
920.232	5096.12
920.466	5127.12
920.701	5014.12
920.935	4997.12
921.17	4971.12
921.405	4883.12
921.639	4939.12
921.873	4904.12
922.108	4915.12
922.342	4929.12
922.576	4838.12
922.811	4817.12
923.045	4882.12
923.279	4827.12
923.513	4759.12
923.747	4772.12
923.981	4746.12
924.215	4707.12
924.449	4688.12
924.683	4616.12
924.917	4622.12
925.151	4584.12
925.385	4642.12
925.618	4554.12
925.852	4553.12
926.086	4491.12
926.319	4532.12
926.553	4549.12
926.786	4565.12
927.02	4513.12
927.253	4567.12
927.486	4563.12
927.72	4457.12
927.953	4491.12
928.186	4433.12
928.42	4482.12
928.653	4417.12
928.886	4422.12
929.119	4401.12
929.352	4397.12
929.585	4332.12
929.818	4272.12
930.051	4295.12
930.284	4274.12
930.516	4208.12
930.749	4170.12
930.982	4185.12
931.215	4175.12
931.447	4134.12
931.68	4095.12
931.912	4071.12
932.145	4065.12
932.377	4090.12
932.61	4211.12
932.842	4027.12
933.074	4104.12
933.307	4002.12
933.539	4115.12
933.771	4101.12
934.003	4061.12
934.236	4124.12
934.468	4137.12
934.7	4011.12
934.932	4089.12
935.164	3995.12
935.395	3987.12
935.627	4001.12
935.859	4004.12
936.091	3930.12
936.323	3935.12
936.554	3981.12
936.786	3961.12
937.017	3864.12
937.249	3885.12
937.481	3826.12
937.712	3861.12
937.943	3853.12
938.175	3821.12
938.406	3836.12
938.637	3876.12
938.869	3770.12
939.1	3846.12
939.331	3790.12
939.562	3875.12
939.793	3788.12
940.024	3863.12
940.255	3845.12
940.486	3740.12
940.717	3775.12
940.948	3720.12
941.179	3657.12
941.409	3710.12
941.64	3639.12
941.871	3716.12
942.102	3678.12
942.332	3669.12
942.563	3716.12
942.793	3673.12
943.024	3665.12
943.254	3677.12
943.484	3726.12
943.715	3664.12
943.945	3674.12
944.175	3602.12
944.405	3561.12
944.636	3593.12
944.866	3617.12
945.096	3613.12
945.326	3568.12
945.556	3625.12
945.786	3590.12
946.016	3569.12
946.245	3551.12
946.475	3515.12
946.705	3493.12
946.935	3472.12
947.164	3503.12
947.394	3418.12
947.624	3449.12
947.853	3500.12
948.083	3424.12
948.312	3398.12
948.542	3318.12
948.771	3335.12
949	3349.12
949.23	3335.12
949.459	3327.12
949.688	3405.12
949.917	3319.12
950.146	3366.12
950.375	3377.12
950.604	3302.12
950.833	3349.12
951.062	3390.12
951.291	3296.12
951.52	3277.12
951.749	3274.12
951.978	3193.12
952.206	3275.12
952.435	3235.12
952.664	3263.12
952.892	3276.12
953.121	3222.12
953.349	3230.12
953.578	3219.12
953.806	3177.12
954.035	3141.12
954.263	3178.12
954.491	3108.12
954.719	3169.12
954.948	3097.12
955.176	3122.12
955.404	3012.12
955.632	3044.12
955.86	3083.12
956.088	3067.12
956.316	3048.12
956.544	3082.12
956.772	2958.12
956.999	2960.12
957.227	3060.12
957.455	2949.12
957.683	2944.12
957.91	2886.12
958.138	2898.12
958.365	2884.12
958.593	2874.12
958.82	2801.12
959.048	2933.12
959.275	2857.12
959.502	2852.12
959.73	2822.12
959.957	2816.12
960.184	2888.12
960.411	2849.12
960.638	2871.12
960.865	2830.12
961.092	2854.12
961.319	2746.12
961.546	2831.12
961.773	2853.12
962	2764.12
962.227	2863.12
962.454	2795.12
962.68	2753.12
962.907	2791.12
963.134	2709.12
963.36	2779.12
963.587	2763.12
963.813	2707.12
964.04	2747.12
964.266	2671.12
964.493	2748.12
964.719	2728.12
964.945	2681.12
965.171	2602.12
965.398	2618.12
965.624	2663.12
965.85	2578.12
966.076	2588.12
966.302	2618.12
966.528	2582.12
966.754	2606.12
966.98	2589.12
967.206	2580.12
967.431	2500.12
967.657	2595.12
967.883	2574.12
968.109	2555.12
968.334	2515.12
968.56	2495.12
968.785	2533.12
969.011	2450.12
969.236	2539.12
969.462	2427.12
969.687	2479.12
969.912	2501.12
970.138	2512.12
970.363	2411.12
970.588	2456.12
970.813	2414.12
971.038	2399.12
971.263	2447.12
971.488	2430.12
971.713	2446.12
971.938	2456.12
972.163	2361.12
972.388	2378.12
972.613	2317.12
972.838	2356.12
973.062	2327.12
973.287	2372.12
973.512	2259.12
973.736	2324.12
973.961	2277.12
974.185	2284.12
974.41	2328.12
974.634	2227.12
974.858	2179.12
975.083	2239.12
975.307	2276.12
975.531	2192.12
975.755	2129.12
975.98	2162.12
976.204	2113.12
976.428	2134.12
976.652	2132.12
976.876	2091.12
977.1	2137.12
977.324	2096.12
977.547	2121.12
977.771	2133.12
977.995	2122.12
978.219	2051.12
978.442	2148.12
978.666	2082.12
978.89	2072.12
979.113	2077.12
979.337	2070.12
979.56	2045.12
979.783	2104.12
980.007	2029.12
980.23	2049.12
980.453	2023.12
980.677	2046.12
980.9	2044.12
981.123	1930.12
981.346	2022.12
981.569	1987.12
981.792	2050.12
982.015	1992.12
982.238	1945.12
982.461	1971.12
982.684	1933.12
982.907	1896.12
983.129	1907.12
983.352	1984.12
983.575	1903.12
983.797	1922.12
984.02	1908.12
984.242	1900.12
984.465	1882.12
984.687	1935.12
984.91	1936.12
985.132	1906.12
985.354	1916.12
985.577	1890.12
985.799	1916.12
986.021	1798.12
986.243	1842.12
986.465	1853.12
986.687	1882.12
986.909	1945.12
987.131	1854.12
987.353	1829.12
987.575	1836.12
987.797	1807.12
988.019	1752.12
988.241	1825.12
988.462	1782.12
988.684	1850.12
988.906	1863.12
989.127	1889.12
989.349	1765.12
989.57	1812.12
989.792	1843.12
990.013	1856.12
990.234	1841.12
990.456	1875.12
990.677	1854.12
990.898	1802.12
991.119	1778.12
991.341	1823.12
991.562	1733.12
991.783	1774.12
992.004	1703.12
992.225	1688.12
992.446	1747.12
992.667	1682.12
992.887	1768.12
993.108	1642.12
993.329	1762.12
993.55	1715.12
993.77	1638.12
993.991	1659.12
994.212	1702.12
994.432	1681.12
994.653	1709.12
994.873	1677.12
995.093	1591.12
995.314	1656.12
995.534	1708.12
995.754	1688.12
995.975	1736.12
996.195	1634.12
996.415	1688.12
996.635	1657.12
996.855	1689.12
997.075	1676.12
997.295	1713.12
997.515	1684.12
997.735	1727.12
997.955	1690.12
998.174	1675.12
998.394	1651.12
998.614	1689.12
998.834	1657.12
999.053	1737.12
999.273	1679.12
999.492	1714.12
999.712	1646.12
999.931	1603.12
1000.151	1646.12
1000.37	1603.12
1000.589	1662.12
1000.809	1573.12
1001.028	1665.12
1001.247	1623.12
1001.466	1518.12
1001.685	1622.12
1001.904	1593.12
1002.123	1572.12
1002.342	1576.12
1002.561	1526.12
1002.78	1549.12
1002.999	1607.12
1003.218	1558.12
1003.436	1533.12
1003.655	1579.12
1003.874	1510.12
1004.092	1545.12
1004.311	1552.12
1004.53	1536.12
1004.748	1609.12
1004.966	1518.12
1005.185	1594.12
1005.403	1581.12
1005.622	1536.12
1005.84	1634.12
1006.058	1546.12
1006.276	1587.12
1006.494	2059.12
1006.712	1563.12
1006.931	1641.12
1007.149	1570.12
1007.367	1604.12
1007.584	1653.12
1007.802	1702.12
1008.02	1673.12
1008.238	1775.12
1008.456	1784.12
1008.673	1695.12
1008.891	1820.12
1009.109	1825.12
1009.326	1950.12
1009.544	2072.12
1009.761	2042.12
1009.979	2179.12
1010.196	2336.12
1010.413	2479.12
1010.631	2636.12
1010.848	2737.12
1011.065	2797.12
1011.282	2778.12
1011.5	2672.12
1011.717	2802.12
1011.934	2684.12
1012.151	2705.12
1012.368	2671.12
1012.585	2609.12
1012.801	2685.12
1013.018	2659.12
1013.235	2621.12
1013.452	2694.12
1013.669	2722.12
1013.885	2714.12
1014.102	2774.12
1014.318	2773.12
1014.535	2725.12
1014.751	2757.12
1014.968	2743.12
1015.184	2719.12
1015.401	2632.12
1015.617	2621.12
1015.833	2519.12
1016.049	2514.12
1016.266	2439.12
1016.482	2472.12
1016.698	2338.12
1016.914	2376.12
1017.13	2328.12
1017.346	2313.12
1017.562	2312.12
1017.778	2262.12
1017.993	2227.12
1018.209	2267.12
1018.425	2215.12
1018.641	2181.12
1018.856	2186.12
1019.072	2200.12
1019.288	2243.12
1019.503	2182.12
1019.719	2091.12
1019.934	2089.12
1020.149	2117.12
1020.365	2030.12
1020.58	1963.12
1020.795	1961.12
1021.011	1884.12
1021.226	1833.12
1021.441	1804.12
1021.656	1715.12
1021.871	1629.12
1022.086	1614.12
1022.301	1590.12
1022.516	1597.12
1022.731	1609.12
1022.946	1507.12
1023.16	1485.12
1023.375	1421.12
1023.59	1393.12
1023.804	1349.12
1024.019	1407.12
1024.234	1258.12
1024.448	1262.12
1024.663	1189.12
1024.877	1177.12
1025.092	1189.12
1025.306	1188.12
1025.52	1057.12
1025.734	1143.12
1025.949	1055.12
1026.163	1035.12
1026.377	973.12
1026.591	992.12
1026.805	932.12
1027.019	913.12
1027.233	873.12
1027.447	815.12
1027.661	932.12
1027.875	839.12
1028.088	847.12
1028.302	766.12
1028.516	757.12
1028.73	759.12
1028.943	735.12
1029.157	686.12
1029.37	640.12
1029.584	0.12
1029.797	-0.88
1030.011	-0.88
1030.224	1.12
