Data from QEP037381__150__15-21-30-383.txt Node

Date: Wed Dec 21 15:21:30 EST 2022
User: dcclab
Spectrometer: QEP03738
Trigger mode: 4
Integration Time (sec): 1.000000E1
Scans to average: 1
Electric dark correction enabled: true
Nonlinearity correction enabled: false
Boxcar width: 0
XAxis mode: Wavelengths
Number of Pixels in Spectrum: 1044
>>>>>Begin Spectral Data<<<<<
784.041	12.25
784.3	-2.75
784.558	0.25
784.817	-3.75
785.075	85578.25
785.334	15423.25
785.592	7450.25
785.851	5178.25
786.109	3950.25
786.368	3055.25
786.626	2476.25
786.884	2062.25
787.143	1734.25
787.401	1394.25
787.659	1283.25
787.917	1096.25
788.175	1024.25
788.433	906.25
788.691	833.25
788.949	750.25
789.207	731.25
789.465	622.25
789.723	616.25
789.98	571.25
790.238	591.25
790.496	555.25
790.753	532.25
791.011	590.25
791.268	534.25
791.526	515.25
791.783	524.25
792.041	509.25
792.298	423.25
792.556	500.25
792.813	484.25
793.07	453.25
793.327	441.25
793.584	524.25
793.841	448.25
794.099	453.25
794.356	527.25
794.613	432.25
794.869	464.25
795.126	429.25
795.383	410.25
795.64	423.25
795.897	390.25
796.153	442.25
796.41	446.25
796.667	415.25
796.923	424.25
797.18	430.25
797.436	457.25
797.693	404.25
797.949	456.25
798.206	509.25
798.462	419.25
798.718	469.25
798.974	456.25
799.231	498.25
799.487	480.25
799.743	492.25
799.999	527.25
800.255	514.25
800.511	496.25
800.767	550.25
801.023	534.25
801.279	589.25
801.534	632.25
801.79	675.25
802.046	718.25
802.302	862.25
802.557	977.25
802.813	1249.25
803.068	1553.25
803.324	2183.25
803.579	2972.25
803.835	4023.25
804.09	5601.25
804.345	7231.25
804.601	9075.25
804.856	11043.25
805.111	12577.25
805.366	13881.25
805.621	14817.25
805.876	15479.25
806.131	15926.25
806.386	16294.25
806.641	16555.25
806.896	16729.25
807.151	17096.25
807.406	17308.25
807.661	17509.25
807.915	17826.25
808.17	18106.25
808.425	18262.25
808.679	18306.25
808.934	18569.25
809.188	18628.25
809.443	18814.25
809.697	19015.25
809.951	19124.25
810.206	19288.25
810.46	19470.25
810.714	19675.25
810.968	19836.25
811.223	20010.25
811.477	20203.25
811.731	20362.25
811.985	20443.25
812.239	20419.25
812.493	20494.25
812.747	20615.25
813	20556.25
813.254	20791.25
813.508	20869.25
813.762	20944.25
814.015	20942.25
814.269	21088.25
814.522	21302.25
814.776	21480.25
815.03	21613.25
815.283	22030.25
815.536	22349.25
815.79	22602.25
816.043	22983.25
816.296	23150.25
816.55	23341.25
816.803	23694.25
817.056	24085.25
817.309	24298.25
817.562	24378.25
817.815	24639.25
818.068	24687.25
818.321	24932.25
818.574	25290.25
818.827	25628.25
819.079	25855.25
819.332	26452.25
819.585	26707.25
819.838	26970.25
820.09	27167.25
820.343	27194.25
820.595	27411.25
820.848	27517.25
821.1	27547.25
821.353	27613.25
821.605	27581.25
821.857	27401.25
822.11	27237.25
822.362	27289.25
822.614	27268.25
822.866	27337.25
823.118	27307.25
823.37	27429.25
823.622	27450.25
823.874	27657.25
824.126	27684.25
824.378	27589.25
824.63	27733.25
824.882	27812.25
825.134	27761.25
825.385	27671.25
825.637	27657.25
825.888	27566.25
826.14	27461.25
826.392	27499.25
826.643	27253.25
826.895	27126.25
827.146	27056.25
827.397	27103.25
827.649	27116.25
827.9	26928.25
828.151	27106.25
828.402	27139.25
828.653	27151.25
828.905	27232.25
829.156	27501.25
829.407	27392.25
829.658	27503.25
829.909	27831.25
830.159	27929.25
830.41	27720.25
830.661	27437.25
830.912	27140.25
831.162	27082.25
831.413	27110.25
831.664	27095.25
831.914	27062.25
832.165	26995.25
832.415	27005.25
832.666	26792.25
832.916	27067.25
833.167	27068.25
833.417	26990.25
833.667	26953.25
833.917	26810.25
834.168	26767.25
834.418	26697.25
834.668	26578.25
834.918	26342.25
835.168	26296.25
835.418	26196.25
835.668	26057.25
835.918	26133.25
836.167	26109.25
836.417	25921.25
836.667	25955.25
836.917	25980.25
837.166	26056.25
837.416	26187.25
837.666	26234.25
837.915	26156.25
838.165	26108.25
838.414	25941.25
838.663	25923.25
838.913	26026.25
839.162	25873.25
839.411	25994.25
839.661	25909.25
839.91	25877.25
840.159	25801.25
840.408	25792.25
840.657	25899.25
840.906	25816.25
841.155	25745.25
841.404	25614.25
841.653	25859.25
841.902	25825.25
842.15	26056.25
842.399	26179.25
842.648	26031.25
842.897	26002.25
843.145	25789.25
843.394	25642.25
843.642	25505.25
843.891	25328.25
844.139	25175.25
844.388	24868.25
844.636	24740.25
844.884	24657.25
845.133	24847.25
845.381	24799.25
845.629	24798.25
845.877	24882.25
846.125	24705.25
846.373	24770.25
846.621	24511.25
846.869	24479.25
847.117	24507.25
847.365	24242.25
847.613	24098.25
847.861	24243.25
848.108	24251.25
848.356	24228.25
848.604	24169.25
848.851	24232.25
849.099	24112.25
849.346	24206.25
849.594	24200.25
849.841	24448.25
850.089	24349.25
850.336	24424.25
850.583	24563.25
850.831	24283.25
851.078	24189.25
851.325	24100.25
851.572	24192.25
851.819	24091.25
852.066	23644.25
852.313	23387.25
852.56	23092.25
852.807	23103.25
853.054	23175.25
853.301	23119.25
853.548	23231.25
853.794	23148.25
854.041	23369.25
854.288	23383.25
854.534	23585.25
854.781	23670.25
855.028	23457.25
855.274	23583.25
855.52	23668.25
855.767	23696.25
856.013	24015.25
856.26	24087.25
856.506	23573.25
856.752	23267.25
856.998	23307.25
857.244	23410.25
857.49	23625.25
857.736	23713.25
857.982	23675.25
858.228	23418.25
858.474	23204.25
858.72	22863.25
858.966	22794.25
859.212	22567.25
859.458	22247.25
859.703	22079.25
859.949	21902.25
860.195	21719.25
860.44	21719.25
860.686	21681.25
860.931	21782.25
861.177	21438.25
861.422	21402.25
861.667	21203.25
861.913	21165.25
862.158	21058.25
862.403	21081.25
862.648	21166.25
862.893	21150.25
863.138	21268.25
863.384	21046.25
863.629	20999.25
863.873	21026.25
864.118	20999.25
864.363	20886.25
864.608	20912.25
864.853	20747.25
865.098	20695.25
865.342	20538.25
865.587	20378.25
865.832	20402.25
866.076	20512.25
866.321	20290.25
866.565	20307.25
866.81	20222.25
867.054	20177.25
867.298	20084.25
867.543	20084.25
867.787	20053.25
868.031	20020.25
868.275	19972.25
868.519	19924.25
868.764	19881.25
869.008	19936.25
869.252	19958.25
869.496	19851.25
869.739	19858.25
869.983	19882.25
870.227	20034.25
870.471	20084.25
870.715	20186.25
870.958	20228.25
871.202	20275.25
871.446	20305.25
871.689	20333.25
871.933	20341.25
872.176	20372.25
872.42	20319.25
872.663	20297.25
872.906	20392.25
873.15	20638.25
873.393	20704.25
873.636	20773.25
873.879	20499.25
874.122	20196.25
874.366	19702.25
874.609	19462.25
874.852	19144.25
875.095	18998.25
875.337	18895.25
875.58	18733.25
875.823	18663.25
876.066	18670.25
876.309	18544.25
876.551	18412.25
876.794	18257.25
877.037	18282.25
877.279	18248.25
877.522	18190.25
877.764	18193.25
878.007	18088.25
878.249	18082.25
878.491	17982.25
878.734	17986.25
878.976	17991.25
879.218	17734.25
879.46	17693.25
879.702	17570.25
879.945	17505.25
880.187	17293.25
880.429	17201.25
880.671	16957.25
880.912	16980.25
881.154	16924.25
881.396	16899.25
881.638	16882.25
881.88	17007.25
882.121	16838.25
882.363	16844.25
882.605	16968.25
882.846	16890.25
883.088	17007.25
883.329	17179.25
883.571	17386.25
883.812	17914.25
884.053	18647.25
884.295	19535.25
884.536	19903.25
884.777	19696.25
885.018	19392.25
885.259	19135.25
885.5	18658.25
885.742	19000.25
885.982	18599.25
886.223	18354.25
886.464	18174.25
886.705	17858.25
886.946	17578.25
887.187	17021.25
887.428	16824.25
887.668	16339.25
887.909	15995.25
888.15	15719.25
888.39	15605.25
888.631	15423.25
888.871	15298.25
889.111	15151.25
889.352	14933.25
889.592	14860.25
889.833	14832.25
890.073	14713.25
890.313	14683.25
890.553	14473.25
890.793	14432.25
891.033	14276.25
891.273	14267.25
891.513	14185.25
891.753	14129.25
891.993	14126.25
892.233	14044.25
892.473	14197.25
892.713	14072.25
892.952	14140.25
893.192	14207.25
893.432	14123.25
893.671	14099.25
893.911	13992.25
894.15	13884.25
894.39	13793.25
894.629	13790.25
894.869	13726.25
895.108	13609.25
895.347	13561.25
895.587	13535.25
895.826	13477.25
896.065	13446.25
896.304	13452.25
896.543	13502.25
896.782	13365.25
897.021	13258.25
897.26	13356.25
897.499	13355.25
897.738	13370.25
897.977	13205.25
898.216	13181.25
898.454	13013.25
898.693	12903.25
898.932	12951.25
899.17	12813.25
899.409	12805.25
899.647	12790.25
899.886	12766.25
900.124	12794.25
900.363	12832.25
900.601	12942.25
900.839	12949.25
901.078	13026.25
901.316	13297.25
901.554	13300.25
901.792	13441.25
902.03	13331.25
902.268	13408.25
902.506	13484.25
902.744	13286.25
902.982	13282.25
903.22	12998.25
903.458	12807.25
903.695	12542.25
903.933	12267.25
904.171	12020.25
904.409	11788.25
904.646	11669.25
904.884	11462.25
905.121	11416.25
905.359	11276.25
905.596	11162.25
905.833	11088.25
906.071	11006.25
906.308	11067.25
906.545	10965.25
906.783	10955.25
907.02	10955.25
907.257	10906.25
907.494	10856.25
907.731	10804.25
907.968	10807.25
908.205	10696.25
908.442	10703.25
908.679	10593.25
908.915	10482.25
909.152	10427.25
909.389	10236.25
909.626	10213.25
909.862	10124.25
910.099	10076.25
910.335	10119.25
910.572	9957.25
910.808	10111.25
911.045	10016.25
911.281	9938.25
911.518	9985.25
911.754	9851.25
911.99	9830.25
912.226	9699.25
912.463	9607.25
912.699	9604.25
912.935	9524.25
913.171	9421.25
913.407	9324.25
913.643	9330.25
913.879	9233.25
914.114	9153.25
914.35	9047.25
914.586	8941.25
914.822	8935.25
915.057	8899.25
915.293	8763.25
915.529	8702.25
915.764	8733.25
916	8665.25
916.235	8728.25
916.471	8681.25
916.706	8635.25
916.941	8674.25
917.177	8602.25
917.412	8697.25
917.647	8657.25
917.882	8597.25
918.117	8557.25
918.352	8533.25
918.588	8536.25
918.823	8395.25
919.057	8377.25
919.292	8199.25
919.527	8204.25
919.762	8062.25
919.997	8089.25
920.232	7962.25
920.466	7925.25
920.701	7752.25
920.935	7822.25
921.17	7736.25
921.405	7708.25
921.639	7750.25
921.873	7670.25
922.108	7643.25
922.342	7616.25
922.576	7554.25
922.811	7532.25
923.045	7531.25
923.279	7560.25
923.513	7394.25
923.747	7422.25
923.981	7382.25
924.215	7282.25
924.449	7279.25
924.683	7244.25
924.917	7218.25
925.151	7145.25
925.385	7193.25
925.618	7126.25
925.852	7091.25
926.086	7051.25
926.319	7082.25
926.553	7124.25
926.786	7066.25
927.02	7001.25
927.253	7018.25
927.486	7068.25
927.72	6930.25
927.953	7061.25
928.186	6945.25
928.42	6945.25
928.653	6925.25
928.886	6848.25
929.119	6889.25
929.352	6834.25
929.585	6812.25
929.818	6719.25
930.051	6716.25
930.284	6630.25
930.516	6513.25
930.749	6488.25
930.982	6493.25
931.215	6487.25
931.447	6398.25
931.68	6505.25
931.912	6412.25
932.145	6323.25
932.377	6393.25
932.61	6520.25
932.842	6324.25
933.074	6400.25
933.307	6278.25
933.539	6397.25
933.771	6398.25
934.003	6336.25
934.236	6462.25
934.468	6421.25
934.7	6346.25
934.932	6354.25
935.164	6276.25
935.395	6266.25
935.627	6206.25
935.859	6273.25
936.091	6141.25
936.323	6195.25
936.554	6230.25
936.786	6138.25
937.017	6057.25
937.249	6096.25
937.481	6014.25
937.712	6144.25
937.943	6028.25
938.175	6055.25
938.406	6017.25
938.637	6119.25
938.869	5965.25
939.1	6023.25
939.331	6031.25
939.562	5973.25
939.793	5936.25
940.024	5965.25
940.255	5941.25
940.486	5841.25
940.717	5806.25
940.948	5816.25
941.179	5749.25
941.409	5850.25
941.64	5764.25
941.871	5707.25
942.102	5734.25
942.332	5771.25
942.563	5817.25
942.793	5749.25
943.024	5715.25
943.254	5778.25
943.484	5786.25
943.715	5785.25
943.945	5748.25
944.175	5704.25
944.405	5659.25
944.636	5688.25
944.866	5691.25
945.096	5670.25
945.326	5646.25
945.556	5636.25
945.786	5668.25
946.016	5570.25
946.245	5543.25
946.475	5496.25
946.705	5496.25
946.935	5513.25
947.164	5417.25
947.394	5390.25
947.624	5377.25
947.853	5430.25
948.083	5343.25
948.312	5311.25
948.542	5216.25
948.771	5210.25
949	5247.25
949.23	5249.25
949.459	5278.25
949.688	5270.25
949.917	5215.25
950.146	5224.25
950.375	5265.25
950.604	5137.25
950.833	5253.25
951.062	5199.25
951.291	5158.25
951.52	5075.25
951.749	5102.25
951.978	5102.25
952.206	5103.25
952.435	5061.25
952.664	5065.25
952.892	5063.25
953.121	5029.25
953.349	5081.25
953.578	5039.25
953.806	4980.25
954.035	4899.25
954.263	4944.25
954.491	4877.25
954.719	4923.25
954.948	4874.25
955.176	4829.25
955.404	4760.25
955.632	4810.25
955.86	4832.25
956.088	4779.25
956.316	4765.25
956.544	4723.25
956.772	4726.25
956.999	4639.25
957.227	4742.25
957.455	4666.25
957.683	4647.25
957.91	4585.25
958.138	4509.25
958.365	4489.25
958.593	4535.25
958.82	4466.25
959.048	4490.25
959.275	4488.25
959.502	4427.25
959.73	4446.25
959.957	4455.25
960.184	4476.25
960.411	4381.25
960.638	4507.25
960.865	4381.25
961.092	4399.25
961.319	4313.25
961.546	4402.25
961.773	4425.25
962	4358.25
962.227	4397.25
962.454	4340.25
962.68	4309.25
962.907	4313.25
963.134	4280.25
963.36	4232.25
963.587	4240.25
963.813	4150.25
964.04	4178.25
964.266	4142.25
964.493	4186.25
964.719	4165.25
964.945	4181.25
965.171	4031.25
965.398	4097.25
965.624	4082.25
965.85	4036.25
966.076	4001.25
966.302	4018.25
966.528	3992.25
966.754	3988.25
966.98	3987.25
967.206	3936.25
967.431	3868.25
967.657	3964.25
967.883	3926.25
968.109	3915.25
968.334	3870.25
968.56	3829.25
968.785	3849.25
969.011	3824.25
969.236	3842.25
969.462	3805.25
969.687	3766.25
969.912	3798.25
970.138	3854.25
970.363	3752.25
970.588	3757.25
970.813	3719.25
971.038	3687.25
971.263	3754.25
971.488	3740.25
971.713	3733.25
971.938	3705.25
972.163	3630.25
972.388	3629.25
972.613	3588.25
972.838	3603.25
973.062	3564.25
973.287	3560.25
973.512	3510.25
973.736	3541.25
973.961	3517.25
974.185	3455.25
974.41	3523.25
974.634	3384.25
974.858	3395.25
975.083	3431.25
975.307	3434.25
975.531	3353.25
975.755	3267.25
975.98	3328.25
976.204	3203.25
976.428	3239.25
976.652	3298.25
976.876	3204.25
977.1	3237.25
977.324	3208.25
977.547	3252.25
977.771	3223.25
977.995	3212.25
978.219	3142.25
978.442	3225.25
978.666	3189.25
978.89	3187.25
979.113	3121.25
979.337	3121.25
979.56	3142.25
979.783	3187.25
980.007	3095.25
980.23	3105.25
980.453	3050.25
980.677	3068.25
980.9	3060.25
981.123	2970.25
981.346	3040.25
981.569	3057.25
981.792	3039.25
982.015	3011.25
982.238	2942.25
982.461	2966.25
982.684	2954.25
982.907	2897.25
983.129	2890.25
983.352	2973.25
983.575	2904.25
983.797	2888.25
984.02	2846.25
984.242	2849.25
984.465	2854.25
984.687	2898.25
984.91	2862.25
985.132	2834.25
985.354	2861.25
985.577	2816.25
985.799	2816.25
986.021	2722.25
986.243	2729.25
986.465	2746.25
986.687	2811.25
986.909	2791.25
987.131	2757.25
987.353	2690.25
987.575	2728.25
987.797	2697.25
988.019	2643.25
988.241	2693.25
988.462	2640.25
988.684	2691.25
988.906	2687.25
989.127	2686.25
989.349	2600.25
989.57	2659.25
989.792	2677.25
990.013	2668.25
990.234	2669.25
990.456	2719.25
990.677	2705.25
990.898	2589.25
991.119	2636.25
991.341	2654.25
991.562	2560.25
991.783	2621.25
992.004	2534.25
992.225	2519.25
992.446	2576.25
992.667	2471.25
992.887	2529.25
993.108	2420.25
993.329	2559.25
993.55	2503.25
993.77	2414.25
993.991	2438.25
994.212	2444.25
994.432	2449.25
994.653	2459.25
994.873	2412.25
995.093	2328.25
995.314	2355.25
995.534	2418.25
995.754	2442.25
995.975	2479.25
996.195	2364.25
996.415	2451.25
996.635	2351.25
996.855	2401.25
997.075	2376.25
997.295	2419.25
997.515	2351.25
997.735	2462.25
997.955	2393.25
998.174	2371.25
998.394	2348.25
998.614	2419.25
998.834	2371.25
999.053	2423.25
999.273	2340.25
999.492	2410.25
999.712	2334.25
999.931	2268.25
1000.151	2331.25
1000.37	2253.25
1000.589	2288.25
1000.809	2202.25
1001.028	2315.25
1001.247	2266.25
1001.466	2140.25
1001.685	2279.25
1001.904	2217.25
1002.123	2162.25
1002.342	2182.25
1002.561	2112.25
1002.78	2135.25
1002.999	2202.25
1003.218	2137.25
1003.436	2112.25
1003.655	2177.25
1003.874	2085.25
1004.092	2107.25
1004.311	2133.25
1004.53	2076.25
1004.748	2164.25
1004.966	2062.25
1005.185	2159.25
1005.403	2106.25
1005.622	2102.25
1005.84	2186.25
1006.058	2098.25
1006.276	2105.25
1006.494	2617.25
1006.712	2139.25
1006.931	2206.25
1007.149	2140.25
1007.367	2169.25
1007.584	2214.25
1007.802	2272.25
1008.02	2234.25
1008.238	2342.25
1008.456	2398.25
1008.673	2293.25
1008.891	2464.25
1009.109	2425.25
1009.326	2541.25
1009.544	2709.25
1009.761	2701.25
1009.979	2955.25
1010.196	3097.25
1010.413	3349.25
1010.631	3529.25
1010.848	3670.25
1011.065	3745.25
1011.282	3690.25
1011.5	3631.25
1011.717	3703.25
1011.934	3602.25
1012.151	3581.25
1012.368	3574.25
1012.585	3503.25
1012.801	3571.25
1013.018	3532.25
1013.235	3463.25
1013.452	3609.25
1013.669	3659.25
1013.885	3647.25
1014.102	3712.25
1014.318	3670.25
1014.535	3630.25
1014.751	3649.25
1014.968	3677.25
1015.184	3617.25
1015.401	3452.25
1015.617	3480.25
1015.833	3384.25
1016.049	3337.25
1016.266	3309.25
1016.482	3255.25
1016.698	3142.25
1016.914	3183.25
1017.13	3107.25
1017.346	3046.25
1017.562	3098.25
1017.778	2984.25
1017.993	2984.25
1018.209	2989.25
1018.425	2977.25
1018.641	2906.25
1018.856	2867.25
1019.072	2916.25
1019.288	2941.25
1019.503	2906.25
1019.719	2774.25
1019.934	2770.25
1020.149	2832.25
1020.365	2717.25
1020.58	2628.25
1020.795	2623.25
1021.011	2475.25
1021.226	2406.25
1021.441	2379.25
1021.656	2279.25
1021.871	2174.25
1022.086	2158.25
1022.301	2117.25
1022.516	2068.25
1022.731	2098.25
1022.946	1984.25
1023.16	1946.25
1023.375	1893.25
1023.59	1832.25
1023.804	1766.25
1024.019	1801.25
1024.234	1676.25
1024.448	1678.25
1024.663	1577.25
1024.877	1584.25
1025.092	1547.25
1025.306	1511.25
1025.52	1408.25
1025.734	1476.25
1025.949	1361.25
1026.163	1337.25
1026.377	1242.25
1026.591	1284.25
1026.805	1171.25
1027.019	1179.25
1027.233	1158.25
1027.447	1089.25
1027.661	1185.25
1027.875	1101.25
1028.088	1108.25
1028.302	1000.25
1028.516	985.25
1028.73	949.25
1028.943	945.25
1029.157	870.25
1029.37	818.25
1029.584	0.25
1029.797	-2.75
1030.011	-3.75
1030.224	0.25
