Data from QEP037381__170__15-24-50-385.txt Node

Date: Wed Dec 21 15:24:50 EST 2022
User: dcclab
Spectrometer: QEP03738
Trigger mode: 4
Integration Time (sec): 1.000000E1
Scans to average: 1
Electric dark correction enabled: true
Nonlinearity correction enabled: false
Boxcar width: 0
XAxis mode: Wavelengths
Number of Pixels in Spectrum: 1044
>>>>>Begin Spectral Data<<<<<
784.041	11.25
784.3	0.25
784.558	-2.75
784.817	-3.75
785.075	93259.25
785.334	16372.25
785.592	7709.25
785.851	5302.25
786.109	3968.25
786.368	3135.25
786.626	2565.25
786.884	2109.25
787.143	1743.25
787.401	1455.25
787.659	1322.25
787.917	1124.25
788.175	1039.25
788.433	926.25
788.691	832.25
788.949	754.25
789.207	746.25
789.465	632.25
789.723	619.25
789.98	557.25
790.238	623.25
790.496	553.25
790.753	550.25
791.011	607.25
791.268	530.25
791.526	511.25
791.783	531.25
792.041	507.25
792.298	432.25
792.556	490.25
792.813	461.25
793.07	443.25
793.327	435.25
793.584	510.25
793.841	443.25
794.099	469.25
794.356	503.25
794.613	410.25
794.869	455.25
795.126	418.25
795.383	388.25
795.64	420.25
795.897	372.25
796.153	433.25
796.41	417.25
796.667	398.25
796.923	412.25
797.18	402.25
797.436	428.25
797.693	395.25
797.949	455.25
798.206	476.25
798.462	403.25
798.718	457.25
798.974	443.25
799.231	482.25
799.487	467.25
799.743	476.25
799.999	481.25
800.255	494.25
800.511	486.25
800.767	514.25
801.023	523.25
801.279	523.25
801.534	565.25
801.79	597.25
802.046	626.25
802.302	737.25
802.557	845.25
802.813	1039.25
803.068	1251.25
803.324	1719.25
803.579	2302.25
803.835	3164.25
804.09	4275.25
804.345	5626.25
804.601	6992.25
804.856	8530.25
805.111	9812.25
805.366	10858.25
805.621	11555.25
805.876	12104.25
806.131	12394.25
806.386	12590.25
806.641	12829.25
806.896	13069.25
807.151	13275.25
807.406	13436.25
807.661	13668.25
807.915	13923.25
808.17	14061.25
808.425	14184.25
808.679	14351.25
808.934	14507.25
809.188	14601.25
809.443	14730.25
809.697	14951.25
809.951	15026.25
810.206	15046.25
810.46	15263.25
810.714	15363.25
810.968	15510.25
811.223	15633.25
811.477	15847.25
811.731	15981.25
811.985	15946.25
812.239	15937.25
812.493	15984.25
812.747	16167.25
813	16136.25
813.254	16221.25
813.508	16433.25
813.762	16444.25
814.015	16439.25
814.269	16491.25
814.522	16702.25
814.776	16828.25
815.03	16942.25
815.283	17255.25
815.536	17548.25
815.79	17716.25
816.043	17979.25
816.296	18185.25
816.55	18363.25
816.803	18618.25
817.056	18928.25
817.309	18988.25
817.562	19101.25
817.815	19368.25
818.068	19525.25
818.321	19524.25
818.574	19881.25
818.827	20187.25
819.079	20384.25
819.332	20728.25
819.585	21003.25
819.838	21406.25
820.09	21286.25
820.343	21438.25
820.595	21591.25
820.848	21669.25
821.1	21850.25
821.353	21794.25
821.605	21703.25
821.857	21812.25
822.11	21626.25
822.362	21560.25
822.614	21548.25
822.866	21657.25
823.118	21533.25
823.37	21678.25
823.622	21781.25
823.874	21992.25
824.126	22013.25
824.378	21879.25
824.63	21976.25
824.882	22007.25
825.134	21977.25
825.385	21975.25
825.637	21952.25
825.888	21815.25
826.14	21755.25
826.392	21688.25
826.643	21592.25
826.895	21575.25
827.146	21431.25
827.397	21404.25
827.649	21528.25
827.9	21373.25
828.151	21321.25
828.402	21551.25
828.653	21638.25
828.905	21623.25
829.156	21750.25
829.407	21594.25
829.658	21755.25
829.909	21923.25
830.159	21978.25
830.41	21889.25
830.661	21792.25
830.912	21552.25
831.162	21555.25
831.413	21471.25
831.664	21542.25
831.914	21331.25
832.165	21388.25
832.415	21363.25
832.666	21518.25
832.916	21548.25
833.167	21497.25
833.417	21399.25
833.667	21388.25
833.917	21251.25
834.168	21175.25
834.418	21172.25
834.668	21063.25
834.918	21024.25
835.168	20918.25
835.418	20893.25
835.668	20881.25
835.918	20754.25
836.167	20677.25
836.417	20635.25
836.667	20695.25
836.917	20730.25
837.166	20737.25
837.416	20799.25
837.666	20737.25
837.915	20812.25
838.165	20684.25
838.414	20733.25
838.663	20572.25
838.913	20778.25
839.162	20586.25
839.411	20606.25
839.661	20533.25
839.91	20628.25
840.159	20627.25
840.408	20598.25
840.657	20640.25
840.906	20614.25
841.155	20574.25
841.404	20535.25
841.653	20650.25
841.902	20607.25
842.15	20829.25
842.399	20902.25
842.648	20837.25
842.897	20740.25
843.145	20528.25
843.394	20373.25
843.642	20368.25
843.891	20195.25
844.139	20195.25
844.388	19919.25
844.636	19753.25
844.884	19889.25
845.133	19892.25
845.381	19876.25
845.629	19841.25
845.877	19760.25
846.125	19874.25
846.373	19884.25
846.621	19605.25
846.869	19653.25
847.117	19537.25
847.365	19453.25
847.613	19369.25
847.861	19369.25
848.108	19475.25
848.356	19383.25
848.604	19328.25
848.851	19248.25
849.099	19335.25
849.346	19330.25
849.594	19381.25
849.841	19488.25
850.089	19549.25
850.336	19577.25
850.583	19635.25
850.831	19553.25
851.078	19439.25
851.325	19376.25
851.572	19484.25
851.819	19300.25
852.066	18956.25
852.313	18694.25
852.56	18525.25
852.807	18494.25
853.054	18594.25
853.301	18494.25
853.548	18627.25
853.794	18747.25
854.041	18780.25
854.288	18875.25
854.534	19005.25
854.781	19065.25
855.028	18997.25
855.274	19133.25
855.52	18990.25
855.767	19063.25
856.013	19324.25
856.26	19541.25
856.506	18864.25
856.752	18886.25
856.998	18734.25
857.244	18877.25
857.49	19030.25
857.736	19071.25
857.982	19091.25
858.228	18968.25
858.474	18641.25
858.72	18463.25
858.966	18307.25
859.212	18162.25
859.458	18018.25
859.703	17809.25
859.949	17627.25
860.195	17586.25
860.44	17525.25
860.686	17519.25
860.931	17539.25
861.177	17361.25
861.422	17198.25
861.667	17048.25
861.913	16941.25
862.158	16945.25
862.403	17085.25
862.648	17009.25
862.893	17110.25
863.138	17104.25
863.384	16927.25
863.629	17001.25
863.873	16953.25
864.118	16901.25
864.363	16895.25
864.608	16832.25
864.853	16736.25
865.098	16619.25
865.342	16596.25
865.587	16516.25
865.832	16569.25
866.076	16549.25
866.321	16476.25
866.565	16300.25
866.81	16329.25
867.054	16315.25
867.298	16240.25
867.543	16166.25
867.787	16202.25
868.031	16210.25
868.275	16152.25
868.519	16200.25
868.764	16058.25
869.008	16054.25
869.252	16153.25
869.496	16146.25
869.739	16039.25
869.983	16193.25
870.227	16334.25
870.471	16253.25
870.715	16470.25
870.958	16446.25
871.202	16474.25
871.446	16524.25
871.689	16583.25
871.933	16533.25
872.176	16514.25
872.42	16466.25
872.663	16383.25
872.906	16653.25
873.15	16721.25
873.393	16886.25
873.636	16959.25
873.879	16758.25
874.122	16406.25
874.366	16152.25
874.609	15850.25
874.852	15675.25
875.095	15490.25
875.337	15374.25
875.58	15263.25
875.823	15225.25
876.066	15136.25
876.309	15127.25
876.551	14989.25
876.794	14898.25
877.037	14937.25
877.279	14751.25
877.522	14876.25
877.764	14884.25
878.007	14729.25
878.249	14688.25
878.491	14616.25
878.734	14696.25
878.976	14637.25
879.218	14417.25
879.46	14489.25
879.702	14302.25
879.945	14134.25
880.187	14079.25
880.429	13901.25
880.671	13891.25
880.912	13759.25
881.154	13640.25
881.396	13701.25
881.638	13743.25
881.88	13734.25
882.121	13764.25
882.363	13712.25
882.605	13754.25
882.846	13800.25
883.088	13858.25
883.329	13958.25
883.571	14259.25
883.812	14588.25
884.053	15362.25
884.295	15983.25
884.536	16369.25
884.777	16250.25
885.018	15890.25
885.259	15754.25
885.5	15508.25
885.742	15654.25
885.982	15403.25
886.223	15212.25
886.464	14869.25
886.705	14721.25
886.946	14402.25
887.187	14050.25
887.428	13819.25
887.668	13359.25
887.909	13036.25
888.15	12809.25
888.39	12714.25
888.631	12659.25
888.871	12432.25
889.111	12306.25
889.352	12215.25
889.592	12061.25
889.833	11959.25
890.073	11920.25
890.313	11872.25
890.553	11735.25
890.793	11695.25
891.033	11576.25
891.273	11566.25
891.513	11522.25
891.753	11577.25
891.993	11354.25
892.233	11452.25
892.473	11603.25
892.713	11564.25
892.952	11554.25
893.192	11598.25
893.432	11523.25
893.671	11504.25
893.911	11459.25
894.15	11413.25
894.39	11287.25
894.629	11268.25
894.869	11220.25
895.108	11189.25
895.347	11051.25
895.587	11065.25
895.826	11061.25
896.065	10994.25
896.304	11025.25
896.543	11024.25
896.782	10860.25
897.021	10907.25
897.26	10848.25
897.499	10976.25
897.738	10920.25
897.977	10762.25
898.216	10702.25
898.454	10666.25
898.693	10597.25
898.932	10523.25
899.17	10474.25
899.409	10493.25
899.647	10537.25
899.886	10478.25
900.124	10603.25
900.363	10509.25
900.601	10614.25
900.839	10683.25
901.078	10759.25
901.316	10849.25
901.554	11020.25
901.792	11125.25
902.03	11131.25
902.268	11132.25
902.506	11168.25
902.744	11095.25
902.982	10968.25
903.22	10792.25
903.458	10536.25
903.695	10372.25
903.933	10168.25
904.171	9913.25
904.409	9732.25
904.646	9577.25
904.884	9454.25
905.121	9355.25
905.359	9294.25
905.596	9233.25
905.833	9105.25
906.071	8964.25
906.308	9042.25
906.545	9034.25
906.783	8891.25
907.02	8969.25
907.257	8858.25
907.494	8892.25
907.731	8832.25
907.968	8859.25
908.205	8805.25
908.442	8689.25
908.679	8682.25
908.915	8581.25
909.152	8587.25
909.389	8387.25
909.626	8363.25
909.862	8284.25
910.099	8274.25
910.335	8325.25
910.572	8228.25
910.808	8249.25
911.045	8172.25
911.281	8082.25
911.518	8151.25
911.754	8105.25
911.99	8034.25
912.226	7993.25
912.463	7887.25
912.699	7842.25
912.935	7777.25
913.171	7708.25
913.407	7625.25
913.643	7631.25
913.879	7567.25
914.114	7519.25
914.35	7462.25
914.586	7329.25
914.822	7251.25
915.057	7327.25
915.293	7153.25
915.529	7161.25
915.764	7213.25
916	7160.25
916.235	7218.25
916.471	7152.25
916.706	7105.25
916.941	7050.25
917.177	7087.25
917.412	7107.25
917.647	7088.25
917.882	6990.25
918.117	7062.25
918.352	7056.25
918.588	7079.25
918.823	6953.25
919.057	6894.25
919.292	6692.25
919.527	6801.25
919.762	6662.25
919.997	6672.25
920.232	6584.25
920.466	6567.25
920.701	6440.25
920.935	6449.25
921.17	6403.25
921.405	6335.25
921.639	6438.25
921.873	6297.25
922.108	6291.25
922.342	6299.25
922.576	6246.25
922.811	6234.25
923.045	6265.25
923.279	6249.25
923.513	6069.25
923.747	6207.25
923.981	6116.25
924.215	6036.25
924.449	6033.25
924.683	5958.25
924.917	5885.25
925.151	5919.25
925.385	5967.25
925.618	5905.25
925.852	5914.25
926.086	5796.25
926.319	5892.25
926.553	5827.25
926.786	5870.25
927.02	5829.25
927.253	5833.25
927.486	5854.25
927.72	5758.25
927.953	5802.25
928.186	5802.25
928.42	5822.25
928.653	5690.25
928.886	5673.25
929.119	5651.25
929.352	5660.25
929.585	5632.25
929.818	5547.25
930.051	5523.25
930.284	5476.25
930.516	5473.25
930.749	5376.25
930.982	5434.25
931.215	5364.25
931.447	5304.25
931.68	5355.25
931.912	5297.25
932.145	5281.25
932.377	5306.25
932.61	5417.25
932.842	5253.25
933.074	5343.25
933.307	5244.25
933.539	5379.25
933.771	5327.25
934.003	5345.25
934.236	5423.25
934.468	5451.25
934.7	5381.25
934.932	5452.25
935.164	5368.25
935.395	5383.25
935.627	5315.25
935.859	5255.25
936.091	5116.25
936.323	5205.25
936.554	5211.25
936.786	5122.25
937.017	5069.25
937.249	5121.25
937.481	5025.25
937.712	5095.25
937.943	5026.25
938.175	5001.25
938.406	5038.25
938.637	5093.25
938.869	4977.25
939.1	5014.25
939.331	4932.25
939.562	5011.25
939.793	5004.25
940.024	5072.25
940.255	5253.25
940.486	5194.25
940.717	5211.25
940.948	5066.25
941.179	4991.25
941.409	4935.25
941.64	4854.25
941.871	4848.25
942.102	4791.25
942.332	4812.25
942.563	4837.25
942.793	4795.25
943.024	4779.25
943.254	4797.25
943.484	4868.25
943.715	4800.25
943.945	4771.25
944.175	4719.25
944.405	4694.25
944.636	4732.25
944.866	4767.25
945.096	4836.25
945.326	4721.25
945.556	4794.25
945.786	4727.25
946.016	4676.25
946.245	4617.25
946.475	4635.25
946.705	4540.25
946.935	4557.25
947.164	4550.25
947.394	4527.25
947.624	4486.25
947.853	4565.25
948.083	4455.25
948.312	4436.25
948.542	4409.25
948.771	4373.25
949	4368.25
949.23	4402.25
949.459	4377.25
949.688	4452.25
949.917	4352.25
950.146	4386.25
950.375	4428.25
950.604	4339.25
950.833	4417.25
951.062	4400.25
951.291	4331.25
951.52	4266.25
951.749	4308.25
951.978	4261.25
952.206	4266.25
952.435	4236.25
952.664	4295.25
952.892	4299.25
953.121	4264.25
953.349	4246.25
953.578	4225.25
953.806	4204.25
954.035	4135.25
954.263	4152.25
954.491	4122.25
954.719	4142.25
954.948	4085.25
955.176	4069.25
955.404	4036.25
955.632	4032.25
955.86	4049.25
956.088	3998.25
956.316	4003.25
956.544	3967.25
956.772	3950.25
956.999	3921.25
957.227	3959.25
957.455	3923.25
957.683	3890.25
957.91	3858.25
958.138	3823.25
958.365	3783.25
958.593	3779.25
958.82	3767.25
959.048	3819.25
959.275	3807.25
959.502	3802.25
959.73	3728.25
959.957	3792.25
960.184	3820.25
960.411	3743.25
960.638	3745.25
960.865	3744.25
961.092	3725.25
961.319	3660.25
961.546	3765.25
961.773	3753.25
962	3651.25
962.227	3733.25
962.454	3707.25
962.68	3654.25
962.907	3688.25
963.134	3642.25
963.36	3644.25
963.587	3623.25
963.813	3555.25
964.04	3558.25
964.266	3497.25
964.493	3590.25
964.719	3514.25
964.945	3507.25
965.171	3395.25
965.398	3494.25
965.624	3493.25
965.85	3400.25
966.076	3432.25
966.302	3403.25
966.528	3399.25
966.754	3386.25
966.98	3421.25
967.206	3369.25
967.431	3265.25
967.657	3393.25
967.883	3360.25
968.109	3366.25
968.334	3301.25
968.56	3254.25
968.785	3323.25
969.011	3245.25
969.236	3321.25
969.462	3237.25
969.687	3249.25
969.912	3259.25
970.138	3264.25
970.363	3195.25
970.588	3213.25
970.813	3195.25
971.038	3149.25
971.263	3213.25
971.488	3225.25
971.713	3169.25
971.938	3168.25
972.163	3097.25
972.388	3103.25
972.613	3077.25
972.838	3108.25
973.062	3056.25
973.287	3020.25
973.512	3006.25
973.736	3005.25
973.961	3012.25
974.185	3013.25
974.41	3038.25
974.634	2926.25
974.858	2956.25
975.083	2946.25
975.307	2938.25
975.531	2883.25
975.755	2890.25
975.98	2849.25
976.204	2789.25
976.428	2788.25
976.652	2782.25
976.876	2745.25
977.1	2803.25
977.324	2753.25
977.547	2803.25
977.771	2788.25
977.995	2763.25
978.219	2719.25
978.442	2831.25
978.666	2759.25
978.89	2727.25
979.113	2731.25
979.337	2716.25
979.56	2727.25
979.783	2780.25
980.007	2660.25
980.23	2687.25
980.453	2641.25
980.677	2671.25
980.9	2645.25
981.123	2547.25
981.346	2656.25
981.569	2663.25
981.792	2698.25
982.015	2606.25
982.238	2558.25
982.461	2579.25
982.684	2501.25
982.907	2532.25
983.129	2497.25
983.352	2544.25
983.575	2535.25
983.797	2551.25
984.02	2491.25
984.242	2467.25
984.465	2511.25
984.687	2521.25
984.91	2533.25
985.132	2491.25
985.354	2512.25
985.577	2459.25
985.799	2433.25
986.021	2383.25
986.243	2426.25
986.465	2417.25
986.687	2417.25
986.909	2461.25
987.131	2432.25
987.353	2353.25
987.575	2399.25
987.797	2352.25
988.019	2324.25
988.241	2373.25
988.462	2308.25
988.684	2407.25
988.906	2402.25
989.127	2364.25
989.349	2299.25
989.57	2331.25
989.792	2376.25
990.013	2395.25
990.234	2373.25
990.456	2425.25
990.677	2379.25
990.898	2323.25
991.119	2329.25
991.341	2360.25
991.562	2288.25
991.783	2303.25
992.004	2221.25
992.225	2201.25
992.446	2278.25
992.667	2182.25
992.887	2261.25
993.108	2144.25
993.329	2269.25
993.55	2210.25
993.77	2162.25
993.991	2144.25
994.212	2195.25
994.432	2162.25
994.653	2174.25
994.873	2161.25
995.093	2072.25
995.314	2161.25
995.534	2161.25
995.754	2176.25
995.975	2230.25
996.195	2131.25
996.415	2107.25
996.635	2136.25
996.855	2147.25
997.075	2139.25
997.295	2138.25
997.515	2136.25
997.735	2212.25
997.955	2136.25
998.174	2151.25
998.394	2151.25
998.614	2191.25
998.834	2135.25
999.053	2171.25
999.273	2160.25
999.492	2207.25
999.712	2085.25
999.931	2051.25
1000.151	2109.25
1000.37	2101.25
1000.589	2112.25
1000.809	2017.25
1001.028	2142.25
1001.247	2067.25
1001.466	1933.25
1001.685	2089.25
1001.904	1988.25
1002.123	2011.25
1002.342	1978.25
1002.561	1930.25
1002.78	1944.25
1002.999	1973.25
1003.218	1947.25
1003.436	1935.25
1003.655	1972.25
1003.874	1879.25
1004.092	1925.25
1004.311	1971.25
1004.53	1933.25
1004.748	1998.25
1004.966	1924.25
1005.185	1987.25
1005.403	1960.25
1005.622	1951.25
1005.84	2025.25
1006.058	1938.25
1006.276	1967.25
1006.494	2461.25
1006.712	1980.25
1006.931	2028.25
1007.149	1957.25
1007.367	2015.25
1007.584	2051.25
1007.802	2112.25
1008.02	2110.25
1008.238	2224.25
1008.456	2287.25
1008.673	2189.25
1008.891	2284.25
1009.109	2337.25
1009.326	2450.25
1009.544	2617.25
1009.761	2644.25
1009.979	2870.25
1010.196	2995.25
1010.413	3285.25
1010.631	3441.25
1010.848	3646.25
1011.065	3684.25
1011.282	3664.25
1011.5	3622.25
1011.717	3735.25
1011.934	3608.25
1012.151	3583.25
1012.368	3585.25
1012.585	3504.25
1012.801	3549.25
1013.018	3561.25
1013.235	3544.25
1013.452	3591.25
1013.669	3581.25
1013.885	3642.25
1014.102	3715.25
1014.318	3742.25
1014.535	3664.25
1014.751	3663.25
1014.968	3646.25
1015.184	3617.25
1015.401	3478.25
1015.617	3521.25
1015.833	3422.25
1016.049	3428.25
1016.266	3309.25
1016.482	3288.25
1016.698	3201.25
1016.914	3261.25
1017.13	3108.25
1017.346	3094.25
1017.562	3128.25
1017.778	3079.25
1017.993	2996.25
1018.209	3110.25
1018.425	2994.25
1018.641	2962.25
1018.856	2941.25
1019.072	2935.25
1019.288	2994.25
1019.503	2947.25
1019.719	2839.25
1019.934	2853.25
1020.149	2927.25
1020.365	2782.25
1020.58	2663.25
1020.795	2646.25
1021.011	2528.25
1021.226	2502.25
1021.441	2431.25
1021.656	2321.25
1021.871	2234.25
1022.086	2166.25
1022.301	2115.25
1022.516	2114.25
1022.731	2122.25
1022.946	1998.25
1023.16	1973.25
1023.375	1896.25
1023.59	1829.25
1023.804	1766.25
1024.019	1806.25
1024.234	1678.25
1024.448	1668.25
1024.663	1586.25
1024.877	1562.25
1025.092	1533.25
1025.306	1519.25
1025.52	1420.25
1025.734	1457.25
1025.949	1341.25
1026.163	1306.25
1026.377	1248.25
1026.591	1295.25
1026.805	1189.25
1027.019	1187.25
1027.233	1147.25
1027.447	1079.25
1027.661	1155.25
1027.875	1098.25
1028.088	1073.25
1028.302	979.25
1028.516	977.25
1028.73	970.25
1028.943	943.25
1029.157	869.25
1029.37	790.25
1029.584	-3.75
1029.797	-0.75
1030.011	-0.75
1030.224	0.25
