Data from QEP037381__163__15-23-40-384.txt Node

Date: Wed Dec 21 15:23:40 EST 2022
User: dcclab
Spectrometer: QEP03738
Trigger mode: 4
Integration Time (sec): 1.000000E1
Scans to average: 1
Electric dark correction enabled: true
Nonlinearity correction enabled: false
Boxcar width: 0
XAxis mode: Wavelengths
Number of Pixels in Spectrum: 1044
>>>>>Begin Spectral Data<<<<<
784.041	12.62
784.3	1.62
784.558	-2.38
784.817	-2.38
785.075	98637.62
785.334	16971.62
785.592	7989.62
785.851	5512.62
786.109	4132.62
786.368	3220.62
786.626	2644.62
786.884	2114.62
787.143	1833.62
787.401	1487.62
787.659	1318.62
787.917	1170.62
788.175	1076.62
788.433	937.62
788.691	855.62
788.949	781.62
789.207	767.62
789.465	652.62
789.723	620.62
789.98	575.62
790.238	621.62
790.496	579.62
790.753	554.62
791.011	604.62
791.268	535.62
791.526	505.62
791.783	537.62
792.041	529.62
792.298	421.62
792.556	511.62
792.813	479.62
793.07	441.62
793.327	444.62
793.584	507.62
793.841	444.62
794.099	463.62
794.356	516.62
794.613	434.62
794.869	465.62
795.126	417.62
795.383	391.62
795.64	435.62
795.897	370.62
796.153	434.62
796.41	412.62
796.667	407.62
796.923	418.62
797.18	416.62
797.436	443.62
797.693	405.62
797.949	450.62
798.206	482.62
798.462	389.62
798.718	463.62
798.974	453.62
799.231	475.62
799.487	456.62
799.743	475.62
799.999	487.62
800.255	491.62
800.511	467.62
800.767	513.62
801.023	508.62
801.279	542.62
801.534	581.62
801.79	601.62
802.046	622.62
802.302	780.62
802.557	856.62
802.813	1051.62
803.068	1252.62
803.324	1746.62
803.579	2373.62
803.835	3252.62
804.09	4434.62
804.345	5703.62
804.601	7159.62
804.856	8594.62
805.111	9903.62
805.366	10882.62
805.621	11678.62
805.876	12212.62
806.131	12533.62
806.386	12689.62
806.641	12886.62
806.896	13238.62
807.151	13321.62
807.406	13531.62
807.661	13762.62
807.915	14011.62
808.17	14163.62
808.425	14270.62
808.679	14379.62
808.934	14565.62
809.188	14701.62
809.443	14743.62
809.697	14963.62
809.951	14973.62
810.206	15173.62
810.46	15276.62
810.714	15396.62
810.968	15582.62
811.223	15781.62
811.477	15824.62
811.731	15970.62
811.985	16008.62
812.239	16001.62
812.493	15976.62
812.747	16053.62
813	16033.62
813.254	16134.62
813.508	16317.62
813.762	16435.62
814.015	16328.62
814.269	16467.62
814.522	16503.62
814.776	16690.62
815.03	16874.62
815.283	17076.62
815.536	17325.62
815.79	17606.62
816.043	17861.62
816.296	18018.62
816.55	18148.62
816.803	18401.62
817.056	18611.62
817.309	18849.62
817.562	19030.62
817.815	19139.62
818.068	19149.62
818.321	19399.62
818.574	19579.62
818.827	19752.62
819.079	19982.62
819.332	20435.62
819.585	20731.62
819.838	21051.62
820.09	20922.62
820.343	20960.62
820.595	20991.62
820.848	21100.62
821.1	21293.62
821.353	21332.62
821.605	21213.62
821.857	21191.62
822.11	21087.62
822.362	21033.62
822.614	20984.62
822.866	21124.62
823.118	20907.62
823.37	21203.62
823.622	21251.62
823.874	21457.62
824.126	21370.62
824.378	21266.62
824.63	21320.62
824.882	21351.62
825.134	21230.62
825.385	21258.62
825.637	21114.62
825.888	21033.62
826.14	21139.62
826.392	21020.62
826.643	20880.62
826.895	20759.62
827.146	20704.62
827.397	20633.62
827.649	20590.62
827.9	20611.62
828.151	20493.62
828.402	20687.62
828.653	20723.62
828.905	20775.62
829.156	20839.62
829.407	20942.62
829.658	21045.62
829.909	21299.62
830.159	21410.62
830.41	21224.62
830.661	20985.62
830.912	20812.62
831.162	20668.62
831.413	20692.62
831.664	20749.62
831.914	20713.62
832.165	20627.62
832.415	20504.62
832.666	20689.62
832.916	20627.62
833.167	20533.62
833.417	20594.62
833.667	20422.62
833.917	20346.62
834.168	20471.62
834.418	20279.62
834.668	20166.62
834.918	20137.62
835.168	20111.62
835.418	19988.62
835.668	20017.62
835.918	19850.62
836.167	19836.62
836.417	19683.62
836.667	19701.62
836.917	19876.62
837.166	19934.62
837.416	19989.62
837.666	19935.62
837.915	19837.62
838.165	19752.62
838.414	19763.62
838.663	19712.62
838.913	19713.62
839.162	19673.62
839.411	19865.62
839.661	19624.62
839.91	19713.62
840.159	19757.62
840.408	19700.62
840.657	19739.62
840.906	19720.62
841.155	19684.62
841.404	19621.62
841.653	19618.62
841.902	19599.62
842.15	19755.62
842.399	19792.62
842.648	19841.62
842.897	19840.62
843.145	19632.62
843.394	19488.62
843.642	19304.62
843.891	19284.62
844.139	19150.62
844.388	18834.62
844.636	18767.62
844.884	18797.62
845.133	18814.62
845.381	18823.62
845.629	18852.62
845.877	18744.62
846.125	18774.62
846.373	18817.62
846.621	18687.62
846.869	18593.62
847.117	18438.62
847.365	18337.62
847.613	18254.62
847.861	18383.62
848.108	18355.62
848.356	18311.62
848.604	18179.62
848.851	18233.62
849.099	18294.62
849.346	18304.62
849.594	18231.62
849.841	18354.62
850.089	18447.62
850.336	18476.62
850.583	18415.62
850.831	18344.62
851.078	18186.62
851.325	18211.62
851.572	18301.62
851.819	18165.62
852.066	17881.62
852.313	17473.62
852.56	17332.62
852.807	17367.62
853.054	17310.62
853.301	17369.62
853.548	17345.62
853.794	17552.62
854.041	17546.62
854.288	17657.62
854.534	17805.62
854.781	17865.62
855.028	17787.62
855.274	17889.62
855.52	17855.62
855.767	18024.62
856.013	18165.62
856.26	18325.62
856.506	17738.62
856.752	17642.62
856.998	17633.62
857.244	17667.62
857.49	17885.62
857.736	17960.62
857.982	17956.62
858.228	17704.62
858.474	17393.62
858.72	17265.62
858.966	17055.62
859.212	16930.62
859.458	16813.62
859.703	16548.62
859.949	16338.62
860.195	16318.62
860.44	16225.62
860.686	16287.62
860.931	16305.62
861.177	16130.62
861.422	15960.62
861.667	15792.62
861.913	15614.62
862.158	15638.62
862.403	15709.62
862.648	15779.62
862.893	15706.62
863.138	15766.62
863.384	15613.62
863.629	15683.62
863.873	15718.62
864.118	15604.62
864.363	15627.62
864.608	15538.62
864.853	15362.62
865.098	15338.62
865.342	15263.62
865.587	15080.62
865.832	15161.62
866.076	15180.62
866.321	14954.62
866.565	15038.62
866.81	14990.62
867.054	14971.62
867.298	14825.62
867.543	14821.62
867.787	14868.62
868.031	14744.62
868.275	14811.62
868.519	14812.62
868.764	14804.62
869.008	14727.62
869.252	14806.62
869.496	14751.62
869.739	14750.62
869.983	14841.62
870.227	14830.62
870.471	14824.62
870.715	14963.62
870.958	15090.62
871.202	15049.62
871.446	15170.62
871.689	15113.62
871.933	15134.62
872.176	15101.62
872.42	15029.62
872.663	15078.62
872.906	15183.62
873.15	15290.62
873.393	15385.62
873.636	15516.62
873.879	15390.62
874.122	15094.62
874.366	14702.62
874.609	14450.62
874.852	14255.62
875.095	14133.62
875.337	13934.62
875.58	13903.62
875.823	13809.62
876.066	13707.62
876.309	13681.62
876.551	13566.62
876.794	13482.62
877.037	13510.62
877.279	13375.62
877.522	13386.62
877.764	13400.62
878.007	13291.62
878.249	13264.62
878.491	13212.62
878.734	13164.62
878.976	13089.62
879.218	13049.62
879.46	13035.62
879.702	12920.62
879.945	12763.62
880.187	12563.62
880.429	12524.62
880.671	12396.62
880.912	12381.62
881.154	12255.62
881.396	12258.62
881.638	12326.62
881.88	12263.62
882.121	12194.62
882.363	12265.62
882.605	12334.62
882.846	12401.62
883.088	12358.62
883.329	12556.62
883.571	12825.62
883.812	13209.62
884.053	13890.62
884.295	14639.62
884.536	14951.62
884.777	14770.62
885.018	14511.62
885.259	14169.62
885.5	13943.62
885.742	14186.62
885.982	13840.62
886.223	13645.62
886.464	13405.62
886.705	13138.62
886.946	12843.62
887.187	12461.62
887.428	12265.62
887.668	11900.62
887.909	11606.62
888.15	11357.62
888.39	11363.62
888.631	11141.62
888.871	10985.62
889.111	10891.62
889.352	10798.62
889.592	10750.62
889.833	10606.62
890.073	10490.62
890.313	10467.62
890.553	10356.62
890.793	10346.62
891.033	10242.62
891.273	10089.62
891.513	10095.62
891.753	10099.62
891.993	10106.62
892.233	10183.62
892.473	10172.62
892.713	10114.62
892.952	10084.62
893.192	10130.62
893.432	10025.62
893.671	10103.62
893.911	10037.62
894.15	9979.62
894.39	9835.62
894.629	9790.62
894.869	9832.62
895.108	9771.62
895.347	9649.62
895.587	9655.62
895.826	9646.62
896.065	9494.62
896.304	9618.62
896.543	9599.62
896.782	9493.62
897.021	9499.62
897.26	9491.62
897.499	9513.62
897.738	9560.62
897.977	9365.62
898.216	9394.62
898.454	9249.62
898.693	9155.62
898.932	9164.62
899.17	9131.62
899.409	9076.62
899.647	9088.62
899.886	9072.62
900.124	9091.62
900.363	9095.62
900.601	9108.62
900.839	9209.62
901.078	9301.62
901.316	9370.62
901.554	9480.62
901.792	9534.62
902.03	9541.62
902.268	9613.62
902.506	9555.62
902.744	9495.62
902.982	9482.62
903.22	9162.62
903.458	9051.62
903.695	8897.62
903.933	8699.62
904.171	8464.62
904.409	8359.62
904.646	8244.62
904.884	8089.62
905.121	8032.62
905.359	7916.62
905.596	7897.62
905.833	7755.62
906.071	7713.62
906.308	7749.62
906.545	7741.62
906.783	7600.62
907.02	7731.62
907.257	7658.62
907.494	7593.62
907.731	7567.62
907.968	7578.62
908.205	7441.62
908.442	7418.62
908.679	7412.62
908.915	7311.62
909.152	7285.62
909.389	7144.62
909.626	7146.62
909.862	7046.62
910.099	7098.62
910.335	7036.62
910.572	6946.62
910.808	6979.62
911.045	6970.62
911.281	6849.62
911.518	6946.62
911.754	6775.62
911.99	6784.62
912.226	6755.62
912.463	6709.62
912.699	6624.62
912.935	6608.62
913.171	6584.62
913.407	6502.62
913.643	6503.62
913.879	6373.62
914.114	6359.62
914.35	6229.62
914.586	6208.62
914.822	6117.62
915.057	6194.62
915.293	6091.62
915.529	5994.62
915.764	6085.62
916	6003.62
916.235	6009.62
916.471	6063.62
916.706	5954.62
916.941	5972.62
917.177	5924.62
917.412	6012.62
917.647	5945.62
917.882	5864.62
918.117	5951.62
918.352	5884.62
918.588	5961.62
918.823	5828.62
919.057	5807.62
919.292	5666.62
919.527	5703.62
919.762	5656.62
919.997	5626.62
920.232	5476.62
920.466	5475.62
920.701	5368.62
920.935	5417.62
921.17	5340.62
921.405	5327.62
921.639	5351.62
921.873	5271.62
922.108	5270.62
922.342	5212.62
922.576	5216.62
922.811	5205.62
923.045	5207.62
923.279	5271.62
923.513	5029.62
923.747	5133.62
923.981	5121.62
924.215	5021.62
924.449	4997.62
924.683	4980.62
924.917	4966.62
925.151	4902.62
925.385	4948.62
925.618	4874.62
925.852	4886.62
926.086	4851.62
926.319	4840.62
926.553	4854.62
926.786	4863.62
927.02	4808.62
927.253	4872.62
927.486	4854.62
927.72	4841.62
927.953	4862.62
928.186	4785.62
928.42	4796.62
928.653	4731.62
928.886	4659.62
929.119	4747.62
929.352	4722.62
929.585	4675.62
929.818	4549.62
930.051	4617.62
930.284	4542.62
930.516	4444.62
930.749	4439.62
930.982	4455.62
931.215	4488.62
931.447	4355.62
931.68	4415.62
931.912	4381.62
932.145	4390.62
932.377	4416.62
932.61	4486.62
932.842	4351.62
933.074	4377.62
933.307	4326.62
933.539	4444.62
933.771	4363.62
934.003	4370.62
934.236	4397.62
934.468	4421.62
934.7	4360.62
934.932	4352.62
935.164	4234.62
935.395	4238.62
935.627	4300.62
935.859	4237.62
936.091	4187.62
936.323	4256.62
936.554	4227.62
936.786	4214.62
937.017	4133.62
937.249	4140.62
937.481	4099.62
937.712	4126.62
937.943	4124.62
938.175	4113.62
938.406	4149.62
938.637	4201.62
938.869	4092.62
939.1	4106.62
939.331	4074.62
939.562	4085.62
939.793	4023.62
940.024	4054.62
940.255	4072.62
940.486	3971.62
940.717	3997.62
940.948	3990.62
941.179	3949.62
941.409	3921.62
941.64	3907.62
941.871	3914.62
942.102	3910.62
942.332	3921.62
942.563	3916.62
942.793	3901.62
943.024	3856.62
943.254	3868.62
943.484	3942.62
943.715	3986.62
943.945	3917.62
944.175	3825.62
944.405	3836.62
944.636	3846.62
944.866	3884.62
945.096	3904.62
945.326	3824.62
945.556	3828.62
945.786	3881.62
946.016	3755.62
946.245	3741.62
946.475	3704.62
946.705	3685.62
946.935	3693.62
947.164	3722.62
947.394	3692.62
947.624	3715.62
947.853	3722.62
948.083	3669.62
948.312	3630.62
948.542	3549.62
948.771	3549.62
949	3557.62
949.23	3558.62
949.459	3554.62
949.688	3621.62
949.917	3577.62
950.146	3542.62
950.375	3617.62
950.604	3491.62
950.833	3565.62
951.062	3567.62
951.291	3505.62
951.52	3473.62
951.749	3489.62
951.978	3464.62
952.206	3452.62
952.435	3438.62
952.664	3469.62
952.892	3477.62
953.121	3415.62
953.349	3439.62
953.578	3437.62
953.806	3384.62
954.035	3328.62
954.263	3392.62
954.491	3283.62
954.719	3360.62
954.948	3284.62
955.176	3280.62
955.404	3207.62
955.632	3260.62
955.86	3233.62
956.088	3232.62
956.316	3309.62
956.544	3307.62
956.772	3184.62
956.999	3142.62
957.227	3278.62
957.455	3155.62
957.683	3142.62
957.91	3089.62
958.138	3104.62
958.365	3074.62
958.593	3075.62
958.82	3021.62
959.048	3054.62
959.275	3064.62
959.502	3034.62
959.73	3073.62
959.957	3029.62
960.184	3066.62
960.411	2992.62
960.638	3061.62
960.865	2992.62
961.092	3014.62
961.319	2915.62
961.546	3033.62
961.773	3022.62
962	2962.62
962.227	3033.62
962.454	2995.62
962.68	2971.62
962.907	2963.62
963.134	2916.62
963.36	2918.62
963.587	2952.62
963.813	2825.62
964.04	2886.62
964.266	2799.62
964.493	2904.62
964.719	2843.62
964.945	2848.62
965.171	2754.62
965.398	2793.62
965.624	2799.62
965.85	2749.62
966.076	2732.62
966.302	2779.62
966.528	2719.62
966.754	2738.62
966.98	2697.62
967.206	2710.62
967.431	2659.62
967.657	2743.62
967.883	2685.62
968.109	2709.62
968.334	2644.62
968.56	2622.62
968.785	2649.62
969.011	2620.62
969.236	2677.62
969.462	2605.62
969.687	2623.62
969.912	2656.62
970.138	2657.62
970.363	2570.62
970.588	2603.62
970.813	2554.62
971.038	2524.62
971.263	2573.62
971.488	2545.62
971.713	2580.62
971.938	2534.62
972.163	2442.62
972.388	2480.62
972.613	2491.62
972.838	2484.62
973.062	2434.62
973.287	2447.62
973.512	2390.62
973.736	2441.62
973.961	2393.62
974.185	2399.62
974.41	2434.62
974.634	2305.62
974.858	2315.62
975.083	2407.62
975.307	2385.62
975.531	2327.62
975.755	2274.62
975.98	2267.62
976.204	2204.62
976.428	2208.62
976.652	2243.62
976.876	2218.62
977.1	2259.62
977.324	2190.62
977.547	2239.62
977.771	2264.62
977.995	2213.62
978.219	2143.62
978.442	2267.62
978.666	2228.62
978.89	2202.62
979.113	2196.62
979.337	2189.62
979.56	2120.62
979.783	2227.62
980.007	2112.62
980.23	2154.62
980.453	2104.62
980.677	2138.62
980.9	2152.62
981.123	2038.62
981.346	2145.62
981.569	2136.62
981.792	2111.62
982.015	2057.62
982.238	2037.62
982.461	2070.62
982.684	2056.62
982.907	2018.62
983.129	2007.62
983.352	2041.62
983.575	2062.62
983.797	2034.62
984.02	1974.62
984.242	1968.62
984.465	1999.62
984.687	2015.62
984.91	2050.62
985.132	2014.62
985.354	2059.62
985.577	1982.62
985.799	1988.62
986.021	1900.62
986.243	1938.62
986.465	1909.62
986.687	1984.62
986.909	2030.62
987.131	1938.62
987.353	1902.62
987.575	1970.62
987.797	1887.62
988.019	1833.62
988.241	1938.62
988.462	1885.62
988.684	1906.62
988.906	1936.62
989.127	2010.62
989.349	1839.62
989.57	1872.62
989.792	1926.62
990.013	1943.62
990.234	1906.62
990.456	1936.62
990.677	1922.62
990.898	1879.62
991.119	1840.62
991.341	1927.62
991.562	1835.62
991.783	1876.62
992.004	1827.62
992.225	1792.62
992.446	1837.62
992.667	1737.62
992.887	1834.62
993.108	1709.62
993.329	1865.62
993.55	1809.62
993.77	1726.62
993.991	1734.62
994.212	1779.62
994.432	1776.62
994.653	1776.62
994.873	1734.62
995.093	1661.62
995.314	1709.62
995.534	1792.62
995.754	1752.62
995.975	1797.62
996.195	1712.62
996.415	1769.62
996.635	1727.62
996.855	1748.62
997.075	1767.62
997.295	1725.62
997.515	1714.62
997.735	1812.62
997.955	1769.62
998.174	1733.62
998.394	1739.62
998.614	1746.62
998.834	1701.62
999.053	1760.62
999.273	1712.62
999.492	1777.62
999.712	1708.62
999.931	1638.62
1000.151	1705.62
1000.37	1647.62
1000.589	1730.62
1000.809	1629.62
1001.028	1739.62
1001.247	1652.62
1001.466	1554.62
1001.685	1723.62
1001.904	1642.62
1002.123	1601.62
1002.342	1634.62
1002.561	1563.62
1002.78	1595.62
1002.999	1683.62
1003.218	1585.62
1003.436	1578.62
1003.655	1631.62
1003.874	1561.62
1004.092	1626.62
1004.311	1609.62
1004.53	1589.62
1004.748	1666.62
1004.966	1568.62
1005.185	1661.62
1005.403	1634.62
1005.622	1622.62
1005.84	1691.62
1006.058	1593.62
1006.276	1636.62
1006.494	2142.62
1006.712	1609.62
1006.931	1707.62
1007.149	1612.62
1007.367	1677.62
1007.584	1694.62
1007.802	1730.62
1008.02	1686.62
1008.238	1826.62
1008.456	1839.62
1008.673	1716.62
1008.891	1885.62
1009.109	1866.62
1009.326	1956.62
1009.544	2076.62
1009.761	2063.62
1009.979	2185.62
1010.196	2306.62
1010.413	2504.62
1010.631	2641.62
1010.848	2770.62
1011.065	2782.62
1011.282	2737.62
1011.5	2699.62
1011.717	2760.62
1011.934	2703.62
1012.151	2697.62
1012.368	2704.62
1012.585	2607.62
1012.801	2661.62
1013.018	2672.62
1013.235	2647.62
1013.452	2697.62
1013.669	2688.62
1013.885	2707.62
1014.102	2786.62
1014.318	2754.62
1014.535	2710.62
1014.751	2724.62
1014.968	2733.62
1015.184	2700.62
1015.401	2593.62
1015.617	2614.62
1015.833	2505.62
1016.049	2500.62
1016.266	2487.62
1016.482	2477.62
1016.698	2363.62
1016.914	2435.62
1017.13	2345.62
1017.346	2267.62
1017.562	2353.62
1017.778	2277.62
1017.993	2185.62
1018.209	2259.62
1018.425	2203.62
1018.641	2186.62
1018.856	2139.62
1019.072	2209.62
1019.288	2221.62
1019.503	2183.62
1019.719	2090.62
1019.934	2085.62
1020.149	2156.62
1020.365	2074.62
1020.58	1954.62
1020.795	1982.62
1021.011	1873.62
1021.226	1824.62
1021.441	1839.62
1021.656	1714.62
1021.871	1640.62
1022.086	1642.62
1022.301	1604.62
1022.516	1579.62
1022.731	1598.62
1022.946	1518.62
1023.16	1474.62
1023.375	1432.62
1023.59	1433.62
1023.804	1338.62
1024.019	1402.62
1024.234	1274.62
1024.448	1274.62
1024.663	1205.62
1024.877	1205.62
1025.092	1183.62
1025.306	1205.62
1025.52	1086.62
1025.734	1147.62
1025.949	1067.62
1026.163	998.62
1026.377	986.62
1026.591	1010.62
1026.805	929.62
1027.019	947.62
1027.233	886.62
1027.447	828.62
1027.661	916.62
1027.875	841.62
1028.088	876.62
1028.302	802.62
1028.516	767.62
1028.73	753.62
1028.943	743.62
1029.157	696.62
1029.37	633.62
1029.584	-3.38
1029.797	-2.38
1030.011	-2.38
1030.224	-1.38
