Data from QEP037381__195__10-47-14-540.txt Node

Date: Wed Dec 21 10:47:14 EST 2022
User: dcclab
Spectrometer: QEP03738
Trigger mode: 4
Integration Time (sec): 1.000000E1
Scans to average: 1
Electric dark correction enabled: true
Nonlinearity correction enabled: false
Boxcar width: 0
XAxis mode: Wavelengths
Number of Pixels in Spectrum: 1044
>>>>>Begin Spectral Data<<<<<
784.041	13.25
784.3	0.25
784.558	-4.75
784.817	-5.75
785.075	116231.25
785.334	19622.25
785.592	9019.25
785.851	6160.25
786.109	4656.25
786.368	3630.25
786.626	2909.25
786.884	2393.25
787.143	2012.25
787.401	1665.25
787.659	1484.25
787.917	1282.25
788.175	1166.25
788.433	1010.25
788.691	925.25
788.949	837.25
789.207	791.25
789.465	709.25
789.723	667.25
789.98	613.25
790.238	653.25
790.496	601.25
790.753	565.25
791.011	593.25
791.268	525.25
791.526	509.25
791.783	536.25
792.041	522.25
792.298	449.25
792.556	516.25
792.813	483.25
793.07	466.25
793.327	449.25
793.584	522.25
793.841	457.25
794.099	452.25
794.356	521.25
794.613	437.25
794.869	463.25
795.126	426.25
795.383	415.25
795.64	423.25
795.897	382.25
796.153	426.25
796.41	432.25
796.667	404.25
796.923	418.25
797.18	411.25
797.436	432.25
797.693	395.25
797.949	458.25
798.206	473.25
798.462	391.25
798.718	446.25
798.974	433.25
799.231	466.25
799.487	461.25
799.743	454.25
799.999	473.25
800.255	477.25
800.511	454.25
800.767	500.25
801.023	485.25
801.279	506.25
801.534	535.25
801.79	575.25
802.046	585.25
802.302	699.25
802.557	781.25
802.813	967.25
803.068	1132.25
803.324	1529.25
803.579	2033.25
803.835	2817.25
804.09	3825.25
804.345	4951.25
804.601	6242.25
804.856	7491.25
805.111	8586.25
805.366	9430.25
805.621	10020.25
805.876	10444.25
806.131	10703.25
806.386	10828.25
806.641	11006.25
806.896	11203.25
807.151	11482.25
807.406	11546.25
807.661	11821.25
807.915	12050.25
808.17	12156.25
808.425	12325.25
808.679	12377.25
808.934	12601.25
809.188	12680.25
809.443	12734.25
809.697	12898.25
809.951	12890.25
810.206	13100.25
810.46	13256.25
810.714	13342.25
810.968	13495.25
811.223	13466.25
811.477	13603.25
811.731	13715.25
811.985	13742.25
812.239	13784.25
812.493	13796.25
812.747	13851.25
813	13965.25
813.254	13969.25
813.508	14050.25
813.762	14124.25
814.015	14156.25
814.269	14206.25
814.522	14379.25
814.776	14477.25
815.03	14698.25
815.283	14847.25
815.536	15107.25
815.79	15346.25
816.043	15599.25
816.296	15738.25
816.55	15933.25
816.803	16100.25
817.056	16285.25
817.309	16546.25
817.562	16613.25
817.815	16714.25
818.068	16891.25
818.321	16987.25
818.574	17291.25
818.827	17580.25
819.079	17662.25
819.332	17964.25
819.585	18240.25
819.838	18560.25
820.09	18425.25
820.343	18606.25
820.595	18709.25
820.848	18755.25
821.1	18865.25
821.353	18873.25
821.605	18879.25
821.857	18936.25
822.11	18700.25
822.362	18652.25
822.614	18585.25
822.866	18800.25
823.118	18646.25
823.37	18845.25
823.622	18765.25
823.874	18963.25
824.126	18985.25
824.378	18904.25
824.63	18943.25
824.882	18986.25
825.134	19042.25
825.385	19008.25
825.637	18912.25
825.888	18825.25
826.14	18798.25
826.392	18714.25
826.643	18632.25
826.895	18496.25
827.146	18352.25
827.397	18447.25
827.649	18506.25
827.9	18305.25
828.151	18414.25
828.402	18557.25
828.653	18542.25
828.905	18536.25
829.156	18673.25
829.407	18565.25
829.658	18558.25
829.909	18701.25
830.159	18636.25
830.41	18570.25
830.661	18308.25
830.912	18331.25
831.162	18270.25
831.413	18112.25
831.664	18189.25
831.914	18283.25
832.165	18244.25
832.415	18131.25
832.666	18153.25
832.916	18232.25
833.167	18149.25
833.417	18097.25
833.667	18022.25
833.917	17985.25
834.168	17937.25
834.418	17926.25
834.668	17824.25
834.918	17786.25
835.168	17765.25
835.418	17576.25
835.668	17586.25
835.918	17589.25
836.167	17533.25
836.417	17427.25
836.667	17570.25
836.917	17403.25
837.166	17460.25
837.416	17398.25
837.666	17361.25
837.915	17403.25
838.165	17314.25
838.414	17183.25
838.663	17285.25
838.913	17234.25
839.162	17085.25
839.411	17142.25
839.661	17067.25
839.91	17010.25
840.159	16983.25
840.408	17038.25
840.657	17044.25
840.906	17060.25
841.155	17021.25
841.404	16994.25
841.653	17041.25
841.902	17019.25
842.15	16993.25
842.399	17089.25
842.648	17053.25
842.897	17002.25
843.145	16856.25
843.394	16799.25
843.642	16684.25
843.891	16623.25
844.139	16527.25
844.388	16346.25
844.636	16254.25
844.884	16314.25
845.133	16278.25
845.381	16229.25
845.629	16292.25
845.877	16295.25
846.125	16202.25
846.373	16226.25
846.621	16113.25
846.869	16062.25
847.117	16081.25
847.365	15897.25
847.613	15867.25
847.861	15739.25
848.108	15809.25
848.356	15778.25
848.604	15708.25
848.851	15760.25
849.099	15770.25
849.346	15767.25
849.594	15864.25
849.841	16024.25
850.089	15965.25
850.336	16021.25
850.583	15944.25
850.831	16000.25
851.078	15910.25
851.325	15730.25
851.572	15753.25
851.819	15527.25
852.066	15357.25
852.313	15060.25
852.56	15051.25
852.807	14967.25
853.054	14880.25
853.301	14997.25
853.548	14922.25
853.794	15050.25
854.041	15027.25
854.288	15172.25
854.534	15286.25
854.781	15208.25
855.028	15131.25
855.274	15129.25
855.52	15038.25
855.767	14998.25
856.013	15077.25
856.26	15245.25
856.506	14849.25
856.752	14815.25
856.998	14788.25
857.244	14904.25
857.49	14953.25
857.736	15034.25
857.982	15028.25
858.228	14984.25
858.474	14755.25
858.72	14631.25
858.966	14604.25
859.212	14388.25
859.458	14214.25
859.703	14063.25
859.949	13974.25
860.195	13950.25
860.44	13879.25
860.686	13789.25
860.931	13820.25
861.177	13672.25
861.422	13608.25
861.667	13599.25
861.913	13539.25
862.158	13652.25
862.403	13691.25
862.648	13632.25
862.893	13635.25
863.138	13659.25
863.384	13637.25
863.629	13574.25
863.873	13512.25
864.118	13579.25
864.363	13365.25
864.608	13409.25
864.853	13363.25
865.098	13198.25
865.342	13216.25
865.587	13146.25
865.832	13193.25
866.076	13115.25
866.321	13032.25
866.565	12987.25
866.81	12932.25
867.054	12951.25
867.298	12921.25
867.543	12788.25
867.787	12901.25
868.031	12809.25
868.275	12841.25
868.519	12701.25
868.764	12790.25
869.008	12766.25
869.252	12728.25
869.496	12733.25
869.739	12690.25
869.983	12739.25
870.227	12706.25
870.471	12575.25
870.715	12718.25
870.958	12745.25
871.202	12716.25
871.446	12721.25
871.689	12726.25
871.933	12768.25
872.176	12733.25
872.42	12676.25
872.663	12641.25
872.906	12661.25
873.15	12610.25
873.393	12532.25
873.636	12662.25
873.879	12436.25
874.122	12313.25
874.366	12138.25
874.609	12015.25
874.852	11897.25
875.095	11901.25
875.337	11831.25
875.58	11687.25
875.823	11702.25
876.066	11676.25
876.309	11638.25
876.551	11610.25
876.794	11539.25
877.037	11557.25
877.279	11464.25
877.522	11450.25
877.764	11529.25
878.007	11476.25
878.249	11462.25
878.491	11376.25
878.734	11407.25
878.976	11372.25
879.218	11248.25
879.46	11258.25
879.702	11129.25
879.945	11043.25
880.187	10916.25
880.429	10820.25
880.671	10869.25
880.912	10797.25
881.154	10744.25
881.396	10664.25
881.638	10738.25
881.88	10682.25
882.121	10622.25
882.363	10674.25
882.605	10652.25
882.846	10659.25
883.088	10630.25
883.329	10525.25
883.571	10640.25
883.812	10677.25
884.053	10847.25
884.295	11103.25
884.536	11272.25
884.777	11148.25
885.018	11126.25
885.259	11083.25
885.5	10952.25
885.742	11152.25
885.982	10877.25
886.223	10835.25
886.464	10805.25
886.705	10593.25
886.946	10459.25
887.187	10335.25
887.428	10266.25
887.668	10124.25
887.909	9983.25
888.15	9802.25
888.39	9828.25
888.631	9789.25
888.871	9666.25
889.111	9600.25
889.352	9489.25
889.592	9408.25
889.833	9335.25
890.073	9326.25
890.313	9320.25
890.553	9175.25
890.793	9174.25
891.033	9059.25
891.273	9040.25
891.513	9062.25
891.753	9056.25
891.993	8995.25
892.233	8992.25
892.473	9057.25
892.713	9044.25
892.952	9017.25
893.192	9060.25
893.432	8955.25
893.671	9075.25
893.911	8904.25
894.15	8888.25
894.39	8803.25
894.629	8803.25
894.869	8758.25
895.108	8669.25
895.347	8593.25
895.587	8631.25
895.826	8525.25
896.065	8451.25
896.304	8518.25
896.543	8564.25
896.782	8489.25
897.021	8458.25
897.26	8402.25
897.499	8392.25
897.738	8446.25
897.977	8362.25
898.216	8234.25
898.454	8200.25
898.693	8107.25
898.932	8169.25
899.17	8046.25
899.409	8099.25
899.647	8039.25
899.886	8016.25
900.124	8005.25
900.363	8008.25
900.601	7989.25
900.839	8011.25
901.078	8064.25
901.316	8112.25
901.554	8055.25
901.792	8156.25
902.03	8103.25
902.268	8136.25
902.506	8170.25
902.744	8040.25
902.982	8104.25
903.22	7948.25
903.458	7793.25
903.695	7754.25
903.933	7637.25
904.171	7500.25
904.409	7362.25
904.646	7341.25
904.884	7188.25
905.121	7176.25
905.359	7097.25
905.596	7033.25
905.833	6961.25
906.071	6876.25
906.308	6980.25
906.545	6903.25
906.783	6844.25
907.02	6862.25
907.257	6806.25
907.494	6855.25
907.731	6854.25
907.968	6811.25
908.205	6745.25
908.442	6716.25
908.679	6711.25
908.915	6641.25
909.152	6629.25
909.389	6452.25
909.626	6420.25
909.862	6371.25
910.099	6379.25
910.335	6416.25
910.572	6281.25
910.808	6351.25
911.045	6331.25
911.281	6267.25
911.518	6280.25
911.754	6221.25
911.99	6219.25
912.226	6113.25
912.463	6042.25
912.699	6041.25
912.935	6000.25
913.171	5924.25
913.407	5858.25
913.643	5921.25
913.879	5819.25
914.114	5815.25
914.35	5743.25
914.586	5697.25
914.822	5618.25
915.057	5674.25
915.293	5461.25
915.529	5547.25
915.764	5583.25
916	5501.25
916.235	5522.25
916.471	5514.25
916.706	5378.25
916.941	5506.25
917.177	5414.25
917.412	5493.25
917.647	5451.25
917.882	5407.25
918.117	5453.25
918.352	5406.25
918.588	5426.25
918.823	5337.25
919.057	5297.25
919.292	5212.25
919.527	5241.25
919.762	5151.25
919.997	5152.25
920.232	5061.25
920.466	5058.25
920.701	4833.25
920.935	4964.25
921.17	4877.25
921.405	4839.25
921.639	4858.25
921.873	4871.25
922.108	4888.25
922.342	4847.25
922.576	4748.25
922.811	4792.25
923.045	4803.25
923.279	4785.25
923.513	4598.25
923.747	4701.25
923.981	4670.25
924.215	4671.25
924.449	4631.25
924.683	4519.25
924.917	4545.25
925.151	4519.25
925.385	4546.25
925.618	4506.25
925.852	4517.25
926.086	4422.25
926.319	4416.25
926.553	4479.25
926.786	4488.25
927.02	4449.25
927.253	4499.25
927.486	4501.25
927.72	4393.25
927.953	4463.25
928.186	4415.25
928.42	4449.25
928.653	4352.25
928.886	4336.25
929.119	4320.25
929.352	4320.25
929.585	4293.25
929.818	4243.25
930.051	4241.25
930.284	4215.25
930.516	4095.25
930.749	4138.25
930.982	4152.25
931.215	4160.25
931.447	4046.25
931.68	4050.25
931.912	4015.25
932.145	4017.25
932.377	4054.25
932.61	4174.25
932.842	3989.25
933.074	4036.25
933.307	4022.25
933.539	4102.25
933.771	4108.25
934.003	4108.25
934.236	4192.25
934.468	4206.25
934.7	4106.25
934.932	4155.25
935.164	4113.25
935.395	4025.25
935.627	4056.25
935.859	3939.25
936.091	3941.25
936.323	3899.25
936.554	3944.25
936.786	3878.25
937.017	3854.25
937.249	3915.25
937.481	3791.25
937.712	3893.25
937.943	3857.25
938.175	3837.25
938.406	3862.25
938.637	3909.25
938.869	3796.25
939.1	3860.25
939.331	3816.25
939.562	3893.25
939.793	3957.25
940.024	4267.25
940.255	4802.25
940.486	5183.25
940.717	5214.25
940.948	4825.25
941.179	4463.25
941.409	4215.25
941.64	3925.25
941.871	3811.25
942.102	3711.25
942.332	3702.25
942.563	3728.25
942.793	3686.25
943.024	3606.25
943.254	3682.25
943.484	3667.25
943.715	3690.25
943.945	3636.25
944.175	3547.25
944.405	3569.25
944.636	3552.25
944.866	3602.25
945.096	3632.25
945.326	3503.25
945.556	3595.25
945.786	3596.25
946.016	3508.25
946.245	3504.25
946.475	3467.25
946.705	3444.25
946.935	3427.25
947.164	3443.25
947.394	3414.25
947.624	3406.25
947.853	3452.25
948.083	3394.25
948.312	3356.25
948.542	3291.25
948.771	3299.25
949	3302.25
949.23	3342.25
949.459	3319.25
949.688	3348.25
949.917	3283.25
950.146	3320.25
950.375	3367.25
950.604	3252.25
950.833	3377.25
951.062	3349.25
951.291	3323.25
951.52	3319.25
951.749	3282.25
951.978	3225.25
952.206	3205.25
952.435	3206.25
952.664	3260.25
952.892	3257.25
953.121	3223.25
953.349	3180.25
953.578	3209.25
953.806	3174.25
954.035	3139.25
954.263	3154.25
954.491	3097.25
954.719	3116.25
954.948	3089.25
955.176	3089.25
955.404	2987.25
955.632	3100.25
955.86	3061.25
956.088	3015.25
956.316	3067.25
956.544	3064.25
956.772	3018.25
956.999	3011.25
957.227	3083.25
957.455	2950.25
957.683	2957.25
957.91	2892.25
958.138	2881.25
958.365	2894.25
958.593	2906.25
958.82	2823.25
959.048	2923.25
959.275	2852.25
959.502	2860.25
959.73	2839.25
959.957	2836.25
960.184	2877.25
960.411	2844.25
960.638	2864.25
960.865	2808.25
961.092	2906.25
961.319	2733.25
961.546	2846.25
961.773	2883.25
962	2782.25
962.227	2857.25
962.454	2795.25
962.68	2775.25
962.907	2815.25
963.134	2728.25
963.36	2778.25
963.587	2781.25
963.813	2687.25
964.04	2716.25
964.266	2673.25
964.493	2749.25
964.719	2708.25
964.945	2736.25
965.171	2591.25
965.398	2643.25
965.624	2678.25
965.85	2579.25
966.076	2584.25
966.302	2632.25
966.528	2576.25
966.754	2603.25
966.98	2613.25
967.206	2593.25
967.431	2503.25
967.657	2606.25
967.883	2570.25
968.109	2551.25
968.334	2488.25
968.56	2495.25
968.785	2516.25
969.011	2498.25
969.236	2537.25
969.462	2457.25
969.687	2492.25
969.912	2525.25
970.138	2534.25
970.363	2463.25
970.588	2491.25
970.813	2427.25
971.038	2413.25
971.263	2500.25
971.488	2471.25
971.713	2468.25
971.938	2460.25
972.163	2366.25
972.388	2390.25
972.613	2330.25
972.838	2364.25
973.062	2353.25
973.287	2347.25
973.512	2282.25
973.736	2337.25
973.961	2274.25
974.185	2285.25
974.41	2301.25
974.634	2238.25
974.858	2255.25
975.083	2286.25
975.307	2271.25
975.531	2204.25
975.755	2149.25
975.98	2163.25
976.204	2121.25
976.428	2130.25
976.652	2120.25
976.876	2100.25
977.1	2151.25
977.324	2107.25
977.547	2143.25
977.771	2153.25
977.995	2133.25
978.219	2045.25
978.442	2160.25
978.666	2122.25
978.89	2100.25
979.113	2100.25
979.337	2079.25
979.56	2079.25
979.783	2152.25
980.007	2053.25
980.23	2061.25
980.453	2002.25
980.677	2053.25
980.9	2034.25
981.123	1954.25
981.346	2022.25
981.569	2057.25
981.792	2045.25
982.015	1984.25
982.238	1955.25
982.461	1982.25
982.684	1942.25
982.907	1916.25
983.129	1914.25
983.352	1954.25
983.575	1947.25
983.797	1939.25
984.02	1909.25
984.242	1888.25
984.465	1918.25
984.687	1924.25
984.91	1926.25
985.132	1894.25
985.354	1927.25
985.577	1854.25
985.799	1883.25
986.021	1789.25
986.243	1839.25
986.465	1849.25
986.687	1852.25
986.909	1926.25
987.131	1826.25
987.353	1806.25
987.575	1843.25
987.797	1818.25
988.019	1733.25
988.241	1797.25
988.462	1762.25
988.684	1795.25
988.906	1840.25
989.127	1844.25
989.349	1727.25
989.57	1775.25
989.792	1802.25
990.013	1811.25
990.234	1822.25
990.456	1841.25
990.677	1798.25
990.898	1756.25
991.119	1729.25
991.341	1780.25
991.562	1695.25
991.783	1773.25
992.004	1696.25
992.225	1686.25
992.446	1741.25
992.667	1643.25
992.887	1711.25
993.108	1604.25
993.329	1742.25
993.55	1682.25
993.77	1665.25
993.991	1631.25
994.212	1657.25
994.432	1662.25
994.653	1656.25
994.873	1677.25
995.093	1552.25
995.314	1579.25
995.534	1641.25
995.754	1658.25
995.975	1685.25
996.195	1581.25
996.415	1629.25
996.635	1613.25
996.855	1609.25
997.075	1586.25
997.295	1576.25
997.515	1578.25
997.735	1633.25
997.955	1600.25
998.174	1584.25
998.394	1555.25
998.614	1613.25
998.834	1547.25
999.053	1605.25
999.273	1585.25
999.492	1616.25
999.712	1560.25
999.931	1513.25
1000.151	1581.25
1000.37	1538.25
1000.589	1586.25
1000.809	1522.25
1001.028	1625.25
1001.247	1566.25
1001.466	1474.25
1001.685	1622.25
1001.904	1529.25
1002.123	1522.25
1002.342	1537.25
1002.561	1493.25
1002.78	1508.25
1002.999	1579.25
1003.218	1513.25
1003.436	1468.25
1003.655	1517.25
1003.874	1473.25
1004.092	1490.25
1004.311	1557.25
1004.53	1474.25
1004.748	1572.25
1004.966	1500.25
1005.185	1530.25
1005.403	1534.25
1005.622	1520.25
1005.84	1577.25
1006.058	1456.25
1006.276	1515.25
1006.494	1985.25
1006.712	1482.25
1006.931	1555.25
1007.149	1454.25
1007.367	1465.25
1007.584	1494.25
1007.802	1525.25
1008.02	1514.25
1008.238	1576.25
1008.456	1560.25
1008.673	1441.25
1008.891	1563.25
1009.109	1514.25
1009.326	1566.25
1009.544	1637.25
1009.761	1552.25
1009.979	1636.25
1010.196	1664.25
1010.413	1757.25
1010.631	1781.25
1010.848	1819.25
1011.065	1834.25
1011.282	1791.25
1011.5	1723.25
1011.717	1817.25
1011.934	1777.25
1012.151	1807.25
1012.368	1778.25
1012.585	1726.25
1012.801	1761.25
1013.018	1739.25
1013.235	1702.25
1013.452	1730.25
1013.669	1729.25
1013.885	1731.25
1014.102	1798.25
1014.318	1719.25
1014.535	1701.25
1014.751	1718.25
1014.968	1717.25
1015.184	1757.25
1015.401	1613.25
1015.617	1703.25
1015.833	1630.25
1016.049	1646.25
1016.266	1610.25
1016.482	1609.25
1016.698	1534.25
1016.914	1568.25
1017.13	1530.25
1017.346	1515.25
1017.562	1561.25
1017.778	1508.25
1017.993	1479.25
1018.209	1550.25
1018.425	1503.25
1018.641	1475.25
1018.856	1457.25
1019.072	1463.25
1019.288	1543.25
1019.503	1479.25
1019.719	1373.25
1019.934	1401.25
1020.149	1486.25
1020.365	1431.25
1020.58	1362.25
1020.795	1407.25
1021.011	1349.25
1021.226	1295.25
1021.441	1341.25
1021.656	1265.25
1021.871	1218.25
1022.086	1202.25
1022.301	1188.25
1022.516	1190.25
1022.731	1239.25
1022.946	1139.25
1023.16	1132.25
1023.375	1096.25
1023.59	1070.25
1023.804	1022.25
1024.019	1128.25
1024.234	1010.25
1024.448	1045.25
1024.663	972.25
1024.877	982.25
1025.092	989.25
1025.306	998.25
1025.52	901.25
1025.734	1015.25
1025.949	911.25
1026.163	873.25
1026.377	843.25
1026.591	876.25
1026.805	800.25
1027.019	798.25
1027.233	747.25
1027.447	715.25
1027.661	789.25
1027.875	757.25
1028.088	767.25
1028.302	696.25
1028.516	693.25
1028.73	684.25
1028.943	682.25
1029.157	618.25
1029.37	575.25
1029.584	-0.75
1029.797	2.25
1030.011	-1.75
1030.224	-2.75
