Data from QEP037381__172__10-43-24-538.txt Node

Date: Wed Dec 21 10:43:24 EST 2022
User: dcclab
Spectrometer: QEP03738
Trigger mode: 4
Integration Time (sec): 1.000000E1
Scans to average: 1
Electric dark correction enabled: true
Nonlinearity correction enabled: false
Boxcar width: 0
XAxis mode: Wavelengths
Number of Pixels in Spectrum: 1044
>>>>>Begin Spectral Data<<<<<
784.041	11.5
784.3	-0.5
784.558	-1.5
784.817	-2.5
785.075	109780.5
785.334	19354.5
785.592	9166.5
785.851	6296.5
786.109	4688.5
786.368	3639.5
786.626	2932.5
786.884	2393.5
787.143	2044.5
787.401	1674.5
787.659	1514.5
787.917	1280.5
788.175	1177.5
788.433	1042.5
788.691	934.5
788.949	851.5
789.207	816.5
789.465	693.5
789.723	686.5
789.98	619.5
790.238	641.5
790.496	624.5
790.753	578.5
791.011	628.5
791.268	556.5
791.526	549.5
791.783	540.5
792.041	537.5
792.298	446.5
792.556	515.5
792.813	506.5
793.07	454.5
793.327	462.5
793.584	555.5
793.841	451.5
794.099	481.5
794.356	526.5
794.613	439.5
794.869	472.5
795.126	421.5
795.383	424.5
795.64	432.5
795.897	394.5
796.153	450.5
796.41	417.5
796.667	417.5
796.923	419.5
797.18	413.5
797.436	450.5
797.693	399.5
797.949	460.5
798.206	493.5
798.462	389.5
798.718	459.5
798.974	444.5
799.231	487.5
799.487	455.5
799.743	473.5
799.999	499.5
800.255	495.5
800.511	469.5
800.767	519.5
801.023	503.5
801.279	527.5
801.534	547.5
801.79	602.5
802.046	632.5
802.302	770.5
802.557	854.5
802.813	1038.5
803.068	1250.5
803.324	1703.5
803.579	2313.5
803.835	3204.5
804.09	4357.5
804.345	5637.5
804.601	7150.5
804.856	8632.5
805.111	9898.5
805.366	10817.5
805.621	11567.5
805.876	12021.5
806.131	12228.5
806.386	12513.5
806.641	12733.5
806.896	12842.5
807.151	13136.5
807.406	13260.5
807.661	13609.5
807.915	13757.5
808.17	13984.5
808.425	14061.5
808.679	14232.5
808.934	14311.5
809.188	14617.5
809.443	14739.5
809.697	14765.5
809.951	14871.5
810.206	14980.5
810.46	15186.5
810.714	15341.5
810.968	15409.5
811.223	15479.5
811.477	15615.5
811.731	15767.5
811.985	15784.5
812.239	15838.5
812.493	15830.5
812.747	16026.5
813	16028.5
813.254	16118.5
813.508	16148.5
813.762	16218.5
814.015	16317.5
814.269	16392.5
814.522	16595.5
814.776	16731.5
815.03	16881.5
815.283	17132.5
815.536	17445.5
815.79	17679.5
816.043	17961.5
816.296	18009.5
816.55	18269.5
816.803	18403.5
817.056	18821.5
817.309	18874.5
817.562	18982.5
817.815	19332.5
818.068	19397.5
818.321	19608.5
818.574	19699.5
818.827	20031.5
819.079	20274.5
819.332	20684.5
819.585	20815.5
819.838	21092.5
820.09	21128.5
820.343	21452.5
820.595	21551.5
820.848	21661.5
821.1	21630.5
821.353	21599.5
821.605	21703.5
821.857	21628.5
822.11	21599.5
822.362	21454.5
822.614	21426.5
822.866	21475.5
823.118	21412.5
823.37	21592.5
823.622	21592.5
823.874	21614.5
824.126	21802.5
824.378	21810.5
824.63	21812.5
824.882	21875.5
825.134	21850.5
825.385	21900.5
825.637	21715.5
825.888	21743.5
826.14	21627.5
826.392	21555.5
826.643	21391.5
826.895	21434.5
827.146	21259.5
827.397	21162.5
827.649	21269.5
827.9	21166.5
828.151	21080.5
828.402	21261.5
828.653	21443.5
828.905	21336.5
829.156	21414.5
829.407	21407.5
829.658	21412.5
829.909	21564.5
830.159	21414.5
830.41	21390.5
830.661	21198.5
830.912	20999.5
831.162	20980.5
831.413	21035.5
831.664	20893.5
831.914	20940.5
832.165	20900.5
832.415	20897.5
832.666	20995.5
832.916	20900.5
833.167	20786.5
833.417	20862.5
833.667	20751.5
833.917	20708.5
834.168	20722.5
834.418	20625.5
834.668	20509.5
834.918	20441.5
835.168	20436.5
835.418	20248.5
835.668	20272.5
835.918	20212.5
836.167	20178.5
836.417	19999.5
836.667	20125.5
836.917	20063.5
837.166	19993.5
837.416	20149.5
837.666	19941.5
837.915	19982.5
838.165	19991.5
838.414	19851.5
838.663	19739.5
838.913	19943.5
839.162	19775.5
839.411	19690.5
839.661	19571.5
839.91	19586.5
840.159	19529.5
840.408	19568.5
840.657	19519.5
840.906	19598.5
841.155	19551.5
841.404	19501.5
841.653	19507.5
841.902	19534.5
842.15	19654.5
842.399	19527.5
842.648	19601.5
842.897	19542.5
843.145	19346.5
843.394	19295.5
843.642	19132.5
843.891	19075.5
844.139	18903.5
844.388	18825.5
844.636	18735.5
844.884	18749.5
845.133	18710.5
845.381	18727.5
845.629	18630.5
845.877	18639.5
846.125	18646.5
846.373	18536.5
846.621	18576.5
846.869	18496.5
847.117	18352.5
847.365	18292.5
847.613	18243.5
847.861	18124.5
848.108	18186.5
848.356	18152.5
848.604	18009.5
848.851	18051.5
849.099	18149.5
849.346	18165.5
849.594	18236.5
849.841	18325.5
850.089	18343.5
850.336	18340.5
850.583	18395.5
850.831	18266.5
851.078	18124.5
851.325	18060.5
851.572	18081.5
851.819	17866.5
852.066	17604.5
852.313	17398.5
852.56	17304.5
852.807	17212.5
853.054	17076.5
853.301	17156.5
853.548	17081.5
853.794	17234.5
854.041	17265.5
854.288	17316.5
854.534	17531.5
854.781	17499.5
855.028	17382.5
855.274	17416.5
855.52	17228.5
855.767	17139.5
856.013	17231.5
856.26	17433.5
856.506	16929.5
856.752	16985.5
856.998	17025.5
857.244	17010.5
857.49	17098.5
857.736	17042.5
857.982	17130.5
858.228	17040.5
858.474	16902.5
858.72	16810.5
858.966	16626.5
859.212	16612.5
859.458	16405.5
859.703	16197.5
859.949	15984.5
860.195	15882.5
860.44	15831.5
860.686	15802.5
860.931	15767.5
861.177	15601.5
861.422	15637.5
861.667	15583.5
861.913	15612.5
862.158	15655.5
862.403	15642.5
862.648	15626.5
862.893	15742.5
863.138	15664.5
863.384	15639.5
863.629	15588.5
863.873	15537.5
864.118	15591.5
864.363	15358.5
864.608	15381.5
864.853	15335.5
865.098	15230.5
865.342	15219.5
865.587	15120.5
865.832	15121.5
866.076	15105.5
866.321	14988.5
866.565	15006.5
866.81	14838.5
867.054	14815.5
867.298	14815.5
867.543	14777.5
867.787	14826.5
868.031	14765.5
868.275	14724.5
868.519	14703.5
868.764	14654.5
869.008	14581.5
869.252	14580.5
869.496	14482.5
869.739	14544.5
869.983	14489.5
870.227	14582.5
870.471	14489.5
870.715	14522.5
870.958	14565.5
871.202	14600.5
871.446	14504.5
871.689	14545.5
871.933	14499.5
872.176	14595.5
872.42	14519.5
872.663	14428.5
872.906	14480.5
873.15	14440.5
873.393	14324.5
873.636	14287.5
873.879	14143.5
874.122	14064.5
874.366	13843.5
874.609	13752.5
874.852	13616.5
875.095	13501.5
875.337	13527.5
875.58	13407.5
875.823	13410.5
876.066	13398.5
876.309	13344.5
876.551	13138.5
876.794	13129.5
877.037	13259.5
877.279	13088.5
877.522	13139.5
877.764	13160.5
878.007	13050.5
878.249	13004.5
878.491	13032.5
878.734	13040.5
878.976	13090.5
879.218	12915.5
879.46	12918.5
879.702	12722.5
879.945	12632.5
880.187	12526.5
880.429	12584.5
880.671	12459.5
880.912	12400.5
881.154	12379.5
881.396	12252.5
881.638	12249.5
881.88	12261.5
882.121	12205.5
882.363	12269.5
882.605	12270.5
882.846	12207.5
883.088	12175.5
883.329	12133.5
883.571	12049.5
883.812	12165.5
884.053	12433.5
884.295	12567.5
884.536	12712.5
884.777	12653.5
885.018	12591.5
885.259	12502.5
885.5	12423.5
885.742	12658.5
885.982	12335.5
886.223	12291.5
886.464	12262.5
886.705	12094.5
886.946	11971.5
887.187	11802.5
887.428	11758.5
887.668	11492.5
887.909	11459.5
888.15	11293.5
888.39	11235.5
888.631	11243.5
888.871	11105.5
889.111	11054.5
889.352	10938.5
889.592	10894.5
889.833	10678.5
890.073	10696.5
890.313	10693.5
890.553	10479.5
890.793	10536.5
891.033	10454.5
891.273	10404.5
891.513	10448.5
891.753	10373.5
891.993	10276.5
892.233	10397.5
892.473	10422.5
892.713	10393.5
892.952	10316.5
893.192	10304.5
893.432	10299.5
893.671	10353.5
893.911	10200.5
894.15	10298.5
894.39	10079.5
894.629	10050.5
894.869	10018.5
895.108	9971.5
895.347	9896.5
895.587	9919.5
895.826	9788.5
896.065	9762.5
896.304	9841.5
896.543	9871.5
896.782	9667.5
897.021	9698.5
897.26	9710.5
897.499	9729.5
897.738	9680.5
897.977	9537.5
898.216	9484.5
898.454	9360.5
898.693	9283.5
898.932	9270.5
899.17	9260.5
899.409	9204.5
899.647	9225.5
899.886	9111.5
900.124	9141.5
900.363	9175.5
900.601	9237.5
900.839	9238.5
901.078	9170.5
901.316	9266.5
901.554	9274.5
901.792	9313.5
902.03	9256.5
902.268	9286.5
902.506	9233.5
902.744	9081.5
902.982	9186.5
903.22	8967.5
903.458	8913.5
903.695	8768.5
903.933	8691.5
904.171	8643.5
904.409	8429.5
904.646	8402.5
904.884	8216.5
905.121	8229.5
905.359	8130.5
905.596	8034.5
905.833	7977.5
906.071	7981.5
906.308	7991.5
906.545	7944.5
906.783	7811.5
907.02	7857.5
907.257	7839.5
907.494	7807.5
907.731	7808.5
907.968	7803.5
908.205	7687.5
908.442	7659.5
908.679	7681.5
908.915	7573.5
909.152	7564.5
909.389	7421.5
909.626	7378.5
909.862	7301.5
910.099	7360.5
910.335	7317.5
910.572	7241.5
910.808	7257.5
911.045	7240.5
911.281	7146.5
911.518	7165.5
911.754	7090.5
911.99	7141.5
912.226	7052.5
912.463	6979.5
912.699	6937.5
912.935	6814.5
913.171	6832.5
913.407	6812.5
913.643	6801.5
913.879	6655.5
914.114	6593.5
914.35	6566.5
914.586	6503.5
914.822	6420.5
915.057	6485.5
915.293	6272.5
915.529	6287.5
915.764	6326.5
916	6314.5
916.235	6355.5
916.471	6331.5
916.706	6225.5
916.941	6229.5
917.177	6205.5
917.412	6281.5
917.647	6245.5
917.882	6194.5
918.117	6258.5
918.352	6176.5
918.588	6223.5
918.823	6098.5
919.057	6055.5
919.292	5916.5
919.527	5998.5
919.762	5848.5
919.997	5895.5
920.232	5741.5
920.466	5789.5
920.701	5659.5
920.935	5629.5
921.17	5564.5
921.405	5561.5
921.639	5580.5
921.873	5542.5
922.108	5487.5
922.342	5520.5
922.576	5411.5
922.811	5431.5
923.045	5487.5
923.279	5507.5
923.513	5294.5
923.747	5393.5
923.981	5388.5
924.215	5297.5
924.449	5224.5
924.683	5181.5
924.917	5165.5
925.151	5152.5
925.385	5196.5
925.618	5147.5
925.852	5110.5
926.086	5069.5
926.319	5077.5
926.553	5098.5
926.786	5071.5
927.02	5104.5
927.253	5083.5
927.486	5109.5
927.72	4985.5
927.953	5050.5
928.186	5033.5
928.42	5032.5
928.653	4894.5
928.886	4916.5
929.119	4936.5
929.352	4917.5
929.585	4906.5
929.818	4845.5
930.051	4852.5
930.284	4831.5
930.516	4676.5
930.749	4710.5
930.982	4697.5
931.215	4670.5
931.447	4599.5
931.68	4583.5
931.912	4594.5
932.145	4549.5
932.377	4595.5
932.61	4724.5
932.842	4551.5
933.074	4612.5
933.307	4586.5
933.539	4648.5
933.771	4589.5
934.003	4592.5
934.236	4612.5
934.468	4649.5
934.7	4534.5
934.932	4535.5
935.164	4502.5
935.395	4508.5
935.627	4538.5
935.859	4506.5
936.091	4455.5
936.323	4488.5
936.554	4479.5
936.786	4413.5
937.017	4373.5
937.249	4372.5
937.481	4304.5
937.712	4383.5
937.943	4321.5
938.175	4310.5
938.406	4352.5
938.637	4387.5
938.869	4265.5
939.1	4330.5
939.331	4259.5
939.562	4287.5
939.793	4289.5
940.024	4272.5
940.255	4290.5
940.486	4262.5
940.717	4192.5
940.948	4155.5
941.179	4113.5
941.409	4134.5
941.64	4130.5
941.871	4178.5
942.102	4134.5
942.332	4139.5
942.563	4157.5
942.793	4143.5
943.024	4115.5
943.254	4119.5
943.484	4161.5
943.715	4128.5
943.945	4161.5
944.175	4074.5
944.405	4037.5
944.636	4017.5
944.866	4096.5
945.096	4104.5
945.326	3998.5
945.556	4068.5
945.786	4044.5
946.016	3989.5
946.245	3940.5
946.475	3973.5
946.705	3924.5
946.935	3903.5
947.164	3930.5
947.394	3875.5
947.624	3877.5
947.853	3877.5
948.083	3856.5
948.312	3802.5
948.542	3755.5
948.771	3721.5
949	3718.5
949.23	3759.5
949.459	3756.5
949.688	3802.5
949.917	3750.5
950.146	3785.5
950.375	3788.5
950.604	3686.5
950.833	3770.5
951.062	3756.5
951.291	3711.5
951.52	3699.5
951.749	3689.5
951.978	3621.5
952.206	3643.5
952.435	3658.5
952.664	3675.5
952.892	3639.5
953.121	3588.5
953.349	3626.5
953.578	3652.5
953.806	3576.5
954.035	3524.5
954.263	3585.5
954.491	3475.5
954.719	3527.5
954.948	3494.5
955.176	3449.5
955.404	3396.5
955.632	3459.5
955.86	3447.5
956.088	3400.5
956.316	3477.5
956.544	3459.5
956.772	3402.5
956.999	3389.5
957.227	3443.5
957.455	3303.5
957.683	3360.5
957.91	3297.5
958.138	3235.5
958.365	3244.5
958.593	3266.5
958.82	3228.5
959.048	3287.5
959.275	3265.5
959.502	3195.5
959.73	3191.5
959.957	3225.5
960.184	3250.5
960.411	3194.5
960.638	3280.5
960.865	3186.5
961.092	3234.5
961.319	3107.5
961.546	3241.5
961.773	3209.5
962	3185.5
962.227	3195.5
962.454	3164.5
962.68	3172.5
962.907	3130.5
963.134	3116.5
963.36	3100.5
963.587	3147.5
963.813	3019.5
964.04	3084.5
964.266	3017.5
964.493	3032.5
964.719	3019.5
964.945	3043.5
965.171	2914.5
965.398	2976.5
965.624	2992.5
965.85	2903.5
966.076	2931.5
966.302	2929.5
966.528	2888.5
966.754	2913.5
966.98	2934.5
967.206	2915.5
967.431	2833.5
967.657	2926.5
967.883	2896.5
968.109	2849.5
968.334	2822.5
968.56	2807.5
968.785	2823.5
969.011	2755.5
969.236	2842.5
969.462	2756.5
969.687	2785.5
969.912	2781.5
970.138	2826.5
970.363	2726.5
970.588	2796.5
970.813	2724.5
971.038	2706.5
971.263	2683.5
971.488	2742.5
971.713	2766.5
971.938	2723.5
972.163	2677.5
972.388	2683.5
972.613	2682.5
972.838	2650.5
973.062	2632.5
973.287	2601.5
973.512	2532.5
973.736	2608.5
973.961	2640.5
974.185	2534.5
974.41	2533.5
974.634	2497.5
974.858	2507.5
975.083	2536.5
975.307	2521.5
975.531	2479.5
975.755	2405.5
975.98	2427.5
976.204	2355.5
976.428	2385.5
976.652	2389.5
976.876	2389.5
977.1	2366.5
977.324	2345.5
977.547	2416.5
977.771	2399.5
977.995	2361.5
978.219	2305.5
978.442	2386.5
978.666	2334.5
978.89	2358.5
979.113	2342.5
979.337	2317.5
979.56	2289.5
979.783	2381.5
980.007	2239.5
980.23	2279.5
980.453	2262.5
980.677	2265.5
980.9	2232.5
981.123	2165.5
981.346	2276.5
981.569	2229.5
981.792	2272.5
982.015	2204.5
982.238	2158.5
982.461	2163.5
982.684	2179.5
982.907	2146.5
983.129	2111.5
983.352	2180.5
983.575	2158.5
983.797	2166.5
984.02	2092.5
984.242	2090.5
984.465	2086.5
984.687	2097.5
984.91	2144.5
985.132	2117.5
985.354	2115.5
985.577	2090.5
985.799	2072.5
986.021	1993.5
986.243	2043.5
986.465	2031.5
986.687	2046.5
986.909	2097.5
987.131	2034.5
987.353	1976.5
987.575	2022.5
987.797	2011.5
988.019	1938.5
988.241	2004.5
988.462	1961.5
988.684	2017.5
988.906	2021.5
989.127	2026.5
989.349	1912.5
989.57	1963.5
989.792	1994.5
990.013	2009.5
990.234	2000.5
990.456	2025.5
990.677	1997.5
990.898	1912.5
991.119	1918.5
991.341	1951.5
991.562	1883.5
991.783	1892.5
992.004	1842.5
992.225	1829.5
992.446	1899.5
992.667	1790.5
992.887	1905.5
993.108	1793.5
993.329	1886.5
993.55	1864.5
993.77	1766.5
993.991	1758.5
994.212	1822.5
994.432	1787.5
994.653	1796.5
994.873	1805.5
995.093	1672.5
995.314	1715.5
995.534	1781.5
995.754	1804.5
995.975	1803.5
996.195	1702.5
996.415	1748.5
996.635	1738.5
996.855	1734.5
997.075	1732.5
997.295	1737.5
997.515	1704.5
997.735	1758.5
997.955	1726.5
998.174	1734.5
998.394	1704.5
998.614	1736.5
998.834	1679.5
999.053	1748.5
999.273	1718.5
999.492	1747.5
999.712	1683.5
999.931	1653.5
1000.151	1692.5
1000.37	1690.5
1000.589	1719.5
1000.809	1646.5
1001.028	1774.5
1001.247	1678.5
1001.466	1567.5
1001.685	1729.5
1001.904	1667.5
1002.123	1673.5
1002.342	1646.5
1002.561	1619.5
1002.78	1633.5
1002.999	1690.5
1003.218	1618.5
1003.436	1595.5
1003.655	1635.5
1003.874	1586.5
1004.092	1604.5
1004.311	1622.5
1004.53	1601.5
1004.748	1667.5
1004.966	1588.5
1005.185	1647.5
1005.403	1669.5
1005.622	1608.5
1005.84	1675.5
1006.058	1566.5
1006.276	1602.5
1006.494	2106.5
1006.712	1614.5
1006.931	1675.5
1007.149	1561.5
1007.367	1557.5
1007.584	1609.5
1007.802	1619.5
1008.02	1568.5
1008.238	1686.5
1008.456	1661.5
1008.673	1527.5
1008.891	1660.5
1009.109	1585.5
1009.326	1644.5
1009.544	1760.5
1009.761	1629.5
1009.979	1735.5
1010.196	1733.5
1010.413	1831.5
1010.631	1861.5
1010.848	1927.5
1011.065	1915.5
1011.282	1895.5
1011.5	1797.5
1011.717	1922.5
1011.934	1855.5
1012.151	1899.5
1012.368	1844.5
1012.585	1806.5
1012.801	1849.5
1013.018	1787.5
1013.235	1780.5
1013.452	1770.5
1013.669	1794.5
1013.885	1799.5
1014.102	1821.5
1014.318	1798.5
1014.535	1754.5
1014.751	1782.5
1014.968	1780.5
1015.184	1803.5
1015.401	1725.5
1015.617	1740.5
1015.833	1691.5
1016.049	1671.5
1016.266	1666.5
1016.482	1669.5
1016.698	1600.5
1016.914	1648.5
1017.13	1568.5
1017.346	1547.5
1017.562	1659.5
1017.778	1563.5
1017.993	1533.5
1018.209	1590.5
1018.425	1562.5
1018.641	1499.5
1018.856	1510.5
1019.072	1532.5
1019.288	1582.5
1019.503	1515.5
1019.719	1454.5
1019.934	1460.5
1020.149	1534.5
1020.365	1480.5
1020.58	1391.5
1020.795	1438.5
1021.011	1362.5
1021.226	1380.5
1021.441	1376.5
1021.656	1305.5
1021.871	1254.5
1022.086	1239.5
1022.301	1228.5
1022.516	1234.5
1022.731	1285.5
1022.946	1196.5
1023.16	1185.5
1023.375	1123.5
1023.59	1143.5
1023.804	1092.5
1024.019	1176.5
1024.234	1049.5
1024.448	1080.5
1024.663	1012.5
1024.877	1028.5
1025.092	1031.5
1025.306	1035.5
1025.52	974.5
1025.734	1035.5
1025.949	953.5
1026.163	934.5
1026.377	860.5
1026.591	909.5
1026.805	851.5
1027.019	847.5
1027.233	802.5
1027.447	741.5
1027.661	867.5
1027.875	795.5
1028.088	786.5
1028.302	708.5
1028.516	700.5
1028.73	712.5
1028.943	697.5
1029.157	658.5
1029.37	603.5
1029.584	-1.5
1029.797	-2.5
1030.011	-3.5
1030.224	0.5
