Data from QEP037381__199__10-47-54-539.txt Node

Date: Wed Dec 21 10:47:54 EST 2022
User: dcclab
Spectrometer: QEP03738
Trigger mode: 4
Integration Time (sec): 1.000000E1
Scans to average: 1
Electric dark correction enabled: true
Nonlinearity correction enabled: false
Boxcar width: 0
XAxis mode: Wavelengths
Number of Pixels in Spectrum: 1044
>>>>>Begin Spectral Data<<<<<
784.041	14.88
784.3	-1.12
784.558	-3.12
784.817	-3.12
785.075	110608.88
785.334	18933.88
785.592	8748.88
785.851	5982.88
786.109	4482.88
786.368	3492.88
786.626	2812.88
786.884	2378.88
787.143	1946.88
787.401	1626.88
787.659	1454.88
787.917	1256.88
788.175	1138.88
788.433	998.88
788.691	901.88
788.949	845.88
789.207	785.88
789.465	699.88
789.723	656.88
789.98	611.88
790.238	644.88
790.496	606.88
790.753	576.88
791.011	602.88
791.268	537.88
791.526	525.88
791.783	555.88
792.041	526.88
792.298	449.88
792.556	496.88
792.813	486.88
793.07	460.88
793.327	454.88
793.584	541.88
793.841	454.88
794.099	473.88
794.356	536.88
794.613	420.88
794.869	479.88
795.126	428.88
795.383	411.88
795.64	421.88
795.897	392.88
796.153	453.88
796.41	427.88
796.667	416.88
796.923	429.88
797.18	419.88
797.436	443.88
797.693	416.88
797.949	476.88
798.206	502.88
798.462	405.88
798.718	466.88
798.974	444.88
799.231	484.88
799.487	481.88
799.743	476.88
799.999	497.88
800.255	498.88
800.511	482.88
800.767	530.88
801.023	509.88
801.279	534.88
801.534	582.88
801.79	604.88
802.046	633.88
802.302	753.88
802.557	839.88
802.813	1032.88
803.068	1242.88
803.324	1774.88
803.579	2341.88
803.835	3226.88
804.09	4480.88
804.345	5916.88
804.601	7404.88
804.856	8990.88
805.111	10350.88
805.366	11355.88
805.621	12157.88
805.876	12614.88
806.131	12882.88
806.386	13228.88
806.641	13353.88
806.896	13605.88
807.151	13844.88
807.406	14032.88
807.661	14274.88
807.915	14517.88
808.17	14728.88
808.425	14847.88
808.679	14923.88
808.934	15190.88
809.188	15351.88
809.443	15476.88
809.697	15632.88
809.951	15651.88
810.206	15802.88
810.46	15970.88
810.714	16135.88
810.968	16346.88
811.223	16394.88
811.477	16525.88
811.731	16718.88
811.985	16677.88
812.239	16746.88
812.493	16917.88
812.747	16905.88
813	16862.88
813.254	17018.88
813.508	17114.88
813.762	17095.88
814.015	17155.88
814.269	17264.88
814.522	17468.88
814.776	17648.88
815.03	17877.88
815.283	18060.88
815.536	18402.88
815.79	18617.88
816.043	18894.88
816.296	19166.88
816.55	19384.88
816.803	19672.88
817.056	19932.88
817.309	19982.88
817.562	20239.88
817.815	20347.88
818.068	20520.88
818.321	20725.88
818.574	20884.88
818.827	21281.88
819.079	21530.88
819.332	21933.88
819.585	22085.88
819.838	22383.88
820.09	22487.88
820.343	22634.88
820.595	22689.88
820.848	22894.88
821.1	23066.88
821.353	23038.88
821.605	22985.88
821.857	22925.88
822.11	22854.88
822.362	22834.88
822.614	22622.88
822.866	22744.88
823.118	22624.88
823.37	22834.88
823.622	22788.88
823.874	22929.88
824.126	22984.88
824.378	23010.88
824.63	23102.88
824.882	23092.88
825.134	23021.88
825.385	22950.88
825.637	22935.88
825.888	22858.88
826.14	22846.88
826.392	22653.88
826.643	22596.88
826.895	22486.88
827.146	22443.88
827.397	22312.88
827.649	22453.88
827.9	22279.88
828.151	22236.88
828.402	22400.88
828.653	22415.88
828.905	22545.88
829.156	22642.88
829.407	22509.88
829.658	22478.88
829.909	22501.88
830.159	22493.88
830.41	22554.88
830.661	22201.88
830.912	22005.88
831.162	22066.88
831.413	21979.88
831.664	22009.88
831.914	21969.88
832.165	21901.88
832.415	21880.88
832.666	21952.88
832.916	21998.88
833.167	21909.88
833.417	21993.88
833.667	21845.88
833.917	21751.88
834.168	21601.88
834.418	21504.88
834.668	21479.88
834.918	21356.88
835.168	21285.88
835.418	21213.88
835.668	21253.88
835.918	21095.88
836.167	21104.88
836.417	21100.88
836.667	20975.88
836.917	21132.88
837.166	20996.88
837.416	21053.88
837.666	21014.88
837.915	20908.88
838.165	20780.88
838.414	20729.88
838.663	20634.88
838.913	20658.88
839.162	20510.88
839.411	20659.88
839.661	20459.88
839.91	20526.88
840.159	20466.88
840.408	20482.88
840.657	20433.88
840.906	20459.88
841.155	20519.88
841.404	20428.88
841.653	20489.88
841.902	20451.88
842.15	20477.88
842.399	20528.88
842.648	20372.88
842.897	20320.88
843.145	20155.88
843.394	20047.88
843.642	19912.88
843.891	19951.88
844.139	19861.88
844.388	19618.88
844.636	19496.88
844.884	19560.88
845.133	19551.88
845.381	19492.88
845.629	19470.88
845.877	19464.88
846.125	19499.88
846.373	19423.88
846.621	19297.88
846.869	19264.88
847.117	19117.88
847.365	19028.88
847.613	18957.88
847.861	18863.88
848.108	19018.88
848.356	18940.88
848.604	18848.88
848.851	18777.88
849.099	18941.88
849.346	18917.88
849.594	19015.88
849.841	19092.88
850.089	19061.88
850.336	19209.88
850.583	19209.88
850.831	19208.88
851.078	18907.88
851.325	18861.88
851.572	18861.88
851.819	18784.88
852.066	18380.88
852.313	18077.88
852.56	17895.88
852.807	17733.88
853.054	17864.88
853.301	17784.88
853.548	17764.88
853.794	17915.88
854.041	17972.88
854.288	17945.88
854.534	18176.88
854.781	18129.88
855.028	18079.88
855.274	18077.88
855.52	17929.88
855.767	17760.88
856.013	17935.88
856.26	18062.88
856.506	17690.88
856.752	17690.88
856.998	17707.88
857.244	17599.88
857.49	17652.88
857.736	17756.88
857.982	17881.88
858.228	17745.88
858.474	17509.88
858.72	17518.88
858.966	17394.88
859.212	17033.88
859.458	17037.88
859.703	16807.88
859.949	16521.88
860.195	16493.88
860.44	16481.88
860.686	16367.88
860.931	16337.88
861.177	16197.88
861.422	16294.88
861.667	16069.88
861.913	16226.88
862.158	16191.88
862.403	16195.88
862.648	16332.88
862.893	16292.88
863.138	16263.88
863.384	16282.88
863.629	16258.88
863.873	16206.88
864.118	16111.88
864.363	15946.88
864.608	15963.88
864.853	15925.88
865.098	15800.88
865.342	15829.88
865.587	15593.88
865.832	15638.88
866.076	15597.88
866.321	15536.88
866.565	15535.88
866.81	15296.88
867.054	15453.88
867.298	15330.88
867.543	15277.88
867.787	15299.88
868.031	15256.88
868.275	15118.88
868.519	15178.88
868.764	15263.88
869.008	15124.88
869.252	15081.88
869.496	14940.88
869.739	15042.88
869.983	15001.88
870.227	14946.88
870.471	14955.88
870.715	15014.88
870.958	15092.88
871.202	14980.88
871.446	15022.88
871.689	14994.88
871.933	15022.88
872.176	15034.88
872.42	14964.88
872.663	14856.88
872.906	14948.88
873.15	14842.88
873.393	14685.88
873.636	14760.88
873.879	14637.88
874.122	14474.88
874.366	14293.88
874.609	14224.88
874.852	14099.88
875.095	13994.88
875.337	13885.88
875.58	13854.88
875.823	13830.88
876.066	13784.88
876.309	13739.88
876.551	13609.88
876.794	13556.88
877.037	13584.88
877.279	13436.88
877.522	13558.88
877.764	13572.88
878.007	13515.88
878.249	13536.88
878.491	13431.88
878.734	13457.88
878.976	13432.88
879.218	13362.88
879.46	13241.88
879.702	13221.88
879.945	13105.88
880.187	12934.88
880.429	12845.88
880.671	12704.88
880.912	12735.88
881.154	12733.88
881.396	12693.88
881.638	12590.88
881.88	12703.88
882.121	12680.88
882.363	12546.88
882.605	12536.88
882.846	12410.88
883.088	12513.88
883.329	12469.88
883.571	12485.88
883.812	12515.88
884.053	12760.88
884.295	12941.88
884.536	13138.88
884.777	12971.88
885.018	13016.88
885.259	12892.88
885.5	12732.88
885.742	12913.88
885.982	12696.88
886.223	12602.88
886.464	12534.88
886.705	12398.88
886.946	12326.88
887.187	12026.88
887.428	12040.88
887.668	11842.88
887.909	11689.88
888.15	11600.88
888.39	11574.88
888.631	11523.88
888.871	11404.88
889.111	11294.88
889.352	11175.88
889.592	11133.88
889.833	11054.88
890.073	10980.88
890.313	10960.88
890.553	10787.88
890.793	10771.88
891.033	10729.88
891.273	10669.88
891.513	10635.88
891.753	10592.88
891.993	10597.88
892.233	10622.88
892.473	10708.88
892.713	10565.88
892.952	10633.88
893.192	10633.88
893.432	10581.88
893.671	10625.88
893.911	10515.88
894.15	10494.88
894.39	10387.88
894.629	10325.88
894.869	10363.88
895.108	10184.88
895.347	10093.88
895.587	10107.88
895.826	10081.88
896.065	9905.88
896.304	10003.88
896.543	10125.88
896.782	10016.88
897.021	9944.88
897.26	9836.88
897.499	9893.88
897.738	9839.88
897.977	9718.88
898.216	9682.88
898.454	9566.88
898.693	9524.88
898.932	9528.88
899.17	9525.88
899.409	9446.88
899.647	9450.88
899.886	9424.88
900.124	9326.88
900.363	9418.88
900.601	9437.88
900.839	9427.88
901.078	9428.88
901.316	9520.88
901.554	9492.88
901.792	9574.88
902.03	9540.88
902.268	9495.88
902.506	9513.88
902.744	9384.88
902.982	9401.88
903.22	9245.88
903.458	9114.88
903.695	9033.88
903.933	8913.88
904.171	8716.88
904.409	8602.88
904.646	8588.88
904.884	8410.88
905.121	8366.88
905.359	8300.88
905.596	8258.88
905.833	8113.88
906.071	8124.88
906.308	8096.88
906.545	8084.88
906.783	8000.88
907.02	8058.88
907.257	8016.88
907.494	7970.88
907.731	8009.88
907.968	7952.88
908.205	7875.88
908.442	7752.88
908.679	7785.88
908.915	7673.88
909.152	7766.88
909.389	7547.88
909.626	7601.88
909.862	7473.88
910.099	7501.88
910.335	7483.88
910.572	7360.88
910.808	7411.88
911.045	7355.88
911.281	7312.88
911.518	7347.88
911.754	7250.88
911.99	7272.88
912.226	7190.88
912.463	7077.88
912.699	7110.88
912.935	7076.88
913.171	6999.88
913.407	6854.88
913.643	6922.88
913.879	6849.88
914.114	6816.88
914.35	6680.88
914.586	6616.88
914.822	6549.88
915.057	6602.88
915.293	6411.88
915.529	6393.88
915.764	6451.88
916	6433.88
916.235	6383.88
916.471	6438.88
916.706	6335.88
916.941	6370.88
917.177	6344.88
917.412	6356.88
917.647	6390.88
917.882	6289.88
918.117	6349.88
918.352	6300.88
918.588	6305.88
918.823	6183.88
919.057	6109.88
919.292	6019.88
919.527	6071.88
919.762	5991.88
919.997	5942.88
920.232	5834.88
920.466	5850.88
920.701	5733.88
920.935	5754.88
921.17	5710.88
921.405	5660.88
921.639	5734.88
921.873	5606.88
922.108	5635.88
922.342	5641.88
922.576	5540.88
922.811	5580.88
923.045	5535.88
923.279	5605.88
923.513	5432.88
923.747	5499.88
923.981	5430.88
924.215	5376.88
924.449	5361.88
924.683	5273.88
924.917	5320.88
925.151	5208.88
925.385	5229.88
925.618	5226.88
925.852	5206.88
926.086	5164.88
926.319	5213.88
926.553	5160.88
926.786	5193.88
927.02	5109.88
927.253	5222.88
927.486	5143.88
927.72	5120.88
927.953	5190.88
928.186	5133.88
928.42	5142.88
928.653	5061.88
928.886	5046.88
929.119	5097.88
929.352	5080.88
929.585	4974.88
929.818	4903.88
930.051	4986.88
930.284	4890.88
930.516	4814.88
930.749	4772.88
930.982	4758.88
931.215	4751.88
931.447	4646.88
931.68	4703.88
931.912	4690.88
932.145	4681.88
932.377	4707.88
932.61	4795.88
932.842	4624.88
933.074	4662.88
933.307	4638.88
933.539	4719.88
933.771	4735.88
934.003	4640.88
934.236	4737.88
934.468	4688.88
934.7	4583.88
934.932	4697.88
935.164	4553.88
935.395	4587.88
935.627	4564.88
935.859	4578.88
936.091	4503.88
936.323	4536.88
936.554	4541.88
936.786	4487.88
937.017	4403.88
937.249	4469.88
937.481	4413.88
937.712	4458.88
937.943	4420.88
938.175	4434.88
938.406	4422.88
938.637	4459.88
938.869	4333.88
939.1	4410.88
939.331	4407.88
939.562	4395.88
939.793	4370.88
940.024	4351.88
940.255	4360.88
940.486	4278.88
940.717	4267.88
940.948	4260.88
941.179	4186.88
941.409	4230.88
941.64	4223.88
941.871	4196.88
942.102	4164.88
942.332	4181.88
942.563	4222.88
942.793	4197.88
943.024	4176.88
943.254	4227.88
943.484	4259.88
943.715	4228.88
943.945	4191.88
944.175	4118.88
944.405	4082.88
944.636	4146.88
944.866	4169.88
945.096	4232.88
945.326	4040.88
945.556	4136.88
945.786	4155.88
946.016	4036.88
946.245	3997.88
946.475	3983.88
946.705	3932.88
946.935	3978.88
947.164	3945.88
947.394	3879.88
947.624	3917.88
947.853	3916.88
948.083	3909.88
948.312	3879.88
948.542	3795.88
948.771	3789.88
949	3798.88
949.23	3798.88
949.459	3852.88
949.688	3906.88
949.917	3802.88
950.146	3860.88
950.375	3860.88
950.604	3748.88
950.833	3847.88
951.062	3863.88
951.291	3745.88
951.52	3709.88
951.749	3762.88
951.978	3705.88
952.206	3749.88
952.435	3667.88
952.664	3749.88
952.892	3740.88
953.121	3721.88
953.349	3736.88
953.578	3725.88
953.806	3665.88
954.035	3556.88
954.263	3625.88
954.491	3561.88
954.719	3591.88
954.948	3578.88
955.176	3518.88
955.404	3491.88
955.632	3529.88
955.86	3529.88
956.088	3511.88
956.316	3533.88
956.544	3550.88
956.772	3464.88
956.999	3447.88
957.227	3509.88
957.455	3401.88
957.683	3429.88
957.91	3356.88
958.138	3328.88
958.365	3322.88
958.593	3308.88
958.82	3261.88
959.048	3322.88
959.275	3314.88
959.502	3279.88
959.73	3234.88
959.957	3255.88
960.184	3306.88
960.411	3293.88
960.638	3299.88
960.865	3229.88
961.092	3273.88
961.319	3191.88
961.546	3254.88
961.773	3293.88
962	3215.88
962.227	3272.88
962.454	3209.88
962.68	3190.88
962.907	3247.88
963.134	3157.88
963.36	3154.88
963.587	3195.88
963.813	3057.88
964.04	3171.88
964.266	3036.88
964.493	3117.88
964.719	3078.88
964.945	3097.88
965.171	2984.88
965.398	3062.88
965.624	3057.88
965.85	2972.88
966.076	2993.88
966.302	2986.88
966.528	2960.88
966.754	2989.88
966.98	2998.88
967.206	2930.88
967.431	2875.88
967.657	2981.88
967.883	2965.88
968.109	2943.88
968.334	2846.88
968.56	2832.88
968.785	2893.88
969.011	2774.88
969.236	2875.88
969.462	2793.88
969.687	2827.88
969.912	2853.88
970.138	2882.88
970.363	2748.88
970.588	2811.88
970.813	2774.88
971.038	2738.88
971.263	2802.88
971.488	2771.88
971.713	2816.88
971.938	2754.88
972.163	2650.88
972.388	2711.88
972.613	2682.88
972.838	2691.88
973.062	2658.88
973.287	2704.88
973.512	2580.88
973.736	2662.88
973.961	2605.88
974.185	2578.88
974.41	2632.88
974.634	2504.88
974.858	2542.88
975.083	2551.88
975.307	2581.88
975.531	2541.88
975.755	2438.88
975.98	2494.88
976.204	2405.88
976.428	2376.88
976.652	2469.88
976.876	2394.88
977.1	2449.88
977.324	2395.88
977.547	2451.88
977.771	2419.88
977.995	2368.88
978.219	2334.88
978.442	2441.88
978.666	2378.88
978.89	2386.88
979.113	2369.88
979.337	2360.88
979.56	2284.88
979.783	2424.88
980.007	2331.88
980.23	2335.88
980.453	2286.88
980.677	2309.88
980.9	2323.88
981.123	2213.88
981.346	2313.88
981.569	2287.88
981.792	2327.88
982.015	2275.88
982.238	2213.88
982.461	2224.88
982.684	2178.88
982.907	2164.88
983.129	2156.88
983.352	2171.88
983.575	2203.88
983.797	2209.88
984.02	2128.88
984.242	2117.88
984.465	2102.88
984.687	2152.88
984.91	2172.88
985.132	2132.88
985.354	2180.88
985.577	2129.88
985.799	2102.88
986.021	2019.88
986.243	2027.88
986.465	2048.88
986.687	2155.88
986.909	2141.88
987.131	2042.88
987.353	2027.88
987.575	2059.88
987.797	2017.88
988.019	1978.88
988.241	2035.88
988.462	2008.88
988.684	2041.88
988.906	2052.88
989.127	2089.88
989.349	1977.88
989.57	2015.88
989.792	2034.88
990.013	2032.88
990.234	2071.88
990.456	2050.88
990.677	2029.88
990.898	1930.88
991.119	1947.88
991.341	1982.88
991.562	1902.88
991.783	1944.88
992.004	1888.88
992.225	1874.88
992.446	1944.88
992.667	1814.88
992.887	1910.88
993.108	1807.88
993.329	1916.88
993.55	1871.88
993.77	1828.88
993.991	1833.88
994.212	1857.88
994.432	1839.88
994.653	1842.88
994.873	1845.88
995.093	1741.88
995.314	1794.88
995.534	1839.88
995.754	1846.88
995.975	1879.88
996.195	1725.88
996.415	1813.88
996.635	1791.88
996.855	1778.88
997.075	1784.88
997.295	1756.88
997.515	1738.88
997.735	1814.88
997.955	1752.88
998.174	1754.88
998.394	1725.88
998.614	1779.88
998.834	1718.88
999.053	1772.88
999.273	1753.88
999.492	1800.88
999.712	1721.88
999.931	1676.88
1000.151	1729.88
1000.37	1746.88
1000.589	1795.88
1000.809	1705.88
1001.028	1788.88
1001.247	1743.88
1001.466	1606.88
1001.685	1732.88
1001.904	1715.88
1002.123	1690.88
1002.342	1701.88
1002.561	1621.88
1002.78	1648.88
1002.999	1719.88
1003.218	1681.88
1003.436	1621.88
1003.655	1694.88
1003.874	1606.88
1004.092	1644.88
1004.311	1661.88
1004.53	1643.88
1004.748	1701.88
1004.966	1623.88
1005.185	1669.88
1005.403	1662.88
1005.622	1653.88
1005.84	1700.88
1006.058	1604.88
1006.276	1645.88
1006.494	2107.88
1006.712	1651.88
1006.931	1661.88
1007.149	1558.88
1007.367	1592.88
1007.584	1653.88
1007.802	1679.88
1008.02	1601.88
1008.238	1684.88
1008.456	1676.88
1008.673	1530.88
1008.891	1673.88
1009.109	1647.88
1009.326	1669.88
1009.544	1757.88
1009.761	1669.88
1009.979	1768.88
1010.196	1772.88
1010.413	1892.88
1010.631	1908.88
1010.848	1961.88
1011.065	1958.88
1011.282	1890.88
1011.5	1824.88
1011.717	1958.88
1011.934	1873.88
1012.151	1916.88
1012.368	1895.88
1012.585	1847.88
1012.801	1862.88
1013.018	1833.88
1013.235	1800.88
1013.452	1848.88
1013.669	1858.88
1013.885	1817.88
1014.102	1872.88
1014.318	1828.88
1014.535	1803.88
1014.751	1798.88
1014.968	1816.88
1015.184	1842.88
1015.401	1748.88
1015.617	1800.88
1015.833	1694.88
1016.049	1721.88
1016.266	1678.88
1016.482	1725.88
1016.698	1624.88
1016.914	1685.88
1017.13	1624.88
1017.346	1609.88
1017.562	1690.88
1017.778	1596.88
1017.993	1572.88
1018.209	1623.88
1018.425	1597.88
1018.641	1556.88
1018.856	1544.88
1019.072	1585.88
1019.288	1598.88
1019.503	1555.88
1019.719	1508.88
1019.934	1499.88
1020.149	1601.88
1020.365	1515.88
1020.58	1459.88
1020.795	1506.88
1021.011	1450.88
1021.226	1409.88
1021.441	1452.88
1021.656	1367.88
1021.871	1256.88
1022.086	1282.88
1022.301	1273.88
1022.516	1261.88
1022.731	1298.88
1022.946	1210.88
1023.16	1205.88
1023.375	1155.88
1023.59	1158.88
1023.804	1139.88
1024.019	1200.88
1024.234	1072.88
1024.448	1118.88
1024.663	1046.88
1024.877	1065.88
1025.092	1070.88
1025.306	1055.88
1025.52	982.88
1025.734	1056.88
1025.949	976.88
1026.163	947.88
1026.377	885.88
1026.591	957.88
1026.805	857.88
1027.019	854.88
1027.233	816.88
1027.447	766.88
1027.661	861.88
1027.875	796.88
1028.088	806.88
1028.302	738.88
1028.516	718.88
1028.73	714.88
1028.943	735.88
1029.157	673.88
1029.37	619.88
1029.584	0.88
1029.797	-5.12
1030.011	-1.12
1030.224	-2.12
