Data from QEP037381__227__10-52-34-542.txt Node

Date: Wed Dec 21 10:52:34 EST 2022
User: dcclab
Spectrometer: QEP03738
Trigger mode: 4
Integration Time (sec): 1.000000E1
Scans to average: 1
Electric dark correction enabled: true
Nonlinearity correction enabled: false
Boxcar width: 0
XAxis mode: Wavelengths
Number of Pixels in Spectrum: 1044
>>>>>Begin Spectral Data<<<<<
784.041	13.25
784.3	0.25
784.558	0.25
784.817	-1.75
785.075	110400.25
785.334	18838.25
785.592	8704.25
785.851	5994.25
786.109	4541.25
786.368	3538.25
786.626	2849.25
786.884	2356.25
787.143	2009.25
787.401	1634.25
787.659	1421.25
787.917	1248.25
788.175	1128.25
788.433	986.25
788.691	885.25
788.949	821.25
789.207	778.25
789.465	648.25
789.723	655.25
789.98	596.25
790.238	620.25
790.496	588.25
790.753	553.25
791.011	604.25
791.268	535.25
791.526	503.25
791.783	533.25
792.041	507.25
792.298	433.25
792.556	474.25
792.813	477.25
793.07	456.25
793.327	437.25
793.584	505.25
793.841	417.25
794.099	463.25
794.356	501.25
794.613	406.25
794.869	444.25
795.126	407.25
795.383	395.25
795.64	423.25
795.897	358.25
796.153	422.25
796.41	400.25
796.667	398.25
796.923	407.25
797.18	396.25
797.436	416.25
797.693	373.25
797.949	432.25
798.206	472.25
798.462	371.25
798.718	436.25
798.974	401.25
799.231	434.25
799.487	440.25
799.743	439.25
799.999	469.25
800.255	433.25
800.511	430.25
800.767	458.25
801.023	453.25
801.279	488.25
801.534	487.25
801.79	511.25
802.046	517.25
802.302	603.25
802.557	654.25
802.813	769.25
803.068	862.25
803.324	1152.25
803.579	1477.25
803.835	1982.25
804.09	2712.25
804.345	3538.25
804.601	4417.25
804.856	5263.25
805.111	6131.25
805.366	6705.25
805.621	7128.25
805.876	7477.25
806.131	7614.25
806.386	7709.25
806.641	7830.25
806.896	7997.25
807.151	8151.25
807.406	8204.25
807.661	8367.25
807.915	8508.25
808.17	8578.25
808.425	8718.25
808.679	8730.25
808.934	8905.25
809.188	8914.25
809.443	9027.25
809.697	9122.25
809.951	9114.25
810.206	9183.25
810.46	9334.25
810.714	9386.25
810.968	9507.25
811.223	9548.25
811.477	9588.25
811.731	9663.25
811.985	9735.25
812.239	9743.25
812.493	9802.25
812.747	9752.25
813	9795.25
813.254	9913.25
813.508	9878.25
813.762	9919.25
814.015	9984.25
814.269	10082.25
814.522	10175.25
814.776	10225.25
815.03	10356.25
815.283	10476.25
815.536	10686.25
815.79	10856.25
816.043	10953.25
816.296	11133.25
816.55	11210.25
816.803	11354.25
817.056	11509.25
817.309	11564.25
817.562	11650.25
817.815	11814.25
818.068	11880.25
818.321	11901.25
818.574	12139.25
818.827	12323.25
819.079	12382.25
819.332	12638.25
819.585	12751.25
819.838	13013.25
820.09	13011.25
820.343	13104.25
820.595	13154.25
820.848	13240.25
821.1	13284.25
821.353	13248.25
821.605	13291.25
821.857	13329.25
822.11	13156.25
822.362	13073.25
822.614	13073.25
822.866	13198.25
823.118	13131.25
823.37	13237.25
823.622	13196.25
823.874	13332.25
824.126	13378.25
824.378	13292.25
824.63	13425.25
824.882	13415.25
825.134	13406.25
825.385	13354.25
825.637	13274.25
825.888	13219.25
826.14	13244.25
826.392	13209.25
826.643	13013.25
826.895	13080.25
827.146	12931.25
827.397	12920.25
827.649	13033.25
827.9	12901.25
828.151	12954.25
828.402	13005.25
828.653	13082.25
828.905	13042.25
829.156	13104.25
829.407	12986.25
829.658	13013.25
829.909	13089.25
830.159	13085.25
830.41	12988.25
830.661	12940.25
830.912	12891.25
831.162	12760.25
831.413	12769.25
831.664	12776.25
831.914	12829.25
832.165	12752.25
832.415	12807.25
832.666	12834.25
832.916	12811.25
833.167	12755.25
833.417	12737.25
833.667	12682.25
833.917	12635.25
834.168	12629.25
834.418	12633.25
834.668	12607.25
834.918	12507.25
835.168	12466.25
835.418	12435.25
835.668	12404.25
835.918	12400.25
836.167	12384.25
836.417	12211.25
836.667	12332.25
836.917	12282.25
837.166	12239.25
837.416	12230.25
837.666	12269.25
837.915	12177.25
838.165	12115.25
838.414	12095.25
838.663	12054.25
838.913	12096.25
839.162	12029.25
839.411	12084.25
839.661	12004.25
839.91	11993.25
840.159	12024.25
840.408	12074.25
840.657	12058.25
840.906	12007.25
841.155	12048.25
841.404	11939.25
841.653	11967.25
841.902	11950.25
842.15	12060.25
842.399	11975.25
842.648	12000.25
842.897	11963.25
843.145	11891.25
843.394	11823.25
843.642	11735.25
843.891	11828.25
844.139	11727.25
844.388	11497.25
844.636	11410.25
844.884	11438.25
845.133	11475.25
845.381	11558.25
845.629	11556.25
845.877	11457.25
846.125	11518.25
846.373	11550.25
846.621	11380.25
846.869	11339.25
847.117	11345.25
847.365	11242.25
847.613	11192.25
847.861	11184.25
848.108	11117.25
848.356	11143.25
848.604	11085.25
848.851	11184.25
849.099	11168.25
849.346	11209.25
849.594	11298.25
849.841	11287.25
850.089	11284.25
850.336	11328.25
850.583	11345.25
850.831	11384.25
851.078	11243.25
851.325	11179.25
851.572	11229.25
851.819	11054.25
852.066	10820.25
852.313	10705.25
852.56	10602.25
852.807	10606.25
853.054	10579.25
853.301	10613.25
853.548	10584.25
853.794	10698.25
854.041	10662.25
854.288	10756.25
854.534	10830.25
854.781	10822.25
855.028	10794.25
855.274	10730.25
855.52	10708.25
855.767	10646.25
856.013	10661.25
856.26	10898.25
856.506	10557.25
856.752	10547.25
856.998	10590.25
857.244	10551.25
857.49	10562.25
857.736	10751.25
857.982	10573.25
858.228	10606.25
858.474	10523.25
858.72	10423.25
858.966	10366.25
859.212	10270.25
859.458	10140.25
859.703	10003.25
859.949	9915.25
860.195	9903.25
860.44	9862.25
860.686	9756.25
860.931	9786.25
861.177	9720.25
861.422	9676.25
861.667	9584.25
861.913	9585.25
862.158	9698.25
862.403	9665.25
862.648	9721.25
862.893	9726.25
863.138	9707.25
863.384	9670.25
863.629	9662.25
863.873	9642.25
864.118	9626.25
864.363	9490.25
864.608	9509.25
864.853	9563.25
865.098	9514.25
865.342	9413.25
865.587	9342.25
865.832	9385.25
866.076	9398.25
866.321	9255.25
866.565	9213.25
866.81	9188.25
867.054	9174.25
867.298	9181.25
867.543	9158.25
867.787	9187.25
868.031	9089.25
868.275	9111.25
868.519	9090.25
868.764	9141.25
869.008	9129.25
869.252	9027.25
869.496	9022.25
869.739	8979.25
869.983	9075.25
870.227	9069.25
870.471	9037.25
870.715	9112.25
870.958	9096.25
871.202	9105.25
871.446	9085.25
871.689	9094.25
871.933	9119.25
872.176	9109.25
872.42	9059.25
872.663	9005.25
872.906	9062.25
873.15	9061.25
873.393	9008.25
873.636	9114.25
873.879	9015.25
874.122	8893.25
874.366	8743.25
874.609	8657.25
874.852	8559.25
875.095	8481.25
875.337	8393.25
875.58	8368.25
875.823	8355.25
876.066	8406.25
876.309	8412.25
876.551	8318.25
876.794	8269.25
877.037	8259.25
877.279	8209.25
877.522	8233.25
877.764	8225.25
878.007	8202.25
878.249	8197.25
878.491	8174.25
878.734	8103.25
878.976	8154.25
879.218	8038.25
879.46	8021.25
879.702	7988.25
879.945	7897.25
880.187	7774.25
880.429	7819.25
880.671	7753.25
880.912	7733.25
881.154	7694.25
881.396	7625.25
881.638	7626.25
881.88	7689.25
882.121	7611.25
882.363	7626.25
882.605	7610.25
882.846	7646.25
883.088	7645.25
883.329	7614.25
883.571	7646.25
883.812	7755.25
884.053	7931.25
884.295	8098.25
884.536	8316.25
884.777	8213.25
885.018	8098.25
885.259	8101.25
885.5	7929.25
885.742	8186.25
885.982	7973.25
886.223	7815.25
886.464	7737.25
886.705	7669.25
886.946	7561.25
887.187	7408.25
887.428	7396.25
887.668	7240.25
887.909	7155.25
888.15	7047.25
888.39	7042.25
888.631	6998.25
888.871	6958.25
889.111	6901.25
889.352	6805.25
889.592	6734.25
889.833	6672.25
890.073	6677.25
890.313	6615.25
890.553	6458.25
890.793	6543.25
891.033	6478.25
891.273	6492.25
891.513	6434.25
891.753	6448.25
891.993	6410.25
892.233	6455.25
892.473	6507.25
892.713	6461.25
892.952	6411.25
893.192	6440.25
893.432	6481.25
893.671	6430.25
893.911	6423.25
894.15	6386.25
894.39	6295.25
894.629	6284.25
894.869	6257.25
895.108	6235.25
895.347	6182.25
895.587	6226.25
895.826	6134.25
896.065	6167.25
896.304	6135.25
896.543	6154.25
896.782	6024.25
897.021	6083.25
897.26	6082.25
897.499	6113.25
897.738	6079.25
897.977	6029.25
898.216	5965.25
898.454	5924.25
898.693	5847.25
898.932	5864.25
899.17	5867.25
899.409	5862.25
899.647	5782.25
899.886	5770.25
900.124	5831.25
900.363	5808.25
900.601	5811.25
900.839	5807.25
901.078	5879.25
901.316	5890.25
901.554	5888.25
901.792	5967.25
902.03	5856.25
902.268	5901.25
902.506	5960.25
902.744	5906.25
902.982	5888.25
903.22	5739.25
903.458	5690.25
903.695	5649.25
903.933	5587.25
904.171	5430.25
904.409	5342.25
904.646	5305.25
904.884	5143.25
905.121	5166.25
905.359	5155.25
905.596	5139.25
905.833	5016.25
906.071	4974.25
906.308	5069.25
906.545	5007.25
906.783	4987.25
907.02	4961.25
907.257	4882.25
907.494	4944.25
907.731	4932.25
907.968	4919.25
908.205	4856.25
908.442	4807.25
908.679	4797.25
908.915	4736.25
909.152	4788.25
909.389	4691.25
909.626	4648.25
909.862	4645.25
910.099	4621.25
910.335	4618.25
910.572	4490.25
910.808	4555.25
911.045	4527.25
911.281	4511.25
911.518	4576.25
911.754	4481.25
911.99	4492.25
912.226	4445.25
912.463	4436.25
912.699	4370.25
912.935	4343.25
913.171	4339.25
913.407	4288.25
913.643	4333.25
913.879	4202.25
914.114	4189.25
914.35	4112.25
914.586	4119.25
914.822	4029.25
915.057	4136.25
915.293	3988.25
915.529	3966.25
915.764	4031.25
916	4027.25
916.235	4035.25
916.471	4024.25
916.706	3915.25
916.941	3987.25
917.177	3945.25
917.412	4005.25
917.647	4004.25
917.882	3920.25
918.117	4001.25
918.352	3938.25
918.588	3948.25
918.823	3922.25
919.057	3819.25
919.292	3767.25
919.527	3828.25
919.762	3733.25
919.997	3759.25
920.232	3694.25
920.466	3691.25
920.701	3568.25
920.935	3594.25
921.17	3539.25
921.405	3495.25
921.639	3596.25
921.873	3543.25
922.108	3551.25
922.342	3540.25
922.576	3440.25
922.811	3446.25
923.045	3490.25
923.279	3502.25
923.513	3398.25
923.747	3475.25
923.981	3430.25
924.215	3376.25
924.449	3326.25
924.683	3311.25
924.917	3340.25
925.151	3299.25
925.385	3384.25
925.618	3344.25
925.852	3314.25
926.086	3229.25
926.319	3259.25
926.553	3254.25
926.786	3287.25
927.02	3216.25
927.253	3304.25
927.486	3266.25
927.72	3217.25
927.953	3253.25
928.186	3196.25
928.42	3249.25
928.653	3143.25
928.886	3181.25
929.119	3193.25
929.352	3212.25
929.585	3154.25
929.818	3094.25
930.051	3147.25
930.284	3101.25
930.516	3019.25
930.749	3019.25
930.982	3080.25
931.215	3062.25
931.447	2975.25
931.68	2990.25
931.912	2954.25
932.145	2976.25
932.377	2999.25
932.61	3119.25
932.842	2936.25
933.074	2964.25
933.307	2962.25
933.539	3027.25
933.771	3009.25
934.003	2969.25
934.236	3024.25
934.468	3017.25
934.7	2940.25
934.932	2988.25
935.164	2934.25
935.395	2892.25
935.627	2937.25
935.859	2909.25
936.091	2890.25
936.323	2885.25
936.554	2904.25
936.786	2896.25
937.017	2826.25
937.249	2879.25
937.481	2785.25
937.712	2861.25
937.943	2845.25
938.175	2827.25
938.406	2789.25
938.637	2860.25
938.869	2789.25
939.1	2831.25
939.331	2805.25
939.562	2829.25
939.793	2819.25
940.024	2828.25
940.255	2826.25
940.486	2774.25
940.717	2736.25
940.948	2710.25
941.179	2706.25
941.409	2705.25
941.64	2697.25
941.871	2729.25
942.102	2713.25
942.332	2710.25
942.563	2754.25
942.793	2751.25
943.024	2648.25
943.254	2729.25
943.484	2752.25
943.715	2774.25
943.945	2724.25
944.175	2678.25
944.405	2602.25
944.636	2643.25
944.866	2684.25
945.096	2696.25
945.326	2590.25
945.556	2683.25
945.786	2710.25
946.016	2604.25
946.245	2577.25
946.475	2607.25
946.705	2575.25
946.935	2581.25
947.164	2595.25
947.394	2522.25
947.624	2529.25
947.853	2569.25
948.083	2564.25
948.312	2540.25
948.542	2491.25
948.771	2455.25
949	2482.25
949.23	2452.25
949.459	2489.25
949.688	2562.25
949.917	2481.25
950.146	2491.25
950.375	2489.25
950.604	2470.25
950.833	2522.25
951.062	2524.25
951.291	2484.25
951.52	2457.25
951.749	2455.25
951.978	2425.25
952.206	2437.25
952.435	2407.25
952.664	2480.25
952.892	2435.25
953.121	2446.25
953.349	2454.25
953.578	2454.25
953.806	2400.25
954.035	2320.25
954.263	2428.25
954.491	2326.25
954.719	2385.25
954.948	2365.25
955.176	2289.25
955.404	2252.25
955.632	2331.25
955.86	2334.25
956.088	2277.25
956.316	2351.25
956.544	2316.25
956.772	2293.25
956.999	2236.25
957.227	2345.25
957.455	2229.25
957.683	2220.25
957.91	2236.25
958.138	2208.25
958.365	2202.25
958.593	2203.25
958.82	2141.25
959.048	2237.25
959.275	2183.25
959.502	2174.25
959.73	2155.25
959.957	2203.25
960.184	2227.25
960.411	2144.25
960.638	2207.25
960.865	2147.25
961.092	2143.25
961.319	2092.25
961.546	2206.25
961.773	2192.25
962	2163.25
962.227	2219.25
962.454	2150.25
962.68	2137.25
962.907	2172.25
963.134	2094.25
963.36	2134.25
963.587	2151.25
963.813	2058.25
964.04	2072.25
964.266	2022.25
964.493	2102.25
964.719	2096.25
964.945	2101.25
965.171	2012.25
965.398	2054.25
965.624	2079.25
965.85	1987.25
966.076	1992.25
966.302	2053.25
966.528	1994.25
966.754	2004.25
966.98	2041.25
967.206	2000.25
967.431	1953.25
967.657	2028.25
967.883	2006.25
968.109	2025.25
968.334	1940.25
968.56	1923.25
968.785	1916.25
969.011	1882.25
969.236	1947.25
969.462	1892.25
969.687	1910.25
969.912	1980.25
970.138	1974.25
970.363	1908.25
970.588	1908.25
970.813	1891.25
971.038	1883.25
971.263	1878.25
971.488	1888.25
971.713	1917.25
971.938	1916.25
972.163	1801.25
972.388	1864.25
972.613	1823.25
972.838	1850.25
973.062	1805.25
973.287	1848.25
973.512	1784.25
973.736	1802.25
973.961	1784.25
974.185	1776.25
974.41	1830.25
974.634	1712.25
974.858	1727.25
975.083	1789.25
975.307	1792.25
975.531	1728.25
975.755	1682.25
975.98	1692.25
976.204	1649.25
976.428	1650.25
976.652	1635.25
976.876	1605.25
977.1	1680.25
977.324	1662.25
977.547	1678.25
977.771	1695.25
977.995	1688.25
978.219	1611.25
978.442	1716.25
978.666	1695.25
978.89	1634.25
979.113	1670.25
979.337	1644.25
979.56	1601.25
979.783	1683.25
980.007	1577.25
980.23	1604.25
980.453	1565.25
980.677	1624.25
980.9	1599.25
981.123	1518.25
981.346	1639.25
981.569	1579.25
981.792	1601.25
982.015	1574.25
982.238	1560.25
982.461	1573.25
982.684	1531.25
982.907	1505.25
983.129	1487.25
983.352	1565.25
983.575	1551.25
983.797	1525.25
984.02	1479.25
984.242	1492.25
984.465	1513.25
984.687	1523.25
984.91	1565.25
985.132	1523.25
985.354	1537.25
985.577	1511.25
985.799	1494.25
986.021	1408.25
986.243	1439.25
986.465	1461.25
986.687	1524.25
986.909	1568.25
987.131	1498.25
987.353	1447.25
987.575	1480.25
987.797	1442.25
988.019	1412.25
988.241	1452.25
988.462	1429.25
988.684	1465.25
988.906	1479.25
989.127	1505.25
989.349	1387.25
989.57	1433.25
989.792	1498.25
990.013	1484.25
990.234	1486.25
990.456	1502.25
990.677	1491.25
990.898	1425.25
991.119	1437.25
991.341	1459.25
991.562	1406.25
991.783	1408.25
992.004	1384.25
992.225	1336.25
992.446	1417.25
992.667	1329.25
992.887	1420.25
993.108	1313.25
993.329	1434.25
993.55	1393.25
993.77	1313.25
993.991	1337.25
994.212	1372.25
994.432	1345.25
994.653	1366.25
994.873	1344.25
995.093	1253.25
995.314	1278.25
995.534	1356.25
995.754	1384.25
995.975	1398.25
996.195	1286.25
996.415	1356.25
996.635	1316.25
996.855	1349.25
997.075	1329.25
997.295	1313.25
997.515	1285.25
997.735	1348.25
997.955	1327.25
998.174	1297.25
998.394	1269.25
998.614	1334.25
998.834	1286.25
999.053	1366.25
999.273	1335.25
999.492	1365.25
999.712	1324.25
999.931	1249.25
1000.151	1316.25
1000.37	1303.25
1000.589	1357.25
1000.809	1285.25
1001.028	1374.25
1001.247	1326.25
1001.466	1248.25
1001.685	1371.25
1001.904	1300.25
1002.123	1293.25
1002.342	1306.25
1002.561	1251.25
1002.78	1297.25
1002.999	1356.25
1003.218	1306.25
1003.436	1287.25
1003.655	1324.25
1003.874	1274.25
1004.092	1282.25
1004.311	1318.25
1004.53	1287.25
1004.748	1372.25
1004.966	1278.25
1005.185	1343.25
1005.403	1326.25
1005.622	1310.25
1005.84	1372.25
1006.058	1261.25
1006.276	1302.25
1006.494	1768.25
1006.712	1277.25
1006.931	1361.25
1007.149	1260.25
1007.367	1280.25
1007.584	1267.25
1007.802	1381.25
1008.02	1289.25
1008.238	1365.25
1008.456	1370.25
1008.673	1254.25
1008.891	1367.25
1009.109	1312.25
1009.326	1359.25
1009.544	1452.25
1009.761	1340.25
1009.979	1419.25
1010.196	1437.25
1010.413	1527.25
1010.631	1583.25
1010.848	1607.25
1011.065	1621.25
1011.282	1587.25
1011.5	1501.25
1011.717	1629.25
1011.934	1567.25
1012.151	1615.25
1012.368	1588.25
1012.585	1534.25
1012.801	1573.25
1013.018	1529.25
1013.235	1507.25
1013.452	1543.25
1013.669	1563.25
1013.885	1532.25
1014.102	1547.25
1014.318	1523.25
1014.535	1507.25
1014.751	1515.25
1014.968	1533.25
1015.184	1553.25
1015.401	1470.25
1015.617	1500.25
1015.833	1438.25
1016.049	1454.25
1016.266	1442.25
1016.482	1432.25
1016.698	1362.25
1016.914	1408.25
1017.13	1351.25
1017.346	1334.25
1017.562	1416.25
1017.778	1347.25
1017.993	1309.25
1018.209	1370.25
1018.425	1338.25
1018.641	1322.25
1018.856	1298.25
1019.072	1310.25
1019.288	1366.25
1019.503	1315.25
1019.719	1232.25
1019.934	1250.25
1020.149	1305.25
1020.365	1250.25
1020.58	1194.25
1020.795	1255.25
1021.011	1191.25
1021.226	1165.25
1021.441	1196.25
1021.656	1136.25
1021.871	1057.25
1022.086	1078.25
1022.301	1071.25
1022.516	1045.25
1022.731	1107.25
1022.946	1017.25
1023.16	998.25
1023.375	985.25
1023.59	968.25
1023.804	910.25
1024.019	1028.25
1024.234	888.25
1024.448	932.25
1024.663	853.25
1024.877	880.25
1025.092	883.25
1025.306	893.25
1025.52	815.25
1025.734	894.25
1025.949	801.25
1026.163	781.25
1026.377	718.25
1026.591	769.25
1026.805	708.25
1027.019	719.25
1027.233	677.25
1027.447	622.25
1027.661	743.25
1027.875	673.25
1028.088	674.25
1028.302	626.25
1028.516	613.25
1028.73	611.25
1028.943	589.25
1029.157	555.25
1029.37	514.25
1029.584	-2.75
1029.797	-5.75
1030.011	-2.75
1030.224	-0.75
