Data from QEP037381__216__10-50-44-540.txt Node

Date: Wed Dec 21 10:50:44 EST 2022
User: dcclab
Spectrometer: QEP03738
Trigger mode: 4
Integration Time (sec): 1.000000E1
Scans to average: 1
Electric dark correction enabled: true
Nonlinearity correction enabled: false
Boxcar width: 0
XAxis mode: Wavelengths
Number of Pixels in Spectrum: 1044
>>>>>Begin Spectral Data<<<<<
784.041	11.62
784.3	-1.38
784.558	-2.38
784.817	-3.38
785.075	109701.62
785.334	18631.62
785.592	8606.62
785.851	5973.62
786.109	4480.62
786.368	3485.62
786.626	2731.62
786.884	2288.62
787.143	1904.62
787.401	1581.62
787.659	1430.62
787.917	1229.62
788.175	1116.62
788.433	981.62
788.691	888.62
788.949	816.62
789.207	769.62
789.465	684.62
789.723	658.62
789.98	596.62
790.238	639.62
790.496	591.62
790.753	558.62
791.011	609.62
791.268	538.62
791.526	526.62
791.783	546.62
792.041	529.62
792.298	436.62
792.556	508.62
792.813	484.62
793.07	448.62
793.327	444.62
793.584	535.62
793.841	460.62
794.099	458.62
794.356	522.62
794.613	410.62
794.869	467.62
795.126	418.62
795.383	415.62
795.64	412.62
795.897	380.62
796.153	446.62
796.41	431.62
796.667	421.62
796.923	415.62
797.18	414.62
797.436	444.62
797.693	395.62
797.949	460.62
798.206	472.62
798.462	402.62
798.718	450.62
798.974	435.62
799.231	462.62
799.487	444.62
799.743	457.62
799.999	483.62
800.255	483.62
800.511	467.62
800.767	505.62
801.023	502.62
801.279	523.62
801.534	534.62
801.79	588.62
802.046	596.62
802.302	724.62
802.557	771.62
802.813	928.62
803.068	1121.62
803.324	1505.62
803.579	2021.62
803.835	2757.62
804.09	3885.62
804.345	5064.62
804.601	6427.62
804.856	7704.62
805.111	9032.62
805.366	9878.62
805.621	10554.62
805.876	11060.62
806.131	11354.62
806.386	11546.62
806.641	11724.62
806.896	11901.62
807.151	12187.62
807.406	12335.62
807.661	12601.62
807.915	12760.62
808.17	12958.62
808.425	13134.62
808.679	13183.62
808.934	13288.62
809.188	13447.62
809.443	13538.62
809.697	13768.62
809.951	13856.62
810.206	13915.62
810.46	14050.62
810.714	14150.62
810.968	14273.62
811.223	14333.62
811.477	14527.62
811.731	14622.62
811.985	14580.62
812.239	14691.62
812.493	14765.62
812.747	14854.62
813	14737.62
813.254	14926.62
813.508	14948.62
813.762	14959.62
814.015	15078.62
814.269	15134.62
814.522	15280.62
814.776	15457.62
815.03	15641.62
815.283	15877.62
815.536	16109.62
815.79	16325.62
816.043	16596.62
816.296	16876.62
816.55	17055.62
816.803	17197.62
817.056	17410.62
817.309	17545.62
817.562	17786.62
817.815	17978.62
818.068	18014.62
818.321	18251.62
818.574	18354.62
818.827	18672.62
819.079	18772.62
819.332	19203.62
819.585	19413.62
819.838	19662.62
820.09	19720.62
820.343	19908.62
820.595	19831.62
820.848	20134.62
821.1	20106.62
821.353	20222.62
821.605	20091.62
821.857	20168.62
822.11	20075.62
822.362	19878.62
822.614	19853.62
822.866	19966.62
823.118	19966.62
823.37	20163.62
823.622	20085.62
823.874	20131.62
824.126	20285.62
824.378	20313.62
824.63	20283.62
824.882	20320.62
825.134	20232.62
825.385	20277.62
825.637	20186.62
825.888	20094.62
826.14	19973.62
826.392	20007.62
826.643	19901.62
826.895	19851.62
827.146	19733.62
827.397	19571.62
827.649	19685.62
827.9	19744.62
828.151	19680.62
828.402	19668.62
828.653	19756.62
828.905	19874.62
829.156	19952.62
829.407	19864.62
829.658	19858.62
829.909	19850.62
830.159	19908.62
830.41	19851.62
830.661	19654.62
830.912	19492.62
831.162	19416.62
831.413	19373.62
831.664	19420.62
831.914	19383.62
832.165	19335.62
832.415	19273.62
832.666	19317.62
832.916	19331.62
833.167	19202.62
833.417	19374.62
833.667	19254.62
833.917	19111.62
834.168	19134.62
834.418	19062.62
834.668	19026.62
834.918	18866.62
835.168	18855.62
835.418	18756.62
835.668	18750.62
835.918	18636.62
836.167	18650.62
836.417	18550.62
836.667	18648.62
836.917	18540.62
837.166	18459.62
837.416	18454.62
837.666	18583.62
837.915	18527.62
838.165	18444.62
838.414	18296.62
838.663	18299.62
838.913	18403.62
839.162	18161.62
839.411	18263.62
839.661	18111.62
839.91	18051.62
840.159	18122.62
840.408	18079.62
840.657	18232.62
840.906	18120.62
841.155	18170.62
841.404	18092.62
841.653	18133.62
841.902	18081.62
842.15	18196.62
842.399	18082.62
842.648	18165.62
842.897	18027.62
843.145	17923.62
843.394	17730.62
843.642	17705.62
843.891	17627.62
844.139	17607.62
844.388	17448.62
844.636	17347.62
844.884	17373.62
845.133	17307.62
845.381	17333.62
845.629	17340.62
845.877	17318.62
846.125	17258.62
846.373	17262.62
846.621	17140.62
846.869	17084.62
847.117	17060.62
847.365	16948.62
847.613	16830.62
847.861	16767.62
848.108	16806.62
848.356	16759.62
848.604	16678.62
848.851	16695.62
849.099	16835.62
849.346	16855.62
849.594	16817.62
849.841	16900.62
850.089	16991.62
850.336	17049.62
850.583	17038.62
850.831	16894.62
851.078	16857.62
851.325	16806.62
851.572	16777.62
851.819	16571.62
852.066	16255.62
852.313	16084.62
852.56	15872.62
852.807	15845.62
853.054	15846.62
853.301	15823.62
853.548	15776.62
853.794	15968.62
854.041	15992.62
854.288	16063.62
854.534	16229.62
854.781	16139.62
855.028	16091.62
855.274	16165.62
855.52	15988.62
855.767	15931.62
856.013	15952.62
856.26	16174.62
856.506	15817.62
856.752	15841.62
856.998	15740.62
857.244	15693.62
857.49	15859.62
857.736	15879.62
857.982	15822.62
858.228	15816.62
858.474	15675.62
858.72	15518.62
858.966	15456.62
859.212	15264.62
859.458	15118.62
859.703	15011.62
859.949	14791.62
860.195	14742.62
860.44	14655.62
860.686	14626.62
860.931	14642.62
861.177	14544.62
861.422	14446.62
861.667	14418.62
861.913	14323.62
862.158	14367.62
862.403	14450.62
862.648	14478.62
862.893	14464.62
863.138	14394.62
863.384	14495.62
863.629	14430.62
863.873	14398.62
864.118	14297.62
864.363	14109.62
864.608	14181.62
864.853	14157.62
865.098	14027.62
865.342	13970.62
865.587	14062.62
865.832	14010.62
866.076	13871.62
866.321	13848.62
866.565	13823.62
866.81	13779.62
867.054	13747.62
867.298	13617.62
867.543	13612.62
867.787	13691.62
868.031	13614.62
868.275	13651.62
868.519	13533.62
868.764	13460.62
869.008	13462.62
869.252	13561.62
869.496	13415.62
869.739	13339.62
869.983	13360.62
870.227	13331.62
870.471	13384.62
870.715	13451.62
870.958	13504.62
871.202	13448.62
871.446	13499.62
871.689	13487.62
871.933	13439.62
872.176	13447.62
872.42	13436.62
872.663	13466.62
872.906	13414.62
873.15	13331.62
873.393	13249.62
873.636	13327.62
873.879	13159.62
874.122	12961.62
874.366	12883.62
874.609	12744.62
874.852	12604.62
875.095	12536.62
875.337	12453.62
875.58	12369.62
875.823	12343.62
876.066	12358.62
876.309	12304.62
876.551	12166.62
876.794	12155.62
877.037	12117.62
877.279	12126.62
877.522	12185.62
877.764	12161.62
878.007	12032.62
878.249	12033.62
878.491	12106.62
878.734	11985.62
878.976	11960.62
879.218	11949.62
879.46	11848.62
879.702	11807.62
879.945	11734.62
880.187	11529.62
880.429	11469.62
880.671	11471.62
880.912	11395.62
881.154	11330.62
881.396	11331.62
881.638	11371.62
881.88	11278.62
882.121	11233.62
882.363	11253.62
882.605	11264.62
882.846	11222.62
883.088	11268.62
883.329	11200.62
883.571	11151.62
883.812	11329.62
884.053	11522.62
884.295	11750.62
884.536	11919.62
884.777	11764.62
885.018	11773.62
885.259	11647.62
885.5	11521.62
885.742	11804.62
885.982	11599.62
886.223	11440.62
886.464	11270.62
886.705	11230.62
886.946	11109.62
887.187	10917.62
887.428	10867.62
887.668	10638.62
887.909	10482.62
888.15	10388.62
888.39	10381.62
888.631	10299.62
888.871	10198.62
889.111	10163.62
889.352	10045.62
889.592	9923.62
889.833	9866.62
890.073	9835.62
890.313	9772.62
890.553	9669.62
890.793	9607.62
891.033	9595.62
891.273	9537.62
891.513	9516.62
891.753	9530.62
891.993	9507.62
892.233	9482.62
892.473	9554.62
892.713	9587.62
892.952	9428.62
893.192	9449.62
893.432	9482.62
893.671	9566.62
893.911	9411.62
894.15	9382.62
894.39	9283.62
894.629	9223.62
894.869	9201.62
895.108	9136.62
895.347	9118.62
895.587	9106.62
895.826	8987.62
896.065	8911.62
896.304	8985.62
896.543	8993.62
896.782	8872.62
897.021	8911.62
897.26	8873.62
897.499	8900.62
897.738	8850.62
897.977	8830.62
898.216	8722.62
898.454	8646.62
898.693	8547.62
898.932	8487.62
899.17	8532.62
899.409	8518.62
899.647	8428.62
899.886	8451.62
900.124	8430.62
900.363	8424.62
900.601	8482.62
900.839	8540.62
901.078	8579.62
901.316	8516.62
901.554	8526.62
901.792	8630.62
902.03	8552.62
902.268	8597.62
902.506	8585.62
902.744	8467.62
902.982	8519.62
903.22	8343.62
903.458	8238.62
903.695	8107.62
903.933	8064.62
904.171	7864.62
904.409	7781.62
904.646	7686.62
904.884	7573.62
905.121	7588.62
905.359	7472.62
905.596	7447.62
905.833	7347.62
906.071	7301.62
906.308	7308.62
906.545	7255.62
906.783	7221.62
907.02	7218.62
907.257	7211.62
907.494	7148.62
907.731	7172.62
907.968	7165.62
908.205	7046.62
908.442	7013.62
908.679	7022.62
908.915	6986.62
909.152	6934.62
909.389	6815.62
909.626	6842.62
909.862	6694.62
910.099	6704.62
910.335	6774.62
910.572	6654.62
910.808	6625.62
911.045	6593.62
911.281	6537.62
911.518	6598.62
911.754	6483.62
911.99	6530.62
912.226	6478.62
912.463	6414.62
912.699	6377.62
912.935	6307.62
913.171	6279.62
913.407	6195.62
913.643	6227.62
913.879	6104.62
914.114	6106.62
914.35	6021.62
914.586	6019.62
914.822	5889.62
915.057	5915.62
915.293	5808.62
915.529	5747.62
915.764	5877.62
916	5821.62
916.235	5779.62
916.471	5730.62
916.706	5706.62
916.941	5715.62
917.177	5693.62
917.412	5811.62
917.647	5736.62
917.882	5677.62
918.117	5756.62
918.352	5661.62
918.588	5696.62
918.823	5577.62
919.057	5592.62
919.292	5440.62
919.527	5466.62
919.762	5401.62
919.997	5382.62
920.232	5292.62
920.466	5286.62
920.701	5151.62
920.935	5207.62
921.17	5161.62
921.405	5070.62
921.639	5148.62
921.873	5086.62
922.108	5058.62
922.342	5088.62
922.576	5008.62
922.811	4995.62
923.045	5014.62
923.279	5034.62
923.513	4870.62
923.747	4978.62
923.981	4874.62
924.215	4817.62
924.449	4850.62
924.683	4748.62
924.917	4740.62
925.151	4699.62
925.385	4793.62
925.618	4738.62
925.852	4676.62
926.086	4661.62
926.319	4706.62
926.553	4673.62
926.786	4703.62
927.02	4662.62
927.253	4746.62
927.486	4714.62
927.72	4646.62
927.953	4698.62
928.186	4602.62
928.42	4657.62
928.653	4561.62
928.886	4537.62
929.119	4559.62
929.352	4514.62
929.585	4571.62
929.818	4433.62
930.051	4441.62
930.284	4376.62
930.516	4354.62
930.749	4333.62
930.982	4366.62
931.215	4348.62
931.447	4267.62
931.68	4302.62
931.912	4208.62
932.145	4222.62
932.377	4267.62
932.61	4357.62
932.842	4198.62
933.074	4239.62
933.307	4214.62
933.539	4250.62
933.771	4247.62
934.003	4211.62
934.236	4272.62
934.468	4260.62
934.7	4211.62
934.932	4204.62
935.164	4149.62
935.395	4141.62
935.627	4135.62
935.859	4164.62
936.091	4086.62
936.323	4155.62
936.554	4140.62
936.786	4056.62
937.017	4008.62
937.249	4068.62
937.481	3973.62
937.712	4045.62
937.943	4005.62
938.175	3971.62
938.406	4011.62
938.637	4084.62
938.869	3978.62
939.1	3998.62
939.331	3954.62
939.562	3985.62
939.793	3941.62
940.024	3959.62
940.255	3984.62
940.486	3882.62
940.717	3930.62
940.948	3833.62
941.179	3863.62
941.409	3827.62
941.64	3771.62
941.871	3827.62
942.102	3804.62
942.332	3801.62
942.563	3851.62
942.793	3806.62
943.024	3787.62
943.254	3861.62
943.484	3851.62
943.715	3802.62
943.945	3818.62
944.175	3761.62
944.405	3726.62
944.636	3758.62
944.866	3824.62
945.096	3799.62
945.326	3711.62
945.556	3766.62
945.786	3759.62
946.016	3637.62
946.245	3617.62
946.475	3604.62
946.705	3630.62
946.935	3652.62
947.164	3596.62
947.394	3533.62
947.624	3545.62
947.853	3580.62
948.083	3547.62
948.312	3516.62
948.542	3466.62
948.771	3453.62
949	3490.62
949.23	3452.62
949.459	3496.62
949.688	3504.62
949.917	3434.62
950.146	3487.62
950.375	3544.62
950.604	3386.62
950.833	3515.62
951.062	3494.62
951.291	3430.62
951.52	3411.62
951.749	3432.62
951.978	3386.62
952.206	3395.62
952.435	3370.62
952.664	3361.62
952.892	3410.62
953.121	3364.62
953.349	3395.62
953.578	3402.62
953.806	3317.62
954.035	3251.62
954.263	3278.62
954.491	3251.62
954.719	3284.62
954.948	3204.62
955.176	3251.62
955.404	3135.62
955.632	3212.62
955.86	3197.62
956.088	3180.62
956.316	3218.62
956.544	3203.62
956.772	3139.62
956.999	3124.62
957.227	3168.62
957.455	3047.62
957.683	3081.62
957.91	3044.62
958.138	3048.62
958.365	3052.62
958.593	3013.62
958.82	2961.62
959.048	3083.62
959.275	3013.62
959.502	3005.62
959.73	2975.62
959.957	2972.62
960.184	3013.62
960.411	2957.62
960.638	3023.62
960.865	2951.62
961.092	2990.62
961.319	2891.62
961.546	2997.62
961.773	2933.62
962	2912.62
962.227	2981.62
962.454	2953.62
962.68	2902.62
962.907	2975.62
963.134	2871.62
963.36	2901.62
963.587	2938.62
963.813	2797.62
964.04	2861.62
964.266	2776.62
964.493	2832.62
964.719	2828.62
964.945	2816.62
965.171	2746.62
965.398	2795.62
965.624	2768.62
965.85	2708.62
966.076	2731.62
966.302	2736.62
966.528	2724.62
966.754	2716.62
966.98	2698.62
967.206	2692.62
967.431	2631.62
967.657	2704.62
967.883	2687.62
968.109	2670.62
968.334	2646.62
968.56	2613.62
968.785	2614.62
969.011	2554.62
969.236	2633.62
969.462	2574.62
969.687	2600.62
969.912	2641.62
970.138	2616.62
970.363	2532.62
970.588	2602.62
970.813	2542.62
971.038	2518.62
971.263	2564.62
971.488	2536.62
971.713	2551.62
971.938	2576.62
972.163	2477.62
972.388	2509.62
972.613	2478.62
972.838	2515.62
973.062	2468.62
973.287	2432.62
973.512	2401.62
973.736	2437.62
973.961	2382.62
974.185	2343.62
974.41	2413.62
974.634	2313.62
974.858	2326.62
975.083	2353.62
975.307	2368.62
975.531	2311.62
975.755	2240.62
975.98	2243.62
976.204	2240.62
976.428	2255.62
976.652	2256.62
976.876	2196.62
977.1	2238.62
977.324	2176.62
977.547	2254.62
977.771	2245.62
977.995	2229.62
978.219	2142.62
978.442	2276.62
978.666	2216.62
978.89	2196.62
979.113	2173.62
979.337	2167.62
979.56	2128.62
979.783	2246.62
980.007	2105.62
980.23	2116.62
980.453	2108.62
980.677	2157.62
980.9	2071.62
981.123	2004.62
981.346	2122.62
981.569	2110.62
981.792	2104.62
982.015	2066.62
982.238	2029.62
982.461	2053.62
982.684	2044.62
982.907	1975.62
983.129	1975.62
983.352	2050.62
983.575	2023.62
983.797	2025.62
984.02	1951.62
984.242	1975.62
984.465	1966.62
984.687	1989.62
984.91	1995.62
985.132	1980.62
985.354	1970.62
985.577	1949.62
985.799	1948.62
986.021	1871.62
986.243	1888.62
986.465	1913.62
986.687	1939.62
986.909	1965.62
987.131	1892.62
987.353	1906.62
987.575	1929.62
987.797	1896.62
988.019	1818.62
988.241	1867.62
988.462	1832.62
988.684	1863.62
988.906	1909.62
989.127	1950.62
989.349	1808.62
989.57	1844.62
989.792	1863.62
990.013	1896.62
990.234	1874.62
990.456	1907.62
990.677	1875.62
990.898	1822.62
991.119	1823.62
991.341	1849.62
991.562	1778.62
991.783	1831.62
992.004	1763.62
992.225	1739.62
992.446	1785.62
992.667	1703.62
992.887	1795.62
993.108	1694.62
993.329	1810.62
993.55	1772.62
993.77	1687.62
993.991	1698.62
994.212	1719.62
994.432	1699.62
994.653	1731.62
994.873	1688.62
995.093	1592.62
995.314	1658.62
995.534	1720.62
995.754	1714.62
995.975	1755.62
996.195	1613.62
996.415	1670.62
996.635	1644.62
996.855	1675.62
997.075	1648.62
997.295	1648.62
997.515	1644.62
997.735	1665.62
997.955	1638.62
998.174	1610.62
998.394	1617.62
998.614	1662.62
998.834	1614.62
999.053	1639.62
999.273	1627.62
999.492	1693.62
999.712	1635.62
999.931	1589.62
1000.151	1623.62
1000.37	1614.62
1000.589	1598.62
1000.809	1559.62
1001.028	1674.62
1001.247	1611.62
1001.466	1529.62
1001.685	1650.62
1001.904	1573.62
1002.123	1570.62
1002.342	1580.62
1002.561	1513.62
1002.78	1552.62
1002.999	1596.62
1003.218	1581.62
1003.436	1532.62
1003.655	1588.62
1003.874	1509.62
1004.092	1536.62
1004.311	1581.62
1004.53	1533.62
1004.748	1611.62
1004.966	1516.62
1005.185	1576.62
1005.403	1557.62
1005.622	1568.62
1005.84	1639.62
1006.058	1505.62
1006.276	1559.62
1006.494	2031.62
1006.712	1542.62
1006.931	1594.62
1007.149	1482.62
1007.367	1514.62
1007.584	1558.62
1007.802	1570.62
1008.02	1511.62
1008.238	1637.62
1008.456	1615.62
1008.673	1499.62
1008.891	1587.62
1009.109	1539.62
1009.326	1604.62
1009.544	1695.62
1009.761	1585.62
1009.979	1699.62
1010.196	1714.62
1010.413	1819.62
1010.631	1858.62
1010.848	1888.62
1011.065	1898.62
1011.282	1850.62
1011.5	1792.62
1011.717	1870.62
1011.934	1839.62
1012.151	1867.62
1012.368	1820.62
1012.585	1738.62
1012.801	1815.62
1013.018	1794.62
1013.235	1773.62
1013.452	1772.62
1013.669	1770.62
1013.885	1775.62
1014.102	1826.62
1014.318	1795.62
1014.535	1748.62
1014.751	1760.62
1014.968	1761.62
1015.184	1782.62
1015.401	1712.62
1015.617	1726.62
1015.833	1676.62
1016.049	1680.62
1016.266	1660.62
1016.482	1664.62
1016.698	1566.62
1016.914	1650.62
1017.13	1558.62
1017.346	1577.62
1017.562	1612.62
1017.778	1580.62
1017.993	1546.62
1018.209	1587.62
1018.425	1545.62
1018.641	1546.62
1018.856	1494.62
1019.072	1528.62
1019.288	1567.62
1019.503	1541.62
1019.719	1433.62
1019.934	1433.62
1020.149	1525.62
1020.365	1472.62
1020.58	1422.62
1020.795	1472.62
1021.011	1389.62
1021.226	1367.62
1021.441	1369.62
1021.656	1306.62
1021.871	1246.62
1022.086	1211.62
1022.301	1225.62
1022.516	1204.62
1022.731	1280.62
1022.946	1162.62
1023.16	1170.62
1023.375	1146.62
1023.59	1139.62
1023.804	1070.62
1024.019	1168.62
1024.234	1019.62
1024.448	1038.62
1024.663	995.62
1024.877	1014.62
1025.092	1026.62
1025.306	1014.62
1025.52	918.62
1025.734	1034.62
1025.949	917.62
1026.163	902.62
1026.377	857.62
1026.591	888.62
1026.805	835.62
1027.019	832.62
1027.233	766.62
1027.447	737.62
1027.661	830.62
1027.875	774.62
1028.088	779.62
1028.302	693.62
1028.516	706.62
1028.73	713.62
1028.943	681.62
1029.157	627.62
1029.37	609.62
1029.584	-2.38
1029.797	1.62
1030.011	-1.38
1030.224	-2.38
