Data from QEP037381__240__10-54-44-541.txt Node

Date: Wed Dec 21 10:54:44 EST 2022
User: dcclab
Spectrometer: QEP03738
Trigger mode: 4
Integration Time (sec): 1.000000E1
Scans to average: 1
Electric dark correction enabled: true
Nonlinearity correction enabled: false
Boxcar width: 0
XAxis mode: Wavelengths
Number of Pixels in Spectrum: 1044
>>>>>Begin Spectral Data<<<<<
784.041	14.5
784.3	-0.5
784.558	-4.5
784.817	-3.5
785.075	105545.5
785.334	18485.5
785.592	8708.5
785.851	5952.5
786.109	4465.5
786.368	3478.5
786.626	2785.5
786.884	2287.5
787.143	1934.5
787.401	1593.5
787.659	1430.5
787.917	1216.5
788.175	1100.5
788.433	968.5
788.691	864.5
788.949	795.5
789.207	759.5
789.465	669.5
789.723	636.5
789.98	577.5
790.238	619.5
790.496	588.5
790.753	546.5
791.011	594.5
791.268	538.5
791.526	508.5
791.783	526.5
792.041	519.5
792.298	431.5
792.556	474.5
792.813	467.5
793.07	458.5
793.327	426.5
793.584	509.5
793.841	434.5
794.099	457.5
794.356	494.5
794.613	408.5
794.869	446.5
795.126	403.5
795.383	388.5
795.64	403.5
795.897	367.5
796.153	429.5
796.41	410.5
796.667	384.5
796.923	395.5
797.18	404.5
797.436	427.5
797.693	393.5
797.949	433.5
798.206	455.5
798.462	368.5
798.718	424.5
798.974	411.5
799.231	432.5
799.487	424.5
799.743	421.5
799.999	451.5
800.255	438.5
800.511	430.5
800.767	452.5
801.023	438.5
801.279	472.5
801.534	511.5
801.79	515.5
802.046	509.5
802.302	608.5
802.557	643.5
802.813	746.5
803.068	868.5
803.324	1145.5
803.579	1465.5
803.835	1976.5
804.09	2728.5
804.345	3484.5
804.601	4393.5
804.856	5401.5
805.111	6177.5
805.366	6813.5
805.621	7211.5
805.876	7509.5
806.131	7694.5
806.386	7817.5
806.641	7885.5
806.896	8070.5
807.151	8261.5
807.406	8304.5
807.661	8509.5
807.915	8587.5
808.17	8737.5
808.425	8829.5
808.679	8880.5
808.934	9019.5
809.188	9046.5
809.443	9099.5
809.697	9259.5
809.951	9276.5
810.206	9312.5
810.46	9454.5
810.714	9535.5
810.968	9679.5
811.223	9646.5
811.477	9742.5
811.731	9807.5
811.985	9781.5
812.239	9742.5
812.493	9871.5
812.747	9961.5
813	9959.5
813.254	9933.5
813.508	10053.5
813.762	10113.5
814.015	10109.5
814.269	10217.5
814.522	10337.5
814.776	10429.5
815.03	10578.5
815.283	10692.5
815.536	10851.5
815.79	10958.5
816.043	11084.5
816.296	11219.5
816.55	11388.5
816.803	11488.5
817.056	11676.5
817.309	11710.5
817.562	11899.5
817.815	11931.5
818.068	12039.5
818.321	12113.5
818.574	12274.5
818.827	12495.5
819.079	12701.5
819.332	12911.5
819.585	13000.5
819.838	13155.5
820.09	13169.5
820.343	13361.5
820.595	13331.5
820.848	13439.5
821.1	13503.5
821.353	13465.5
821.605	13483.5
821.857	13516.5
822.11	13324.5
822.362	13332.5
822.614	13242.5
822.866	13379.5
823.118	13346.5
823.37	13444.5
823.622	13450.5
823.874	13489.5
824.126	13576.5
824.378	13557.5
824.63	13565.5
824.882	13632.5
825.134	13538.5
825.385	13527.5
825.637	13490.5
825.888	13472.5
826.14	13404.5
826.392	13282.5
826.643	13207.5
826.895	13200.5
827.146	13122.5
827.397	13140.5
827.649	13131.5
827.9	13081.5
828.151	13128.5
828.402	13114.5
828.653	13077.5
828.905	13157.5
829.156	13293.5
829.407	13186.5
829.658	13197.5
829.909	13278.5
830.159	13304.5
830.41	13179.5
830.661	13132.5
830.912	12981.5
831.162	13000.5
831.413	12947.5
831.664	13032.5
831.914	13030.5
832.165	12901.5
832.415	12907.5
832.666	12945.5
832.916	12904.5
833.167	12808.5
833.417	12959.5
833.667	12872.5
833.917	12826.5
834.168	12891.5
834.418	12761.5
834.668	12738.5
834.918	12703.5
835.168	12557.5
835.418	12538.5
835.668	12619.5
835.918	12624.5
836.167	12509.5
836.417	12474.5
836.667	12460.5
836.917	12399.5
837.166	12405.5
837.416	12372.5
837.666	12465.5
837.915	12423.5
838.165	12398.5
838.414	12280.5
838.663	12203.5
838.913	12231.5
839.162	12231.5
839.411	12267.5
839.661	12228.5
839.91	12204.5
840.159	12154.5
840.408	12239.5
840.657	12140.5
840.906	12229.5
841.155	12285.5
841.404	12165.5
841.653	12146.5
841.902	12186.5
842.15	12158.5
842.399	12242.5
842.648	12230.5
842.897	12145.5
843.145	12065.5
843.394	12027.5
843.642	11957.5
843.891	11894.5
844.139	11868.5
844.388	11757.5
844.636	11618.5
844.884	11658.5
845.133	11581.5
845.381	11605.5
845.629	11637.5
845.877	11610.5
846.125	11596.5
846.373	11593.5
846.621	11531.5
846.869	11552.5
847.117	11434.5
847.365	11343.5
847.613	11377.5
847.861	11355.5
848.108	11337.5
848.356	11388.5
848.604	11300.5
848.851	11344.5
849.099	11345.5
849.346	11391.5
849.594	11379.5
849.841	11544.5
850.089	11434.5
850.336	11426.5
850.583	11483.5
850.831	11458.5
851.078	11393.5
851.325	11282.5
851.572	11393.5
851.819	11219.5
852.066	11019.5
852.313	10858.5
852.56	10743.5
852.807	10757.5
853.054	10725.5
853.301	10671.5
853.548	10803.5
853.794	10844.5
854.041	10878.5
854.288	10924.5
854.534	11038.5
854.781	10945.5
855.028	10924.5
855.274	10926.5
855.52	10889.5
855.767	10797.5
856.013	10949.5
856.26	11109.5
856.506	10751.5
856.752	10749.5
856.998	10714.5
857.244	10704.5
857.49	10788.5
857.736	10816.5
857.982	10744.5
858.228	10799.5
858.474	10657.5
858.72	10582.5
858.966	10439.5
859.212	10414.5
859.458	10328.5
859.703	10193.5
859.949	10037.5
860.195	10045.5
860.44	9949.5
860.686	9951.5
860.931	9922.5
861.177	9837.5
861.422	9845.5
861.667	9796.5
861.913	9783.5
862.158	9745.5
862.403	9825.5
862.648	9813.5
862.893	9898.5
863.138	9826.5
863.384	9734.5
863.629	9789.5
863.873	9810.5
864.118	9771.5
864.363	9600.5
864.608	9626.5
864.853	9586.5
865.098	9531.5
865.342	9511.5
865.587	9444.5
865.832	9476.5
866.076	9434.5
866.321	9400.5
866.565	9387.5
866.81	9262.5
867.054	9297.5
867.298	9257.5
867.543	9335.5
867.787	9279.5
868.031	9224.5
868.275	9239.5
868.519	9159.5
868.764	9253.5
869.008	9206.5
869.252	9262.5
869.496	9133.5
869.739	9203.5
869.983	9246.5
870.227	9228.5
870.471	9205.5
870.715	9251.5
870.958	9269.5
871.202	9254.5
871.446	9242.5
871.689	9240.5
871.933	9252.5
872.176	9234.5
872.42	9223.5
872.663	9194.5
872.906	9166.5
873.15	9217.5
873.393	9148.5
873.636	9250.5
873.879	9116.5
874.122	9030.5
874.366	8839.5
874.609	8856.5
874.852	8626.5
875.095	8625.5
875.337	8581.5
875.58	8522.5
875.823	8466.5
876.066	8517.5
876.309	8490.5
876.551	8381.5
876.794	8328.5
877.037	8416.5
877.279	8314.5
877.522	8309.5
877.764	8262.5
878.007	8269.5
878.249	8319.5
878.491	8247.5
878.734	8305.5
878.976	8208.5
879.218	8101.5
879.46	8178.5
879.702	8112.5
879.945	8042.5
880.187	7894.5
880.429	7838.5
880.671	7829.5
880.912	7827.5
881.154	7806.5
881.396	7738.5
881.638	7767.5
881.88	7738.5
882.121	7682.5
882.363	7732.5
882.605	7790.5
882.846	7758.5
883.088	7727.5
883.329	7750.5
883.571	7793.5
883.812	7875.5
884.053	8068.5
884.295	8269.5
884.536	8406.5
884.777	8406.5
885.018	8281.5
885.259	8227.5
885.5	8112.5
885.742	8363.5
885.982	8100.5
886.223	7978.5
886.464	7923.5
886.705	7820.5
886.946	7702.5
887.187	7552.5
887.428	7539.5
887.668	7313.5
887.909	7256.5
888.15	7136.5
888.39	7144.5
888.631	7110.5
888.871	7055.5
889.111	6952.5
889.352	6952.5
889.592	6844.5
889.833	6833.5
890.073	6736.5
890.313	6767.5
890.553	6601.5
890.793	6602.5
891.033	6625.5
891.273	6535.5
891.513	6530.5
891.753	6552.5
891.993	6544.5
892.233	6535.5
892.473	6631.5
892.713	6492.5
892.952	6500.5
893.192	6583.5
893.432	6508.5
893.671	6561.5
893.911	6481.5
894.15	6448.5
894.39	6379.5
894.629	6354.5
894.869	6363.5
895.108	6258.5
895.347	6218.5
895.587	6278.5
895.826	6244.5
896.065	6164.5
896.304	6171.5
896.543	6197.5
896.782	6096.5
897.021	6140.5
897.26	6096.5
897.499	6196.5
897.738	6212.5
897.977	6087.5
898.216	6004.5
898.454	5977.5
898.693	5897.5
898.932	5962.5
899.17	5874.5
899.409	5925.5
899.647	5876.5
899.886	5846.5
900.124	5924.5
900.363	5810.5
900.601	5899.5
900.839	5904.5
901.078	5955.5
901.316	5972.5
901.554	5955.5
901.792	5991.5
902.03	5976.5
902.268	6014.5
902.506	6035.5
902.744	5961.5
902.982	6000.5
903.22	5779.5
903.458	5763.5
903.695	5643.5
903.933	5564.5
904.171	5485.5
904.409	5403.5
904.646	5334.5
904.884	5247.5
905.121	5250.5
905.359	5203.5
905.596	5120.5
905.833	5033.5
906.071	5049.5
906.308	5091.5
906.545	5026.5
906.783	4953.5
907.02	5031.5
907.257	4949.5
907.494	4963.5
907.731	4954.5
907.968	4946.5
908.205	4911.5
908.442	4864.5
908.679	4911.5
908.915	4822.5
909.152	4809.5
909.389	4665.5
909.626	4743.5
909.862	4639.5
910.099	4689.5
910.335	4710.5
910.572	4620.5
910.808	4579.5
911.045	4578.5
911.281	4553.5
911.518	4653.5
911.754	4505.5
911.99	4514.5
912.226	4498.5
912.463	4406.5
912.699	4443.5
912.935	4342.5
913.171	4366.5
913.407	4313.5
913.643	4312.5
913.879	4268.5
914.114	4273.5
914.35	4145.5
914.586	4115.5
914.822	4071.5
915.057	4149.5
915.293	4019.5
915.529	4019.5
915.764	4036.5
916	4080.5
916.235	4021.5
916.471	4076.5
916.706	3946.5
916.941	3944.5
917.177	3980.5
917.412	4011.5
917.647	4020.5
917.882	3966.5
918.117	3997.5
918.352	3939.5
918.588	3999.5
918.823	3897.5
919.057	3891.5
919.292	3766.5
919.527	3842.5
919.762	3771.5
919.997	3829.5
920.232	3707.5
920.466	3696.5
920.701	3563.5
920.935	3630.5
921.17	3606.5
921.405	3545.5
921.639	3645.5
921.873	3508.5
922.108	3553.5
922.342	3523.5
922.576	3521.5
922.811	3463.5
923.045	3573.5
923.279	3545.5
923.513	3416.5
923.747	3509.5
923.981	3444.5
924.215	3380.5
924.449	3382.5
924.683	3346.5
924.917	3355.5
925.151	3334.5
925.385	3411.5
925.618	3277.5
925.852	3374.5
926.086	3277.5
926.319	3328.5
926.553	3280.5
926.786	3305.5
927.02	3256.5
927.253	3261.5
927.486	3344.5
927.72	3264.5
927.953	3315.5
928.186	3263.5
928.42	3300.5
928.653	3220.5
928.886	3204.5
929.119	3214.5
929.352	3198.5
929.585	3171.5
929.818	3150.5
930.051	3178.5
930.284	3118.5
930.516	3048.5
930.749	3042.5
930.982	3072.5
931.215	3049.5
931.447	2992.5
931.68	3020.5
931.912	3046.5
932.145	2997.5
932.377	3009.5
932.61	3138.5
932.842	2966.5
933.074	3007.5
933.307	2975.5
933.539	3034.5
933.771	3042.5
934.003	2982.5
934.236	3060.5
934.468	3022.5
934.7	3003.5
934.932	3008.5
935.164	2956.5
935.395	2933.5
935.627	2954.5
935.859	2955.5
936.091	2860.5
936.323	2964.5
936.554	2983.5
936.786	2942.5
937.017	2840.5
937.249	2879.5
937.481	2830.5
937.712	2891.5
937.943	2855.5
938.175	2840.5
938.406	2851.5
938.637	2893.5
938.869	2815.5
939.1	2887.5
939.331	2850.5
939.562	2823.5
939.793	2829.5
940.024	2848.5
940.255	2881.5
940.486	2761.5
940.717	2777.5
940.948	2764.5
941.179	2728.5
941.409	2763.5
941.64	2728.5
941.871	2752.5
942.102	2748.5
942.332	2753.5
942.563	2763.5
942.793	2767.5
943.024	2697.5
943.254	2750.5
943.484	2771.5
943.715	2779.5
943.945	2749.5
944.175	2704.5
944.405	2677.5
944.636	2708.5
944.866	2730.5
945.096	2736.5
945.326	2623.5
945.556	2699.5
945.786	2689.5
946.016	2700.5
946.245	2607.5
946.475	2657.5
946.705	2607.5
946.935	2614.5
947.164	2625.5
947.394	2575.5
947.624	2526.5
947.853	2641.5
948.083	2583.5
948.312	2575.5
948.542	2490.5
948.771	2458.5
949	2489.5
949.23	2514.5
949.459	2524.5
949.688	2576.5
949.917	2491.5
950.146	2493.5
950.375	2565.5
950.604	2455.5
950.833	2541.5
951.062	2522.5
951.291	2481.5
951.52	2476.5
951.749	2472.5
951.978	2414.5
952.206	2443.5
952.435	2429.5
952.664	2472.5
952.892	2469.5
953.121	2456.5
953.349	2507.5
953.578	2443.5
953.806	2411.5
954.035	2357.5
954.263	2434.5
954.491	2363.5
954.719	2413.5
954.948	2365.5
955.176	2370.5
955.404	2266.5
955.632	2350.5
955.86	2359.5
956.088	2321.5
956.316	2321.5
956.544	2346.5
956.772	2302.5
956.999	2296.5
957.227	2353.5
957.455	2258.5
957.683	2239.5
957.91	2245.5
958.138	2206.5
958.365	2200.5
958.593	2217.5
958.82	2160.5
959.048	2239.5
959.275	2170.5
959.502	2198.5
959.73	2160.5
959.957	2192.5
960.184	2242.5
960.411	2127.5
960.638	2228.5
960.865	2185.5
961.092	2184.5
961.319	2112.5
961.546	2210.5
961.773	2201.5
962	2173.5
962.227	2234.5
962.454	2165.5
962.68	2130.5
962.907	2178.5
963.134	2134.5
963.36	2132.5
963.587	2131.5
963.813	2082.5
964.04	2125.5
964.266	2042.5
964.493	2134.5
964.719	2125.5
964.945	2106.5
965.171	1985.5
965.398	2083.5
965.624	2092.5
965.85	2033.5
966.076	1993.5
966.302	2055.5
966.528	2030.5
966.754	2049.5
966.98	2053.5
967.206	2029.5
967.431	1964.5
967.657	2046.5
967.883	2016.5
968.109	1982.5
968.334	1935.5
968.56	1959.5
968.785	1972.5
969.011	1938.5
969.236	1968.5
969.462	1913.5
969.687	1934.5
969.912	1997.5
970.138	2002.5
970.363	1882.5
970.588	1942.5
970.813	1919.5
971.038	1887.5
971.263	1938.5
971.488	1907.5
971.713	1927.5
971.938	1924.5
972.163	1823.5
972.388	1852.5
972.613	1844.5
972.838	1888.5
973.062	1830.5
973.287	1840.5
973.512	1785.5
973.736	1810.5
973.961	1818.5
974.185	1780.5
974.41	1806.5
974.634	1721.5
974.858	1736.5
975.083	1772.5
975.307	1786.5
975.531	1726.5
975.755	1670.5
975.98	1703.5
976.204	1666.5
976.428	1644.5
976.652	1682.5
976.876	1648.5
977.1	1673.5
977.324	1662.5
977.547	1712.5
977.771	1683.5
977.995	1685.5
978.219	1610.5
978.442	1725.5
978.666	1666.5
978.89	1672.5
979.113	1672.5
979.337	1654.5
979.56	1629.5
979.783	1674.5
980.007	1598.5
980.23	1640.5
980.453	1607.5
980.677	1615.5
980.9	1612.5
981.123	1537.5
981.346	1641.5
981.569	1592.5
981.792	1626.5
982.015	1598.5
982.238	1534.5
982.461	1587.5
982.684	1539.5
982.907	1518.5
983.129	1495.5
983.352	1579.5
983.575	1534.5
983.797	1559.5
984.02	1514.5
984.242	1515.5
984.465	1518.5
984.687	1527.5
984.91	1570.5
985.132	1544.5
985.354	1567.5
985.577	1509.5
985.799	1492.5
986.021	1430.5
986.243	1460.5
986.465	1489.5
986.687	1505.5
986.909	1557.5
987.131	1512.5
987.353	1462.5
987.575	1501.5
987.797	1481.5
988.019	1432.5
988.241	1479.5
988.462	1421.5
988.684	1470.5
988.906	1533.5
989.127	1509.5
989.349	1421.5
989.57	1459.5
989.792	1515.5
990.013	1479.5
990.234	1502.5
990.456	1530.5
990.677	1482.5
990.898	1439.5
991.119	1434.5
991.341	1461.5
991.562	1366.5
991.783	1452.5
992.004	1373.5
992.225	1362.5
992.446	1405.5
992.667	1347.5
992.887	1428.5
993.108	1322.5
993.329	1459.5
993.55	1391.5
993.77	1340.5
993.991	1356.5
994.212	1375.5
994.432	1347.5
994.653	1385.5
994.873	1355.5
995.093	1279.5
995.314	1320.5
995.534	1379.5
995.754	1407.5
995.975	1424.5
996.195	1292.5
996.415	1335.5
996.635	1336.5
996.855	1356.5
997.075	1322.5
997.295	1321.5
997.515	1319.5
997.735	1347.5
997.955	1317.5
998.174	1301.5
998.394	1286.5
998.614	1345.5
998.834	1296.5
999.053	1367.5
999.273	1313.5
999.492	1373.5
999.712	1335.5
999.931	1276.5
1000.151	1336.5
1000.37	1311.5
1000.589	1387.5
1000.809	1292.5
1001.028	1395.5
1001.247	1344.5
1001.466	1272.5
1001.685	1367.5
1001.904	1326.5
1002.123	1301.5
1002.342	1316.5
1002.561	1254.5
1002.78	1290.5
1002.999	1334.5
1003.218	1281.5
1003.436	1295.5
1003.655	1336.5
1003.874	1272.5
1004.092	1274.5
1004.311	1336.5
1004.53	1285.5
1004.748	1350.5
1004.966	1291.5
1005.185	1361.5
1005.403	1332.5
1005.622	1298.5
1005.84	1388.5
1006.058	1291.5
1006.276	1327.5
1006.494	1808.5
1006.712	1284.5
1006.931	1328.5
1007.149	1258.5
1007.367	1276.5
1007.584	1314.5
1007.802	1322.5
1008.02	1278.5
1008.238	1388.5
1008.456	1388.5
1008.673	1268.5
1008.891	1367.5
1009.109	1316.5
1009.326	1365.5
1009.544	1477.5
1009.761	1355.5
1009.979	1481.5
1010.196	1493.5
1010.413	1567.5
1010.631	1617.5
1010.848	1658.5
1011.065	1643.5
1011.282	1604.5
1011.5	1582.5
1011.717	1666.5
1011.934	1581.5
1012.151	1650.5
1012.368	1617.5
1012.585	1549.5
1012.801	1585.5
1013.018	1583.5
1013.235	1535.5
1013.452	1564.5
1013.669	1586.5
1013.885	1552.5
1014.102	1611.5
1014.318	1563.5
1014.535	1517.5
1014.751	1558.5
1014.968	1544.5
1015.184	1612.5
1015.401	1495.5
1015.617	1543.5
1015.833	1475.5
1016.049	1479.5
1016.266	1471.5
1016.482	1471.5
1016.698	1411.5
1016.914	1426.5
1017.13	1389.5
1017.346	1382.5
1017.562	1457.5
1017.778	1407.5
1017.993	1332.5
1018.209	1411.5
1018.425	1378.5
1018.641	1346.5
1018.856	1297.5
1019.072	1342.5
1019.288	1368.5
1019.503	1330.5
1019.719	1281.5
1019.934	1277.5
1020.149	1373.5
1020.365	1294.5
1020.58	1236.5
1020.795	1295.5
1021.011	1209.5
1021.226	1189.5
1021.441	1223.5
1021.656	1149.5
1021.871	1086.5
1022.086	1081.5
1022.301	1064.5
1022.516	1063.5
1022.731	1123.5
1022.946	1042.5
1023.16	999.5
1023.375	988.5
1023.59	972.5
1023.804	932.5
1024.019	1041.5
1024.234	926.5
1024.448	952.5
1024.663	869.5
1024.877	900.5
1025.092	903.5
1025.306	914.5
1025.52	824.5
1025.734	892.5
1025.949	826.5
1026.163	800.5
1026.377	741.5
1026.591	803.5
1026.805	753.5
1027.019	719.5
1027.233	670.5
1027.447	627.5
1027.661	734.5
1027.875	675.5
1028.088	695.5
1028.302	617.5
1028.516	619.5
1028.73	605.5
1028.943	606.5
1029.157	566.5
1029.37	520.5
1029.584	-1.5
1029.797	-2.5
1030.011	-3.5
1030.224	1.5
