Data from QEP037381__236__10-54-04-541.txt Node

Date: Wed Dec 21 10:54:04 EST 2022
User: dcclab
Spectrometer: QEP03738
Trigger mode: 4
Integration Time (sec): 1.000000E1
Scans to average: 1
Electric dark correction enabled: true
Nonlinearity correction enabled: false
Boxcar width: 0
XAxis mode: Wavelengths
Number of Pixels in Spectrum: 1044
>>>>>Begin Spectral Data<<<<<
784.041	9.75
784.3	0.75
784.558	-0.25
784.817	-3.25
785.075	105078.75
785.334	17879.75
785.592	8202.75
785.851	5636.75
786.109	4234.75
786.368	3255.75
786.626	2630.75
786.884	2197.75
787.143	1866.75
787.401	1533.75
787.659	1369.75
787.917	1177.75
788.175	1095.75
788.433	952.75
788.691	869.75
788.949	799.75
789.207	774.75
789.465	667.75
789.723	645.75
789.98	589.75
790.238	609.75
790.496	589.75
790.753	558.75
791.011	602.75
791.268	529.75
791.526	497.75
791.783	526.75
792.041	535.75
792.298	442.75
792.556	492.75
792.813	476.75
793.07	450.75
793.327	429.75
793.584	515.75
793.841	429.75
794.099	446.75
794.356	513.75
794.613	412.75
794.869	445.75
795.126	413.75
795.383	392.75
795.64	412.75
795.897	370.75
796.153	412.75
796.41	421.75
796.667	394.75
796.923	416.75
797.18	412.75
797.436	423.75
797.693	397.75
797.949	446.75
798.206	467.75
798.462	389.75
798.718	447.75
798.974	409.75
799.231	447.75
799.487	436.75
799.743	447.75
799.999	480.75
800.255	450.75
800.511	444.75
800.767	502.75
801.023	462.75
801.279	482.75
801.534	531.75
801.79	559.75
802.046	559.75
802.302	666.75
802.557	716.75
802.813	863.75
803.068	993.75
803.324	1386.75
803.579	1808.75
803.835	2431.75
804.09	3361.75
804.345	4394.75
804.601	5558.75
804.856	6815.75
805.111	7853.75
805.366	8628.75
805.621	9275.75
805.876	9598.75
806.131	9885.75
806.386	10085.75
806.641	10318.75
806.896	10361.75
807.151	10647.75
807.406	10745.75
807.661	10970.75
807.915	11119.75
808.17	11286.75
808.425	11347.75
808.679	11489.75
808.934	11642.75
809.188	11677.75
809.443	11865.75
809.697	11900.75
809.951	12067.75
810.206	12081.75
810.46	12213.75
810.714	12346.75
810.968	12510.75
811.223	12521.75
811.477	12617.75
811.731	12779.75
811.985	12736.75
812.239	12735.75
812.493	12947.75
812.747	12917.75
813	12865.75
813.254	13050.75
813.508	13059.75
813.762	13108.75
814.015	13139.75
814.269	13232.75
814.522	13343.75
814.776	13572.75
815.03	13711.75
815.283	13768.75
815.536	14115.75
815.79	14293.75
816.043	14578.75
816.296	14649.75
816.55	14880.75
816.803	15067.75
817.056	15370.75
817.309	15358.75
817.562	15506.75
817.815	15742.75
818.068	15841.75
818.321	15901.75
818.574	16090.75
818.827	16317.75
819.079	16558.75
819.332	16937.75
819.585	16953.75
819.838	17280.75
820.09	17300.75
820.343	17396.75
820.595	17545.75
820.848	17522.75
821.1	17645.75
821.353	17680.75
821.605	17550.75
821.857	17656.75
822.11	17539.75
822.362	17421.75
822.614	17431.75
822.866	17540.75
823.118	17425.75
823.37	17565.75
823.622	17625.75
823.874	17621.75
824.126	17785.75
824.378	17773.75
824.63	17772.75
824.882	17846.75
825.134	17770.75
825.385	17604.75
825.637	17571.75
825.888	17555.75
826.14	17520.75
826.392	17416.75
826.643	17406.75
826.895	17302.75
827.146	17165.75
827.397	17113.75
827.649	17276.75
827.9	17092.75
828.151	17200.75
828.402	17251.75
828.653	17335.75
828.905	17392.75
829.156	17386.75
829.407	17270.75
829.658	17336.75
829.909	17280.75
830.159	17400.75
830.41	17347.75
830.661	17196.75
830.912	17105.75
831.162	16931.75
831.413	17084.75
831.664	17065.75
831.914	16986.75
832.165	16915.75
832.415	16931.75
832.666	16940.75
832.916	16987.75
833.167	16924.75
833.417	16977.75
833.667	16872.75
833.917	16801.75
834.168	16759.75
834.418	16768.75
834.668	16663.75
834.918	16487.75
835.168	16460.75
835.418	16349.75
835.668	16385.75
835.918	16365.75
836.167	16237.75
836.417	16227.75
836.667	16343.75
836.917	16236.75
837.166	16215.75
837.416	16231.75
837.666	16279.75
837.915	16164.75
838.165	16155.75
838.414	16082.75
838.663	15999.75
838.913	16040.75
839.162	16013.75
839.411	16034.75
839.661	16010.75
839.91	15882.75
840.159	15882.75
840.408	15911.75
840.657	15936.75
840.906	15936.75
841.155	15905.75
841.404	15963.75
841.653	16019.75
841.902	15839.75
842.15	16016.75
842.399	15955.75
842.648	15888.75
842.897	15926.75
843.145	15815.75
843.394	15634.75
843.642	15620.75
843.891	15491.75
844.139	15456.75
844.388	15349.75
844.636	15225.75
844.884	15247.75
845.133	15240.75
845.381	15144.75
845.629	15310.75
845.877	15212.75
846.125	15273.75
846.373	15140.75
846.621	15067.75
846.869	15048.75
847.117	14985.75
847.365	14862.75
847.613	14811.75
847.861	14847.75
848.108	14711.75
848.356	14770.75
848.604	14769.75
848.851	14735.75
849.099	14779.75
849.346	14781.75
849.594	14901.75
849.841	14899.75
850.089	14921.75
850.336	15026.75
850.583	15033.75
850.831	14899.75
851.078	14828.75
851.325	14719.75
851.572	14804.75
851.819	14695.75
852.066	14344.75
852.313	14127.75
852.56	14088.75
852.807	13940.75
853.054	13962.75
853.301	13936.75
853.548	14018.75
853.794	14076.75
854.041	14179.75
854.288	14079.75
854.534	14271.75
854.781	14222.75
855.028	14138.75
855.274	14261.75
855.52	14139.75
855.767	14056.75
856.013	14111.75
856.26	14353.75
856.506	13972.75
856.752	13896.75
856.998	13908.75
857.244	13899.75
857.49	14010.75
857.736	14035.75
857.982	14085.75
858.228	13963.75
858.474	13842.75
858.72	13856.75
858.966	13612.75
859.212	13529.75
859.458	13384.75
859.703	13157.75
859.949	13135.75
860.195	12981.75
860.44	13006.75
860.686	12915.75
860.931	12855.75
861.177	12778.75
861.422	12785.75
861.667	12646.75
861.913	12694.75
862.158	12644.75
862.403	12696.75
862.648	12682.75
862.893	12723.75
863.138	12659.75
863.384	12638.75
863.629	12643.75
863.873	12686.75
864.118	12642.75
864.363	12466.75
864.608	12543.75
864.853	12417.75
865.098	12327.75
865.342	12336.75
865.587	12201.75
865.832	12196.75
866.076	12252.75
866.321	12157.75
866.565	12174.75
866.81	11954.75
867.054	12109.75
867.298	12023.75
867.543	11972.75
867.787	11993.75
868.031	11976.75
868.275	11953.75
868.519	11905.75
868.764	11960.75
869.008	11890.75
869.252	11926.75
869.496	11800.75
869.739	11824.75
869.983	11864.75
870.227	11867.75
870.471	11847.75
870.715	11902.75
870.958	12007.75
871.202	11933.75
871.446	11982.75
871.689	11995.75
871.933	11949.75
872.176	11954.75
872.42	11918.75
872.663	11918.75
872.906	11904.75
873.15	11870.75
873.393	11800.75
873.636	11867.75
873.879	11810.75
874.122	11625.75
874.366	11458.75
874.609	11328.75
874.852	11181.75
875.095	11097.75
875.337	11073.75
875.58	11000.75
875.823	11028.75
876.066	10973.75
876.309	10910.75
876.551	10825.75
876.794	10737.75
877.037	10843.75
877.279	10728.75
877.522	10809.75
877.764	10727.75
878.007	10653.75
878.249	10711.75
878.491	10639.75
878.734	10663.75
878.976	10631.75
879.218	10513.75
879.46	10496.75
879.702	10394.75
879.945	10351.75
880.187	10111.75
880.429	10117.75
880.671	10036.75
880.912	10047.75
881.154	9982.75
881.396	9930.75
881.638	9983.75
881.88	10053.75
882.121	9969.75
882.363	9910.75
882.605	9948.75
882.846	9931.75
883.088	9909.75
883.329	9943.75
883.571	9952.75
883.812	10088.75
884.053	10320.75
884.295	10551.75
884.536	10812.75
884.777	10655.75
885.018	10504.75
885.259	10515.75
885.5	10399.75
885.742	10599.75
885.982	10347.75
886.223	10190.75
886.464	10233.75
886.705	10006.75
886.946	9888.75
887.187	9699.75
887.428	9704.75
887.668	9456.75
887.909	9297.75
888.15	9167.75
888.39	9156.75
888.631	9118.75
888.871	9022.75
889.111	8937.75
889.352	8874.75
889.592	8693.75
889.833	8693.75
890.073	8609.75
890.313	8609.75
890.553	8486.75
890.793	8447.75
891.033	8449.75
891.273	8361.75
891.513	8430.75
891.753	8405.75
891.993	8420.75
892.233	8359.75
892.473	8424.75
892.713	8357.75
892.952	8351.75
893.192	8398.75
893.432	8270.75
893.671	8344.75
893.911	8271.75
894.15	8271.75
894.39	8158.75
894.629	8140.75
894.869	8047.75
895.108	8087.75
895.347	7972.75
895.587	8031.75
895.826	7972.75
896.065	7912.75
896.304	7920.75
896.543	7972.75
896.782	7818.75
897.021	7814.75
897.26	7822.75
897.499	7869.75
897.738	7835.75
897.977	7810.75
898.216	7736.75
898.454	7727.75
898.693	7612.75
898.932	7655.75
899.17	7578.75
899.409	7562.75
899.647	7484.75
899.886	7438.75
900.124	7437.75
900.363	7436.75
900.601	7551.75
900.839	7519.75
901.078	7618.75
901.316	7592.75
901.554	7669.75
901.792	7614.75
902.03	7576.75
902.268	7659.75
902.506	7655.75
902.744	7640.75
902.982	7610.75
903.22	7450.75
903.458	7341.75
903.695	7268.75
903.933	7117.75
904.171	6977.75
904.409	6860.75
904.646	6811.75
904.884	6759.75
905.121	6715.75
905.359	6623.75
905.596	6593.75
905.833	6504.75
906.071	6457.75
906.308	6459.75
906.545	6420.75
906.783	6338.75
907.02	6393.75
907.257	6314.75
907.494	6357.75
907.731	6295.75
907.968	6339.75
908.205	6199.75
908.442	6196.75
908.679	6197.75
908.915	6153.75
909.152	6069.75
909.389	5966.75
909.626	5989.75
909.862	5984.75
910.099	5953.75
910.335	5973.75
910.572	5832.75
910.808	5831.75
911.045	5793.75
911.281	5775.75
911.518	5820.75
911.754	5787.75
911.99	5752.75
912.226	5703.75
912.463	5644.75
912.699	5640.75
912.935	5578.75
913.171	5501.75
913.407	5511.75
913.643	5471.75
913.879	5415.75
914.114	5352.75
914.35	5296.75
914.586	5236.75
914.822	5190.75
915.057	5262.75
915.293	5078.75
915.529	5067.75
915.764	5182.75
916	5150.75
916.235	5091.75
916.471	5129.75
916.706	5069.75
916.941	5046.75
917.177	5038.75
917.412	5052.75
917.647	5033.75
917.882	5003.75
918.117	5077.75
918.352	5003.75
918.588	4985.75
918.823	4907.75
919.057	4905.75
919.292	4772.75
919.527	4891.75
919.762	4738.75
919.997	4759.75
920.232	4686.75
920.466	4707.75
920.701	4506.75
920.935	4611.75
921.17	4529.75
921.405	4504.75
921.639	4580.75
921.873	4485.75
922.108	4516.75
922.342	4479.75
922.576	4401.75
922.811	4383.75
923.045	4461.75
923.279	4462.75
923.513	4328.75
923.747	4439.75
923.981	4351.75
924.215	4255.75
924.449	4285.75
924.683	4219.75
924.917	4250.75
925.151	4146.75
925.385	4222.75
925.618	4172.75
925.852	4129.75
926.086	4105.75
926.319	4131.75
926.553	4112.75
926.786	4170.75
927.02	4116.75
927.253	4227.75
927.486	4141.75
927.72	4101.75
927.953	4123.75
928.186	4053.75
928.42	4126.75
928.653	4024.75
928.886	4010.75
929.119	4058.75
929.352	3992.75
929.585	3995.75
929.818	3929.75
930.051	3982.75
930.284	3934.75
930.516	3821.75
930.749	3856.75
930.982	3836.75
931.215	3813.75
931.447	3777.75
931.68	3784.75
931.912	3736.75
932.145	3757.75
932.377	3771.75
932.61	3859.75
932.842	3693.75
933.074	3742.75
933.307	3721.75
933.539	3826.75
933.771	3832.75
934.003	3739.75
934.236	3804.75
934.468	3809.75
934.7	3723.75
934.932	3766.75
935.164	3664.75
935.395	3671.75
935.627	3716.75
935.859	3656.75
936.091	3630.75
936.323	3687.75
936.554	3671.75
936.786	3634.75
937.017	3552.75
937.249	3612.75
937.481	3522.75
937.712	3640.75
937.943	3559.75
938.175	3564.75
938.406	3557.75
938.637	3599.75
938.869	3522.75
939.1	3559.75
939.331	3529.75
939.562	3527.75
939.793	3511.75
940.024	3520.75
940.255	3525.75
940.486	3456.75
940.717	3467.75
940.948	3437.75
941.179	3386.75
941.409	3437.75
941.64	3373.75
941.871	3390.75
942.102	3394.75
942.332	3393.75
942.563	3426.75
942.793	3382.75
943.024	3371.75
943.254	3416.75
943.484	3402.75
943.715	3443.75
943.945	3424.75
944.175	3313.75
944.405	3322.75
944.636	3386.75
944.866	3384.75
945.096	3355.75
945.326	3272.75
945.556	3327.75
945.786	3379.75
946.016	3299.75
946.245	3248.75
946.475	3270.75
946.705	3218.75
946.935	3249.75
947.164	3231.75
947.394	3163.75
947.624	3193.75
947.853	3214.75
948.083	3138.75
948.312	3112.75
948.542	3112.75
948.771	3057.75
949	3098.75
949.23	3112.75
949.459	3119.75
949.688	3141.75
949.917	3073.75
950.146	3085.75
950.375	3154.75
950.604	3081.75
950.833	3102.75
951.062	3131.75
951.291	3087.75
951.52	3052.75
951.749	3097.75
951.978	3013.75
952.206	3050.75
952.435	2992.75
952.664	3082.75
952.892	3047.75
953.121	3019.75
953.349	3021.75
953.578	3016.75
953.806	3008.75
954.035	2950.75
954.263	2971.75
954.491	2880.75
954.719	2913.75
954.948	2890.75
955.176	2856.75
955.404	2835.75
955.632	2909.75
955.86	2879.75
956.088	2853.75
956.316	2826.75
956.544	2874.75
956.772	2780.75
956.999	2777.75
957.227	2888.75
957.455	2775.75
957.683	2778.75
957.91	2724.75
958.138	2728.75
958.365	2741.75
958.593	2712.75
958.82	2666.75
959.048	2772.75
959.275	2716.75
959.502	2714.75
959.73	2625.75
959.957	2703.75
960.184	2691.75
960.411	2649.75
960.638	2703.75
960.865	2670.75
961.092	2680.75
961.319	2591.75
961.546	2679.75
961.773	2705.75
962	2664.75
962.227	2673.75
962.454	2624.75
962.68	2616.75
962.907	2659.75
963.134	2593.75
963.36	2589.75
963.587	2607.75
963.813	2541.75
964.04	2615.75
964.266	2533.75
964.493	2599.75
964.719	2558.75
964.945	2552.75
965.171	2472.75
965.398	2507.75
965.624	2518.75
965.85	2439.75
966.076	2410.75
966.302	2452.75
966.528	2419.75
966.754	2486.75
966.98	2458.75
967.206	2431.75
967.431	2380.75
967.657	2457.75
967.883	2463.75
968.109	2413.75
968.334	2375.75
968.56	2361.75
968.785	2411.75
969.011	2317.75
969.236	2422.75
969.462	2293.75
969.687	2335.75
969.912	2372.75
970.138	2373.75
970.363	2285.75
970.588	2323.75
970.813	2278.75
971.038	2283.75
971.263	2323.75
971.488	2320.75
971.713	2372.75
971.938	2316.75
972.163	2202.75
972.388	2250.75
972.613	2223.75
972.838	2231.75
973.062	2182.75
973.287	2206.75
973.512	2176.75
973.736	2193.75
973.961	2186.75
974.185	2167.75
974.41	2212.75
974.634	2098.75
974.858	2114.75
975.083	2142.75
975.307	2147.75
975.531	2101.75
975.755	2030.75
975.98	2047.75
976.204	1994.75
976.428	1989.75
976.652	2033.75
976.876	1989.75
977.1	2024.75
977.324	2004.75
977.547	2025.75
977.771	2042.75
977.995	1986.75
978.219	1948.75
978.442	2055.75
978.666	1975.75
978.89	1998.75
979.113	2008.75
979.337	1964.75
979.56	1964.75
979.783	2027.75
980.007	1916.75
980.23	1949.75
980.453	1924.75
980.677	1953.75
980.9	1909.75
981.123	1847.75
981.346	1903.75
981.569	1929.75
981.792	1940.75
982.015	1895.75
982.238	1855.75
982.461	1844.75
982.684	1840.75
982.907	1829.75
983.129	1848.75
983.352	1846.75
983.575	1804.75
983.797	1843.75
984.02	1795.75
984.242	1780.75
984.465	1803.75
984.687	1842.75
984.91	1846.75
985.132	1818.75
985.354	1852.75
985.577	1808.75
985.799	1771.75
986.021	1703.75
986.243	1733.75
986.465	1741.75
986.687	1780.75
986.909	1829.75
987.131	1782.75
987.353	1739.75
987.575	1753.75
987.797	1710.75
988.019	1654.75
988.241	1733.75
988.462	1656.75
988.684	1717.75
988.906	1788.75
989.127	1794.75
989.349	1657.75
989.57	1705.75
989.792	1731.75
990.013	1733.75
990.234	1726.75
990.456	1771.75
990.677	1752.75
990.898	1667.75
991.119	1651.75
991.341	1704.75
991.562	1656.75
991.783	1688.75
992.004	1612.75
992.225	1576.75
992.446	1661.75
992.667	1556.75
992.887	1678.75
993.108	1551.75
993.329	1665.75
993.55	1618.75
993.77	1564.75
993.991	1558.75
994.212	1586.75
994.432	1585.75
994.653	1609.75
994.873	1590.75
995.093	1480.75
995.314	1530.75
995.534	1600.75
995.754	1603.75
995.975	1624.75
996.195	1511.75
996.415	1570.75
996.635	1541.75
996.855	1542.75
997.075	1541.75
997.295	1563.75
997.515	1517.75
997.735	1582.75
997.955	1504.75
998.174	1505.75
998.394	1494.75
998.614	1552.75
998.834	1498.75
999.053	1563.75
999.273	1535.75
999.492	1567.75
999.712	1529.75
999.931	1485.75
1000.151	1531.75
1000.37	1499.75
1000.589	1565.75
1000.809	1454.75
1001.028	1565.75
1001.247	1520.75
1001.466	1406.75
1001.685	1556.75
1001.904	1504.75
1002.123	1479.75
1002.342	1482.75
1002.561	1463.75
1002.78	1466.75
1002.999	1525.75
1003.218	1461.75
1003.436	1448.75
1003.655	1488.75
1003.874	1428.75
1004.092	1474.75
1004.311	1497.75
1004.53	1446.75
1004.748	1538.75
1004.966	1460.75
1005.185	1486.75
1005.403	1494.75
1005.622	1471.75
1005.84	1506.75
1006.058	1428.75
1006.276	1473.75
1006.494	1931.75
1006.712	1450.75
1006.931	1532.75
1007.149	1427.75
1007.367	1445.75
1007.584	1467.75
1007.802	1510.75
1008.02	1459.75
1008.238	1555.75
1008.456	1557.75
1008.673	1435.75
1008.891	1535.75
1009.109	1482.75
1009.326	1561.75
1009.544	1622.75
1009.761	1561.75
1009.979	1650.75
1010.196	1657.75
1010.413	1764.75
1010.631	1802.75
1010.848	1857.75
1011.065	1854.75
1011.282	1850.75
1011.5	1769.75
1011.717	1860.75
1011.934	1786.75
1012.151	1839.75
1012.368	1819.75
1012.585	1746.75
1012.801	1796.75
1013.018	1781.75
1013.235	1747.75
1013.452	1790.75
1013.669	1802.75
1013.885	1770.75
1014.102	1800.75
1014.318	1813.75
1014.535	1748.75
1014.751	1788.75
1014.968	1763.75
1015.184	1802.75
1015.401	1684.75
1015.617	1745.75
1015.833	1651.75
1016.049	1665.75
1016.266	1660.75
1016.482	1634.75
1016.698	1575.75
1016.914	1611.75
1017.13	1577.75
1017.346	1601.75
1017.562	1611.75
1017.778	1561.75
1017.993	1533.75
1018.209	1573.75
1018.425	1561.75
1018.641	1518.75
1018.856	1491.75
1019.072	1523.75
1019.288	1563.75
1019.503	1507.75
1019.719	1461.75
1019.934	1436.75
1020.149	1561.75
1020.365	1458.75
1020.58	1394.75
1020.795	1460.75
1021.011	1369.75
1021.226	1336.75
1021.441	1363.75
1021.656	1290.75
1021.871	1220.75
1022.086	1202.75
1022.301	1204.75
1022.516	1181.75
1022.731	1236.75
1022.946	1166.75
1023.16	1157.75
1023.375	1109.75
1023.59	1086.75
1023.804	1050.75
1024.019	1140.75
1024.234	1021.75
1024.448	1064.75
1024.663	981.75
1024.877	980.75
1025.092	994.75
1025.306	1004.75
1025.52	897.75
1025.734	998.75
1025.949	940.75
1026.163	898.75
1026.377	824.75
1026.591	870.75
1026.805	798.75
1027.019	801.75
1027.233	750.75
1027.447	703.75
1027.661	809.75
1027.875	762.75
1028.088	755.75
1028.302	684.75
1028.516	664.75
1028.73	683.75
1028.943	668.75
1029.157	608.75
1029.37	568.75
1029.584	-1.25
1029.797	-1.25
1030.011	-2.25
1030.224	-2.25
