Data from QEP037381__242__10-55-04-541.txt Node

Date: Wed Dec 21 10:55:04 EST 2022
User: dcclab
Spectrometer: QEP03738
Trigger mode: 4
Integration Time (sec): 1.000000E1
Scans to average: 1
Electric dark correction enabled: true
Nonlinearity correction enabled: false
Boxcar width: 0
XAxis mode: Wavelengths
Number of Pixels in Spectrum: 1044
>>>>>Begin Spectral Data<<<<<
784.041	12.25
784.3	-1.75
784.558	-4.75
784.817	-2.75
785.075	106479.25
785.334	18358.25
785.592	8497.25
785.851	5932.25
786.109	4488.25
786.368	3514.25
786.626	2803.25
786.884	2345.25
787.143	1928.25
787.401	1595.25
787.659	1405.25
787.917	1221.25
788.175	1119.25
788.433	959.25
788.691	870.25
788.949	784.25
789.207	750.25
789.465	666.25
789.723	656.25
789.98	576.25
790.238	623.25
790.496	579.25
790.753	562.25
791.011	615.25
791.268	523.25
791.526	506.25
791.783	528.25
792.041	507.25
792.298	423.25
792.556	480.25
792.813	470.25
793.07	445.25
793.327	434.25
793.584	517.25
793.841	424.25
794.099	450.25
794.356	508.25
794.613	412.25
794.869	440.25
795.126	403.25
795.383	394.25
795.64	402.25
795.897	354.25
796.153	419.25
796.41	406.25
796.667	374.25
796.923	387.25
797.18	390.25
797.436	420.25
797.693	373.25
797.949	439.25
798.206	448.25
798.462	369.25
798.718	431.25
798.974	394.25
799.231	428.25
799.487	414.25
799.743	441.25
799.999	448.25
800.255	445.25
800.511	421.25
800.767	456.25
801.023	440.25
801.279	457.25
801.534	473.25
801.79	500.25
802.046	494.25
802.302	572.25
802.557	621.25
802.813	714.25
803.068	809.25
803.324	1096.25
803.579	1377.25
803.835	1827.25
804.09	2430.25
804.345	3154.25
804.601	3895.25
804.856	4788.25
805.111	5405.25
805.366	5914.25
805.621	6303.25
805.876	6528.25
806.131	6646.25
806.386	6752.25
806.641	6843.25
806.896	6956.25
807.151	7223.25
807.406	7225.25
807.661	7360.25
807.915	7459.25
808.17	7592.25
808.425	7650.25
808.679	7681.25
808.934	7782.25
809.188	7821.25
809.443	7898.25
809.697	7971.25
809.951	7900.25
810.206	8035.25
810.46	8181.25
810.714	8206.25
810.968	8249.25
811.223	8273.25
811.477	8385.25
811.731	8482.25
811.985	8449.25
812.239	8424.25
812.493	8505.25
812.747	8625.25
813	8525.25
813.254	8554.25
813.508	8632.25
813.762	8739.25
814.015	8701.25
814.269	8711.25
814.522	8903.25
814.776	9011.25
815.03	8964.25
815.283	9237.25
815.536	9306.25
815.79	9415.25
816.043	9515.25
816.296	9668.25
816.55	9721.25
816.803	9866.25
817.056	10034.25
817.309	10068.25
817.562	10141.25
817.815	10247.25
818.068	10377.25
818.321	10419.25
818.574	10475.25
818.827	10714.25
819.079	10789.25
819.332	11035.25
819.585	11083.25
819.838	11327.25
820.09	11240.25
820.343	11501.25
820.595	11347.25
820.848	11486.25
821.1	11520.25
821.353	11535.25
821.605	11418.25
821.857	11479.25
822.11	11437.25
822.362	11395.25
822.614	11357.25
822.866	11446.25
823.118	11456.25
823.37	11452.25
823.622	11471.25
823.874	11530.25
824.126	11580.25
824.378	11587.25
824.63	11597.25
824.882	11615.25
825.134	11463.25
825.385	11606.25
825.637	11449.25
825.888	11409.25
826.14	11366.25
826.392	11338.25
826.643	11288.25
826.895	11320.25
827.146	11239.25
827.397	11182.25
827.649	11268.25
827.9	11157.25
828.151	11177.25
828.402	11203.25
828.653	11211.25
828.905	11311.25
829.156	11286.25
829.407	11291.25
829.658	11336.25
829.909	11363.25
830.159	11329.25
830.41	11278.25
830.661	11274.25
830.912	11188.25
831.162	11083.25
831.413	11102.25
831.664	11172.25
831.914	11017.25
832.165	11082.25
832.415	11162.25
832.666	11043.25
832.916	11098.25
833.167	11025.25
833.417	11113.25
833.667	11057.25
833.917	10985.25
834.168	10960.25
834.418	10994.25
834.668	10915.25
834.918	10843.25
835.168	10805.25
835.418	10748.25
835.668	10713.25
835.918	10703.25
836.167	10761.25
836.417	10665.25
836.667	10673.25
836.917	10686.25
837.166	10655.25
837.416	10713.25
837.666	10644.25
837.915	10589.25
838.165	10542.25
838.414	10555.25
838.663	10496.25
838.913	10550.25
839.162	10484.25
839.411	10524.25
839.661	10444.25
839.91	10421.25
840.159	10463.25
840.408	10473.25
840.657	10537.25
840.906	10541.25
841.155	10462.25
841.404	10479.25
841.653	10599.25
841.902	10443.25
842.15	10526.25
842.399	10506.25
842.648	10442.25
842.897	10427.25
843.145	10403.25
843.394	10275.25
843.642	10229.25
843.891	10237.25
844.139	10151.25
844.388	10056.25
844.636	10015.25
844.884	10046.25
845.133	10006.25
845.381	10012.25
845.629	10015.25
845.877	10030.25
846.125	9975.25
846.373	9996.25
846.621	9951.25
846.869	9904.25
847.117	9852.25
847.365	9813.25
847.613	9792.25
847.861	9759.25
848.108	9756.25
848.356	9791.25
848.604	9670.25
848.851	9739.25
849.099	9778.25
849.346	9770.25
849.594	9828.25
849.841	9809.25
850.089	9889.25
850.336	9802.25
850.583	9875.25
850.831	9848.25
851.078	9835.25
851.325	9765.25
851.572	9833.25
851.819	9694.25
852.066	9540.25
852.313	9318.25
852.56	9310.25
852.807	9256.25
853.054	9230.25
853.301	9219.25
853.548	9254.25
853.794	9388.25
854.041	9367.25
854.288	9384.25
854.534	9490.25
854.781	9389.25
855.028	9465.25
855.274	9431.25
855.52	9384.25
855.767	9405.25
856.013	9457.25
856.26	9667.25
856.506	9267.25
856.752	9254.25
856.998	9233.25
857.244	9295.25
857.49	9358.25
857.736	9308.25
857.982	9429.25
858.228	9323.25
858.474	9209.25
858.72	9158.25
858.966	9074.25
859.212	9001.25
859.458	8852.25
859.703	8753.25
859.949	8687.25
860.195	8717.25
860.44	8628.25
860.686	8614.25
860.931	8677.25
861.177	8551.25
861.422	8504.25
861.667	8419.25
861.913	8433.25
862.158	8448.25
862.403	8463.25
862.648	8469.25
862.893	8537.25
863.138	8436.25
863.384	8442.25
863.629	8485.25
863.873	8463.25
864.118	8393.25
864.363	8355.25
864.608	8359.25
864.853	8328.25
865.098	8300.25
865.342	8240.25
865.587	8172.25
865.832	8149.25
866.076	8136.25
866.321	8127.25
866.565	8093.25
866.81	8046.25
867.054	8107.25
867.298	8009.25
867.543	8003.25
867.787	8040.25
868.031	8057.25
868.275	7985.25
868.519	8020.25
868.764	7953.25
869.008	7937.25
869.252	7987.25
869.496	7932.25
869.739	7967.25
869.983	7986.25
870.227	7991.25
870.471	7982.25
870.715	8012.25
870.958	8015.25
871.202	8064.25
871.446	8089.25
871.689	7996.25
871.933	8056.25
872.176	8072.25
872.42	7994.25
872.663	7992.25
872.906	8067.25
873.15	8017.25
873.393	8014.25
873.636	8025.25
873.879	7994.25
874.122	7902.25
874.366	7705.25
874.609	7744.25
874.852	7575.25
875.095	7517.25
875.337	7466.25
875.58	7390.25
875.823	7444.25
876.066	7373.25
876.309	7450.25
876.551	7301.25
876.794	7241.25
877.037	7343.25
877.279	7180.25
877.522	7211.25
877.764	7280.25
878.007	7175.25
878.249	7215.25
878.491	7156.25
878.734	7176.25
878.976	7147.25
879.218	7037.25
879.46	7140.25
879.702	7004.25
879.945	6909.25
880.187	6852.25
880.429	6875.25
880.671	6802.25
880.912	6785.25
881.154	6737.25
881.396	6704.25
881.638	6744.25
881.88	6719.25
882.121	6665.25
882.363	6828.25
882.605	6773.25
882.846	6739.25
883.088	6725.25
883.329	6721.25
883.571	6772.25
883.812	6880.25
884.053	7081.25
884.295	7298.25
884.536	7460.25
884.777	7388.25
885.018	7304.25
885.259	7291.25
885.5	7118.25
885.742	7346.25
885.982	7114.25
886.223	6985.25
886.464	6948.25
886.705	6869.25
886.946	6763.25
887.187	6570.25
887.428	6592.25
887.668	6435.25
887.909	6291.25
888.15	6164.25
888.39	6183.25
888.631	6237.25
888.871	6105.25
889.111	6101.25
889.352	6003.25
889.592	5920.25
889.833	5856.25
890.073	5830.25
890.313	5877.25
890.553	5713.25
890.793	5779.25
891.033	5711.25
891.273	5662.25
891.513	5675.25
891.753	5732.25
891.993	5635.25
892.233	5653.25
892.473	5746.25
892.713	5739.25
892.952	5646.25
893.192	5690.25
893.432	5675.25
893.671	5722.25
893.911	5699.25
894.15	5691.25
894.39	5525.25
894.629	5558.25
894.869	5535.25
895.108	5438.25
895.347	5450.25
895.587	5459.25
895.826	5428.25
896.065	5351.25
896.304	5396.25
896.543	5435.25
896.782	5369.25
897.021	5379.25
897.26	5337.25
897.499	5392.25
897.738	5407.25
897.977	5313.25
898.216	5244.25
898.454	5228.25
898.693	5205.25
898.932	5201.25
899.17	5160.25
899.409	5129.25
899.647	5136.25
899.886	5118.25
900.124	5193.25
900.363	5130.25
900.601	5194.25
900.839	5186.25
901.078	5182.25
901.316	5252.25
901.554	5205.25
901.792	5244.25
902.03	5258.25
902.268	5316.25
902.506	5338.25
902.744	5202.25
902.982	5251.25
903.22	5075.25
903.458	5027.25
903.695	5018.25
903.933	4916.25
904.171	4794.25
904.409	4768.25
904.646	4674.25
904.884	4626.25
905.121	4640.25
905.359	4535.25
905.596	4526.25
905.833	4472.25
906.071	4418.25
906.308	4482.25
906.545	4413.25
906.783	4363.25
907.02	4410.25
907.257	4358.25
907.494	4358.25
907.731	4345.25
907.968	4342.25
908.205	4271.25
908.442	4284.25
908.679	4272.25
908.915	4233.25
909.152	4234.25
909.389	4115.25
909.626	4150.25
909.862	4124.25
910.099	4145.25
910.335	4116.25
910.572	4025.25
910.808	4059.25
911.045	4021.25
911.281	4017.25
911.518	4058.25
911.754	4009.25
911.99	4011.25
912.226	3956.25
912.463	3869.25
912.699	3928.25
912.935	3881.25
913.171	3841.25
913.407	3772.25
913.643	3828.25
913.879	3790.25
914.114	3722.25
914.35	3648.25
914.586	3666.25
914.822	3601.25
915.057	3669.25
915.293	3531.25
915.529	3499.25
915.764	3604.25
916	3579.25
916.235	3584.25
916.471	3548.25
916.706	3502.25
916.941	3488.25
917.177	3462.25
917.412	3545.25
917.647	3546.25
917.882	3447.25
918.117	3525.25
918.352	3494.25
918.588	3526.25
918.823	3458.25
919.057	3457.25
919.292	3268.25
919.527	3419.25
919.762	3304.25
919.997	3328.25
920.232	3272.25
920.466	3314.25
920.701	3155.25
920.935	3186.25
921.17	3159.25
921.405	3161.25
921.639	3218.25
921.873	3129.25
922.108	3132.25
922.342	3146.25
922.576	3072.25
922.811	3108.25
923.045	3154.25
923.279	3148.25
923.513	3016.25
923.747	3116.25
923.981	3066.25
924.215	2998.25
924.449	3020.25
924.683	2961.25
924.917	2958.25
925.151	2959.25
925.385	3017.25
925.618	2931.25
925.852	2978.25
926.086	2898.25
926.319	2910.25
926.553	2919.25
926.786	2952.25
927.02	2901.25
927.253	2965.25
927.486	2950.25
927.72	2865.25
927.953	2918.25
928.186	2891.25
928.42	2942.25
928.653	2836.25
928.886	2851.25
929.119	2879.25
929.352	2801.25
929.585	2839.25
929.818	2777.25
930.051	2819.25
930.284	2763.25
930.516	2724.25
930.749	2697.25
930.982	2737.25
931.215	2728.25
931.447	2624.25
931.68	2665.25
931.912	2653.25
932.145	2646.25
932.377	2672.25
932.61	2766.25
932.842	2620.25
933.074	2691.25
933.307	2603.25
933.539	2719.25
933.771	2687.25
934.003	2624.25
934.236	2695.25
934.468	2730.25
934.7	2639.25
934.932	2713.25
935.164	2605.25
935.395	2621.25
935.627	2623.25
935.859	2618.25
936.091	2581.25
936.323	2590.25
936.554	2637.25
936.786	2573.25
937.017	2525.25
937.249	2567.25
937.481	2509.25
937.712	2556.25
937.943	2554.25
938.175	2560.25
938.406	2520.25
938.637	2612.25
938.869	2477.25
939.1	2552.25
939.331	2517.25
939.562	2520.25
939.793	2495.25
940.024	2519.25
940.255	2566.25
940.486	2501.25
940.717	2497.25
940.948	2471.25
941.179	2412.25
941.409	2444.25
941.64	2450.25
941.871	2454.25
942.102	2417.25
942.332	2451.25
942.563	2501.25
942.793	2457.25
943.024	2389.25
943.254	2409.25
943.484	2468.25
943.715	2484.25
943.945	2467.25
944.175	2386.25
944.405	2356.25
944.636	2404.25
944.866	2366.25
945.096	2438.25
945.326	2365.25
945.556	2383.25
945.786	2419.25
946.016	2349.25
946.245	2310.25
946.475	2340.25
946.705	2322.25
946.935	2298.25
947.164	2293.25
947.394	2312.25
947.624	2303.25
947.853	2309.25
948.083	2281.25
948.312	2229.25
948.542	2222.25
948.771	2212.25
949	2243.25
949.23	2243.25
949.459	2255.25
949.688	2272.25
949.917	2238.25
950.146	2240.25
950.375	2308.25
950.604	2209.25
950.833	2293.25
951.062	2298.25
951.291	2233.25
951.52	2189.25
951.749	2226.25
951.978	2178.25
952.206	2164.25
952.435	2139.25
952.664	2222.25
952.892	2250.25
953.121	2208.25
953.349	2179.25
953.578	2210.25
953.806	2176.25
954.035	2137.25
954.263	2143.25
954.491	2092.25
954.719	2177.25
954.948	2083.25
955.176	2107.25
955.404	2025.25
955.632	2080.25
955.86	2093.25
956.088	2058.25
956.316	2104.25
956.544	2106.25
956.772	2080.25
956.999	2074.25
957.227	2100.25
957.455	2025.25
957.683	2016.25
957.91	1987.25
958.138	1989.25
958.365	1993.25
958.593	1975.25
958.82	1943.25
959.048	2023.25
959.275	1969.25
959.502	1946.25
959.73	1918.25
959.957	2000.25
960.184	2001.25
960.411	1930.25
960.638	2003.25
960.865	1940.25
961.092	1975.25
961.319	1891.25
961.546	1989.25
961.773	1997.25
962	1907.25
962.227	1991.25
962.454	1965.25
962.68	1947.25
962.907	1943.25
963.134	1883.25
963.36	1896.25
963.587	1921.25
963.813	1859.25
964.04	1915.25
964.266	1832.25
964.493	1933.25
964.719	1893.25
964.945	1894.25
965.171	1798.25
965.398	1883.25
965.624	1878.25
965.85	1824.25
966.076	1802.25
966.302	1858.25
966.528	1815.25
966.754	1809.25
966.98	1833.25
967.206	1813.25
967.431	1739.25
967.657	1830.25
967.883	1842.25
968.109	1804.25
968.334	1754.25
968.56	1730.25
968.785	1764.25
969.011	1717.25
969.236	1768.25
969.462	1711.25
969.687	1729.25
969.912	1781.25
970.138	1819.25
970.363	1718.25
970.588	1751.25
970.813	1707.25
971.038	1690.25
971.263	1710.25
971.488	1757.25
971.713	1781.25
971.938	1762.25
972.163	1649.25
972.388	1707.25
972.613	1662.25
972.838	1680.25
973.062	1664.25
973.287	1656.25
973.512	1608.25
973.736	1654.25
973.961	1617.25
974.185	1619.25
974.41	1665.25
974.634	1586.25
974.858	1570.25
975.083	1585.25
975.307	1629.25
975.531	1590.25
975.755	1541.25
975.98	1538.25
976.204	1494.25
976.428	1518.25
976.652	1477.25
976.876	1490.25
977.1	1547.25
977.324	1512.25
977.547	1527.25
977.771	1555.25
977.995	1505.25
978.219	1451.25
978.442	1574.25
978.666	1514.25
978.89	1492.25
979.113	1507.25
979.337	1486.25
979.56	1464.25
979.783	1561.25
980.007	1471.25
980.23	1511.25
980.453	1436.25
980.677	1483.25
980.9	1472.25
981.123	1387.25
981.346	1482.25
981.569	1472.25
981.792	1456.25
982.015	1417.25
982.238	1431.25
982.461	1415.25
982.684	1403.25
982.907	1380.25
983.129	1392.25
983.352	1450.25
983.575	1396.25
983.797	1404.25
984.02	1381.25
984.242	1382.25
984.465	1377.25
984.687	1422.25
984.91	1423.25
985.132	1393.25
985.354	1435.25
985.577	1387.25
985.799	1374.25
986.021	1311.25
986.243	1336.25
986.465	1358.25
986.687	1419.25
986.909	1411.25
987.131	1391.25
987.353	1318.25
987.575	1376.25
987.797	1334.25
988.019	1264.25
988.241	1328.25
988.462	1295.25
988.684	1359.25
988.906	1371.25
989.127	1416.25
989.349	1302.25
989.57	1330.25
989.792	1345.25
990.013	1362.25
990.234	1369.25
990.456	1389.25
990.677	1375.25
990.898	1333.25
991.119	1320.25
991.341	1358.25
991.562	1280.25
991.783	1355.25
992.004	1278.25
992.225	1232.25
992.446	1319.25
992.667	1208.25
992.887	1326.25
993.108	1205.25
993.329	1320.25
993.55	1289.25
993.77	1250.25
993.991	1236.25
994.212	1284.25
994.432	1260.25
994.653	1256.25
994.873	1290.25
995.093	1158.25
995.314	1211.25
995.534	1276.25
995.754	1290.25
995.975	1327.25
996.195	1219.25
996.415	1286.25
996.635	1250.25
996.855	1269.25
997.075	1216.25
997.295	1227.25
997.515	1210.25
997.735	1251.25
997.955	1232.25
998.174	1212.25
998.394	1188.25
998.614	1249.25
998.834	1202.25
999.053	1269.25
999.273	1244.25
999.492	1298.25
999.712	1226.25
999.931	1191.25
1000.151	1223.25
1000.37	1232.25
1000.589	1275.25
1000.809	1189.25
1001.028	1313.25
1001.247	1246.25
1001.466	1132.25
1001.685	1276.25
1001.904	1231.25
1002.123	1227.25
1002.342	1243.25
1002.561	1172.25
1002.78	1215.25
1002.999	1263.25
1003.218	1220.25
1003.436	1191.25
1003.655	1247.25
1003.874	1185.25
1004.092	1227.25
1004.311	1238.25
1004.53	1199.25
1004.748	1298.25
1004.966	1211.25
1005.185	1254.25
1005.403	1254.25
1005.622	1231.25
1005.84	1304.25
1006.058	1193.25
1006.276	1211.25
1006.494	1716.25
1006.712	1246.25
1006.931	1298.25
1007.149	1190.25
1007.367	1181.25
1007.584	1263.25
1007.802	1284.25
1008.02	1217.25
1008.238	1325.25
1008.456	1304.25
1008.673	1208.25
1008.891	1304.25
1009.109	1224.25
1009.326	1313.25
1009.544	1380.25
1009.761	1306.25
1009.979	1414.25
1010.196	1423.25
1010.413	1496.25
1010.631	1554.25
1010.848	1600.25
1011.065	1587.25
1011.282	1551.25
1011.5	1482.25
1011.717	1595.25
1011.934	1535.25
1012.151	1571.25
1012.368	1529.25
1012.585	1477.25
1012.801	1535.25
1013.018	1510.25
1013.235	1476.25
1013.452	1481.25
1013.669	1491.25
1013.885	1492.25
1014.102	1522.25
1014.318	1496.25
1014.535	1460.25
1014.751	1491.25
1014.968	1497.25
1015.184	1526.25
1015.401	1410.25
1015.617	1464.25
1015.833	1378.25
1016.049	1392.25
1016.266	1380.25
1016.482	1397.25
1016.698	1303.25
1016.914	1363.25
1017.13	1293.25
1017.346	1334.25
1017.562	1379.25
1017.778	1321.25
1017.993	1288.25
1018.209	1324.25
1018.425	1320.25
1018.641	1299.25
1018.856	1234.25
1019.072	1283.25
1019.288	1340.25
1019.503	1280.25
1019.719	1181.25
1019.934	1205.25
1020.149	1267.25
1020.365	1214.25
1020.58	1176.25
1020.795	1218.25
1021.011	1188.25
1021.226	1144.25
1021.441	1169.25
1021.656	1094.25
1021.871	1010.25
1022.086	1034.25
1022.301	1030.25
1022.516	1025.25
1022.731	1069.25
1022.946	976.25
1023.16	944.25
1023.375	931.25
1023.59	913.25
1023.804	878.25
1024.019	991.25
1024.234	836.25
1024.448	884.25
1024.663	819.25
1024.877	826.25
1025.092	845.25
1025.306	876.25
1025.52	781.25
1025.734	863.25
1025.949	783.25
1026.163	786.25
1026.377	714.25
1026.591	753.25
1026.805	709.25
1027.019	680.25
1027.233	656.25
1027.447	604.25
1027.661	702.25
1027.875	658.25
1028.088	651.25
1028.302	597.25
1028.516	567.25
1028.73	573.25
1028.943	575.25
1029.157	542.25
1029.37	516.25
1029.584	-1.75
1029.797	-0.75
1030.011	1.25
1030.224	-1.75
