Data from QEP037381__225__10-52-14-543.txt Node

Date: Wed Dec 21 10:52:14 EST 2022
User: dcclab
Spectrometer: QEP03738
Trigger mode: 4
Integration Time (sec): 1.000000E1
Scans to average: 1
Electric dark correction enabled: true
Nonlinearity correction enabled: false
Boxcar width: 0
XAxis mode: Wavelengths
Number of Pixels in Spectrum: 1044
>>>>>Begin Spectral Data<<<<<
784.041	13.5
784.3	-1.5
784.558	-2.5
784.817	-4.5
785.075	105949.5
785.334	18572.5
785.592	8586.5
785.851	5923.5
786.109	4436.5
786.368	3450.5
786.626	2758.5
786.884	2331.5
787.143	1925.5
787.401	1606.5
787.659	1453.5
787.917	1234.5
788.175	1135.5
788.433	997.5
788.691	905.5
788.949	826.5
789.207	771.5
789.465	679.5
789.723	655.5
789.98	589.5
790.238	634.5
790.496	596.5
790.753	550.5
791.011	602.5
791.268	540.5
791.526	511.5
791.783	541.5
792.041	517.5
792.298	421.5
792.556	482.5
792.813	469.5
793.07	440.5
793.327	428.5
793.584	514.5
793.841	432.5
794.099	464.5
794.356	514.5
794.613	405.5
794.869	440.5
795.126	414.5
795.383	399.5
795.64	408.5
795.897	361.5
796.153	424.5
796.41	412.5
796.667	385.5
796.923	392.5
797.18	400.5
797.436	432.5
797.693	384.5
797.949	438.5
798.206	468.5
798.462	363.5
798.718	439.5
798.974	412.5
799.231	432.5
799.487	419.5
799.743	447.5
799.999	462.5
800.255	455.5
800.511	433.5
800.767	462.5
801.023	436.5
801.279	455.5
801.534	487.5
801.79	515.5
802.046	507.5
802.302	605.5
802.557	647.5
802.813	777.5
803.068	869.5
803.324	1156.5
803.579	1476.5
803.835	1983.5
804.09	2699.5
804.345	3480.5
804.601	4321.5
804.856	5281.5
805.111	6029.5
805.366	6592.5
805.621	6939.5
805.876	7296.5
806.131	7446.5
806.386	7566.5
806.641	7647.5
806.896	7730.5
807.151	7983.5
807.406	8003.5
807.661	8168.5
807.915	8289.5
808.17	8445.5
808.425	8507.5
808.679	8535.5
808.934	8701.5
809.188	8699.5
809.443	8761.5
809.697	8972.5
809.951	8961.5
810.206	9030.5
810.46	9137.5
810.714	9222.5
810.968	9326.5
811.223	9208.5
811.477	9467.5
811.731	9552.5
811.985	9513.5
812.239	9424.5
812.493	9569.5
812.747	9612.5
813	9527.5
813.254	9620.5
813.508	9734.5
813.762	9744.5
814.015	9725.5
814.269	9818.5
814.522	9901.5
814.776	10058.5
815.03	10163.5
815.283	10306.5
815.536	10452.5
815.79	10632.5
816.043	10715.5
816.296	10799.5
816.55	10954.5
816.803	11068.5
817.056	11280.5
817.309	11392.5
817.562	11475.5
817.815	11605.5
818.068	11581.5
818.321	11705.5
818.574	11773.5
818.827	12012.5
819.079	12200.5
819.332	12483.5
819.585	12553.5
819.838	12796.5
820.09	12744.5
820.343	12755.5
820.595	12858.5
820.848	13014.5
821.1	13068.5
821.353	12973.5
821.605	12981.5
821.857	13075.5
822.11	12852.5
822.362	12866.5
822.614	12826.5
822.866	12858.5
823.118	12901.5
823.37	12952.5
823.622	12918.5
823.874	13090.5
824.126	13096.5
824.378	13042.5
824.63	13053.5
824.882	13121.5
825.134	13086.5
825.385	13013.5
825.637	12955.5
825.888	13039.5
826.14	12888.5
826.392	12897.5
826.643	12835.5
826.895	12798.5
827.146	12727.5
827.397	12669.5
827.649	12665.5
827.9	12637.5
828.151	12609.5
828.402	12680.5
828.653	12685.5
828.905	12782.5
829.156	12812.5
829.407	12688.5
829.658	12769.5
829.909	12874.5
830.159	12810.5
830.41	12821.5
830.661	12658.5
830.912	12649.5
831.162	12500.5
831.413	12547.5
831.664	12526.5
831.914	12520.5
832.165	12569.5
832.415	12505.5
832.666	12542.5
832.916	12493.5
833.167	12471.5
833.417	12504.5
833.667	12479.5
833.917	12403.5
834.168	12476.5
834.418	12401.5
834.668	12335.5
834.918	12270.5
835.168	12266.5
835.418	12109.5
835.668	12175.5
835.918	12141.5
836.167	12062.5
836.417	12076.5
836.667	12051.5
836.917	12085.5
837.166	12008.5
837.416	12115.5
837.666	12059.5
837.915	11999.5
838.165	12001.5
838.414	11890.5
838.663	11897.5
838.913	11796.5
839.162	11808.5
839.411	11883.5
839.661	11819.5
839.91	11794.5
840.159	11748.5
840.408	11802.5
840.657	11795.5
840.906	11793.5
841.155	11821.5
841.404	11809.5
841.653	11865.5
841.902	11759.5
842.15	11882.5
842.399	11862.5
842.648	11786.5
842.897	11776.5
843.145	11660.5
843.394	11627.5
843.642	11517.5
843.891	11470.5
844.139	11545.5
844.388	11345.5
844.636	11326.5
844.884	11315.5
845.133	11332.5
845.381	11324.5
845.629	11248.5
845.877	11301.5
846.125	11322.5
846.373	11229.5
846.621	11249.5
846.869	11161.5
847.117	11145.5
847.365	11103.5
847.613	10999.5
847.861	10965.5
848.108	10946.5
848.356	10969.5
848.604	10962.5
848.851	10954.5
849.099	10934.5
849.346	10991.5
849.594	11046.5
849.841	11079.5
850.089	11083.5
850.336	11132.5
850.583	11101.5
850.831	11176.5
851.078	11018.5
851.325	10934.5
851.572	11003.5
851.819	10857.5
852.066	10660.5
852.313	10562.5
852.56	10514.5
852.807	10406.5
853.054	10339.5
853.301	10391.5
853.548	10416.5
853.794	10489.5
854.041	10479.5
854.288	10541.5
854.534	10692.5
854.781	10614.5
855.028	10640.5
855.274	10625.5
855.52	10490.5
855.767	10572.5
856.013	10598.5
856.26	10779.5
856.506	10426.5
856.752	10398.5
856.998	10311.5
857.244	10410.5
857.49	10474.5
857.736	10518.5
857.982	10495.5
858.228	10504.5
858.474	10364.5
858.72	10214.5
858.966	10227.5
859.212	10116.5
859.458	10032.5
859.703	9887.5
859.949	9701.5
860.195	9761.5
860.44	9663.5
860.686	9617.5
860.931	9682.5
861.177	9522.5
861.422	9528.5
861.667	9502.5
861.913	9458.5
862.158	9499.5
862.403	9557.5
862.648	9581.5
862.893	9560.5
863.138	9544.5
863.384	9446.5
863.629	9503.5
863.873	9466.5
864.118	9430.5
864.363	9391.5
864.608	9456.5
864.853	9409.5
865.098	9246.5
865.342	9305.5
865.587	9204.5
865.832	9230.5
866.076	9209.5
866.321	9147.5
866.565	9144.5
866.81	8986.5
867.054	9146.5
867.298	9030.5
867.543	8936.5
867.787	9017.5
868.031	9049.5
868.275	9001.5
868.519	8945.5
868.764	8953.5
869.008	8909.5
869.252	8916.5
869.496	8882.5
869.739	8900.5
869.983	8935.5
870.227	8952.5
870.471	8830.5
870.715	8913.5
870.958	9016.5
871.202	8937.5
871.446	9054.5
871.689	8975.5
871.933	9022.5
872.176	8947.5
872.42	8948.5
872.663	8883.5
872.906	9003.5
873.15	8889.5
873.393	8907.5
873.636	8977.5
873.879	8883.5
874.122	8745.5
874.366	8534.5
874.609	8533.5
874.852	8410.5
875.095	8379.5
875.337	8381.5
875.58	8303.5
875.823	8312.5
876.066	8302.5
876.309	8221.5
876.551	8126.5
876.794	8133.5
877.037	8170.5
877.279	8055.5
877.522	8090.5
877.764	8139.5
878.007	8054.5
878.249	8082.5
878.491	8009.5
878.734	8049.5
878.976	8053.5
879.218	7985.5
879.46	7896.5
879.702	7877.5
879.945	7855.5
880.187	7720.5
880.429	7666.5
880.671	7631.5
880.912	7653.5
881.154	7568.5
881.396	7424.5
881.638	7578.5
881.88	7565.5
882.121	7539.5
882.363	7513.5
882.605	7609.5
882.846	7561.5
883.088	7563.5
883.329	7478.5
883.571	7531.5
883.812	7670.5
884.053	7839.5
884.295	7996.5
884.536	8211.5
884.777	8075.5
885.018	8082.5
885.259	8029.5
885.5	7892.5
885.742	8091.5
885.982	7877.5
886.223	7666.5
886.464	7643.5
886.705	7514.5
886.946	7500.5
887.187	7316.5
887.428	7318.5
887.668	7177.5
887.909	7015.5
888.15	7014.5
888.39	6974.5
888.631	6999.5
888.871	6872.5
889.111	6789.5
889.352	6743.5
889.592	6664.5
889.833	6604.5
890.073	6614.5
890.313	6605.5
890.553	6448.5
890.793	6465.5
891.033	6443.5
891.273	6357.5
891.513	6420.5
891.753	6404.5
891.993	6378.5
892.233	6419.5
892.473	6463.5
892.713	6402.5
892.952	6378.5
893.192	6414.5
893.432	6389.5
893.671	6444.5
893.911	6342.5
894.15	6291.5
894.39	6224.5
894.629	6189.5
894.869	6164.5
895.108	6173.5
895.347	6079.5
895.587	6106.5
895.826	6082.5
896.065	6046.5
896.304	6053.5
896.543	6042.5
896.782	6004.5
897.021	6017.5
897.26	5966.5
897.499	6065.5
897.738	6019.5
897.977	5967.5
898.216	5880.5
898.454	5866.5
898.693	5788.5
898.932	5823.5
899.17	5754.5
899.409	5771.5
899.647	5762.5
899.886	5708.5
900.124	5770.5
900.363	5740.5
900.601	5727.5
900.839	5755.5
901.078	5755.5
901.316	5813.5
901.554	5842.5
901.792	5890.5
902.03	5860.5
902.268	5850.5
902.506	5896.5
902.744	5809.5
902.982	5774.5
903.22	5678.5
903.458	5594.5
903.695	5603.5
903.933	5462.5
904.171	5321.5
904.409	5286.5
904.646	5195.5
904.884	5129.5
905.121	5175.5
905.359	5083.5
905.596	5023.5
905.833	4973.5
906.071	4960.5
906.308	5000.5
906.545	4932.5
906.783	4909.5
907.02	4912.5
907.257	4816.5
907.494	4856.5
907.731	4868.5
907.968	4879.5
908.205	4779.5
908.442	4751.5
908.679	4761.5
908.915	4716.5
909.152	4727.5
909.389	4603.5
909.626	4591.5
909.862	4560.5
910.099	4615.5
910.335	4569.5
910.572	4534.5
910.808	4553.5
911.045	4472.5
911.281	4475.5
911.518	4544.5
911.754	4453.5
911.99	4418.5
912.226	4370.5
912.463	4363.5
912.699	4272.5
912.935	4309.5
913.171	4266.5
913.407	4222.5
913.643	4240.5
913.879	4190.5
914.114	4118.5
914.35	4124.5
914.586	4071.5
914.822	4023.5
915.057	4116.5
915.293	3947.5
915.529	3925.5
915.764	4026.5
916	4037.5
916.235	3962.5
916.471	3966.5
916.706	3873.5
916.941	3881.5
917.177	3957.5
917.412	3947.5
917.647	3927.5
917.882	3902.5
918.117	3939.5
918.352	3938.5
918.588	3936.5
918.823	3802.5
919.057	3825.5
919.292	3695.5
919.527	3777.5
919.762	3724.5
919.997	3732.5
920.232	3619.5
920.466	3657.5
920.701	3535.5
920.935	3601.5
921.17	3549.5
921.405	3487.5
921.639	3506.5
921.873	3461.5
922.108	3515.5
922.342	3536.5
922.576	3436.5
922.811	3450.5
923.045	3469.5
923.279	3455.5
923.513	3330.5
923.747	3426.5
923.981	3386.5
924.215	3317.5
924.449	3358.5
924.683	3274.5
924.917	3259.5
925.151	3266.5
925.385	3324.5
925.618	3277.5
925.852	3325.5
926.086	3211.5
926.319	3232.5
926.553	3248.5
926.786	3286.5
927.02	3235.5
927.253	3252.5
927.486	3256.5
927.72	3216.5
927.953	3244.5
928.186	3218.5
928.42	3244.5
928.653	3173.5
928.886	3133.5
929.119	3163.5
929.352	3160.5
929.585	3143.5
929.818	3097.5
930.051	3105.5
930.284	3088.5
930.516	3016.5
930.749	2980.5
930.982	3073.5
931.215	3009.5
931.447	2971.5
931.68	2965.5
931.912	2947.5
932.145	2953.5
932.377	2977.5
932.61	3120.5
932.842	2871.5
933.074	2962.5
933.307	2863.5
933.539	3000.5
933.771	2987.5
934.003	2901.5
934.236	3015.5
934.468	2979.5
934.7	2930.5
934.932	2966.5
935.164	2862.5
935.395	2891.5
935.627	2913.5
935.859	2872.5
936.091	2835.5
936.323	2849.5
936.554	2907.5
936.786	2850.5
937.017	2822.5
937.249	2832.5
937.481	2783.5
937.712	2864.5
937.943	2812.5
938.175	2780.5
938.406	2821.5
938.637	2858.5
938.869	2775.5
939.1	2797.5
939.331	2753.5
939.562	2784.5
939.793	2800.5
940.024	2797.5
940.255	2773.5
940.486	2735.5
940.717	2716.5
940.948	2693.5
941.179	2671.5
941.409	2708.5
941.64	2658.5
941.871	2696.5
942.102	2631.5
942.332	2680.5
942.563	2704.5
942.793	2694.5
943.024	2657.5
943.254	2717.5
943.484	2732.5
943.715	2709.5
943.945	2690.5
944.175	2660.5
944.405	2618.5
944.636	2636.5
944.866	2666.5
945.096	2707.5
945.326	2607.5
945.556	2649.5
945.786	2656.5
946.016	2646.5
946.245	2546.5
946.475	2549.5
946.705	2558.5
946.935	2538.5
947.164	2555.5
947.394	2462.5
947.624	2526.5
947.853	2560.5
948.083	2507.5
948.312	2502.5
948.542	2418.5
948.771	2409.5
949	2456.5
949.23	2445.5
949.459	2477.5
949.688	2529.5
949.917	2488.5
950.146	2497.5
950.375	2561.5
950.604	2424.5
950.833	2526.5
951.062	2505.5
951.291	2452.5
951.52	2432.5
951.749	2415.5
951.978	2411.5
952.206	2436.5
952.435	2413.5
952.664	2424.5
952.892	2418.5
953.121	2411.5
953.349	2410.5
953.578	2416.5
953.806	2371.5
954.035	2313.5
954.263	2385.5
954.491	2291.5
954.719	2381.5
954.948	2313.5
955.176	2295.5
955.404	2231.5
955.632	2277.5
955.86	2309.5
956.088	2282.5
956.316	2312.5
956.544	2293.5
956.772	2258.5
956.999	2245.5
957.227	2312.5
957.455	2216.5
957.683	2230.5
957.91	2161.5
958.138	2145.5
958.365	2229.5
958.593	2162.5
958.82	2104.5
959.048	2188.5
959.275	2165.5
959.502	2161.5
959.73	2121.5
959.957	2194.5
960.184	2174.5
960.411	2148.5
960.638	2201.5
960.865	2145.5
961.092	2157.5
961.319	2065.5
961.546	2159.5
961.773	2177.5
962	2127.5
962.227	2174.5
962.454	2136.5
962.68	2124.5
962.907	2135.5
963.134	2052.5
963.36	2067.5
963.587	2105.5
963.813	2049.5
964.04	2093.5
964.266	2057.5
964.493	2115.5
964.719	2077.5
964.945	2105.5
965.171	1959.5
965.398	2020.5
965.624	2046.5
965.85	1953.5
966.076	1992.5
966.302	1994.5
966.528	2014.5
966.754	2003.5
966.98	2001.5
967.206	1974.5
967.431	1918.5
967.657	1980.5
967.883	1985.5
968.109	1978.5
968.334	1902.5
968.56	1913.5
968.785	1942.5
969.011	1878.5
969.236	1933.5
969.462	1915.5
969.687	1887.5
969.912	1940.5
970.138	1932.5
970.363	1838.5
970.588	1895.5
970.813	1878.5
971.038	1884.5
971.263	1921.5
971.488	1884.5
971.713	1932.5
971.938	1920.5
972.163	1797.5
972.388	1827.5
972.613	1811.5
972.838	1839.5
973.062	1813.5
973.287	1783.5
973.512	1754.5
973.736	1781.5
973.961	1787.5
974.185	1761.5
974.41	1808.5
974.634	1723.5
974.858	1696.5
975.083	1746.5
975.307	1775.5
975.531	1712.5
975.755	1670.5
975.98	1686.5
976.204	1635.5
976.428	1637.5
976.652	1641.5
976.876	1646.5
977.1	1640.5
977.324	1610.5
977.547	1659.5
977.771	1676.5
977.995	1632.5
978.219	1588.5
978.442	1710.5
978.666	1661.5
978.89	1648.5
979.113	1609.5
979.337	1640.5
979.56	1600.5
979.783	1662.5
980.007	1600.5
980.23	1594.5
980.453	1562.5
980.677	1612.5
980.9	1587.5
981.123	1488.5
981.346	1560.5
981.569	1571.5
981.792	1586.5
982.015	1570.5
982.238	1526.5
982.461	1559.5
982.684	1526.5
982.907	1487.5
983.129	1475.5
983.352	1545.5
983.575	1538.5
983.797	1508.5
984.02	1462.5
984.242	1500.5
984.465	1507.5
984.687	1533.5
984.91	1523.5
985.132	1499.5
985.354	1525.5
985.577	1475.5
985.799	1486.5
986.021	1415.5
986.243	1438.5
986.465	1454.5
986.687	1507.5
986.909	1531.5
987.131	1449.5
987.353	1440.5
987.575	1457.5
987.797	1430.5
988.019	1369.5
988.241	1446.5
988.462	1374.5
988.684	1465.5
988.906	1456.5
989.127	1498.5
989.349	1403.5
989.57	1417.5
989.792	1440.5
990.013	1462.5
990.234	1473.5
990.456	1493.5
990.677	1475.5
990.898	1395.5
991.119	1401.5
991.341	1429.5
991.562	1354.5
991.783	1430.5
992.004	1362.5
992.225	1326.5
992.446	1415.5
992.667	1306.5
992.887	1400.5
993.108	1298.5
993.329	1399.5
993.55	1386.5
993.77	1315.5
993.991	1326.5
994.212	1336.5
994.432	1355.5
994.653	1336.5
994.873	1318.5
995.093	1207.5
995.314	1265.5
995.534	1348.5
995.754	1354.5
995.975	1406.5
996.195	1301.5
996.415	1353.5
996.635	1318.5
996.855	1323.5
997.075	1288.5
997.295	1298.5
997.515	1267.5
997.735	1317.5
997.955	1308.5
998.174	1279.5
998.394	1247.5
998.614	1334.5
998.834	1252.5
999.053	1327.5
999.273	1297.5
999.492	1350.5
999.712	1311.5
999.931	1254.5
1000.151	1314.5
1000.37	1284.5
1000.589	1350.5
1000.809	1223.5
1001.028	1404.5
1001.247	1305.5
1001.466	1231.5
1001.685	1355.5
1001.904	1282.5
1002.123	1277.5
1002.342	1288.5
1002.561	1228.5
1002.78	1289.5
1002.999	1340.5
1003.218	1274.5
1003.436	1248.5
1003.655	1305.5
1003.874	1239.5
1004.092	1252.5
1004.311	1295.5
1004.53	1267.5
1004.748	1327.5
1004.966	1266.5
1005.185	1299.5
1005.403	1301.5
1005.622	1277.5
1005.84	1381.5
1006.058	1238.5
1006.276	1280.5
1006.494	1779.5
1006.712	1272.5
1006.931	1346.5
1007.149	1278.5
1007.367	1267.5
1007.584	1301.5
1007.802	1303.5
1008.02	1267.5
1008.238	1382.5
1008.456	1356.5
1008.673	1242.5
1008.891	1344.5
1009.109	1275.5
1009.326	1356.5
1009.544	1433.5
1009.761	1358.5
1009.979	1432.5
1010.196	1411.5
1010.413	1544.5
1010.631	1556.5
1010.848	1621.5
1011.065	1605.5
1011.282	1556.5
1011.5	1463.5
1011.717	1616.5
1011.934	1536.5
1012.151	1583.5
1012.368	1560.5
1012.585	1496.5
1012.801	1544.5
1013.018	1533.5
1013.235	1503.5
1013.452	1493.5
1013.669	1536.5
1013.885	1485.5
1014.102	1552.5
1014.318	1525.5
1014.535	1503.5
1014.751	1510.5
1014.968	1517.5
1015.184	1556.5
1015.401	1441.5
1015.617	1463.5
1015.833	1417.5
1016.049	1437.5
1016.266	1407.5
1016.482	1438.5
1016.698	1349.5
1016.914	1384.5
1017.13	1335.5
1017.346	1345.5
1017.562	1408.5
1017.778	1324.5
1017.993	1297.5
1018.209	1378.5
1018.425	1334.5
1018.641	1278.5
1018.856	1252.5
1019.072	1302.5
1019.288	1341.5
1019.503	1283.5
1019.719	1209.5
1019.934	1230.5
1020.149	1276.5
1020.365	1228.5
1020.58	1198.5
1020.795	1226.5
1021.011	1185.5
1021.226	1143.5
1021.441	1202.5
1021.656	1091.5
1021.871	1049.5
1022.086	1062.5
1022.301	1047.5
1022.516	1041.5
1022.731	1108.5
1022.946	1017.5
1023.16	968.5
1023.375	943.5
1023.59	934.5
1023.804	906.5
1024.019	999.5
1024.234	877.5
1024.448	902.5
1024.663	847.5
1024.877	885.5
1025.092	893.5
1025.306	885.5
1025.52	789.5
1025.734	866.5
1025.949	788.5
1026.163	791.5
1026.377	727.5
1026.591	776.5
1026.805	717.5
1027.019	684.5
1027.233	658.5
1027.447	634.5
1027.661	714.5
1027.875	673.5
1028.088	673.5
1028.302	601.5
1028.516	594.5
1028.73	598.5
1028.943	586.5
1029.157	559.5
1029.37	503.5
1029.584	-1.5
1029.797	-2.5
1030.011	1.5
1030.224	-2.5
