Data from QEP037381__186__10-45-44-539.txt Node

Date: Wed Dec 21 10:45:44 EST 2022
User: dcclab
Spectrometer: QEP03738
Trigger mode: 4
Integration Time (sec): 1.000000E1
Scans to average: 1
Electric dark correction enabled: true
Nonlinearity correction enabled: false
Boxcar width: 0
XAxis mode: Wavelengths
Number of Pixels in Spectrum: 1044
>>>>>Begin Spectral Data<<<<<
784.041	13.38
784.3	1.38
784.558	-3.62
784.817	-1.62
785.075	122475.38
785.334	20258.38
785.592	9177.38
785.851	6413.38
786.109	4678.38
786.368	3657.38
786.626	2950.38
786.884	2442.38
787.143	2023.38
787.401	1667.38
787.659	1504.38
787.917	1289.38
788.175	1162.38
788.433	1032.38
788.691	894.38
788.949	851.38
789.207	790.38
789.465	720.38
789.723	675.38
789.98	609.38
790.238	638.38
790.496	602.38
790.753	572.38
791.011	626.38
791.268	556.38
791.526	525.38
791.783	548.38
792.041	536.38
792.298	442.38
792.556	513.38
792.813	485.38
793.07	472.38
793.327	444.38
793.584	530.38
793.841	463.38
794.099	465.38
794.356	528.38
794.613	433.38
794.869	457.38
795.126	424.38
795.383	413.38
795.64	434.38
795.897	381.38
796.153	450.38
796.41	427.38
796.667	405.38
796.923	417.38
797.18	404.38
797.436	456.38
797.693	384.38
797.949	460.38
798.206	473.38
798.462	391.38
798.718	461.38
798.974	433.38
799.231	469.38
799.487	460.38
799.743	459.38
799.999	491.38
800.255	497.38
800.511	449.38
800.767	503.38
801.023	492.38
801.279	525.38
801.534	546.38
801.79	571.38
802.046	587.38
802.302	722.38
802.557	778.38
802.813	947.38
803.068	1111.38
803.324	1541.38
803.579	2045.38
803.835	2804.38
804.09	3813.38
804.345	4972.38
804.601	6239.38
804.856	7509.38
805.111	8684.38
805.366	9470.38
805.621	10061.38
805.876	10509.38
806.131	10744.38
806.386	10891.38
806.641	11074.38
806.896	11263.38
807.151	11457.38
807.406	11630.38
807.661	11821.38
807.915	12031.38
808.17	12200.38
808.425	12354.38
808.679	12436.38
808.934	12596.38
809.188	12655.38
809.443	12767.38
809.697	13080.38
809.951	12965.38
810.206	13093.38
810.46	13242.38
810.714	13274.38
810.968	13454.38
811.223	13515.38
811.477	13692.38
811.731	13797.38
811.985	13774.38
812.239	13844.38
812.493	13888.38
812.747	13955.38
813	14028.38
813.254	14049.38
813.508	14099.38
813.762	14144.38
814.015	14148.38
814.269	14418.38
814.522	14505.38
814.776	14571.38
815.03	14822.38
815.283	15013.38
815.536	15171.38
815.79	15412.38
816.043	15640.38
816.296	15760.38
816.55	16002.38
816.803	16241.38
817.056	16402.38
817.309	16558.38
817.562	16642.38
817.815	16799.38
818.068	17019.38
818.321	17231.38
818.574	17339.38
818.827	17566.38
819.079	17739.38
819.332	18150.38
819.585	18266.38
819.838	18495.38
820.09	18568.38
820.343	18756.38
820.595	18737.38
820.848	18903.38
821.1	18990.38
821.353	19002.38
821.605	18995.38
821.857	18983.38
822.11	18827.38
822.362	18864.38
822.614	18740.38
822.866	18776.38
823.118	18776.38
823.37	18914.38
823.622	18940.38
823.874	18930.38
824.126	19053.38
824.378	19102.38
824.63	19085.38
824.882	19193.38
825.134	19125.38
825.385	19095.38
825.637	19011.38
825.888	18958.38
826.14	18898.38
826.392	18857.38
826.643	18700.38
826.895	18688.38
827.146	18524.38
827.397	18586.38
827.649	18592.38
827.9	18478.38
828.151	18559.38
828.402	18648.38
828.653	18716.38
828.905	18711.38
829.156	18764.38
829.407	18621.38
829.658	18771.38
829.909	18808.38
830.159	18750.38
830.41	18655.38
830.661	18542.38
830.912	18384.38
831.162	18279.38
831.413	18335.38
831.664	18278.38
831.914	18245.38
832.165	18298.38
832.415	18258.38
832.666	18340.38
832.916	18376.38
833.167	18136.38
833.417	18362.38
833.667	18185.38
833.917	18098.38
834.168	18002.38
834.418	18128.38
834.668	17997.38
834.918	17930.38
835.168	17803.38
835.418	17800.38
835.668	17727.38
835.918	17718.38
836.167	17601.38
836.417	17496.38
836.667	17642.38
836.917	17576.38
837.166	17552.38
837.416	17548.38
837.666	17569.38
837.915	17503.38
838.165	17350.38
838.414	17410.38
838.663	17294.38
838.913	17267.38
839.162	17276.38
839.411	17312.38
839.661	17198.38
839.91	17140.38
840.159	17176.38
840.408	17092.38
840.657	17156.38
840.906	17121.38
841.155	17177.38
841.404	17125.38
841.653	17083.38
841.902	17144.38
842.15	17202.38
842.399	17158.38
842.648	17131.38
842.897	17025.38
843.145	16995.38
843.394	16818.38
843.642	16746.38
843.891	16731.38
844.139	16675.38
844.388	16464.38
844.636	16399.38
844.884	16429.38
845.133	16395.38
845.381	16380.38
845.629	16319.38
845.877	16378.38
846.125	16316.38
846.373	16357.38
846.621	16143.38
846.869	16223.38
847.117	16075.38
847.365	16077.38
847.613	15953.38
847.861	16013.38
848.108	15897.38
848.356	15914.38
848.604	15815.38
848.851	15859.38
849.099	15952.38
849.346	15918.38
849.594	15996.38
849.841	16116.38
850.089	16058.38
850.336	16071.38
850.583	16181.38
850.831	16082.38
851.078	15996.38
851.325	15893.38
851.572	15853.38
851.819	15713.38
852.066	15400.38
852.313	15272.38
852.56	15045.38
852.807	15098.38
853.054	15055.38
853.301	14957.38
853.548	14983.38
853.794	15183.38
854.041	15193.38
854.288	15190.38
854.534	15432.38
854.781	15328.38
855.028	15312.38
855.274	15194.38
855.52	15148.38
855.767	15123.38
856.013	15145.38
856.26	15395.38
856.506	14968.38
856.752	14984.38
856.998	14948.38
857.244	14933.38
857.49	15040.38
857.736	15047.38
857.982	15038.38
858.228	15037.38
858.474	14882.38
858.72	14817.38
858.966	14677.38
859.212	14456.38
859.458	14357.38
859.703	14238.38
859.949	14117.38
860.195	14027.38
860.44	13868.38
860.686	13810.38
860.931	13843.38
861.177	13698.38
861.422	13752.38
861.667	13656.38
861.913	13658.38
862.158	13683.38
862.403	13798.38
862.648	13775.38
862.893	13839.38
863.138	13726.38
863.384	13623.38
863.629	13725.38
863.873	13747.38
864.118	13653.38
864.363	13608.38
864.608	13515.38
864.853	13435.38
865.098	13382.38
865.342	13360.38
865.587	13300.38
865.832	13334.38
866.076	13308.38
866.321	13241.38
866.565	13067.38
866.81	13038.38
867.054	13044.38
867.298	13058.38
867.543	12975.38
867.787	12920.38
868.031	12945.38
868.275	12930.38
868.519	12937.38
868.764	12813.38
869.008	12823.38
869.252	12826.38
869.496	12715.38
869.739	12763.38
869.983	12772.38
870.227	12745.38
870.471	12750.38
870.715	12821.38
870.958	12816.38
871.202	12851.38
871.446	12823.38
871.689	12757.38
871.933	12836.38
872.176	12834.38
872.42	12810.38
872.663	12706.38
872.906	12679.38
873.15	12681.38
873.393	12634.38
873.636	12742.38
873.879	12529.38
874.122	12415.38
874.366	12194.38
874.609	12147.38
874.852	12048.38
875.095	11915.38
875.337	11847.38
875.58	11723.38
875.823	11812.38
876.066	11795.38
876.309	11808.38
876.551	11649.38
876.794	11537.38
877.037	11640.38
877.279	11516.38
877.522	11517.38
877.764	11584.38
878.007	11543.38
878.249	11541.38
878.491	11415.38
878.734	11552.38
878.976	11520.38
879.218	11415.38
879.46	11382.38
879.702	11247.38
879.945	11100.38
880.187	11000.38
880.429	11009.38
880.671	10990.38
880.912	10946.38
881.154	10812.38
881.396	10753.38
881.638	10878.38
881.88	10842.38
882.121	10764.38
882.363	10798.38
882.605	10867.38
882.846	10736.38
883.088	10787.38
883.329	10675.38
883.571	10718.38
883.812	10790.38
884.053	10985.38
884.295	11136.38
884.536	11363.38
884.777	11210.38
885.018	11180.38
885.259	11087.38
885.5	10965.38
885.742	11234.38
885.982	10974.38
886.223	10834.38
886.464	10816.38
886.705	10572.38
886.946	10593.38
887.187	10456.38
887.428	10428.38
887.668	10169.38
887.909	10112.38
888.15	9989.38
888.39	9906.38
888.631	9828.38
888.871	9810.38
889.111	9719.38
889.352	9639.38
889.592	9545.38
889.833	9479.38
890.073	9462.38
890.313	9448.38
890.553	9238.38
890.793	9203.38
891.033	9237.38
891.273	9151.38
891.513	9162.38
891.753	9168.38
891.993	9106.38
892.233	9155.38
892.473	9207.38
892.713	9100.38
892.952	9128.38
893.192	9169.38
893.432	9143.38
893.671	9093.38
893.911	9058.38
894.15	9047.38
894.39	8902.38
894.629	8853.38
894.869	8866.38
895.108	8847.38
895.347	8749.38
895.587	8716.38
895.826	8682.38
896.065	8620.38
896.304	8632.38
896.543	8671.38
896.782	8517.38
897.021	8552.38
897.26	8544.38
897.499	8544.38
897.738	8513.38
897.977	8435.38
898.216	8362.38
898.454	8316.38
898.693	8235.38
898.932	8277.38
899.17	8178.38
899.409	8168.38
899.647	8103.38
899.886	8092.38
900.124	8168.38
900.363	8118.38
900.601	8138.38
900.839	8123.38
901.078	8174.38
901.316	8166.38
901.554	8224.38
901.792	8249.38
902.03	8270.38
902.268	8235.38
902.506	8202.38
902.744	8190.38
902.982	8106.38
903.22	7974.38
903.458	7856.38
903.695	7875.38
903.933	7756.38
904.171	7567.38
904.409	7457.38
904.646	7469.38
904.884	7306.38
905.121	7281.38
905.359	7190.38
905.596	7116.38
905.833	7044.38
906.071	7055.38
906.308	7074.38
906.545	6981.38
906.783	6999.38
907.02	6990.38
907.257	6921.38
907.494	6906.38
907.731	6905.38
907.968	6923.38
908.205	6834.38
908.442	6824.38
908.679	6764.38
908.915	6689.38
909.152	6690.38
909.389	6544.38
909.626	6612.38
909.862	6510.38
910.099	6556.38
910.335	6525.38
910.572	6366.38
910.808	6426.38
911.045	6344.38
911.281	6312.38
911.518	6457.38
911.754	6290.38
911.99	6282.38
912.226	6283.38
912.463	6154.38
912.699	6161.38
912.935	6105.38
913.171	6062.38
913.407	6020.38
913.643	5930.38
913.879	5899.38
914.114	5896.38
914.35	5790.38
914.586	5742.38
914.822	5713.38
915.057	5744.38
915.293	5585.38
915.529	5623.38
915.764	5684.38
916	5598.38
916.235	5626.38
916.471	5571.38
916.706	5510.38
916.941	5578.38
917.177	5540.38
917.412	5543.38
917.647	5571.38
917.882	5466.38
918.117	5497.38
918.352	5500.38
918.588	5499.38
918.823	5408.38
919.057	5361.38
919.292	5258.38
919.527	5335.38
919.762	5194.38
919.997	5225.38
920.232	5147.38
920.466	5168.38
920.701	4989.38
920.935	5048.38
921.17	4977.38
921.405	4921.38
921.639	4938.38
921.873	4913.38
922.108	4890.38
922.342	4922.38
922.576	4832.38
922.811	4799.38
923.045	4883.38
923.279	4840.38
923.513	4757.38
923.747	4776.38
923.981	4743.38
924.215	4716.38
924.449	4685.38
924.683	4620.38
924.917	4598.38
925.151	4606.38
925.385	4650.38
925.618	4568.38
925.852	4560.38
926.086	4498.38
926.319	4516.38
926.553	4511.38
926.786	4536.38
927.02	4546.38
927.253	4564.38
927.486	4488.38
927.72	4443.38
927.953	4539.38
928.186	4496.38
928.42	4472.38
928.653	4436.38
928.886	4361.38
929.119	4388.38
929.352	4368.38
929.585	4379.38
929.818	4254.38
930.051	4330.38
930.284	4322.38
930.516	4185.38
930.749	4180.38
930.982	4229.38
931.215	4184.38
931.447	4078.38
931.68	4147.38
931.912	4081.38
932.145	4112.38
932.377	4114.38
932.61	4228.38
932.842	4072.38
933.074	4101.38
933.307	4072.38
933.539	4124.38
933.771	4139.38
934.003	4057.38
934.236	4147.38
934.468	4187.38
934.7	4059.38
934.932	4086.38
935.164	4017.38
935.395	4021.38
935.627	4002.38
935.859	4001.38
936.091	3951.38
936.323	4009.38
936.554	4026.38
936.786	3924.38
937.017	3905.38
937.249	3899.38
937.481	3842.38
937.712	3958.38
937.943	3894.38
938.175	3869.38
938.406	3878.38
938.637	3929.38
938.869	3834.38
939.1	3901.38
939.331	3811.38
939.562	3882.38
939.793	3838.38
940.024	3866.38
940.255	3818.38
940.486	3796.38
940.717	3760.38
940.948	3761.38
941.179	3700.38
941.409	3713.38
941.64	3719.38
941.871	3721.38
942.102	3669.38
942.332	3696.38
942.563	3722.38
942.793	3703.38
943.024	3642.38
943.254	3705.38
943.484	3741.38
943.715	3757.38
943.945	3675.38
944.175	3626.38
944.405	3610.38
944.636	3634.38
944.866	3670.38
945.096	3674.38
945.326	3639.38
945.556	3656.38
945.786	3671.38
946.016	3600.38
946.245	3521.38
946.475	3529.38
946.705	3544.38
946.935	3485.38
947.164	3510.38
947.394	3465.38
947.624	3455.38
947.853	3461.38
948.083	3415.38
948.312	3396.38
948.542	3364.38
948.771	3348.38
949	3347.38
949.23	3374.38
949.459	3389.38
949.688	3449.38
949.917	3360.38
950.146	3386.38
950.375	3408.38
950.604	3337.38
950.833	3422.38
951.062	3391.38
951.291	3328.38
951.52	3321.38
951.749	3334.38
951.978	3300.38
952.206	3295.38
952.435	3246.38
952.664	3292.38
952.892	3278.38
953.121	3268.38
953.349	3306.38
953.578	3288.38
953.806	3173.38
954.035	3193.38
954.263	3203.38
954.491	3152.38
954.719	3186.38
954.948	3116.38
955.176	3149.38
955.404	3049.38
955.632	3110.38
955.86	3121.38
956.088	3121.38
956.316	3114.38
956.544	3123.38
956.772	3012.38
956.999	3028.38
957.227	3116.38
957.455	2946.38
957.683	3008.38
957.91	2949.38
958.138	2963.38
958.365	2944.38
958.593	2912.38
958.82	2850.38
959.048	2922.38
959.275	2880.38
959.502	2913.38
959.73	2885.38
959.957	2913.38
960.184	2926.38
960.411	2865.38
960.638	2923.38
960.865	2867.38
961.092	2879.38
961.319	2821.38
961.546	2903.38
961.773	2946.38
962	2835.38
962.227	2913.38
962.454	2837.38
962.68	2838.38
962.907	2822.38
963.134	2758.38
963.36	2782.38
963.587	2820.38
963.813	2739.38
964.04	2806.38
964.266	2721.38
964.493	2810.38
964.719	2774.38
964.945	2792.38
965.171	2668.38
965.398	2709.38
965.624	2748.38
965.85	2637.38
966.076	2621.38
966.302	2633.38
966.528	2631.38
966.754	2656.38
966.98	2641.38
967.206	2638.38
967.431	2564.38
967.657	2645.38
967.883	2621.38
968.109	2582.38
968.334	2519.38
968.56	2528.38
968.785	2552.38
969.011	2502.38
969.236	2564.38
969.462	2530.38
969.687	2526.38
969.912	2536.38
970.138	2556.38
970.363	2475.38
970.588	2497.38
970.813	2489.38
971.038	2458.38
971.263	2450.38
971.488	2488.38
971.713	2495.38
971.938	2479.38
972.163	2397.38
972.388	2448.38
972.613	2385.38
972.838	2392.38
973.062	2369.38
973.287	2358.38
973.512	2304.38
973.736	2366.38
973.961	2341.38
974.185	2327.38
974.41	2339.38
974.634	2244.38
974.858	2285.38
975.083	2317.38
975.307	2335.38
975.531	2289.38
975.755	2184.38
975.98	2214.38
976.204	2136.38
976.428	2151.38
976.652	2147.38
976.876	2145.38
977.1	2193.38
977.324	2114.38
977.547	2179.38
977.771	2175.38
977.995	2152.38
978.219	2108.38
978.442	2196.38
978.666	2142.38
978.89	2112.38
979.113	2116.38
979.337	2100.38
979.56	2083.38
979.783	2180.38
980.007	2045.38
980.23	2098.38
980.453	2045.38
980.677	2091.38
980.9	2030.38
981.123	1983.38
981.346	2050.38
981.569	2026.38
981.792	2063.38
982.015	2010.38
982.238	1979.38
982.461	2004.38
982.684	1982.38
982.907	1936.38
983.129	1966.38
983.352	1986.38
983.575	1976.38
983.797	1979.38
984.02	1935.38
984.242	1899.38
984.465	1940.38
984.687	1953.38
984.91	1987.38
985.132	1931.38
985.354	1945.38
985.577	1899.38
985.799	1889.38
986.021	1798.38
986.243	1842.38
986.465	1864.38
986.687	1893.38
986.909	1960.38
987.131	1876.38
987.353	1845.38
987.575	1866.38
987.797	1818.38
988.019	1762.38
988.241	1854.38
988.462	1776.38
988.684	1859.38
988.906	1883.38
989.127	1903.38
989.349	1769.38
989.57	1792.38
989.792	1850.38
990.013	1844.38
990.234	1830.38
990.456	1845.38
990.677	1860.38
990.898	1792.38
991.119	1792.38
991.341	1807.38
991.562	1745.38
991.783	1776.38
992.004	1683.38
992.225	1677.38
992.446	1755.38
992.667	1633.38
992.887	1708.38
993.108	1634.38
993.329	1773.38
993.55	1703.38
993.77	1642.38
993.991	1626.38
994.212	1660.38
994.432	1673.38
994.653	1667.38
994.873	1650.38
995.093	1513.38
995.314	1595.38
995.534	1672.38
995.754	1676.38
995.975	1695.38
996.195	1601.38
996.415	1658.38
996.635	1598.38
996.855	1623.38
997.075	1618.38
997.295	1595.38
997.515	1586.38
997.735	1620.38
997.955	1597.38
998.174	1578.38
998.394	1551.38
998.614	1612.38
998.834	1548.38
999.053	1623.38
999.273	1564.38
999.492	1665.38
999.712	1591.38
999.931	1555.38
1000.151	1579.38
1000.37	1576.38
1000.589	1619.38
1000.809	1539.38
1001.028	1641.38
1001.247	1579.38
1001.466	1472.38
1001.685	1604.38
1001.904	1567.38
1002.123	1568.38
1002.342	1565.38
1002.561	1511.38
1002.78	1507.38
1002.999	1578.38
1003.218	1524.38
1003.436	1497.38
1003.655	1540.38
1003.874	1483.38
1004.092	1507.38
1004.311	1527.38
1004.53	1515.38
1004.748	1586.38
1004.966	1520.38
1005.185	1566.38
1005.403	1528.38
1005.622	1534.38
1005.84	1578.38
1006.058	1483.38
1006.276	1534.38
1006.494	1997.38
1006.712	1462.38
1006.931	1550.38
1007.149	1472.38
1007.367	1521.38
1007.584	1507.38
1007.802	1556.38
1008.02	1485.38
1008.238	1576.38
1008.456	1572.38
1008.673	1439.38
1008.891	1549.38
1009.109	1512.38
1009.326	1570.38
1009.544	1657.38
1009.761	1551.38
1009.979	1640.38
1010.196	1633.38
1010.413	1727.38
1010.631	1792.38
1010.848	1824.38
1011.065	1794.38
1011.282	1759.38
1011.5	1709.38
1011.717	1822.38
1011.934	1777.38
1012.151	1778.38
1012.368	1761.38
1012.585	1701.38
1012.801	1737.38
1013.018	1727.38
1013.235	1652.38
1013.452	1713.38
1013.669	1727.38
1013.885	1718.38
1014.102	1738.38
1014.318	1745.38
1014.535	1683.38
1014.751	1711.38
1014.968	1710.38
1015.184	1713.38
1015.401	1620.38
1015.617	1658.38
1015.833	1611.38
1016.049	1619.38
1016.266	1556.38
1016.482	1589.38
1016.698	1545.38
1016.914	1553.38
1017.13	1504.38
1017.346	1490.38
1017.562	1567.38
1017.778	1489.38
1017.993	1465.38
1018.209	1510.38
1018.425	1490.38
1018.641	1465.38
1018.856	1425.38
1019.072	1473.38
1019.288	1513.38
1019.503	1469.38
1019.719	1366.38
1019.934	1394.38
1020.149	1442.38
1020.365	1388.38
1020.58	1334.38
1020.795	1390.38
1021.011	1335.38
1021.226	1300.38
1021.441	1340.38
1021.656	1247.38
1021.871	1190.38
1022.086	1202.38
1022.301	1161.38
1022.516	1162.38
1022.731	1211.38
1022.946	1143.38
1023.16	1099.38
1023.375	1084.38
1023.59	1070.38
1023.804	1036.38
1024.019	1155.38
1024.234	994.38
1024.448	1012.38
1024.663	971.38
1024.877	960.38
1025.092	998.38
1025.306	1013.38
1025.52	888.38
1025.734	989.38
1025.949	912.38
1026.163	880.38
1026.377	837.38
1026.591	876.38
1026.805	795.38
1027.019	811.38
1027.233	768.38
1027.447	733.38
1027.661	807.38
1027.875	745.38
1028.088	775.38
1028.302	683.38
1028.516	674.38
1028.73	682.38
1028.943	693.38
1029.157	626.38
1029.37	579.38
1029.584	-3.62
1029.797	-1.62
1030.011	1.38
1030.224	-5.62
