Data from QEP037381__168__10-42-44-538.txt Node

Date: Wed Dec 21 10:42:44 EST 2022
User: dcclab
Spectrometer: QEP03738
Trigger mode: 4
Integration Time (sec): 1.000000E1
Scans to average: 1
Electric dark correction enabled: true
Nonlinearity correction enabled: false
Boxcar width: 0
XAxis mode: Wavelengths
Number of Pixels in Spectrum: 1044
>>>>>Begin Spectral Data<<<<<
784.041	11.12
784.3	1.12
784.558	-2.88
784.817	-3.88
785.075	119718.12
785.334	20416.12
785.592	9389.12
785.851	6431.12
786.109	4801.12
786.368	3701.12
786.626	2970.12
786.884	2447.12
787.143	2054.12
787.401	1667.12
787.659	1549.12
787.917	1288.12
788.175	1192.12
788.433	1043.12
788.691	924.12
788.949	859.12
789.207	813.12
789.465	707.12
789.723	685.12
789.98	625.12
790.238	660.12
790.496	610.12
790.753	582.12
791.011	639.12
791.268	574.12
791.526	562.12
791.783	559.12
792.041	545.12
792.298	460.12
792.556	509.12
792.813	498.12
793.07	487.12
793.327	457.12
793.584	558.12
793.841	471.12
794.099	501.12
794.356	534.12
794.613	447.12
794.869	474.12
795.126	449.12
795.383	430.12
795.64	452.12
795.897	408.12
796.153	459.12
796.41	452.12
796.667	432.12
796.923	448.12
797.18	433.12
797.436	485.12
797.693	451.12
797.949	489.12
798.206	495.12
798.462	433.12
798.718	498.12
798.974	440.12
799.231	495.12
799.487	486.12
799.743	513.12
799.999	540.12
800.255	529.12
800.511	521.12
800.767	556.12
801.023	555.12
801.279	599.12
801.534	625.12
801.79	679.12
802.046	717.12
802.302	874.12
802.557	1021.12
802.813	1253.12
803.068	1591.12
803.324	2206.12
803.579	2970.12
803.835	4150.12
804.09	5708.12
804.345	7470.12
804.601	9460.12
804.856	11487.12
805.111	13222.12
805.366	14413.12
805.621	15332.12
805.876	16034.12
806.131	16445.12
806.386	16761.12
806.641	17058.12
806.896	17284.12
807.151	17635.12
807.406	17842.12
807.661	18176.12
807.915	18525.12
808.17	18769.12
808.425	19026.12
808.679	19090.12
808.934	19374.12
809.188	19575.12
809.443	19738.12
809.697	19965.12
809.951	20083.12
810.206	20249.12
810.46	20415.12
810.714	20600.12
810.968	20742.12
811.223	20877.12
811.477	21033.12
811.731	21227.12
811.985	21322.12
812.239	21430.12
812.493	21543.12
812.747	21622.12
813	21574.12
813.254	21646.12
813.508	21763.12
813.762	21953.12
814.015	21893.12
814.269	22122.12
814.522	22267.12
814.776	22528.12
815.03	22793.12
815.283	23153.12
815.536	23506.12
815.79	23748.12
816.043	24095.12
816.296	24458.12
816.55	24664.12
816.803	25028.12
817.056	25384.12
817.309	25629.12
817.562	25822.12
817.815	26091.12
818.068	26149.12
818.321	26469.12
818.574	26850.12
818.827	27192.12
819.079	27414.12
819.332	28047.12
819.585	28223.12
819.838	28618.12
820.09	28724.12
820.343	28898.12
820.595	29080.12
820.848	29254.12
821.1	29297.12
821.353	29334.12
821.605	29311.12
821.857	29335.12
822.11	29156.12
822.362	29219.12
822.614	29039.12
822.866	29004.12
823.118	29062.12
823.37	29119.12
823.622	29230.12
823.874	29304.12
824.126	29363.12
824.378	29343.12
824.63	29480.12
824.882	29596.12
825.134	29471.12
825.385	29470.12
825.637	29341.12
825.888	29367.12
826.14	29103.12
826.392	29138.12
826.643	28998.12
826.895	29066.12
827.146	28827.12
827.397	28709.12
827.649	28723.12
827.9	28636.12
828.151	28751.12
828.402	28714.12
828.653	28823.12
828.905	29029.12
829.156	29026.12
829.407	28973.12
829.658	29042.12
829.909	28931.12
830.159	28928.12
830.41	28743.12
830.661	28577.12
830.912	28331.12
831.162	28241.12
831.413	28221.12
831.664	28340.12
831.914	28196.12
832.165	28153.12
832.415	28129.12
832.666	28172.12
832.916	28130.12
833.167	28024.12
833.417	28108.12
833.667	27977.12
833.917	27874.12
834.168	27681.12
834.418	27748.12
834.668	27653.12
834.918	27565.12
835.168	27467.12
835.418	27239.12
835.668	27243.12
835.918	27203.12
836.167	27190.12
836.417	26945.12
836.667	27134.12
836.917	26958.12
837.166	26824.12
837.416	26920.12
837.666	26870.12
837.915	26829.12
838.165	26764.12
838.414	26650.12
838.663	26564.12
838.913	26666.12
839.162	26480.12
839.411	26597.12
839.661	26352.12
839.91	26281.12
840.159	26221.12
840.408	26226.12
840.657	26197.12
840.906	26174.12
841.155	26206.12
841.404	26274.12
841.653	26104.12
841.902	26116.12
842.15	26259.12
842.399	26340.12
842.648	26229.12
842.897	25997.12
843.145	25959.12
843.394	25714.12
843.642	25633.12
843.891	25537.12
844.139	25370.12
844.388	25208.12
844.636	25161.12
844.884	25066.12
845.133	25070.12
845.381	24980.12
845.629	25082.12
845.877	24979.12
846.125	24963.12
846.373	24971.12
846.621	24798.12
846.869	24680.12
847.117	24556.12
847.365	24496.12
847.613	24434.12
847.861	24216.12
848.108	24240.12
848.356	24159.12
848.604	24073.12
848.851	24283.12
849.099	24266.12
849.346	24349.12
849.594	24394.12
849.841	24450.12
850.089	24459.12
850.336	24519.12
850.583	24576.12
850.831	24313.12
851.078	24274.12
851.325	24077.12
851.572	24121.12
851.819	23771.12
852.066	23475.12
852.313	23248.12
852.56	23030.12
852.807	22860.12
853.054	22794.12
853.301	22832.12
853.548	22840.12
853.794	22866.12
854.041	22927.12
854.288	23096.12
854.534	23257.12
854.781	23237.12
855.028	22974.12
855.274	23100.12
855.52	22962.12
855.767	22824.12
856.013	22843.12
856.26	23015.12
856.506	22620.12
856.752	22633.12
856.998	22689.12
857.244	22636.12
857.49	22710.12
857.736	22710.12
857.982	22701.12
858.228	22573.12
858.474	22531.12
858.72	22346.12
858.966	22191.12
859.212	21916.12
859.458	21685.12
859.703	21482.12
859.949	21352.12
860.195	21137.12
860.44	21117.12
860.686	20947.12
860.931	20994.12
861.177	20753.12
861.422	20747.12
861.667	20709.12
861.913	20748.12
862.158	20732.12
862.403	20743.12
862.648	20781.12
862.893	20830.12
863.138	20822.12
863.384	20726.12
863.629	20786.12
863.873	20674.12
864.118	20540.12
864.363	20447.12
864.608	20414.12
864.853	20316.12
865.098	20297.12
865.342	20143.12
865.587	20099.12
865.832	20046.12
866.076	19986.12
866.321	19817.12
866.565	19772.12
866.81	19671.12
867.054	19652.12
867.298	19602.12
867.543	19450.12
867.787	19499.12
868.031	19433.12
868.275	19462.12
868.519	19443.12
868.764	19314.12
869.008	19298.12
869.252	19208.12
869.496	19157.12
869.739	19216.12
869.983	19036.12
870.227	19109.12
870.471	19147.12
870.715	19177.12
870.958	19109.12
871.202	19085.12
871.446	19220.12
871.689	19153.12
871.933	19125.12
872.176	19107.12
872.42	19065.12
872.663	19044.12
872.906	19075.12
873.15	18882.12
873.393	18905.12
873.636	18760.12
873.879	18586.12
874.122	18418.12
874.366	18170.12
874.609	18122.12
874.852	17859.12
875.095	17773.12
875.337	17774.12
875.58	17628.12
875.823	17598.12
876.066	17554.12
876.309	17481.12
876.551	17353.12
876.794	17294.12
877.037	17276.12
877.279	17206.12
877.522	17391.12
877.764	17313.12
878.007	17113.12
878.249	17205.12
878.491	17212.12
878.734	17137.12
878.976	17015.12
879.218	16981.12
879.46	16897.12
879.702	16793.12
879.945	16567.12
880.187	16482.12
880.429	16342.12
880.671	16335.12
880.912	16148.12
881.154	16180.12
881.396	16167.12
881.638	16225.12
881.88	16133.12
882.121	16022.12
882.363	16017.12
882.605	16090.12
882.846	15901.12
883.088	15872.12
883.329	15910.12
883.571	15834.12
883.812	15939.12
884.053	16121.12
884.295	16362.12
884.536	16491.12
884.777	16431.12
885.018	16393.12
885.259	16261.12
885.5	16160.12
885.742	16326.12
885.982	16117.12
886.223	15945.12
886.464	15868.12
886.705	15758.12
886.946	15697.12
887.187	15382.12
887.428	15292.12
887.668	15127.12
887.909	14880.12
888.15	14740.12
888.39	14697.12
888.631	14577.12
888.871	14473.12
889.111	14411.12
889.352	14366.12
889.592	14138.12
889.833	14072.12
890.073	14002.12
890.313	14005.12
890.553	13739.12
890.793	13785.12
891.033	13671.12
891.273	13563.12
891.513	13528.12
891.753	13556.12
891.993	13455.12
892.233	13515.12
892.473	13662.12
892.713	13629.12
892.952	13483.12
893.192	13558.12
893.432	13522.12
893.671	13454.12
893.911	13400.12
894.15	13334.12
894.39	13230.12
894.629	13147.12
894.869	13100.12
895.108	12964.12
895.347	12878.12
895.587	12932.12
895.826	12773.12
896.065	12710.12
896.304	12789.12
896.543	12782.12
896.782	12560.12
897.021	12617.12
897.26	12558.12
897.499	12494.12
897.738	12575.12
897.977	12352.12
898.216	12383.12
898.454	12218.12
898.693	12163.12
898.932	12089.12
899.17	12093.12
899.409	11983.12
899.647	11876.12
899.886	11901.12
900.124	11914.12
900.363	11828.12
900.601	11927.12
900.839	11952.12
901.078	11935.12
901.316	11956.12
901.554	12051.12
901.792	12030.12
902.03	11929.12
902.268	11904.12
902.506	11968.12
902.744	11809.12
902.982	11799.12
903.22	11687.12
903.458	11516.12
903.695	11436.12
903.933	11296.12
904.171	11020.12
904.409	10979.12
904.646	10843.12
904.884	10702.12
905.121	10628.12
905.359	10530.12
905.596	10491.12
905.833	10327.12
906.071	10308.12
906.308	10349.12
906.545	10247.12
906.783	10132.12
907.02	10196.12
907.257	10153.12
907.494	10140.12
907.731	10129.12
907.968	10046.12
908.205	9955.12
908.442	9974.12
908.679	9832.12
908.915	9874.12
909.152	9678.12
909.389	9577.12
909.626	9573.12
909.862	9552.12
910.099	9445.12
910.335	9479.12
910.572	9346.12
910.808	9306.12
911.045	9326.12
911.281	9296.12
911.518	9288.12
911.754	9177.12
911.99	9125.12
912.226	9075.12
912.463	9042.12
912.699	8954.12
912.935	8946.12
913.171	8819.12
913.407	8748.12
913.643	8740.12
913.879	8620.12
914.114	8496.12
914.35	8462.12
914.586	8365.12
914.822	8236.12
915.057	8332.12
915.293	8166.12
915.529	8110.12
915.764	8160.12
916	8145.12
916.235	8118.12
916.471	8109.12
916.706	7993.12
916.941	8041.12
917.177	8005.12
917.412	8007.12
917.647	8046.12
917.882	8005.12
918.117	7965.12
918.352	7934.12
918.588	7939.12
918.823	7793.12
919.057	7785.12
919.292	7673.12
919.527	7735.12
919.762	7513.12
919.997	7517.12
920.232	7406.12
920.466	7406.12
920.701	7233.12
920.935	7212.12
921.17	7166.12
921.405	7122.12
921.639	7131.12
921.873	7097.12
922.108	7072.12
922.342	7071.12
922.576	6970.12
922.811	6992.12
923.045	6986.12
923.279	7008.12
923.513	6815.12
923.747	6869.12
923.981	6824.12
924.215	6806.12
924.449	6751.12
924.683	6646.12
924.917	6629.12
925.151	6629.12
925.385	6603.12
925.618	6597.12
925.852	6579.12
926.086	6441.12
926.319	6535.12
926.553	6473.12
926.786	6483.12
927.02	6486.12
927.253	6573.12
927.486	6514.12
927.72	6460.12
927.953	6444.12
928.186	6425.12
928.42	6439.12
928.653	6338.12
928.886	6289.12
929.119	6241.12
929.352	6299.12
929.585	6256.12
929.818	6143.12
930.051	6212.12
930.284	6104.12
930.516	6016.12
930.749	5985.12
930.982	6012.12
931.215	6005.12
931.447	5867.12
931.68	5836.12
931.912	5893.12
932.145	5844.12
932.377	5822.12
932.61	5957.12
932.842	5774.12
933.074	5855.12
933.307	5783.12
933.539	5866.12
933.771	5904.12
934.003	5873.12
934.236	5856.12
934.468	5847.12
934.7	5752.12
934.932	5817.12
935.164	5741.12
935.395	5760.12
935.627	5733.12
935.859	5746.12
936.091	5606.12
936.323	5688.12
936.554	5668.12
936.786	5603.12
937.017	5542.12
937.249	5569.12
937.481	5494.12
937.712	5598.12
937.943	5457.12
938.175	5552.12
938.406	5507.12
938.637	5555.12
938.869	5462.12
939.1	5514.12
939.331	5409.12
939.562	5424.12
939.793	5381.12
940.024	5395.12
940.255	5449.12
940.486	5325.12
940.717	5333.12
940.948	5289.12
941.179	5298.12
941.409	5288.12
941.64	5231.12
941.871	5220.12
942.102	5207.12
942.332	5229.12
942.563	5279.12
942.793	5148.12
943.024	5138.12
943.254	5193.12
943.484	5238.12
943.715	5253.12
943.945	5257.12
944.175	5164.12
944.405	5132.12
944.636	5107.12
944.866	5161.12
945.096	5128.12
945.326	5092.12
945.556	5117.12
945.786	5102.12
946.016	5059.12
946.245	4908.12
946.475	4973.12
946.705	4938.12
946.935	4941.12
947.164	4912.12
947.394	4882.12
947.624	4879.12
947.853	4894.12
948.083	4830.12
948.312	4775.12
948.542	4729.12
948.771	4755.12
949	4666.12
949.23	4758.12
949.459	4725.12
949.688	4781.12
949.917	4735.12
950.146	4716.12
950.375	4767.12
950.604	4683.12
950.833	4757.12
951.062	4729.12
951.291	4669.12
951.52	4598.12
951.749	4634.12
951.978	4610.12
952.206	4603.12
952.435	4569.12
952.664	4605.12
952.892	4619.12
953.121	4578.12
953.349	4529.12
953.578	4551.12
953.806	4511.12
954.035	4443.12
954.263	4503.12
954.491	4374.12
954.719	4446.12
954.948	4412.12
955.176	4376.12
955.404	4295.12
955.632	4337.12
955.86	4337.12
956.088	4303.12
956.316	4315.12
956.544	4316.12
956.772	4211.12
956.999	4197.12
957.227	4300.12
957.455	4174.12
957.683	4159.12
957.91	4098.12
958.138	4115.12
958.365	4085.12
958.593	4074.12
958.82	4006.12
959.048	4062.12
959.275	4050.12
959.502	4041.12
959.73	3973.12
959.957	4016.12
960.184	4055.12
960.411	3970.12
960.638	4066.12
960.865	3971.12
961.092	4015.12
961.319	3958.12
961.546	4024.12
961.773	3986.12
962	3952.12
962.227	4028.12
962.454	3911.12
962.68	3924.12
962.907	3917.12
963.134	3857.12
963.36	3878.12
963.587	3884.12
963.813	3769.12
964.04	3794.12
964.266	3723.12
964.493	3810.12
964.719	3760.12
964.945	3722.12
965.171	3597.12
965.398	3658.12
965.624	3672.12
965.85	3581.12
966.076	3622.12
966.302	3635.12
966.528	3570.12
966.754	3634.12
966.98	3629.12
967.206	3584.12
967.431	3444.12
967.657	3581.12
967.883	3528.12
968.109	3540.12
968.334	3517.12
968.56	3461.12
968.785	3480.12
969.011	3454.12
969.236	3476.12
969.462	3403.12
969.687	3419.12
969.912	3481.12
970.138	3533.12
970.363	3395.12
970.588	3443.12
970.813	3383.12
971.038	3310.12
971.263	3379.12
971.488	3378.12
971.713	3411.12
971.938	3349.12
972.163	3246.12
972.388	3279.12
972.613	3242.12
972.838	3254.12
973.062	3231.12
973.287	3237.12
973.512	3143.12
973.736	3199.12
973.961	3187.12
974.185	3142.12
974.41	3170.12
974.634	3087.12
974.858	3047.12
975.083	3098.12
975.307	3078.12
975.531	3029.12
975.755	2938.12
975.98	3005.12
976.204	2902.12
976.428	2930.12
976.652	2918.12
976.876	2890.12
977.1	2942.12
977.324	2878.12
977.547	2916.12
977.771	2940.12
977.995	2883.12
978.219	2832.12
978.442	2946.12
978.666	2897.12
978.89	2862.12
979.113	2838.12
979.337	2866.12
979.56	2809.12
979.783	2920.12
980.007	2771.12
980.23	2815.12
980.453	2770.12
980.677	2799.12
980.9	2773.12
981.123	2656.12
981.346	2751.12
981.569	2687.12
981.792	2770.12
982.015	2719.12
982.238	2662.12
982.461	2648.12
982.684	2603.12
982.907	2593.12
983.129	2587.12
983.352	2631.12
983.575	2616.12
983.797	2610.12
984.02	2522.12
984.242	2560.12
984.465	2553.12
984.687	2583.12
984.91	2579.12
985.132	2517.12
985.354	2566.12
985.577	2528.12
985.799	2480.12
986.021	2423.12
986.243	2410.12
986.465	2439.12
986.687	2518.12
986.909	2507.12
987.131	2438.12
987.353	2395.12
987.575	2453.12
987.797	2419.12
988.019	2359.12
988.241	2404.12
988.462	2376.12
988.684	2384.12
988.906	2403.12
989.127	2459.12
989.349	2338.12
989.57	2372.12
989.792	2384.12
990.013	2388.12
990.234	2379.12
990.456	2415.12
990.677	2342.12
990.898	2337.12
991.119	2312.12
991.341	2324.12
991.562	2273.12
991.783	2287.12
992.004	2234.12
992.225	2186.12
992.446	2238.12
992.667	2163.12
992.887	2266.12
993.108	2115.12
993.329	2265.12
993.55	2212.12
993.77	2145.12
993.991	2121.12
994.212	2135.12
994.432	2175.12
994.653	2121.12
994.873	2127.12
995.093	2047.12
995.314	2049.12
995.534	2110.12
995.754	2131.12
995.975	2151.12
996.195	2036.12
996.415	2088.12
996.635	2038.12
996.855	2078.12
997.075	2035.12
997.295	2059.12
997.515	2016.12
997.735	2067.12
997.955	2020.12
998.174	2026.12
998.394	1994.12
998.614	2036.12
998.834	1964.12
999.053	2031.12
999.273	2020.12
999.492	2065.12
999.712	1984.12
999.931	1964.12
1000.151	2010.12
1000.37	1976.12
1000.589	2026.12
1000.809	1965.12
1001.028	2042.12
1001.247	1960.12
1001.466	1831.12
1001.685	1988.12
1001.904	1933.12
1002.123	1919.12
1002.342	1930.12
1002.561	1861.12
1002.78	1890.12
1002.999	1958.12
1003.218	1871.12
1003.436	1859.12
1003.655	1911.12
1003.874	1800.12
1004.092	1828.12
1004.311	1872.12
1004.53	1865.12
1004.748	1934.12
1004.966	1864.12
1005.185	1895.12
1005.403	1876.12
1005.622	1870.12
1005.84	1926.12
1006.058	1831.12
1006.276	1820.12
1006.494	2302.12
1006.712	1850.12
1006.931	1895.12
1007.149	1778.12
1007.367	1800.12
1007.584	1838.12
1007.802	1871.12
1008.02	1822.12
1008.238	1900.12
1008.456	1903.12
1008.673	1776.12
1008.891	1894.12
1009.109	1797.12
1009.326	1851.12
1009.544	1974.12
1009.761	1880.12
1009.979	1974.12
1010.196	1998.12
1010.413	2080.12
1010.631	2147.12
1010.848	2184.12
1011.065	2178.12
1011.282	2136.12
1011.5	2021.12
1011.717	2175.12
1011.934	2093.12
1012.151	2147.12
1012.368	2079.12
1012.585	2032.12
1012.801	2080.12
1013.018	2055.12
1013.235	2033.12
1013.452	2038.12
1013.669	2045.12
1013.885	2028.12
1014.102	2093.12
1014.318	2043.12
1014.535	1976.12
1014.751	2040.12
1014.968	2023.12
1015.184	2047.12
1015.401	1958.12
1015.617	1948.12
1015.833	1925.12
1016.049	1908.12
1016.266	1894.12
1016.482	1890.12
1016.698	1827.12
1016.914	1877.12
1017.13	1787.12
1017.346	1794.12
1017.562	1843.12
1017.778	1784.12
1017.993	1754.12
1018.209	1759.12
1018.425	1770.12
1018.641	1710.12
1018.856	1707.12
1019.072	1764.12
1019.288	1795.12
1019.503	1734.12
1019.719	1627.12
1019.934	1661.12
1020.149	1714.12
1020.365	1665.12
1020.58	1595.12
1020.795	1660.12
1021.011	1542.12
1021.226	1566.12
1021.441	1565.12
1021.656	1487.12
1021.871	1431.12
1022.086	1402.12
1022.301	1396.12
1022.516	1371.12
1022.731	1451.12
1022.946	1317.12
1023.16	1332.12
1023.375	1287.12
1023.59	1273.12
1023.804	1234.12
1024.019	1321.12
1024.234	1183.12
1024.448	1214.12
1024.663	1136.12
1024.877	1165.12
1025.092	1178.12
1025.306	1171.12
1025.52	1068.12
1025.734	1159.12
1025.949	1062.12
1026.163	1049.12
1026.377	978.12
1026.591	1033.12
1026.805	932.12
1027.019	945.12
1027.233	913.12
1027.447	837.12
1027.661	945.12
1027.875	888.12
1028.088	891.12
1028.302	794.12
1028.516	793.12
1028.73	789.12
1028.943	793.12
1029.157	723.12
1029.37	688.12
1029.584	1.12
1029.797	-1.88
1030.011	-3.88
1030.224	-0.88
