Data from QEP037381__190__10-46-24-539.txt Node

Date: Wed Dec 21 10:46:24 EST 2022
User: dcclab
Spectrometer: QEP03738
Trigger mode: 4
Integration Time (sec): 1.000000E1
Scans to average: 1
Electric dark correction enabled: true
Nonlinearity correction enabled: false
Boxcar width: 0
XAxis mode: Wavelengths
Number of Pixels in Spectrum: 1044
>>>>>Begin Spectral Data<<<<<
784.041	10.75
784.3	0.75
784.558	-3.25
784.817	-5.25
785.075	112497.75
785.334	19369.75
785.592	8931.75
785.851	6194.75
786.109	4626.75
786.368	3607.75
786.626	2890.75
786.884	2418.75
787.143	2007.75
787.401	1682.75
787.659	1513.75
787.917	1293.75
788.175	1155.75
788.433	1020.75
788.691	901.75
788.949	858.75
789.207	797.75
789.465	692.75
789.723	667.75
789.98	602.75
790.238	643.75
790.496	604.75
790.753	572.75
791.011	622.75
791.268	531.75
791.526	547.75
791.783	546.75
792.041	536.75
792.298	436.75
792.556	505.75
792.813	481.75
793.07	457.75
793.327	459.75
793.584	527.75
793.841	453.75
794.099	478.75
794.356	507.75
794.613	422.75
794.869	461.75
795.126	431.75
795.383	401.75
795.64	430.75
795.897	372.75
796.153	431.75
796.41	426.75
796.667	408.75
796.923	407.75
797.18	406.75
797.436	445.75
797.693	399.75
797.949	439.75
798.206	483.75
798.462	391.75
798.718	449.75
798.974	415.75
799.231	463.75
799.487	447.75
799.743	445.75
799.999	473.75
800.255	466.75
800.511	436.75
800.767	497.75
801.023	452.75
801.279	481.75
801.534	519.75
801.79	556.75
802.046	575.75
802.302	662.75
802.557	728.75
802.813	859.75
803.068	1001.75
803.324	1356.75
803.579	1780.75
803.835	2411.75
804.09	3323.75
804.345	4287.75
804.601	5350.75
804.856	6514.75
805.111	7559.75
805.366	8276.75
805.621	8826.75
805.876	9206.75
806.131	9419.75
806.386	9573.75
806.641	9706.75
806.896	9931.75
807.151	10093.75
807.406	10165.75
807.661	10389.75
807.915	10612.75
808.17	10685.75
808.425	10763.75
808.679	10840.75
808.934	11056.75
809.188	11077.75
809.443	11164.75
809.697	11355.75
809.951	11331.75
810.206	11468.75
810.46	11648.75
810.714	11699.75
810.968	11736.75
811.223	11850.75
811.477	11970.75
811.731	12023.75
811.985	12031.75
812.239	12049.75
812.493	12170.75
812.747	12231.75
813	12216.75
813.254	12316.75
813.508	12379.75
813.762	12369.75
814.015	12385.75
814.269	12502.75
814.522	12659.75
814.776	12725.75
815.03	12881.75
815.283	13108.75
815.536	13348.75
815.79	13452.75
816.043	13714.75
816.296	13847.75
816.55	13934.75
816.803	14143.75
817.056	14359.75
817.309	14394.75
817.562	14570.75
817.815	14757.75
818.068	14787.75
818.321	14931.75
818.574	14995.75
818.827	15339.75
819.079	15422.75
819.332	15686.75
819.585	15880.75
819.838	16172.75
820.09	16088.75
820.343	16375.75
820.595	16288.75
820.848	16452.75
821.1	16504.75
821.353	16432.75
821.605	16512.75
821.857	16648.75
822.11	16382.75
822.362	16261.75
822.614	16317.75
822.866	16430.75
823.118	16267.75
823.37	16419.75
823.622	16501.75
823.874	16530.75
824.126	16647.75
824.378	16591.75
824.63	16613.75
824.882	16732.75
825.134	16633.75
825.385	16642.75
825.637	16557.75
825.888	16554.75
826.14	16540.75
826.392	16357.75
826.643	16309.75
826.895	16293.75
827.146	16252.75
827.397	16143.75
827.649	16194.75
827.9	16048.75
828.151	16072.75
828.402	16105.75
828.653	16158.75
828.905	16231.75
829.156	16235.75
829.407	16237.75
829.658	16324.75
829.909	16333.75
830.159	16299.75
830.41	16230.75
830.661	16039.75
830.912	16014.75
831.162	15936.75
831.413	15948.75
831.664	15926.75
831.914	15931.75
832.165	15907.75
832.415	15877.75
832.666	15877.75
832.916	15923.75
833.167	15782.75
833.417	15938.75
833.667	15851.75
833.917	15816.75
834.168	15784.75
834.418	15670.75
834.668	15607.75
834.918	15499.75
835.168	15500.75
835.418	15435.75
835.668	15430.75
835.918	15433.75
836.167	15376.75
836.417	15282.75
836.667	15271.75
836.917	15314.75
837.166	15209.75
837.416	15298.75
837.666	15374.75
837.915	15206.75
838.165	15268.75
838.414	15113.75
838.663	15087.75
838.913	15099.75
839.162	15019.75
839.411	15054.75
839.661	14910.75
839.91	14931.75
840.159	14846.75
840.408	15016.75
840.657	14952.75
840.906	14962.75
841.155	14915.75
841.404	14926.75
841.653	14899.75
841.902	14923.75
842.15	14962.75
842.399	14909.75
842.648	14912.75
842.897	14945.75
843.145	14845.75
843.394	14722.75
843.642	14706.75
843.891	14608.75
844.139	14478.75
844.388	14369.75
844.636	14339.75
844.884	14255.75
845.133	14278.75
845.381	14222.75
845.629	14229.75
845.877	14252.75
846.125	14168.75
846.373	14230.75
846.621	14051.75
846.869	14119.75
847.117	14087.75
847.365	13975.75
847.613	13965.75
847.861	13907.75
848.108	13926.75
848.356	13850.75
848.604	13799.75
848.851	13764.75
849.099	13802.75
849.346	13916.75
849.594	14043.75
849.841	14059.75
850.089	13985.75
850.336	14042.75
850.583	14183.75
850.831	14030.75
851.078	13877.75
851.325	13879.75
851.572	13795.75
851.819	13690.75
852.066	13473.75
852.313	13261.75
852.56	13229.75
852.807	13148.75
853.054	13077.75
853.301	13054.75
853.548	13108.75
853.794	13317.75
854.041	13224.75
854.288	13234.75
854.534	13447.75
854.781	13355.75
855.028	13398.75
855.274	13349.75
855.52	13329.75
855.767	13191.75
856.013	13252.75
856.26	13472.75
856.506	13065.75
856.752	12996.75
856.998	13026.75
857.244	13031.75
857.49	13184.75
857.736	13132.75
857.982	13121.75
858.228	13149.75
858.474	12998.75
858.72	12940.75
858.966	12735.75
859.212	12723.75
859.458	12696.75
859.703	12433.75
859.949	12289.75
860.195	12253.75
860.44	12121.75
860.686	12185.75
860.931	12183.75
861.177	12010.75
861.422	11991.75
861.667	11947.75
861.913	11934.75
862.158	11920.75
862.403	12058.75
862.648	12097.75
862.893	12089.75
863.138	12043.75
863.384	11929.75
863.629	11996.75
863.873	11981.75
864.118	11902.75
864.363	11798.75
864.608	11829.75
864.853	11763.75
865.098	11769.75
865.342	11602.75
865.587	11626.75
865.832	11658.75
866.076	11616.75
866.321	11512.75
866.565	11554.75
866.81	11430.75
867.054	11400.75
867.298	11412.75
867.543	11373.75
867.787	11365.75
868.031	11266.75
868.275	11325.75
868.519	11312.75
868.764	11266.75
869.008	11231.75
869.252	11199.75
869.496	11160.75
869.739	11189.75
869.983	11170.75
870.227	11189.75
870.471	11145.75
870.715	11185.75
870.958	11149.75
871.202	11237.75
871.446	11235.75
871.689	11196.75
871.933	11210.75
872.176	11240.75
872.42	11230.75
872.663	11135.75
872.906	11168.75
873.15	11153.75
873.393	11021.75
873.636	11116.75
873.879	10955.75
874.122	10908.75
874.366	10736.75
874.609	10682.75
874.852	10525.75
875.095	10513.75
875.337	10468.75
875.58	10322.75
875.823	10302.75
876.066	10352.75
876.309	10299.75
876.551	10230.75
876.794	10197.75
877.037	10224.75
877.279	10113.75
877.522	10128.75
877.764	10127.75
878.007	10119.75
878.249	10118.75
878.491	10120.75
878.734	10111.75
878.976	10015.75
879.218	9932.75
879.46	9988.75
879.702	9836.75
879.945	9759.75
880.187	9665.75
880.429	9638.75
880.671	9587.75
880.912	9536.75
881.154	9553.75
881.396	9462.75
881.638	9504.75
881.88	9522.75
882.121	9447.75
882.363	9471.75
882.605	9493.75
882.846	9348.75
883.088	9451.75
883.329	9386.75
883.571	9386.75
883.812	9463.75
884.053	9667.75
884.295	9882.75
884.536	10031.75
884.777	9889.75
885.018	9843.75
885.259	9816.75
885.5	9648.75
885.742	9981.75
885.982	9631.75
886.223	9594.75
886.464	9465.75
886.705	9325.75
886.946	9365.75
887.187	9135.75
887.428	9151.75
887.668	8941.75
887.909	8813.75
888.15	8748.75
888.39	8761.75
888.631	8675.75
888.871	8630.75
889.111	8529.75
889.352	8452.75
889.592	8374.75
889.833	8328.75
890.073	8291.75
890.313	8250.75
890.553	8133.75
890.793	8086.75
891.033	8063.75
891.273	8036.75
891.513	8006.75
891.753	8058.75
891.993	7962.75
892.233	7965.75
892.473	8093.75
892.713	8055.75
892.952	7981.75
893.192	8002.75
893.432	7950.75
893.671	7997.75
893.911	7931.75
894.15	7946.75
894.39	7838.75
894.629	7769.75
894.869	7814.75
895.108	7707.75
895.347	7651.75
895.587	7702.75
895.826	7596.75
896.065	7559.75
896.304	7581.75
896.543	7616.75
896.782	7477.75
897.021	7529.75
897.26	7481.75
897.499	7514.75
897.738	7532.75
897.977	7417.75
898.216	7295.75
898.454	7297.75
898.693	7213.75
898.932	7247.75
899.17	7250.75
899.409	7163.75
899.647	7178.75
899.886	7152.75
900.124	7144.75
900.363	7146.75
900.601	7151.75
900.839	7171.75
901.078	7193.75
901.316	7193.75
901.554	7233.75
901.792	7240.75
902.03	7188.75
902.268	7262.75
902.506	7239.75
902.744	7176.75
902.982	7163.75
903.22	7027.75
903.458	6987.75
903.695	6883.75
903.933	6871.75
904.171	6636.75
904.409	6583.75
904.646	6546.75
904.884	6396.75
905.121	6451.75
905.359	6353.75
905.596	6294.75
905.833	6207.75
906.071	6183.75
906.308	6169.75
906.545	6125.75
906.783	6124.75
907.02	6066.75
907.257	6094.75
907.494	6072.75
907.731	6075.75
907.968	6090.75
908.205	6018.75
908.442	5952.75
908.679	5981.75
908.915	5930.75
909.152	5963.75
909.389	5774.75
909.626	5755.75
909.862	5703.75
910.099	5697.75
910.335	5696.75
910.572	5564.75
910.808	5643.75
911.045	5633.75
911.281	5611.75
911.518	5610.75
911.754	5546.75
911.99	5513.75
912.226	5474.75
912.463	5443.75
912.699	5465.75
912.935	5357.75
913.171	5329.75
913.407	5251.75
913.643	5292.75
913.879	5223.75
914.114	5186.75
914.35	5128.75
914.586	5070.75
914.822	4996.75
915.057	5134.75
915.293	4937.75
915.529	4912.75
915.764	4960.75
916	4980.75
916.235	4922.75
916.471	4970.75
916.706	4868.75
916.941	4864.75
917.177	4889.75
917.412	4912.75
917.647	4920.75
917.882	4851.75
918.117	4920.75
918.352	4864.75
918.588	4884.75
918.823	4766.75
919.057	4734.75
919.292	4637.75
919.527	4690.75
919.762	4644.75
919.997	4581.75
920.232	4526.75
920.466	4529.75
920.701	4380.75
920.935	4424.75
921.17	4381.75
921.405	4362.75
921.639	4382.75
921.873	4363.75
922.108	4362.75
922.342	4373.75
922.576	4279.75
922.811	4260.75
923.045	4340.75
923.279	4293.75
923.513	4158.75
923.747	4197.75
923.981	4204.75
924.215	4158.75
924.449	4175.75
924.683	4021.75
924.917	4050.75
925.151	4037.75
925.385	4142.75
925.618	4057.75
925.852	4017.75
926.086	3972.75
926.319	4037.75
926.553	4003.75
926.786	3997.75
927.02	3990.75
927.253	4007.75
927.486	4036.75
927.72	3946.75
927.953	4006.75
928.186	3940.75
928.42	3940.75
928.653	3921.75
928.886	3904.75
929.119	3920.75
929.352	3896.75
929.585	3826.75
929.818	3812.75
930.051	3786.75
930.284	3805.75
930.516	3693.75
930.749	3705.75
930.982	3730.75
931.215	3737.75
931.447	3650.75
931.68	3650.75
931.912	3656.75
932.145	3627.75
932.377	3613.75
932.61	3736.75
932.842	3569.75
933.074	3617.75
933.307	3612.75
933.539	3688.75
933.771	3684.75
934.003	3620.75
934.236	3707.75
934.468	3677.75
934.7	3616.75
934.932	3641.75
935.164	3540.75
935.395	3566.75
935.627	3586.75
935.859	3548.75
936.091	3506.75
936.323	3535.75
936.554	3630.75
936.786	3483.75
937.017	3439.75
937.249	3483.75
937.481	3414.75
937.712	3461.75
937.943	3433.75
938.175	3423.75
938.406	3458.75
938.637	3486.75
938.869	3410.75
939.1	3428.75
939.331	3426.75
939.562	3417.75
939.793	3422.75
940.024	3390.75
940.255	3388.75
940.486	3358.75
940.717	3324.75
940.948	3316.75
941.179	3270.75
941.409	3305.75
941.64	3272.75
941.871	3316.75
942.102	3226.75
942.332	3255.75
942.563	3346.75
942.793	3298.75
943.024	3233.75
943.254	3270.75
943.484	3317.75
943.715	3313.75
943.945	3353.75
944.175	3245.75
944.405	3209.75
944.636	3199.75
944.866	3285.75
945.096	3276.75
945.326	3152.75
945.556	3228.75
945.786	3232.75
946.016	3227.75
946.245	3148.75
946.475	3153.75
946.705	3136.75
946.935	3124.75
947.164	3121.75
947.394	3086.75
947.624	3074.75
947.853	3077.75
948.083	3071.75
948.312	3010.75
948.542	3015.75
948.771	2980.75
949	2966.75
949.23	2961.75
949.459	2983.75
949.688	2999.75
949.917	2983.75
950.146	3015.75
950.375	3059.75
950.604	2949.75
950.833	3001.75
951.062	3047.75
951.291	2950.75
951.52	2954.75
951.749	2988.75
951.978	2918.75
952.206	2925.75
952.435	2926.75
952.664	2955.75
952.892	2950.75
953.121	2900.75
953.349	2961.75
953.578	2902.75
953.806	2889.75
954.035	2843.75
954.263	2884.75
954.491	2778.75
954.719	2859.75
954.948	2801.75
955.176	2800.75
955.404	2750.75
955.632	2804.75
955.86	2798.75
956.088	2762.75
956.316	2787.75
956.544	2788.75
956.772	2730.75
956.999	2724.75
957.227	2782.75
957.455	2661.75
957.683	2675.75
957.91	2624.75
958.138	2607.75
958.365	2660.75
958.593	2625.75
958.82	2573.75
959.048	2650.75
959.275	2615.75
959.502	2606.75
959.73	2590.75
959.957	2603.75
960.184	2616.75
960.411	2541.75
960.638	2626.75
960.865	2565.75
961.092	2577.75
961.319	2523.75
961.546	2568.75
961.773	2606.75
962	2555.75
962.227	2645.75
962.454	2536.75
962.68	2500.75
962.907	2561.75
963.134	2479.75
963.36	2508.75
963.587	2515.75
963.813	2486.75
964.04	2490.75
964.266	2417.75
964.493	2515.75
964.719	2472.75
964.945	2457.75
965.171	2391.75
965.398	2426.75
965.624	2461.75
965.85	2364.75
966.076	2389.75
966.302	2380.75
966.528	2384.75
966.754	2347.75
966.98	2365.75
967.206	2356.75
967.431	2311.75
967.657	2355.75
967.883	2368.75
968.109	2329.75
968.334	2279.75
968.56	2292.75
968.785	2278.75
969.011	2272.75
969.236	2295.75
969.462	2251.75
969.687	2254.75
969.912	2305.75
970.138	2323.75
970.363	2198.75
970.588	2252.75
970.813	2225.75
971.038	2190.75
971.263	2244.75
971.488	2240.75
971.713	2255.75
971.938	2242.75
972.163	2143.75
972.388	2174.75
972.613	2166.75
972.838	2152.75
973.062	2157.75
973.287	2138.75
973.512	2080.75
973.736	2100.75
973.961	2103.75
974.185	2076.75
974.41	2139.75
974.634	2018.75
974.858	2033.75
975.083	2089.75
975.307	2092.75
975.531	2020.75
975.755	1991.75
975.98	2015.75
976.204	1924.75
976.428	1936.75
976.652	1950.75
976.876	1908.75
977.1	1956.75
977.324	1923.75
977.547	1970.75
977.771	1954.75
977.995	1949.75
978.219	1873.75
978.442	2020.75
978.666	1929.75
978.89	1922.75
979.113	1938.75
979.337	1931.75
979.56	1863.75
979.783	1993.75
980.007	1854.75
980.23	1908.75
980.453	1854.75
980.677	1867.75
980.9	1865.75
981.123	1782.75
981.346	1886.75
981.569	1853.75
981.792	1871.75
982.015	1838.75
982.238	1811.75
982.461	1797.75
982.684	1766.75
982.907	1778.75
983.129	1756.75
983.352	1784.75
983.575	1776.75
983.797	1773.75
984.02	1716.75
984.242	1727.75
984.465	1736.75
984.687	1783.75
984.91	1754.75
985.132	1759.75
985.354	1802.75
985.577	1745.75
985.799	1722.75
986.021	1629.75
986.243	1689.75
986.465	1689.75
986.687	1739.75
986.909	1763.75
987.131	1692.75
987.353	1667.75
987.575	1699.75
987.797	1658.75
988.019	1623.75
988.241	1659.75
988.462	1625.75
988.684	1689.75
988.906	1693.75
989.127	1713.75
989.349	1630.75
989.57	1640.75
989.792	1647.75
990.013	1668.75
990.234	1690.75
990.456	1728.75
990.677	1704.75
990.898	1613.75
991.119	1615.75
991.341	1670.75
991.562	1589.75
991.783	1652.75
992.004	1571.75
992.225	1517.75
992.446	1593.75
992.667	1529.75
992.887	1592.75
993.108	1501.75
993.329	1625.75
993.55	1573.75
993.77	1491.75
993.991	1510.75
994.212	1565.75
994.432	1543.75
994.653	1558.75
994.873	1544.75
995.093	1430.75
995.314	1477.75
995.534	1543.75
995.754	1547.75
995.975	1556.75
996.195	1448.75
996.415	1514.75
996.635	1501.75
996.855	1505.75
997.075	1497.75
997.295	1470.75
997.515	1440.75
997.735	1508.75
997.955	1471.75
998.174	1483.75
998.394	1452.75
998.614	1482.75
998.834	1449.75
999.053	1512.75
999.273	1468.75
999.492	1533.75
999.712	1458.75
999.931	1427.75
1000.151	1490.75
1000.37	1438.75
1000.589	1510.75
1000.809	1436.75
1001.028	1549.75
1001.247	1473.75
1001.466	1379.75
1001.685	1520.75
1001.904	1444.75
1002.123	1426.75
1002.342	1431.75
1002.561	1384.75
1002.78	1427.75
1002.999	1507.75
1003.218	1406.75
1003.436	1378.75
1003.655	1480.75
1003.874	1369.75
1004.092	1421.75
1004.311	1463.75
1004.53	1413.75
1004.748	1469.75
1004.966	1394.75
1005.185	1453.75
1005.403	1435.75
1005.622	1432.75
1005.84	1488.75
1006.058	1405.75
1006.276	1417.75
1006.494	1904.75
1006.712	1439.75
1006.931	1465.75
1007.149	1373.75
1007.367	1372.75
1007.584	1409.75
1007.802	1454.75
1008.02	1386.75
1008.238	1501.75
1008.456	1485.75
1008.673	1356.75
1008.891	1474.75
1009.109	1408.75
1009.326	1444.75
1009.544	1572.75
1009.761	1455.75
1009.979	1564.75
1010.196	1547.75
1010.413	1667.75
1010.631	1697.75
1010.848	1700.75
1011.065	1722.75
1011.282	1679.75
1011.5	1622.75
1011.717	1745.75
1011.934	1664.75
1012.151	1719.75
1012.368	1649.75
1012.585	1619.75
1012.801	1644.75
1013.018	1612.75
1013.235	1612.75
1013.452	1621.75
1013.669	1608.75
1013.885	1599.75
1014.102	1632.75
1014.318	1603.75
1014.535	1599.75
1014.751	1619.75
1014.968	1603.75
1015.184	1619.75
1015.401	1557.75
1015.617	1568.75
1015.833	1529.75
1016.049	1497.75
1016.266	1518.75
1016.482	1528.75
1016.698	1436.75
1016.914	1490.75
1017.13	1440.75
1017.346	1430.75
1017.562	1492.75
1017.778	1421.75
1017.993	1388.75
1018.209	1451.75
1018.425	1419.75
1018.641	1408.75
1018.856	1338.75
1019.072	1396.75
1019.288	1419.75
1019.503	1378.75
1019.719	1299.75
1019.934	1309.75
1020.149	1384.75
1020.365	1336.75
1020.58	1282.75
1020.795	1353.75
1021.011	1258.75
1021.226	1238.75
1021.441	1241.75
1021.656	1174.75
1021.871	1137.75
1022.086	1127.75
1022.301	1127.75
1022.516	1119.75
1022.731	1171.75
1022.946	1072.75
1023.16	1064.75
1023.375	1026.75
1023.59	1002.75
1023.804	976.75
1024.019	1091.75
1024.234	950.75
1024.448	976.75
1024.663	923.75
1024.877	941.75
1025.092	925.75
1025.306	961.75
1025.52	852.75
1025.734	948.75
1025.949	849.75
1026.163	843.75
1026.377	764.75
1026.591	828.75
1026.805	740.75
1027.019	749.75
1027.233	714.75
1027.447	663.75
1027.661	766.75
1027.875	729.75
1028.088	726.75
1028.302	641.75
1028.516	649.75
1028.73	621.75
1028.943	631.75
1029.157	599.75
1029.37	548.75
1029.584	-0.25
1029.797	-2.25
1030.011	-2.25
1030.224	1.75
