Data from QEP037381__282__16-16-49-906.txt Node

Date: Fri Dec 16 16:16:49 EST 2022
User: dcclab
Spectrometer: QEP03738
Trigger mode: 4
Integration Time (sec): 1.000000E1
Scans to average: 1
Electric dark correction enabled: true
Nonlinearity correction enabled: false
Boxcar width: 0
XAxis mode: Wavelengths
Number of Pixels in Spectrum: 1044
>>>>>Begin Spectral Data<<<<<
784.041	13.5
784.3	-1.5
784.558	-1.5
784.817	-4.5
785.075	112159.5
785.334	19321.5
785.592	8914.5
785.851	6162.5
786.109	4640.5
786.368	3613.5
786.626	2878.5
786.884	2401.5
787.143	2033.5
787.401	1662.5
787.659	1478.5
787.917	1290.5
788.175	1185.5
788.433	1035.5
788.691	939.5
788.949	852.5
789.207	809.5
789.465	722.5
789.723	692.5
789.98	633.5
790.238	668.5
790.496	620.5
790.753	605.5
791.011	658.5
791.268	575.5
791.526	562.5
791.783	580.5
792.041	565.5
792.298	481.5
792.556	547.5
792.813	528.5
793.07	523.5
793.327	491.5
793.584	569.5
793.841	492.5
794.099	505.5
794.356	570.5
794.613	440.5
794.869	506.5
795.126	467.5
795.383	462.5
795.64	475.5
795.897	423.5
796.153	486.5
796.41	471.5
796.667	458.5
796.923	476.5
797.18	466.5
797.436	508.5
797.693	470.5
797.949	516.5
798.206	541.5
798.462	466.5
798.718	531.5
798.974	503.5
799.231	553.5
799.487	542.5
799.743	556.5
799.999	577.5
800.255	597.5
800.511	579.5
800.767	645.5
801.023	652.5
801.279	683.5
801.534	736.5
801.79	820.5
802.046	877.5
802.302	1043.5
802.557	1236.5
802.813	1545.5
803.068	1999.5
803.324	2777.5
803.579	3866.5
803.835	5343.5
804.09	7448.5
804.345	9822.5
804.601	12460.5
804.856	15147.5
805.111	17580.5
805.366	19343.5
805.621	20857.5
805.876	21814.5
806.131	22391.5
806.386	23017.5
806.641	23415.5
806.896	23736.5
807.151	24261.5
807.406	24560.5
807.661	25093.5
807.915	25424.5
808.17	25989.5
808.425	26173.5
808.679	26364.5
808.934	26881.5
809.188	27005.5
809.443	27436.5
809.697	27673.5
809.951	27869.5
810.206	28096.5
810.46	28433.5
810.714	28620.5
810.968	28904.5
811.223	29178.5
811.477	29301.5
811.731	29795.5
811.985	29820.5
812.239	30018.5
812.493	30044.5
812.747	30252.5
813	30410.5
813.254	30453.5
813.508	30671.5
813.762	30961.5
814.015	31041.5
814.269	31143.5
814.522	31507.5
814.776	31745.5
815.03	32292.5
815.283	32779.5
815.536	33405.5
815.79	33735.5
816.043	34365.5
816.296	34791.5
816.55	35218.5
816.803	35566.5
817.056	36220.5
817.309	36413.5
817.562	36786.5
817.815	37073.5
818.068	37356.5
818.321	37970.5
818.574	38366.5
818.827	38785.5
819.079	39276.5
819.332	40089.5
819.585	40446.5
819.838	40970.5
820.09	41205.5
820.343	41564.5
820.595	41890.5
820.848	41926.5
821.1	42253.5
821.353	42103.5
821.605	42235.5
821.857	42293.5
822.11	42093.5
822.362	42024.5
822.614	41861.5
822.866	41981.5
823.118	41992.5
823.37	42281.5
823.622	42086.5
823.874	42259.5
824.126	42550.5
824.378	42494.5
824.63	42700.5
824.882	42688.5
825.134	42723.5
825.385	42693.5
825.637	42748.5
825.888	42586.5
826.14	42521.5
826.392	42332.5
826.643	42147.5
826.895	41938.5
827.146	42048.5
827.397	41789.5
827.649	41863.5
827.9	41815.5
828.151	41857.5
828.402	41944.5
828.653	42067.5
828.905	42370.5
829.156	42223.5
829.407	42308.5
829.658	42273.5
829.909	42340.5
830.159	42328.5
830.41	42078.5
830.661	41855.5
830.912	41524.5
831.162	41539.5
831.413	41359.5
831.664	41574.5
831.914	41464.5
832.165	41343.5
832.415	41349.5
832.666	41353.5
832.916	41543.5
833.167	41348.5
833.417	41473.5
833.667	41250.5
833.917	41062.5
834.168	40919.5
834.418	40899.5
834.668	40698.5
834.918	40452.5
835.168	40479.5
835.418	40392.5
835.668	40145.5
835.918	40123.5
836.167	40071.5
836.417	39832.5
836.667	39876.5
836.917	39714.5
837.166	39813.5
837.416	39869.5
837.666	39813.5
837.915	39762.5
838.165	39729.5
838.414	39774.5
838.663	39505.5
838.913	39410.5
839.162	39438.5
839.411	39387.5
839.661	39214.5
839.91	38995.5
840.159	39011.5
840.408	38815.5
840.657	39032.5
840.906	39003.5
841.155	38950.5
841.404	39002.5
841.653	39034.5
841.902	39025.5
842.15	39149.5
842.399	39026.5
842.648	39124.5
842.897	38871.5
843.145	38724.5
843.394	38409.5
843.642	38425.5
843.891	38159.5
844.139	38007.5
844.388	37826.5
844.636	37544.5
844.884	37655.5
845.133	37319.5
845.381	37525.5
845.629	37580.5
845.877	37446.5
846.125	37441.5
846.373	37286.5
846.621	37295.5
846.869	37099.5
847.117	36941.5
847.365	36627.5
847.613	36580.5
847.861	36452.5
848.108	36362.5
848.356	36266.5
848.604	36206.5
848.851	36309.5
849.099	36381.5
849.346	36365.5
849.594	36550.5
849.841	36552.5
850.089	36698.5
850.336	36750.5
850.583	36722.5
850.831	36626.5
851.078	36277.5
851.325	36153.5
851.572	36389.5
851.819	35835.5
852.066	35436.5
852.313	35060.5
852.56	34616.5
852.807	34650.5
853.054	34417.5
853.301	34583.5
853.548	34449.5
853.794	34594.5
854.041	34645.5
854.288	34905.5
854.534	35204.5
854.781	35043.5
855.028	34925.5
855.274	34969.5
855.52	34928.5
855.767	34672.5
856.013	34685.5
856.26	34756.5
856.506	34400.5
856.752	34198.5
856.998	34350.5
857.244	34446.5
857.49	34610.5
857.736	34551.5
857.982	34502.5
858.228	34452.5
858.474	34208.5
858.72	34083.5
858.966	33784.5
859.212	33457.5
859.458	33178.5
859.703	32772.5
859.949	32584.5
860.195	32351.5
860.44	32264.5
860.686	32025.5
860.931	32014.5
861.177	31834.5
861.422	31677.5
861.667	31582.5
861.913	31486.5
862.158	31634.5
862.403	31750.5
862.648	31705.5
862.893	31799.5
863.138	31786.5
863.384	31702.5
863.629	31709.5
863.873	31726.5
864.118	31438.5
864.363	31366.5
864.608	31205.5
864.853	31124.5
865.098	31098.5
865.342	30945.5
865.587	30708.5
865.832	30791.5
866.076	30629.5
866.321	30630.5
866.565	30498.5
866.81	30324.5
867.054	30313.5
867.298	30077.5
867.543	30020.5
867.787	30201.5
868.031	29963.5
868.275	29906.5
868.519	29804.5
868.764	29806.5
869.008	29632.5
869.252	29676.5
869.496	29569.5
869.739	29586.5
869.983	29472.5
870.227	29383.5
870.471	29447.5
870.715	29502.5
870.958	29664.5
871.202	29657.5
871.446	29675.5
871.689	29511.5
871.933	29644.5
872.176	29660.5
872.42	29624.5
872.663	29429.5
872.906	29561.5
873.15	29448.5
873.393	29319.5
873.636	29115.5
873.879	28906.5
874.122	28611.5
874.366	28298.5
874.609	28048.5
874.852	27984.5
875.095	27727.5
875.337	27635.5
875.58	27639.5
875.823	27532.5
876.066	27427.5
876.309	27265.5
876.551	27165.5
876.794	26953.5
877.037	26957.5
877.279	26920.5
877.522	26898.5
877.764	26896.5
878.007	26775.5
878.249	26749.5
878.491	26644.5
878.734	26794.5
878.976	26688.5
879.218	26516.5
879.46	26405.5
879.702	26254.5
879.945	26033.5
880.187	25832.5
880.429	25659.5
880.671	25428.5
880.912	25293.5
881.154	25395.5
881.396	25187.5
881.638	25223.5
881.88	25238.5
882.121	25193.5
882.363	25171.5
882.605	25065.5
882.846	24974.5
883.088	24992.5
883.329	24916.5
883.571	24853.5
883.812	25080.5
884.053	25407.5
884.295	25718.5
884.536	26044.5
884.777	25861.5
885.018	25657.5
885.259	25540.5
885.5	25472.5
885.742	25539.5
885.982	25299.5
886.223	25219.5
886.464	24999.5
886.705	24777.5
886.946	24706.5
887.187	24321.5
887.428	24187.5
887.668	23870.5
887.909	23508.5
888.15	23382.5
888.39	23062.5
888.631	22928.5
888.871	22832.5
889.111	22698.5
889.352	22511.5
889.592	22332.5
889.833	22125.5
890.073	22077.5
890.313	22065.5
890.553	21715.5
890.793	21661.5
891.033	21581.5
891.273	21503.5
891.513	21448.5
891.753	21440.5
891.993	21335.5
892.233	21372.5
892.473	21458.5
892.713	21372.5
892.952	21525.5
893.192	21437.5
893.432	21415.5
893.671	21334.5
893.911	21294.5
894.15	21164.5
894.39	20964.5
894.629	20851.5
894.869	20779.5
895.108	20608.5
895.347	20546.5
895.587	20584.5
895.826	20436.5
896.065	20344.5
896.304	20333.5
896.543	20342.5
896.782	20198.5
897.021	20076.5
897.26	20033.5
897.499	20133.5
897.738	20066.5
897.977	19908.5
898.216	19799.5
898.454	19659.5
898.693	19410.5
898.932	19411.5
899.17	19294.5
899.409	19312.5
899.647	19206.5
899.886	19237.5
900.124	19206.5
900.363	19225.5
900.601	19226.5
900.839	19210.5
901.078	19285.5
901.316	19350.5
901.554	19354.5
901.792	19306.5
902.03	19325.5
902.268	19359.5
902.506	19290.5
902.744	19141.5
902.982	19165.5
903.22	18903.5
903.458	18669.5
903.695	18410.5
903.933	18138.5
904.171	17924.5
904.409	17600.5
904.646	17375.5
904.884	17124.5
905.121	17061.5
905.359	16818.5
905.596	16723.5
905.833	16612.5
906.071	16463.5
906.308	16545.5
906.545	16386.5
906.783	16292.5
907.02	16243.5
907.257	16250.5
907.494	16293.5
907.731	16167.5
907.968	16167.5
908.205	16003.5
908.442	15831.5
908.679	15727.5
908.915	15638.5
909.152	15558.5
909.389	15405.5
909.626	15364.5
909.862	15258.5
910.099	15245.5
910.335	15189.5
910.572	15059.5
910.808	15000.5
911.045	14990.5
911.281	14885.5
911.518	14823.5
911.754	14721.5
911.99	14712.5
912.226	14618.5
912.463	14464.5
912.699	14349.5
912.935	14251.5
913.171	14161.5
913.407	13984.5
913.643	13863.5
913.879	13808.5
914.114	13585.5
914.35	13585.5
914.586	13351.5
914.822	13304.5
915.057	13332.5
915.293	13131.5
915.529	13054.5
915.764	13117.5
916	13034.5
916.235	12993.5
916.471	12963.5
916.706	12836.5
916.941	12872.5
917.177	12802.5
917.412	12883.5
917.647	12841.5
917.882	12797.5
918.117	12829.5
918.352	12660.5
918.588	12695.5
918.823	12549.5
919.057	12404.5
919.292	12268.5
919.527	12273.5
919.762	12103.5
919.997	12018.5
920.232	11848.5
920.466	11792.5
920.701	11550.5
920.935	11620.5
921.17	11459.5
921.405	11477.5
921.639	11453.5
921.873	11358.5
922.108	11350.5
922.342	11248.5
922.576	11242.5
922.811	11179.5
923.045	11127.5
923.279	11103.5
923.513	10996.5
923.747	10965.5
923.981	11011.5
924.215	10812.5
924.449	10799.5
924.683	10657.5
924.917	10624.5
925.151	10544.5
925.385	10647.5
925.618	10568.5
925.852	10478.5
926.086	10466.5
926.319	10488.5
926.553	10364.5
926.786	10466.5
927.02	10391.5
927.253	10397.5
927.486	10434.5
927.72	10252.5
927.953	10388.5
928.186	10302.5
928.42	10284.5
928.653	10151.5
928.886	10096.5
929.119	10131.5
929.352	10083.5
929.585	9961.5
929.818	9943.5
930.051	9863.5
930.284	9761.5
930.516	9599.5
930.749	9562.5
930.982	9578.5
931.215	9543.5
931.447	9418.5
931.68	9455.5
931.912	9391.5
932.145	9428.5
932.377	9335.5
932.61	9532.5
932.842	9293.5
933.074	9402.5
933.307	9349.5
933.539	9385.5
933.771	9409.5
934.003	9309.5
934.236	9365.5
934.468	9399.5
934.7	9240.5
934.932	9231.5
935.164	9151.5
935.395	9180.5
935.627	9122.5
935.859	9104.5
936.091	9097.5
936.323	9070.5
936.554	9091.5
936.786	8971.5
937.017	8928.5
937.249	8917.5
937.481	8818.5
937.712	8913.5
937.943	8859.5
938.175	8796.5
938.406	8710.5
938.637	8802.5
938.869	8739.5
939.1	8732.5
939.331	8665.5
939.562	8630.5
939.793	8685.5
940.024	8643.5
940.255	8586.5
940.486	8534.5
940.717	8486.5
940.948	8493.5
941.179	8362.5
941.409	8378.5
941.64	8314.5
941.871	8315.5
942.102	8358.5
942.332	8344.5
942.563	8422.5
942.793	8302.5
943.024	8286.5
943.254	8295.5
943.484	8387.5
943.715	8341.5
943.945	8319.5
944.175	8211.5
944.405	8209.5
944.636	8213.5
944.866	8213.5
945.096	8243.5
945.326	8131.5
945.556	8125.5
945.786	8095.5
946.016	8066.5
946.245	7911.5
946.475	7915.5
946.705	7803.5
946.935	7776.5
947.164	7817.5
947.394	7759.5
947.624	7645.5
947.853	7695.5
948.083	7658.5
948.312	7570.5
948.542	7590.5
948.771	7515.5
949	7493.5
949.23	7527.5
949.459	7506.5
949.688	7525.5
949.917	7442.5
950.146	7492.5
950.375	7451.5
950.604	7402.5
950.833	7467.5
951.062	7424.5
951.291	7393.5
951.52	7359.5
951.749	7334.5
951.978	7251.5
952.206	7223.5
952.435	7308.5
952.664	7288.5
952.892	7226.5
953.121	7153.5
953.349	7156.5
953.578	7181.5
953.806	7102.5
954.035	7031.5
954.263	7036.5
954.491	6941.5
954.719	6962.5
954.948	6865.5
955.176	6898.5
955.404	6733.5
955.632	6817.5
955.86	6783.5
956.088	6751.5
956.316	6758.5
956.544	6658.5
956.772	6647.5
956.999	6579.5
957.227	6630.5
957.455	6476.5
957.683	6506.5
957.91	6508.5
958.138	6408.5
958.365	6386.5
958.593	6351.5
958.82	6309.5
959.048	6349.5
959.275	6334.5
959.502	6303.5
959.73	6227.5
959.957	6275.5
960.184	6287.5
960.411	6215.5
960.638	6259.5
960.865	6183.5
961.092	6215.5
961.319	6089.5
961.546	6167.5
961.773	6227.5
962	6127.5
962.227	6196.5
962.454	6111.5
962.68	6009.5
962.907	6080.5
963.134	6001.5
963.36	5961.5
963.587	5961.5
963.813	5850.5
964.04	5849.5
964.266	5698.5
964.493	5826.5
964.719	5825.5
964.945	5736.5
965.171	5605.5
965.398	5677.5
965.624	5678.5
965.85	5574.5
966.076	5570.5
966.302	5578.5
966.528	5513.5
966.754	5547.5
966.98	5470.5
967.206	5476.5
967.431	5365.5
967.657	5485.5
967.883	5456.5
968.109	5386.5
968.334	5318.5
968.56	5362.5
968.785	5351.5
969.011	5310.5
969.236	5264.5
969.462	5246.5
969.687	5285.5
969.912	5333.5
970.138	5338.5
970.363	5166.5
970.588	5193.5
970.813	5177.5
971.038	5134.5
971.263	5139.5
971.488	5094.5
971.713	5157.5
971.938	5110.5
972.163	4964.5
972.388	5038.5
972.613	4979.5
972.838	4977.5
973.062	4970.5
973.287	4943.5
973.512	4841.5
973.736	4868.5
973.961	4834.5
974.185	4776.5
974.41	4796.5
974.634	4697.5
974.858	4715.5
975.083	4702.5
975.307	4679.5
975.531	4598.5
975.755	4566.5
975.98	4545.5
976.204	4417.5
976.428	4520.5
976.652	4464.5
976.876	4447.5
977.1	4434.5
977.324	4411.5
977.547	4440.5
977.771	4431.5
977.995	4379.5
978.219	4327.5
978.442	4388.5
978.666	4377.5
978.89	4360.5
979.113	4304.5
979.337	4268.5
979.56	4274.5
979.783	4347.5
980.007	4208.5
980.23	4260.5
980.453	4189.5
980.677	4191.5
980.9	4142.5
981.123	4058.5
981.346	4167.5
981.569	4105.5
981.792	4138.5
982.015	4079.5
982.238	4011.5
982.461	3984.5
982.684	3986.5
982.907	3932.5
983.129	3909.5
983.352	3945.5
983.575	3862.5
983.797	3878.5
984.02	3844.5
984.242	3831.5
984.465	3825.5
984.687	3847.5
984.91	3809.5
985.132	3801.5
985.354	3775.5
985.577	3743.5
985.799	3698.5
986.021	3670.5
986.243	3656.5
986.465	3689.5
986.687	3687.5
986.909	3681.5
987.131	3633.5
987.353	3571.5
987.575	3636.5
987.797	3623.5
988.019	3517.5
988.241	3547.5
988.462	3508.5
988.684	3550.5
988.906	3560.5
989.127	3580.5
989.349	3452.5
989.57	3512.5
989.792	3523.5
990.013	3500.5
990.234	3502.5
990.456	3455.5
990.677	3518.5
990.898	3406.5
991.119	3422.5
991.341	3403.5
991.562	3344.5
991.783	3370.5
992.004	3279.5
992.225	3272.5
992.446	3304.5
992.667	3180.5
992.887	3270.5
993.108	3167.5
993.329	3247.5
993.55	3165.5
993.77	3107.5
993.991	3116.5
994.212	3144.5
994.432	3067.5
994.653	3104.5
994.873	3093.5
995.093	2955.5
995.314	3006.5
995.534	3066.5
995.754	3071.5
995.975	3074.5
996.195	2949.5
996.415	2982.5
996.635	2972.5
996.855	2972.5
997.075	2980.5
997.295	2933.5
997.515	2924.5
997.735	3019.5
997.955	2936.5
998.174	2886.5
998.394	2908.5
998.614	2940.5
998.834	2914.5
999.053	2903.5
999.273	2884.5
999.492	2934.5
999.712	2843.5
999.931	2811.5
1000.151	2858.5
1000.37	2802.5
1000.589	2841.5
1000.809	2737.5
1001.028	2848.5
1001.247	2748.5
1001.466	2680.5
1001.685	2815.5
1001.904	2717.5
1002.123	2681.5
1002.342	2709.5
1002.561	2639.5
1002.78	2635.5
1002.999	2714.5
1003.218	2602.5
1003.436	2582.5
1003.655	2657.5
1003.874	2563.5
1004.092	2564.5
1004.311	2604.5
1004.53	2570.5
1004.748	2648.5
1004.966	2513.5
1005.185	2585.5
1005.403	2552.5
1005.622	2513.5
1005.84	2592.5
1006.058	2481.5
1006.276	2537.5
1006.494	3030.5
1006.712	2501.5
1006.931	2564.5
1007.149	2470.5
1007.367	2466.5
1007.584	2530.5
1007.802	2561.5
1008.02	2500.5
1008.238	2611.5
1008.456	2583.5
1008.673	2444.5
1008.891	2552.5
1009.109	2541.5
1009.326	2591.5
1009.544	2665.5
1009.761	2636.5
1009.979	2741.5
1010.196	2750.5
1010.413	2903.5
1010.631	2961.5
1010.848	3025.5
1011.065	3061.5
1011.282	2963.5
1011.5	2892.5
1011.717	3025.5
1011.934	2912.5
1012.151	2953.5
1012.368	2938.5
1012.585	2874.5
1012.801	2907.5
1013.018	2905.5
1013.235	2857.5
1013.452	2869.5
1013.669	2872.5
1013.885	2837.5
1014.102	2937.5
1014.318	2918.5
1014.535	2864.5
1014.751	2865.5
1014.968	2805.5
1015.184	2874.5
1015.401	2769.5
1015.617	2740.5
1015.833	2666.5
1016.049	2688.5
1016.266	2674.5
1016.482	2627.5
1016.698	2570.5
1016.914	2617.5
1017.13	2522.5
1017.346	2510.5
1017.562	2552.5
1017.778	2472.5
1017.993	2473.5
1018.209	2521.5
1018.425	2468.5
1018.641	2448.5
1018.856	2427.5
1019.072	2435.5
1019.288	2488.5
1019.503	2430.5
1019.719	2352.5
1019.934	2341.5
1020.149	2429.5
1020.365	2325.5
1020.58	2223.5
1020.795	2314.5
1021.011	2252.5
1021.226	2173.5
1021.441	2183.5
1021.656	2051.5
1021.871	2018.5
1022.086	2000.5
1022.301	1961.5
1022.516	1928.5
1022.731	1963.5
1022.946	1899.5
1023.16	1853.5
1023.375	1822.5
1023.59	1755.5
1023.804	1747.5
1024.019	1821.5
1024.234	1671.5
1024.448	1691.5
1024.663	1609.5
1024.877	1594.5
1025.092	1610.5
1025.306	1620.5
1025.52	1476.5
1025.734	1558.5
1025.949	1440.5
1026.163	1432.5
1026.377	1356.5
1026.591	1377.5
1026.805	1286.5
1027.019	1291.5
1027.233	1257.5
1027.447	1199.5
1027.661	1262.5
1027.875	1222.5
1028.088	1214.5
1028.302	1132.5
1028.516	1091.5
1028.73	1072.5
1028.943	1078.5
1029.157	983.5
1029.37	961.5
1029.584	0.5
1029.797	-2.5
1030.011	-4.5
1030.224	0.5
