Data from QEP037381__242__16-10-09-902.txt Node

Date: Fri Dec 16 16:10:09 EST 2022
User: dcclab
Spectrometer: QEP03738
Trigger mode: 4
Integration Time (sec): 1.000000E1
Scans to average: 1
Electric dark correction enabled: true
Nonlinearity correction enabled: false
Boxcar width: 0
XAxis mode: Wavelengths
Number of Pixels in Spectrum: 1044
>>>>>Begin Spectral Data<<<<<
784.041	12.75
784.3	-3.25
784.558	-1.25
784.817	-5.25
785.075	101754.75
785.334	17855.75
785.592	8408.75
785.851	5764.75
786.109	4402.75
786.368	3431.75
786.626	2747.75
786.884	2335.75
787.143	1952.75
787.401	1655.75
787.659	1477.75
787.917	1255.75
788.175	1147.75
788.433	1005.75
788.691	894.75
788.949	845.75
789.207	806.75
789.465	689.75
789.723	679.75
789.98	618.75
790.238	651.75
790.496	621.75
790.753	609.75
791.011	641.75
791.268	554.75
791.526	557.75
791.783	572.75
792.041	547.75
792.298	483.75
792.556	538.75
792.813	516.75
793.07	509.75
793.327	501.75
793.584	556.75
793.841	477.75
794.099	509.75
794.356	563.75
794.613	465.75
794.869	497.75
795.126	468.75
795.383	449.75
795.64	473.75
795.897	445.75
796.153	486.75
796.41	467.75
796.667	465.75
796.923	482.75
797.18	487.75
797.436	507.75
797.693	465.75
797.949	517.75
798.206	539.75
798.462	474.75
798.718	549.75
798.974	519.75
799.231	559.75
799.487	550.75
799.743	549.75
799.999	583.75
800.255	595.75
800.511	593.75
800.767	651.75
801.023	625.75
801.279	691.75
801.534	758.75
801.79	834.75
802.046	897.75
802.302	1101.75
802.557	1299.75
802.813	1660.75
803.068	2158.75
803.324	3021.75
803.579	4199.75
803.835	5869.75
804.09	8045.75
804.345	10734.75
804.601	13434.75
804.856	16353.75
805.111	18883.75
805.366	20941.75
805.621	22313.75
805.876	23299.75
806.131	24052.75
806.386	24430.75
806.641	24939.75
806.896	25370.75
807.151	25876.75
807.406	26280.75
807.661	26797.75
807.915	27209.75
808.17	27670.75
808.425	27956.75
808.679	28142.75
808.934	28475.75
809.188	28821.75
809.443	29138.75
809.697	29423.75
809.951	29721.75
810.206	29976.75
810.46	30340.75
810.714	30485.75
810.968	30747.75
811.223	30916.75
811.477	31317.75
811.731	31603.75
811.985	31777.75
812.239	31883.75
812.493	32122.75
812.747	32187.75
813	32312.75
813.254	32531.75
813.508	32574.75
813.762	32712.75
814.015	32947.75
814.269	33206.75
814.522	33460.75
814.776	33784.75
815.03	34364.75
815.283	34815.75
815.536	35496.75
815.79	35907.75
816.043	36418.75
816.296	36961.75
816.55	37410.75
816.803	37820.75
817.056	38231.75
817.309	38606.75
817.562	39025.75
817.815	39375.75
818.068	39690.75
818.321	40199.75
818.574	40653.75
818.827	41169.75
819.079	41588.75
819.332	42462.75
819.585	42878.75
819.838	43367.75
820.09	43713.75
820.343	44095.75
820.595	44298.75
820.848	44474.75
821.1	44655.75
821.353	44609.75
821.605	44785.75
821.857	44731.75
822.11	44520.75
822.362	44448.75
822.614	44429.75
822.866	44382.75
823.118	44430.75
823.37	44510.75
823.622	44482.75
823.874	44759.75
824.126	45015.75
824.378	45010.75
824.63	45096.75
824.882	45240.75
825.134	45138.75
825.385	45276.75
825.637	45146.75
825.888	44822.75
826.14	45093.75
826.392	44804.75
826.643	44465.75
826.895	44430.75
827.146	44293.75
827.397	44099.75
827.649	44356.75
827.9	44185.75
828.151	44194.75
828.402	44379.75
828.653	44375.75
828.905	44564.75
829.156	44614.75
829.407	44855.75
829.658	44520.75
829.909	44684.75
830.159	44571.75
830.41	44455.75
830.661	44133.75
830.912	43955.75
831.162	43674.75
831.413	43683.75
831.664	43741.75
831.914	43689.75
832.165	43512.75
832.415	43680.75
832.666	43602.75
832.916	43581.75
833.167	43562.75
833.417	43558.75
833.667	43533.75
833.917	43270.75
834.168	43273.75
834.418	43135.75
834.668	43082.75
834.918	42662.75
835.168	42609.75
835.418	42480.75
835.668	42374.75
835.918	42317.75
836.167	42225.75
836.417	41968.75
836.667	41846.75
836.917	41999.75
837.166	41917.75
837.416	41975.75
837.666	41914.75
837.915	41903.75
838.165	41693.75
838.414	41580.75
838.663	41573.75
838.913	41580.75
839.162	41557.75
839.411	41362.75
839.661	41168.75
839.91	41129.75
840.159	40950.75
840.408	40873.75
840.657	41035.75
840.906	40933.75
841.155	41009.75
841.404	40902.75
841.653	40922.75
841.902	40969.75
842.15	41187.75
842.399	41059.75
842.648	41106.75
842.897	40841.75
843.145	40487.75
843.394	40371.75
843.642	40170.75
843.891	40070.75
844.139	39770.75
844.388	39662.75
844.636	39489.75
844.884	39548.75
845.133	39286.75
845.381	39363.75
845.629	39300.75
845.877	39289.75
846.125	39296.75
846.373	39102.75
846.621	39106.75
846.869	38901.75
847.117	38712.75
847.365	38404.75
847.613	38464.75
847.861	38170.75
848.108	38159.75
848.356	38220.75
848.604	38077.75
848.851	37942.75
849.099	38193.75
849.346	38166.75
849.594	38388.75
849.841	38515.75
850.089	38525.75
850.336	38538.75
850.583	38478.75
850.831	38210.75
851.078	38216.75
851.325	38047.75
851.572	38036.75
851.819	37673.75
852.066	36935.75
852.313	36642.75
852.56	36334.75
852.807	36284.75
853.054	36164.75
853.301	35963.75
853.548	36029.75
853.794	36199.75
854.041	36307.75
854.288	36405.75
854.534	36703.75
854.781	36709.75
855.028	36605.75
855.274	36561.75
855.52	36460.75
855.767	36130.75
856.013	36078.75
856.26	36274.75
856.506	35869.75
856.752	35589.75
856.998	35925.75
857.244	35929.75
857.49	35995.75
857.736	36070.75
857.982	36306.75
858.228	35824.75
858.474	35699.75
858.72	35498.75
858.966	35216.75
859.212	34820.75
859.458	34656.75
859.703	34235.75
859.949	33861.75
860.195	33661.75
860.44	33498.75
860.686	33386.75
860.931	33307.75
861.177	32993.75
861.422	33070.75
861.667	32874.75
861.913	32928.75
862.158	33052.75
862.403	32981.75
862.648	33306.75
862.893	33188.75
863.138	33091.75
863.384	33085.75
863.629	33026.75
863.873	32971.75
864.118	32984.75
864.363	32732.75
864.608	32624.75
864.853	32531.75
865.098	32384.75
865.342	32286.75
865.587	32052.75
865.832	32153.75
866.076	32039.75
866.321	32081.75
866.565	31761.75
866.81	31614.75
867.054	31475.75
867.298	31377.75
867.543	31246.75
867.787	31316.75
868.031	31206.75
868.275	31124.75
868.519	31080.75
868.764	31097.75
869.008	30878.75
869.252	30907.75
869.496	30778.75
869.739	30591.75
869.983	30626.75
870.227	30660.75
870.471	30609.75
870.715	30716.75
870.958	30821.75
871.202	30699.75
871.446	30909.75
871.689	30932.75
871.933	30858.75
872.176	30821.75
872.42	30778.75
872.663	30652.75
872.906	30488.75
873.15	30428.75
873.393	30230.75
873.636	30133.75
873.879	29848.75
874.122	29656.75
874.366	29276.75
874.609	29165.75
874.852	28865.75
875.095	28844.75
875.337	28772.75
875.58	28526.75
875.823	28507.75
876.066	28308.75
876.309	28256.75
876.551	28173.75
876.794	27988.75
877.037	27957.75
877.279	27863.75
877.522	27910.75
877.764	27962.75
878.007	27803.75
878.249	27811.75
878.491	27774.75
878.734	27587.75
878.976	27611.75
879.218	27371.75
879.46	27332.75
879.702	27195.75
879.945	26944.75
880.187	26750.75
880.429	26422.75
880.671	26485.75
880.912	26332.75
881.154	26283.75
881.396	26157.75
881.638	26048.75
881.88	26237.75
882.121	26232.75
882.363	26120.75
882.605	26093.75
882.846	25917.75
883.088	25800.75
883.329	25842.75
883.571	25711.75
883.812	25804.75
884.053	26047.75
884.295	26476.75
884.536	26667.75
884.777	26452.75
885.018	26316.75
885.259	26214.75
885.5	26136.75
885.742	26273.75
885.982	26081.75
886.223	26005.75
886.464	25766.75
886.705	25602.75
886.946	25332.75
887.187	25060.75
887.428	24864.75
887.668	24496.75
887.909	24261.75
888.15	23923.75
888.39	23898.75
888.631	23693.75
888.871	23503.75
889.111	23437.75
889.352	23233.75
889.592	22908.75
889.833	22926.75
890.073	22765.75
890.313	22720.75
890.553	22490.75
890.793	22387.75
891.033	22351.75
891.273	22159.75
891.513	22028.75
891.753	21984.75
891.993	21920.75
892.233	22046.75
892.473	22146.75
892.713	22153.75
892.952	22049.75
893.192	22086.75
893.432	21998.75
893.671	22126.75
893.911	21847.75
894.15	21852.75
894.39	21598.75
894.629	21533.75
894.869	21337.75
895.108	21219.75
895.347	21111.75
895.587	21024.75
895.826	20990.75
896.065	20933.75
896.304	20983.75
896.543	20937.75
896.782	20769.75
897.021	20771.75
897.26	20760.75
897.499	20742.75
897.738	20630.75
897.977	20526.75
898.216	20279.75
898.454	20009.75
898.693	19860.75
898.932	19973.75
899.17	19872.75
899.409	19786.75
899.647	19703.75
899.886	19630.75
900.124	19732.75
900.363	19713.75
900.601	19706.75
900.839	19744.75
901.078	19748.75
901.316	19936.75
901.554	19848.75
901.792	19866.75
902.03	19826.75
902.268	19804.75
902.506	19768.75
902.744	19623.75
902.982	19608.75
903.22	19398.75
903.458	19135.75
903.695	18807.75
903.933	18659.75
904.171	18340.75
904.409	18049.75
904.646	17909.75
904.884	17546.75
905.121	17435.75
905.359	17272.75
905.596	17191.75
905.833	16909.75
906.071	16855.75
906.308	16884.75
906.545	16737.75
906.783	16731.75
907.02	16790.75
907.257	16639.75
907.494	16535.75
907.731	16591.75
907.968	16465.75
908.205	16283.75
908.442	16279.75
908.679	16183.75
908.915	16023.75
909.152	15941.75
909.389	15670.75
909.626	15661.75
909.862	15540.75
910.099	15472.75
910.335	15418.75
910.572	15360.75
910.808	15265.75
911.045	15317.75
911.281	15132.75
911.518	15167.75
911.754	15013.75
911.99	14869.75
912.226	14795.75
912.463	14662.75
912.699	14543.75
912.935	14535.75
913.171	14439.75
913.407	14300.75
913.643	14162.75
913.879	14055.75
914.114	13897.75
914.35	13782.75
914.586	13614.75
914.822	13524.75
915.057	13556.75
915.293	13357.75
915.529	13289.75
915.764	13340.75
916	13300.75
916.235	13250.75
916.471	13150.75
916.706	13049.75
916.941	13167.75
917.177	13015.75
917.412	13035.75
917.647	13147.75
917.882	12945.75
918.117	12989.75
918.352	12943.75
918.588	12862.75
918.823	12678.75
919.057	12540.75
919.292	12513.75
919.527	12380.75
919.762	12193.75
919.997	12135.75
920.232	11979.75
920.466	12001.75
920.701	11778.75
920.935	11789.75
921.17	11679.75
921.405	11556.75
921.639	11563.75
921.873	11554.75
922.108	11491.75
922.342	11467.75
922.576	11324.75
922.811	11290.75
923.045	11310.75
923.279	11326.75
923.513	11125.75
923.747	11164.75
923.981	11022.75
924.215	10892.75
924.449	10895.75
924.683	10814.75
924.917	10710.75
925.151	10708.75
925.385	10713.75
925.618	10657.75
925.852	10563.75
926.086	10418.75
926.319	10538.75
926.553	10533.75
926.786	10582.75
927.02	10549.75
927.253	10599.75
927.486	10451.75
927.72	10374.75
927.953	10413.75
928.186	10398.75
928.42	10355.75
928.653	10295.75
928.886	10178.75
929.119	10213.75
929.352	10051.75
929.585	10070.75
929.818	9989.75
930.051	9961.75
930.284	9930.75
930.516	9705.75
930.749	9639.75
930.982	9660.75
931.215	9565.75
931.447	9555.75
931.68	9471.75
931.912	9460.75
932.145	9422.75
932.377	9450.75
932.61	9569.75
932.842	9414.75
933.074	9417.75
933.307	9418.75
933.539	9484.75
933.771	9449.75
934.003	9350.75
934.236	9441.75
934.468	9400.75
934.7	9285.75
934.932	9280.75
935.164	9268.75
935.395	9228.75
935.627	9195.75
935.859	9148.75
936.091	9065.75
936.323	9095.75
936.554	9065.75
936.786	9016.75
937.017	8982.75
937.249	8977.75
937.481	8849.75
937.712	8891.75
937.943	8821.75
938.175	8746.75
938.406	8822.75
938.637	8881.75
938.869	8710.75
939.1	8806.75
939.331	8631.75
939.562	8685.75
939.793	8781.75
940.024	8682.75
940.255	8633.75
940.486	8511.75
940.717	8556.75
940.948	8490.75
941.179	8406.75
941.409	8396.75
941.64	8401.75
941.871	8358.75
942.102	8384.75
942.332	8337.75
942.563	8380.75
942.793	8353.75
943.024	8247.75
943.254	8332.75
943.484	8339.75
943.715	8328.75
943.945	8341.75
944.175	8254.75
944.405	8183.75
944.636	8208.75
944.866	8224.75
945.096	8264.75
945.326	8115.75
945.556	8209.75
945.786	8124.75
946.016	8052.75
946.245	7883.75
946.475	7883.75
946.705	7869.75
946.935	7832.75
947.164	7806.75
947.394	7746.75
947.624	7681.75
947.853	7699.75
948.083	7620.75
948.312	7615.75
948.542	7545.75
948.771	7536.75
949	7495.75
949.23	7497.75
949.459	7444.75
949.688	7499.75
949.917	7460.75
950.146	7476.75
950.375	7481.75
950.604	7399.75
950.833	7437.75
951.062	7413.75
951.291	7344.75
951.52	7297.75
951.749	7271.75
951.978	7191.75
952.206	7237.75
952.435	7218.75
952.664	7225.75
952.892	7191.75
953.121	7160.75
953.349	7150.75
953.578	7138.75
953.806	7076.75
954.035	6968.75
954.263	6968.75
954.491	6931.75
954.719	6939.75
954.948	6811.75
955.176	6808.75
955.404	6748.75
955.632	6858.75
955.86	6841.75
956.088	6769.75
956.316	6723.75
956.544	6658.75
956.772	6666.75
956.999	6583.75
957.227	6580.75
957.455	6483.75
957.683	6481.75
957.91	6419.75
958.138	6399.75
958.365	6368.75
958.593	6340.75
958.82	6235.75
959.048	6335.75
959.275	6307.75
959.502	6229.75
959.73	6207.75
959.957	6225.75
960.184	6179.75
960.411	6178.75
960.638	6244.75
960.865	6155.75
961.092	6128.75
961.319	6004.75
961.546	6139.75
961.773	6154.75
962	6088.75
962.227	6122.75
962.454	6056.75
962.68	6002.75
962.907	6089.75
963.134	5963.75
963.36	5958.75
963.587	5937.75
963.813	5870.75
964.04	5832.75
964.266	5772.75
964.493	5834.75
964.719	5743.75
964.945	5722.75
965.171	5607.75
965.398	5573.75
965.624	5630.75
965.85	5519.75
966.076	5522.75
966.302	5545.75
966.528	5488.75
966.754	5469.75
966.98	5521.75
967.206	5498.75
967.431	5349.75
967.657	5396.75
967.883	5401.75
968.109	5355.75
968.334	5342.75
968.56	5277.75
968.785	5268.75
969.011	5211.75
969.236	5311.75
969.462	5202.75
969.687	5215.75
969.912	5195.75
970.138	5216.75
970.363	5126.75
970.588	5143.75
970.813	5097.75
971.038	5038.75
971.263	5097.75
971.488	5073.75
971.713	5089.75
971.938	5013.75
972.163	4905.75
972.388	4952.75
972.613	4903.75
972.838	4901.75
973.062	4902.75
973.287	4864.75
973.512	4835.75
973.736	4822.75
973.961	4779.75
974.185	4798.75
974.41	4785.75
974.634	4633.75
974.858	4652.75
975.083	4639.75
975.307	4674.75
975.531	4557.75
975.755	4487.75
975.98	4504.75
976.204	4430.75
976.428	4442.75
976.652	4418.75
976.876	4386.75
977.1	4413.75
977.324	4356.75
977.547	4398.75
977.771	4382.75
977.995	4330.75
978.219	4265.75
978.442	4352.75
978.666	4279.75
978.89	4296.75
979.113	4282.75
979.337	4253.75
979.56	4200.75
979.783	4291.75
980.007	4147.75
980.23	4195.75
980.453	4131.75
980.677	4163.75
980.9	4124.75
981.123	3999.75
981.346	4104.75
981.569	4036.75
981.792	4056.75
982.015	4016.75
982.238	3988.75
982.461	4017.75
982.684	3906.75
982.907	3876.75
983.129	3847.75
983.352	3913.75
983.575	3840.75
983.797	3831.75
984.02	3763.75
984.242	3764.75
984.465	3749.75
984.687	3758.75
984.91	3763.75
985.132	3704.75
985.354	3711.75
985.577	3653.75
985.799	3645.75
986.021	3595.75
986.243	3636.75
986.465	3604.75
986.687	3633.75
986.909	3658.75
987.131	3612.75
987.353	3549.75
987.575	3537.75
987.797	3494.75
988.019	3412.75
988.241	3461.75
988.462	3452.75
988.684	3482.75
988.906	3502.75
989.127	3510.75
989.349	3382.75
989.57	3427.75
989.792	3485.75
990.013	3453.75
990.234	3475.75
990.456	3470.75
990.677	3408.75
990.898	3357.75
991.119	3331.75
991.341	3321.75
991.562	3270.75
991.783	3302.75
992.004	3208.75
992.225	3185.75
992.446	3203.75
992.667	3138.75
992.887	3226.75
993.108	3110.75
993.329	3196.75
993.55	3126.75
993.77	3058.75
993.991	3040.75
994.212	3095.75
994.432	3035.75
994.653	3056.75
994.873	2997.75
995.093	2943.75
995.314	2939.75
995.534	3001.75
995.754	3021.75
995.975	3047.75
996.195	2887.75
996.415	2949.75
996.635	2912.75
996.855	2939.75
997.075	2921.75
997.295	2867.75
997.515	2870.75
997.735	2931.75
997.955	2877.75
998.174	2896.75
998.394	2824.75
998.614	2879.75
998.834	2805.75
999.053	2882.75
999.273	2815.75
999.492	2864.75
999.712	2792.75
999.931	2784.75
1000.151	2781.75
1000.37	2757.75
1000.589	2811.75
1000.809	2708.75
1001.028	2801.75
1001.247	2738.75
1001.466	2576.75
1001.685	2736.75
1001.904	2677.75
1002.123	2639.75
1002.342	2643.75
1002.561	2570.75
1002.78	2643.75
1002.999	2633.75
1003.218	2602.75
1003.436	2522.75
1003.655	2588.75
1003.874	2514.75
1004.092	2512.75
1004.311	2561.75
1004.53	2527.75
1004.748	2592.75
1004.966	2499.75
1005.185	2570.75
1005.403	2535.75
1005.622	2510.75
1005.84	2547.75
1006.058	2484.75
1006.276	2497.75
1006.494	2945.75
1006.712	2471.75
1006.931	2534.75
1007.149	2435.75
1007.367	2452.75
1007.584	2487.75
1007.802	2511.75
1008.02	2456.75
1008.238	2521.75
1008.456	2522.75
1008.673	2438.75
1008.891	2506.75
1009.109	2474.75
1009.326	2525.75
1009.544	2659.75
1009.761	2529.75
1009.979	2645.75
1010.196	2689.75
1010.413	2831.75
1010.631	2876.75
1010.848	2985.75
1011.065	2971.75
1011.282	2882.75
1011.5	2849.75
1011.717	2949.75
1011.934	2856.75
1012.151	2887.75
1012.368	2831.75
1012.585	2784.75
1012.801	2862.75
1013.018	2828.75
1013.235	2762.75
1013.452	2826.75
1013.669	2794.75
1013.885	2783.75
1014.102	2853.75
1014.318	2812.75
1014.535	2773.75
1014.751	2776.75
1014.968	2782.75
1015.184	2792.75
1015.401	2668.75
1015.617	2679.75
1015.833	2628.75
1016.049	2630.75
1016.266	2587.75
1016.482	2602.75
1016.698	2518.75
1016.914	2568.75
1017.13	2476.75
1017.346	2481.75
1017.562	2484.75
1017.778	2458.75
1017.993	2414.75
1018.209	2457.75
1018.425	2413.75
1018.641	2400.75
1018.856	2358.75
1019.072	2402.75
1019.288	2450.75
1019.503	2420.75
1019.719	2301.75
1019.934	2319.75
1020.149	2380.75
1020.365	2335.75
1020.58	2263.75
1020.795	2290.75
1021.011	2203.75
1021.226	2146.75
1021.441	2146.75
1021.656	2057.75
1021.871	2002.75
1022.086	1999.75
1022.301	1929.75
1022.516	1925.75
1022.731	1965.75
1022.946	1879.75
1023.16	1833.75
1023.375	1820.75
1023.59	1802.75
1023.804	1710.75
1024.019	1804.75
1024.234	1672.75
1024.448	1678.75
1024.663	1590.75
1024.877	1608.75
1025.092	1577.75
1025.306	1602.75
1025.52	1501.75
1025.734	1575.75
1025.949	1451.75
1026.163	1407.75
1026.377	1356.75
1026.591	1377.75
1026.805	1320.75
1027.019	1302.75
1027.233	1257.75
1027.447	1172.75
1027.661	1288.75
1027.875	1209.75
1028.088	1208.75
1028.302	1089.75
1028.516	1109.75
1028.73	1088.75
1028.943	1058.75
1029.157	1012.75
1029.37	951.75
1029.584	0.75
1029.797	-0.25
1030.011	-2.25
1030.224	-1.25
