Data from QEP037381__349__16-27-59-915.txt Node

Date: Fri Dec 16 16:27:59 EST 2022
User: dcclab
Spectrometer: QEP03738
Trigger mode: 4
Integration Time (sec): 1.000000E1
Scans to average: 1
Electric dark correction enabled: true
Nonlinearity correction enabled: false
Boxcar width: 0
XAxis mode: Wavelengths
Number of Pixels in Spectrum: 1044
>>>>>Begin Spectral Data<<<<<
784.041	11.75
784.3	1.75
784.558	0.75
784.817	-4.25
785.075	109807.75
785.334	19227.75
785.592	9012.75
785.851	6243.75
786.109	4730.75
786.368	3667.75
786.626	2965.75
786.884	2463.75
787.143	2055.75
787.401	1715.75
787.659	1529.75
787.917	1300.75
788.175	1201.75
788.433	1035.75
788.691	934.75
788.949	859.75
789.207	839.75
789.465	725.75
789.723	695.75
789.98	648.75
790.238	652.75
790.496	619.75
790.753	591.75
791.011	637.75
791.268	571.75
791.526	560.75
791.783	577.75
792.041	547.75
792.298	477.75
792.556	523.75
792.813	512.75
793.07	488.75
793.327	479.75
793.584	551.75
793.841	480.75
794.099	472.75
794.356	551.75
794.613	448.75
794.869	498.75
795.126	469.75
795.383	438.75
795.64	470.75
795.897	426.75
796.153	467.75
796.41	451.75
796.667	450.75
796.923	449.75
797.18	453.75
797.436	481.75
797.693	439.75
797.949	502.75
798.206	530.75
798.462	443.75
798.718	493.75
798.974	489.75
799.231	514.75
799.487	507.75
799.743	525.75
799.999	549.75
800.255	561.75
800.511	536.75
800.767	586.75
801.023	578.75
801.279	622.75
801.534	661.75
801.79	711.75
802.046	751.75
802.302	926.75
802.557	1058.75
802.813	1344.75
803.068	1681.75
803.324	2315.75
803.579	3183.75
803.835	4460.75
804.09	6106.75
804.345	7989.75
804.601	10036.75
804.856	12228.75
805.111	14124.75
805.366	15605.75
805.621	16760.75
805.876	17556.75
806.131	18054.75
806.386	18317.75
806.641	18719.75
806.896	19017.75
807.151	19456.75
807.406	19747.75
807.661	20100.75
807.915	20394.75
808.17	20657.75
808.425	20861.75
808.679	21014.75
808.934	21343.75
809.188	21605.75
809.443	21771.75
809.697	22129.75
809.951	22152.75
810.206	22347.75
810.46	22604.75
810.714	22826.75
810.968	23053.75
811.223	23151.75
811.477	23314.75
811.731	23512.75
811.985	23668.75
812.239	23844.75
812.493	23788.75
812.747	23920.75
813	24020.75
813.254	24241.75
813.508	24326.75
813.762	24261.75
814.015	24458.75
814.269	24620.75
814.522	24884.75
814.776	25140.75
815.03	25330.75
815.283	25875.75
815.536	26173.75
815.79	26614.75
816.043	26991.75
816.296	27341.75
816.55	27675.75
816.803	27956.75
817.056	28330.75
817.309	28667.75
817.562	28898.75
817.815	29310.75
818.068	29473.75
818.321	29765.75
818.574	29933.75
818.827	30494.75
819.079	30772.75
819.332	31349.75
819.585	31691.75
819.838	32122.75
820.09	32091.75
820.343	32518.75
820.595	32656.75
820.848	32994.75
821.1	32994.75
821.353	33007.75
821.605	32957.75
821.857	32904.75
822.11	32783.75
822.362	32646.75
822.614	32631.75
822.866	32785.75
823.118	32626.75
823.37	32839.75
823.622	32864.75
823.874	33041.75
824.126	32998.75
824.378	33100.75
824.63	33111.75
824.882	33065.75
825.134	33187.75
825.385	33250.75
825.637	33167.75
825.888	33019.75
826.14	33051.75
826.392	32752.75
826.643	32652.75
826.895	32563.75
827.146	32398.75
827.397	32399.75
827.649	32431.75
827.9	32345.75
828.151	32410.75
828.402	32396.75
828.653	32600.75
828.905	32592.75
829.156	32830.75
829.407	32582.75
829.658	32584.75
829.909	32805.75
830.159	32774.75
830.41	32615.75
830.661	32481.75
830.912	32284.75
831.162	31927.75
831.413	32066.75
831.664	31939.75
831.914	32006.75
832.165	31859.75
832.415	31971.75
832.666	31813.75
832.916	31858.75
833.167	31917.75
833.417	31947.75
833.667	31833.75
833.917	31656.75
834.168	31499.75
834.418	31673.75
834.668	31515.75
834.918	31348.75
835.168	31219.75
835.418	30939.75
835.668	30910.75
835.918	30828.75
836.167	30768.75
836.417	30710.75
836.667	30628.75
836.917	30591.75
837.166	30605.75
837.416	30594.75
837.666	30656.75
837.915	30412.75
838.165	30507.75
838.414	30405.75
838.663	30459.75
838.913	30431.75
839.162	30194.75
839.411	30276.75
839.661	30151.75
839.91	30043.75
840.159	29838.75
840.408	29988.75
840.657	29952.75
840.906	29903.75
841.155	29874.75
841.404	29905.75
841.653	29877.75
841.902	30020.75
842.15	29813.75
842.399	29955.75
842.648	29923.75
842.897	29956.75
843.145	29645.75
843.394	29456.75
843.642	29352.75
843.891	29099.75
844.139	28928.75
844.388	28990.75
844.636	28600.75
844.884	28622.75
845.133	28698.75
845.381	28631.75
845.629	28644.75
845.877	28544.75
846.125	28661.75
846.373	28622.75
846.621	28431.75
846.869	28380.75
847.117	28283.75
847.365	28027.75
847.613	27822.75
847.861	27934.75
848.108	27820.75
848.356	27774.75
848.604	27606.75
848.851	27663.75
849.099	27633.75
849.346	27889.75
849.594	27930.75
849.841	27948.75
850.089	28002.75
850.336	27988.75
850.583	28117.75
850.831	27620.75
851.078	27623.75
851.325	27605.75
851.572	27727.75
851.819	27499.75
852.066	27000.75
852.313	26587.75
852.56	26411.75
852.807	26219.75
853.054	26188.75
853.301	26109.75
853.548	26260.75
853.794	26321.75
854.041	26430.75
854.288	26544.75
854.534	26704.75
854.781	26701.75
855.028	26551.75
855.274	26691.75
855.52	26420.75
855.767	26366.75
856.013	26404.75
856.26	26677.75
856.506	26010.75
856.752	25937.75
856.998	25929.75
857.244	26094.75
857.49	26195.75
857.736	26209.75
857.982	26217.75
858.228	26159.75
858.474	26077.75
858.72	25848.75
858.966	25575.75
859.212	25261.75
859.458	25082.75
859.703	24880.75
859.949	24635.75
860.195	24409.75
860.44	24290.75
860.686	24193.75
860.931	24177.75
861.177	24041.75
861.422	23867.75
861.667	23841.75
861.913	23777.75
862.158	23868.75
862.403	23962.75
862.648	23919.75
862.893	23996.75
863.138	23946.75
863.384	23850.75
863.629	23781.75
863.873	23823.75
864.118	23710.75
864.363	23479.75
864.608	23563.75
864.853	23433.75
865.098	23311.75
865.342	23258.75
865.587	23000.75
865.832	23169.75
866.076	23228.75
866.321	22963.75
866.565	22928.75
866.81	22850.75
867.054	22674.75
867.298	22624.75
867.543	22574.75
867.787	22589.75
868.031	22442.75
868.275	22559.75
868.519	22353.75
868.764	22408.75
869.008	22370.75
869.252	22212.75
869.496	22180.75
869.739	22225.75
869.983	22134.75
870.227	22157.75
870.471	22157.75
870.715	22181.75
870.958	22270.75
871.202	22283.75
871.446	22330.75
871.689	22406.75
871.933	22326.75
872.176	22260.75
872.42	22245.75
872.663	22138.75
872.906	22127.75
873.15	22192.75
873.393	22016.75
873.636	22022.75
873.879	21756.75
874.122	21518.75
874.366	21277.75
874.609	21091.75
874.852	20857.75
875.095	20806.75
875.337	20733.75
875.58	20615.75
875.823	20611.75
876.066	20517.75
876.309	20520.75
876.551	20191.75
876.794	20215.75
877.037	20134.75
877.279	20030.75
877.522	20054.75
877.764	20081.75
878.007	19969.75
878.249	19978.75
878.491	19850.75
878.734	19976.75
878.976	19772.75
879.218	19722.75
879.46	19588.75
879.702	19512.75
879.945	19369.75
880.187	19208.75
880.429	18959.75
880.671	18913.75
880.912	18880.75
881.154	18793.75
881.396	18750.75
881.638	18686.75
881.88	18789.75
882.121	18693.75
882.363	18617.75
882.605	18696.75
882.846	18641.75
883.088	18614.75
883.329	18443.75
883.571	18664.75
883.812	18725.75
884.053	19043.75
884.295	19373.75
884.536	19638.75
884.777	19367.75
885.018	19263.75
885.259	19228.75
885.5	19011.75
885.742	19182.75
885.982	18913.75
886.223	18813.75
886.464	18763.75
886.705	18619.75
886.946	18387.75
887.187	18073.75
887.428	17891.75
887.668	17483.75
887.909	17346.75
888.15	17135.75
888.39	17089.75
888.631	16960.75
888.871	16882.75
889.111	16753.75
889.352	16592.75
889.592	16353.75
889.833	16254.75
890.073	16208.75
890.313	16097.75
890.553	15960.75
890.793	15817.75
891.033	15851.75
891.273	15766.75
891.513	15713.75
891.753	15627.75
891.993	15664.75
892.233	15615.75
892.473	15658.75
892.713	15746.75
892.952	15600.75
893.192	15658.75
893.432	15582.75
893.671	15599.75
893.911	15516.75
894.15	15419.75
894.39	15284.75
894.629	15246.75
894.869	15154.75
895.108	15108.75
895.347	15058.75
895.587	14974.75
895.826	14937.75
896.065	14858.75
896.304	14827.75
896.543	14917.75
896.782	14681.75
897.021	14866.75
897.26	14817.75
897.499	14763.75
897.738	14789.75
897.977	14524.75
898.216	14451.75
898.454	14270.75
898.693	14283.75
898.932	14300.75
899.17	14080.75
899.409	14001.75
899.647	14038.75
899.886	13996.75
900.124	14004.75
900.363	14051.75
900.601	14076.75
900.839	14028.75
901.078	14058.75
901.316	14132.75
901.554	14246.75
901.792	14246.75
902.03	14206.75
902.268	14232.75
902.506	14227.75
902.744	14121.75
902.982	13979.75
903.22	13756.75
903.458	13616.75
903.695	13515.75
903.933	13304.75
904.171	13018.75
904.409	12851.75
904.646	12684.75
904.884	12543.75
905.121	12384.75
905.359	12237.75
905.596	12134.75
905.833	11958.75
906.071	11933.75
906.308	12001.75
906.545	11941.75
906.783	11844.75
907.02	11817.75
907.257	11762.75
907.494	11775.75
907.731	11668.75
907.968	11589.75
908.205	11514.75
908.442	11462.75
908.679	11437.75
908.915	11320.75
909.152	11226.75
909.389	11066.75
909.626	11090.75
909.862	10946.75
910.099	10963.75
910.335	10882.75
910.572	10794.75
910.808	10838.75
911.045	10761.75
911.281	10681.75
911.518	10677.75
911.754	10612.75
911.99	10562.75
912.226	10509.75
912.463	10399.75
912.699	10326.75
912.935	10253.75
913.171	10166.75
913.407	10060.75
913.643	10011.75
913.879	9908.75
914.114	9837.75
914.35	9738.75
914.586	9694.75
914.822	9616.75
915.057	9531.75
915.293	9379.75
915.529	9355.75
915.764	9426.75
916	9398.75
916.235	9290.75
916.471	9251.75
916.706	9263.75
916.941	9184.75
917.177	9219.75
917.412	9245.75
917.647	9235.75
917.882	9091.75
918.117	9119.75
918.352	9167.75
918.588	9142.75
918.823	8952.75
919.057	8953.75
919.292	8805.75
919.527	8778.75
919.762	8626.75
919.997	8645.75
920.232	8545.75
920.466	8452.75
920.701	8317.75
920.935	8337.75
921.17	8213.75
921.405	8191.75
921.639	8207.75
921.873	8187.75
922.108	8142.75
922.342	8080.75
922.576	7984.75
922.811	7980.75
923.045	8020.75
923.279	8017.75
923.513	7852.75
923.747	7869.75
923.981	7801.75
924.215	7745.75
924.449	7728.75
924.683	7609.75
924.917	7603.75
925.151	7550.75
925.385	7553.75
925.618	7499.75
925.852	7472.75
926.086	7399.75
926.319	7487.75
926.553	7455.75
926.786	7407.75
927.02	7419.75
927.253	7494.75
927.486	7497.75
927.72	7318.75
927.953	7419.75
928.186	7358.75
928.42	7398.75
928.653	7281.75
928.886	7173.75
929.119	7198.75
929.352	7149.75
929.585	7113.75
929.818	7051.75
930.051	7078.75
930.284	6974.75
930.516	6839.75
930.749	6844.75
930.982	6832.75
931.215	6774.75
931.447	6756.75
931.68	6698.75
931.912	6727.75
932.145	6619.75
932.377	6716.75
932.61	6808.75
932.842	6575.75
933.074	6708.75
933.307	6653.75
933.539	6700.75
933.771	6654.75
934.003	6625.75
934.236	6734.75
934.468	6664.75
934.7	6541.75
934.932	6663.75
935.164	6498.75
935.395	6529.75
935.627	6513.75
935.859	6497.75
936.091	6490.75
936.323	6495.75
936.554	6478.75
936.786	6407.75
937.017	6341.75
937.249	6421.75
937.481	6312.75
937.712	6326.75
937.943	6284.75
938.175	6300.75
938.406	6280.75
938.637	6300.75
938.869	6216.75
939.1	6221.75
939.331	6193.75
939.562	6217.75
939.793	6188.75
940.024	6259.75
940.255	6107.75
940.486	6070.75
940.717	6029.75
940.948	5993.75
941.179	5932.75
941.409	6014.75
941.64	5916.75
941.871	5968.75
942.102	5962.75
942.332	5945.75
942.563	5920.75
942.793	5924.75
943.024	5899.75
943.254	5966.75
943.484	5920.75
943.715	5958.75
943.945	5949.75
944.175	5832.75
944.405	5808.75
944.636	5821.75
944.866	5885.75
945.096	5873.75
945.326	5765.75
945.556	5835.75
945.786	5765.75
946.016	5702.75
946.245	5621.75
946.475	5652.75
946.705	5605.75
946.935	5592.75
947.164	5561.75
947.394	5538.75
947.624	5512.75
947.853	5540.75
948.083	5479.75
948.312	5429.75
948.542	5408.75
948.771	5355.75
949	5332.75
949.23	5377.75
949.459	5358.75
949.688	5373.75
949.917	5328.75
950.146	5420.75
950.375	5397.75
950.604	5292.75
950.833	5350.75
951.062	5289.75
951.291	5300.75
951.52	5196.75
951.749	5231.75
951.978	5132.75
952.206	5152.75
952.435	5127.75
952.664	5155.75
952.892	5168.75
953.121	5108.75
953.349	5130.75
953.578	5081.75
953.806	5054.75
954.035	4966.75
954.263	5018.75
954.491	4978.75
954.719	4945.75
954.948	4979.75
955.176	4914.75
955.404	4799.75
955.632	4883.75
955.86	4833.75
956.088	4820.75
956.316	4850.75
956.544	4857.75
956.772	4738.75
956.999	4688.75
957.227	4734.75
957.455	4650.75
957.683	4643.75
957.91	4556.75
958.138	4567.75
958.365	4525.75
958.593	4545.75
958.82	4517.75
959.048	4487.75
959.275	4492.75
959.502	4490.75
959.73	4416.75
959.957	4438.75
960.184	4477.75
960.411	4364.75
960.638	4454.75
960.865	4426.75
961.092	4403.75
961.319	4325.75
961.546	4423.75
961.773	4419.75
962	4368.75
962.227	4421.75
962.454	4380.75
962.68	4308.75
962.907	4351.75
963.134	4270.75
963.36	4259.75
963.587	4291.75
963.813	4172.75
964.04	4219.75
964.266	4127.75
964.493	4208.75
964.719	4176.75
964.945	4154.75
965.171	4018.75
965.398	4040.75
965.624	4066.75
965.85	4001.75
966.076	3973.75
966.302	3995.75
966.528	3940.75
966.754	3963.75
966.98	3969.75
967.206	3923.75
967.431	3838.75
967.657	3897.75
967.883	3917.75
968.109	3911.75
968.334	3814.75
968.56	3803.75
968.785	3840.75
969.011	3762.75
969.236	3848.75
969.462	3789.75
969.687	3795.75
969.912	3864.75
970.138	3851.75
970.363	3714.75
970.588	3743.75
970.813	3675.75
971.038	3697.75
971.263	3684.75
971.488	3709.75
971.713	3725.75
971.938	3665.75
972.163	3567.75
972.388	3625.75
972.613	3577.75
972.838	3572.75
973.062	3575.75
973.287	3522.75
973.512	3484.75
973.736	3503.75
973.961	3472.75
974.185	3481.75
974.41	3466.75
974.634	3343.75
974.858	3392.75
975.083	3408.75
975.307	3376.75
975.531	3361.75
975.755	3252.75
975.98	3281.75
976.204	3209.75
976.428	3160.75
976.652	3219.75
976.876	3166.75
977.1	3208.75
977.324	3156.75
977.547	3243.75
977.771	3174.75
977.995	3195.75
978.219	3075.75
978.442	3229.75
978.666	3183.75
978.89	3167.75
979.113	3158.75
979.337	3141.75
979.56	3069.75
979.783	3151.75
980.007	3020.75
980.23	3024.75
980.453	3012.75
980.677	3034.75
980.9	2997.75
981.123	2893.75
981.346	3037.75
981.569	2979.75
981.792	2978.75
982.015	2945.75
982.238	2912.75
982.461	2894.75
982.684	2869.75
982.907	2811.75
983.129	2820.75
983.352	2873.75
983.575	2835.75
983.797	2788.75
984.02	2775.75
984.242	2759.75
984.465	2772.75
984.687	2826.75
984.91	2799.75
985.132	2770.75
985.354	2788.75
985.577	2749.75
985.799	2717.75
986.021	2619.75
986.243	2663.75
986.465	2682.75
986.687	2723.75
986.909	2773.75
987.131	2684.75
987.353	2644.75
987.575	2683.75
987.797	2587.75
988.019	2532.75
988.241	2610.75
988.462	2546.75
988.684	2605.75
988.906	2600.75
989.127	2654.75
989.349	2521.75
989.57	2552.75
989.792	2564.75
990.013	2595.75
990.234	2596.75
990.456	2613.75
990.677	2537.75
990.898	2528.75
991.119	2532.75
991.341	2568.75
991.562	2432.75
991.783	2502.75
992.004	2411.75
992.225	2373.75
992.446	2420.75
992.667	2336.75
992.887	2420.75
993.108	2313.75
993.329	2448.75
993.55	2377.75
993.77	2294.75
993.991	2267.75
994.212	2332.75
994.432	2309.75
994.653	2333.75
994.873	2286.75
995.093	2181.75
995.314	2238.75
995.534	2275.75
995.754	2283.75
995.975	2300.75
996.195	2201.75
996.415	2266.75
996.635	2208.75
996.855	2242.75
997.075	2212.75
997.295	2209.75
997.515	2220.75
997.735	2196.75
997.955	2199.75
998.174	2189.75
998.394	2164.75
998.614	2205.75
998.834	2127.75
999.053	2212.75
999.273	2191.75
999.492	2237.75
999.712	2169.75
999.931	2102.75
1000.151	2157.75
1000.37	2146.75
1000.589	2197.75
1000.809	2094.75
1001.028	2183.75
1001.247	2131.75
1001.466	2024.75
1001.685	2159.75
1001.904	2079.75
1002.123	2059.75
1002.342	2072.75
1002.561	2013.75
1002.78	2050.75
1002.999	2091.75
1003.218	2032.75
1003.436	1991.75
1003.655	2042.75
1003.874	1969.75
1004.092	2001.75
1004.311	2039.75
1004.53	1993.75
1004.748	2042.75
1004.966	1995.75
1005.185	2008.75
1005.403	2034.75
1005.622	1977.75
1005.84	2031.75
1006.058	1962.75
1006.276	1957.75
1006.494	2479.75
1006.712	1962.75
1006.931	2007.75
1007.149	1909.75
1007.367	1932.75
1007.584	1982.75
1007.802	2000.75
1008.02	1956.75
1008.238	2065.75
1008.456	2031.75
1008.673	1916.75
1008.891	2033.75
1009.109	1995.75
1009.326	2046.75
1009.544	2149.75
1009.761	2073.75
1009.979	2160.75
1010.196	2246.75
1010.413	2337.75
1010.631	2396.75
1010.848	2431.75
1011.065	2467.75
1011.282	2399.75
1011.5	2372.75
1011.717	2457.75
1011.934	2436.75
1012.151	2419.75
1012.368	2401.75
1012.585	2323.75
1012.801	2359.75
1013.018	2336.75
1013.235	2294.75
1013.452	2328.75
1013.669	2330.75
1013.885	2366.75
1014.102	2384.75
1014.318	2333.75
1014.535	2300.75
1014.751	2296.75
1014.968	2294.75
1015.184	2332.75
1015.401	2233.75
1015.617	2278.75
1015.833	2202.75
1016.049	2192.75
1016.266	2139.75
1016.482	2136.75
1016.698	2076.75
1016.914	2112.75
1017.13	2061.75
1017.346	2053.75
1017.562	2084.75
1017.778	2016.75
1017.993	2002.75
1018.209	2048.75
1018.425	2041.75
1018.641	1985.75
1018.856	1965.75
1019.072	1973.75
1019.288	2028.75
1019.503	1989.75
1019.719	1932.75
1019.934	1908.75
1020.149	1963.75
1020.365	1917.75
1020.58	1836.75
1020.795	1849.75
1021.011	1813.75
1021.226	1778.75
1021.441	1802.75
1021.656	1708.75
1021.871	1637.75
1022.086	1628.75
1022.301	1607.75
1022.516	1592.75
1022.731	1607.75
1022.946	1527.75
1023.16	1515.75
1023.375	1475.75
1023.59	1480.75
1023.804	1419.75
1024.019	1500.75
1024.234	1359.75
1024.448	1401.75
1024.663	1288.75
1024.877	1300.75
1025.092	1323.75
1025.306	1286.75
1025.52	1212.75
1025.734	1288.75
1025.949	1198.75
1026.163	1158.75
1026.377	1102.75
1026.591	1154.75
1026.805	1080.75
1027.019	1058.75
1027.233	1010.75
1027.447	978.75
1027.661	1065.75
1027.875	1009.75
1028.088	997.75
1028.302	917.75
1028.516	903.75
1028.73	894.75
1028.943	879.75
1029.157	810.75
1029.37	768.75
1029.584	-1.25
1029.797	-4.25
1030.011	-3.25
1030.224	-1.25
