Data from QEP037381__329__16-24-39-911.txt Node

Date: Fri Dec 16 16:24:39 EST 2022
User: dcclab
Spectrometer: QEP03738
Trigger mode: 4
Integration Time (sec): 1.000000E1
Scans to average: 1
Electric dark correction enabled: true
Nonlinearity correction enabled: false
Boxcar width: 0
XAxis mode: Wavelengths
Number of Pixels in Spectrum: 1044
>>>>>Begin Spectral Data<<<<<
784.041	12.5
784.3	-0.5
784.558	-3.5
784.817	-1.5
785.075	114913.5
785.334	20018.5
785.592	9413.5
785.851	6528.5
786.109	4896.5
786.368	3759.5
786.626	3024.5
786.884	2547.5
787.143	2137.5
787.401	1744.5
787.659	1548.5
787.917	1308.5
788.175	1207.5
788.433	1067.5
788.691	946.5
788.949	858.5
789.207	830.5
789.465	726.5
789.723	677.5
789.98	636.5
790.238	659.5
790.496	637.5
790.753	592.5
791.011	644.5
791.268	553.5
791.526	570.5
791.783	562.5
792.041	548.5
792.298	468.5
792.556	529.5
792.813	505.5
793.07	495.5
793.327	452.5
793.584	533.5
793.841	482.5
794.099	495.5
794.356	551.5
794.613	452.5
794.869	501.5
795.126	438.5
795.383	419.5
795.64	455.5
795.897	411.5
796.153	474.5
796.41	456.5
796.667	436.5
796.923	442.5
797.18	448.5
797.436	476.5
797.693	425.5
797.949	486.5
798.206	510.5
798.462	441.5
798.718	477.5
798.974	478.5
799.231	506.5
799.487	478.5
799.743	501.5
799.999	534.5
800.255	511.5
800.511	520.5
800.767	559.5
801.023	534.5
801.279	587.5
801.534	641.5
801.79	680.5
802.046	740.5
802.302	876.5
802.557	1041.5
802.813	1255.5
803.068	1579.5
803.324	2155.5
803.579	2944.5
803.835	4035.5
804.09	5583.5
804.345	7252.5
804.601	9140.5
804.856	10962.5
805.111	12650.5
805.366	13833.5
805.621	14864.5
805.876	15518.5
806.131	15895.5
806.386	16181.5
806.641	16468.5
806.896	16711.5
807.151	17040.5
807.406	17356.5
807.661	17646.5
807.915	17945.5
808.17	18256.5
808.425	18467.5
808.679	18504.5
808.934	18718.5
809.188	18958.5
809.443	19146.5
809.697	19193.5
809.951	19461.5
810.206	19526.5
810.46	19787.5
810.714	19978.5
810.968	20148.5
811.223	20291.5
811.477	20519.5
811.731	20606.5
811.985	20754.5
812.239	20751.5
812.493	20882.5
812.747	20969.5
813	21014.5
813.254	21042.5
813.508	21238.5
813.762	21324.5
814.015	21322.5
814.269	21440.5
814.522	21592.5
814.776	21915.5
815.03	22176.5
815.283	22461.5
815.536	22707.5
815.79	23145.5
816.043	23496.5
816.296	23799.5
816.55	24039.5
816.803	24238.5
817.056	24635.5
817.309	24815.5
817.562	25036.5
817.815	25278.5
818.068	25493.5
818.321	25578.5
818.574	25940.5
818.827	26271.5
819.079	26569.5
819.332	27110.5
819.585	27344.5
819.838	27623.5
820.09	27721.5
820.343	28067.5
820.595	28118.5
820.848	28416.5
821.1	28371.5
821.353	28370.5
821.605	28295.5
821.857	28309.5
822.11	28210.5
822.362	28135.5
822.614	28098.5
822.866	28201.5
823.118	28070.5
823.37	28221.5
823.622	28366.5
823.874	28452.5
824.126	28593.5
824.378	28494.5
824.63	28617.5
824.882	28697.5
825.134	28471.5
825.385	28638.5
825.637	28537.5
825.888	28452.5
826.14	28347.5
826.392	28317.5
826.643	28071.5
826.895	27967.5
827.146	27859.5
827.397	27778.5
827.649	27893.5
827.9	27757.5
828.151	27778.5
828.402	27965.5
828.653	27936.5
828.905	28033.5
829.156	27976.5
829.407	27911.5
829.658	27960.5
829.909	28156.5
830.159	28136.5
830.41	27993.5
830.661	27778.5
830.912	27494.5
831.162	27565.5
831.413	27503.5
831.664	27536.5
831.914	27526.5
832.165	27340.5
832.415	27551.5
832.666	27371.5
832.916	27508.5
833.167	27417.5
833.417	27306.5
833.667	27216.5
833.917	27230.5
834.168	27165.5
834.418	27017.5
834.668	26886.5
834.918	26830.5
835.168	26852.5
835.418	26490.5
835.668	26571.5
835.918	26350.5
836.167	26377.5
836.417	26264.5
836.667	26230.5
836.917	26194.5
837.166	26140.5
837.416	26357.5
837.666	26168.5
837.915	26174.5
838.165	26122.5
838.414	26024.5
838.663	26102.5
838.913	26006.5
839.162	25885.5
839.411	25939.5
839.661	25755.5
839.91	25786.5
840.159	25659.5
840.408	25787.5
840.657	25822.5
840.906	25733.5
841.155	25812.5
841.404	25603.5
841.653	25720.5
841.902	25867.5
842.15	25813.5
842.399	25904.5
842.648	25725.5
842.897	25710.5
843.145	25572.5
843.394	25299.5
843.642	25234.5
843.891	25072.5
844.139	25003.5
844.388	24791.5
844.636	24616.5
844.884	24576.5
845.133	24547.5
845.381	24587.5
845.629	24619.5
845.877	24550.5
846.125	24594.5
846.373	24494.5
846.621	24452.5
846.869	24277.5
847.117	24188.5
847.365	24066.5
847.613	23945.5
847.861	23883.5
848.108	23881.5
848.356	23880.5
848.604	23769.5
848.851	23874.5
849.099	23728.5
849.346	23918.5
849.594	23863.5
849.841	24038.5
850.089	24053.5
850.336	23955.5
850.583	23904.5
850.831	23884.5
851.078	23689.5
851.325	23821.5
851.572	23881.5
851.819	23662.5
852.066	23193.5
852.313	22873.5
852.56	22670.5
852.807	22608.5
853.054	22606.5
853.301	22491.5
853.548	22657.5
853.794	22660.5
854.041	22637.5
854.288	22863.5
854.534	23047.5
854.781	23047.5
855.028	22959.5
855.274	22891.5
855.52	22723.5
855.767	22759.5
856.013	22880.5
856.26	23137.5
856.506	22608.5
856.752	22472.5
856.998	22470.5
857.244	22515.5
857.49	22546.5
857.736	22693.5
857.982	22674.5
858.228	22629.5
858.474	22453.5
858.72	22206.5
858.966	22109.5
859.212	21841.5
859.458	21577.5
859.703	21448.5
859.949	21129.5
860.195	21073.5
860.44	21008.5
860.686	20879.5
860.931	20933.5
861.177	20849.5
861.422	20741.5
861.667	20555.5
861.913	20456.5
862.158	20505.5
862.403	20524.5
862.648	20589.5
862.893	20563.5
863.138	20582.5
863.384	20463.5
863.629	20439.5
863.873	20439.5
864.118	20278.5
864.363	20347.5
864.608	20272.5
864.853	20209.5
865.098	20069.5
865.342	19931.5
865.587	19910.5
865.832	19964.5
866.076	19832.5
866.321	19811.5
866.565	19595.5
866.81	19581.5
867.054	19603.5
867.298	19528.5
867.543	19447.5
867.787	19553.5
868.031	19481.5
868.275	19270.5
868.519	19359.5
868.764	19279.5
869.008	19377.5
869.252	19256.5
869.496	19223.5
869.739	19211.5
869.983	19251.5
870.227	19199.5
870.471	19060.5
870.715	19298.5
870.958	19421.5
871.202	19418.5
871.446	19487.5
871.689	19419.5
871.933	19436.5
872.176	19401.5
872.42	19347.5
872.663	19304.5
872.906	19239.5
873.15	19304.5
873.393	19274.5
873.636	19286.5
873.879	19130.5
874.122	18897.5
874.366	18502.5
874.609	18474.5
874.852	18196.5
875.095	18085.5
875.337	18035.5
875.58	17902.5
875.823	17893.5
876.066	17802.5
876.309	17836.5
876.551	17635.5
876.794	17573.5
877.037	17545.5
877.279	17392.5
877.522	17391.5
877.764	17468.5
878.007	17271.5
878.249	17410.5
878.491	17307.5
878.734	17257.5
878.976	17087.5
879.218	17142.5
879.46	17069.5
879.702	16869.5
879.945	16758.5
880.187	16577.5
880.429	16520.5
880.671	16431.5
880.912	16389.5
881.154	16329.5
881.396	16187.5
881.638	16283.5
881.88	16279.5
882.121	16238.5
882.363	16208.5
882.605	16216.5
882.846	16193.5
883.088	16147.5
883.329	16115.5
883.571	16163.5
883.812	16354.5
884.053	16750.5
884.295	17135.5
884.536	17397.5
884.777	17188.5
885.018	17057.5
885.259	16980.5
885.5	16844.5
885.742	17045.5
885.982	16803.5
886.223	16613.5
886.464	16420.5
886.705	16204.5
886.946	15973.5
887.187	15846.5
887.428	15679.5
887.668	15318.5
887.909	15132.5
888.15	14899.5
888.39	14768.5
888.631	14805.5
888.871	14586.5
889.111	14551.5
889.352	14421.5
889.592	14206.5
889.833	14111.5
890.073	14066.5
890.313	14040.5
890.553	13863.5
890.793	13735.5
891.033	13654.5
891.273	13668.5
891.513	13600.5
891.753	13642.5
891.993	13623.5
892.233	13637.5
892.473	13640.5
892.713	13608.5
892.952	13626.5
893.192	13641.5
893.432	13561.5
893.671	13607.5
893.911	13545.5
894.15	13525.5
894.39	13358.5
894.629	13276.5
894.869	13215.5
895.108	13187.5
895.347	13084.5
895.587	13142.5
895.826	12983.5
896.065	12987.5
896.304	13024.5
896.543	13044.5
896.782	12902.5
897.021	12903.5
897.26	12910.5
897.499	13001.5
897.738	12908.5
897.977	12817.5
898.216	12595.5
898.454	12587.5
898.693	12570.5
898.932	12467.5
899.17	12428.5
899.409	12406.5
899.647	12383.5
899.886	12323.5
900.124	12396.5
900.363	12342.5
900.601	12411.5
900.839	12447.5
901.078	12484.5
901.316	12478.5
901.554	12667.5
901.792	12651.5
902.03	12706.5
902.268	12646.5
902.506	12671.5
902.744	12506.5
902.982	12469.5
903.22	12260.5
903.458	12102.5
903.695	11882.5
903.933	11738.5
904.171	11412.5
904.409	11280.5
904.646	11135.5
904.884	11013.5
905.121	10891.5
905.359	10800.5
905.596	10693.5
905.833	10578.5
906.071	10501.5
906.308	10492.5
906.545	10456.5
906.783	10329.5
907.02	10376.5
907.257	10283.5
907.494	10265.5
907.731	10284.5
907.968	10226.5
908.205	10165.5
908.442	10041.5
908.679	9973.5
908.915	9985.5
909.152	9794.5
909.389	9746.5
909.626	9731.5
909.862	9599.5
910.099	9601.5
910.335	9585.5
910.572	9509.5
910.808	9476.5
911.045	9432.5
911.281	9387.5
911.518	9393.5
911.754	9362.5
911.99	9275.5
912.226	9182.5
912.463	9081.5
912.699	9008.5
912.935	8889.5
913.171	8858.5
913.407	8823.5
913.643	8852.5
913.879	8773.5
914.114	8620.5
914.35	8505.5
914.586	8464.5
914.822	8367.5
915.057	8463.5
915.293	8211.5
915.529	8203.5
915.764	8296.5
916	8217.5
916.235	8208.5
916.471	8228.5
916.706	8131.5
916.941	8067.5
917.177	8117.5
917.412	8065.5
917.647	8128.5
917.882	8009.5
918.117	8149.5
918.352	8017.5
918.588	8052.5
918.823	7940.5
919.057	7882.5
919.292	7738.5
919.527	7854.5
919.762	7612.5
919.997	7585.5
920.232	7484.5
920.466	7479.5
920.701	7353.5
920.935	7290.5
921.17	7282.5
921.405	7247.5
921.639	7209.5
921.873	7125.5
922.108	7178.5
922.342	7170.5
922.576	7117.5
922.811	7067.5
923.045	7083.5
923.279	7071.5
923.513	6868.5
923.747	6929.5
923.981	6848.5
924.215	6888.5
924.449	6808.5
924.683	6767.5
924.917	6703.5
925.151	6634.5
925.385	6714.5
925.618	6680.5
925.852	6613.5
926.086	6542.5
926.319	6617.5
926.553	6601.5
926.786	6628.5
927.02	6585.5
927.253	6646.5
927.486	6627.5
927.72	6518.5
927.953	6512.5
928.186	6438.5
928.42	6500.5
928.653	6432.5
928.886	6421.5
929.119	6401.5
929.352	6361.5
929.585	6347.5
929.818	6258.5
930.051	6240.5
930.284	6195.5
930.516	6065.5
930.749	6030.5
930.982	6039.5
931.215	5991.5
931.447	5904.5
931.68	5968.5
931.912	5886.5
932.145	5945.5
932.377	5957.5
932.61	6052.5
932.842	5867.5
933.074	5931.5
933.307	5826.5
933.539	5939.5
933.771	6001.5
934.003	5876.5
934.236	5960.5
934.468	5944.5
934.7	5841.5
934.932	5867.5
935.164	5832.5
935.395	5810.5
935.627	5820.5
935.859	5821.5
936.091	5762.5
936.323	5792.5
936.554	5727.5
936.786	5672.5
937.017	5654.5
937.249	5681.5
937.481	5562.5
937.712	5631.5
937.943	5591.5
938.175	5581.5
938.406	5578.5
938.637	5634.5
938.869	5524.5
939.1	5528.5
939.331	5486.5
939.562	5535.5
939.793	5524.5
940.024	5516.5
940.255	5478.5
940.486	5420.5
940.717	5441.5
940.948	5382.5
941.179	5335.5
941.409	5276.5
941.64	5285.5
941.871	5323.5
942.102	5296.5
942.332	5278.5
942.563	5323.5
942.793	5331.5
943.024	5277.5
943.254	5274.5
943.484	5270.5
943.715	5227.5
943.945	5255.5
944.175	5256.5
944.405	5161.5
944.636	5214.5
944.866	5195.5
945.096	5202.5
945.326	5104.5
945.556	5209.5
945.786	5167.5
946.016	5150.5
946.245	5021.5
946.475	5003.5
946.705	5023.5
946.935	4967.5
947.164	5033.5
947.394	4938.5
947.624	4924.5
947.853	4933.5
948.083	4894.5
948.312	4780.5
948.542	4757.5
948.771	4757.5
949	4800.5
949.23	4790.5
949.459	4757.5
949.688	4841.5
949.917	4704.5
950.146	4760.5
950.375	4801.5
950.604	4727.5
950.833	4795.5
951.062	4792.5
951.291	4682.5
951.52	4646.5
951.749	4680.5
951.978	4600.5
952.206	4620.5
952.435	4573.5
952.664	4583.5
952.892	4626.5
953.121	4536.5
953.349	4560.5
953.578	4563.5
953.806	4507.5
954.035	4414.5
954.263	4456.5
954.491	4401.5
954.719	4432.5
954.948	4408.5
955.176	4389.5
955.404	4268.5
955.632	4342.5
955.86	4368.5
956.088	4282.5
956.316	4314.5
956.544	4378.5
956.772	4235.5
956.999	4190.5
957.227	4284.5
957.455	4164.5
957.683	4179.5
957.91	4101.5
958.138	4080.5
958.365	4089.5
958.593	4027.5
958.82	4042.5
959.048	4094.5
959.275	4011.5
959.502	4015.5
959.73	3967.5
959.957	4008.5
960.184	3995.5
960.411	3955.5
960.638	4018.5
960.865	3897.5
961.092	3939.5
961.319	3884.5
961.546	3997.5
961.773	3954.5
962	3898.5
962.227	3989.5
962.454	3940.5
962.68	3902.5
962.907	3889.5
963.134	3809.5
963.36	3842.5
963.587	3865.5
963.813	3763.5
964.04	3819.5
964.266	3728.5
964.493	3749.5
964.719	3762.5
964.945	3735.5
965.171	3627.5
965.398	3676.5
965.624	3659.5
965.85	3595.5
966.076	3565.5
966.302	3628.5
966.528	3590.5
966.754	3574.5
966.98	3587.5
967.206	3528.5
967.431	3440.5
967.657	3550.5
967.883	3496.5
968.109	3502.5
968.334	3434.5
968.56	3445.5
968.785	3413.5
969.011	3409.5
969.236	3461.5
969.462	3387.5
969.687	3393.5
969.912	3430.5
970.138	3459.5
970.363	3366.5
970.588	3348.5
970.813	3340.5
971.038	3318.5
971.263	3342.5
971.488	3348.5
971.713	3332.5
971.938	3308.5
972.163	3231.5
972.388	3211.5
972.613	3270.5
972.838	3228.5
973.062	3199.5
973.287	3198.5
973.512	3089.5
973.736	3159.5
973.961	3115.5
974.185	3076.5
974.41	3100.5
974.634	3053.5
974.858	3038.5
975.083	3049.5
975.307	3102.5
975.531	2989.5
975.755	2942.5
975.98	2971.5
976.204	2920.5
976.428	2879.5
976.652	2906.5
976.876	2873.5
977.1	2940.5
977.324	2803.5
977.547	2912.5
977.771	2894.5
977.995	2829.5
978.219	2775.5
978.442	2882.5
978.666	2851.5
978.89	2865.5
979.113	2823.5
979.337	2811.5
979.56	2772.5
979.783	2837.5
980.007	2728.5
980.23	2761.5
980.453	2690.5
980.677	2716.5
980.9	2720.5
981.123	2593.5
981.346	2742.5
981.569	2706.5
981.792	2699.5
982.015	2640.5
982.238	2600.5
982.461	2624.5
982.684	2579.5
982.907	2569.5
983.129	2536.5
983.352	2618.5
983.575	2549.5
983.797	2590.5
984.02	2530.5
984.242	2516.5
984.465	2526.5
984.687	2535.5
984.91	2584.5
985.132	2545.5
985.354	2528.5
985.577	2489.5
985.799	2461.5
986.021	2387.5
986.243	2417.5
986.465	2440.5
986.687	2484.5
986.909	2523.5
987.131	2415.5
987.353	2366.5
987.575	2433.5
987.797	2364.5
988.019	2301.5
988.241	2357.5
988.462	2313.5
988.684	2371.5
988.906	2416.5
989.127	2388.5
989.349	2292.5
989.57	2322.5
989.792	2369.5
990.013	2386.5
990.234	2350.5
990.456	2370.5
990.677	2343.5
990.898	2282.5
991.119	2263.5
991.341	2326.5
991.562	2224.5
991.783	2289.5
992.004	2204.5
992.225	2156.5
992.446	2254.5
992.667	2167.5
992.887	2209.5
993.108	2104.5
993.329	2240.5
993.55	2175.5
993.77	2122.5
993.991	2130.5
994.212	2160.5
994.432	2141.5
994.653	2148.5
994.873	2129.5
995.093	1996.5
995.314	2040.5
995.534	2135.5
995.754	2141.5
995.975	2136.5
996.195	2052.5
996.415	2079.5
996.635	2050.5
996.855	2048.5
997.075	2028.5
997.295	2022.5
997.515	2015.5
997.735	2083.5
997.955	2018.5
998.174	2042.5
998.394	1982.5
998.614	2026.5
998.834	1983.5
999.053	2078.5
999.273	2028.5
999.492	2066.5
999.712	1973.5
999.931	1959.5
1000.151	1968.5
1000.37	1948.5
1000.589	2017.5
1000.809	1942.5
1001.028	2033.5
1001.247	1987.5
1001.466	1862.5
1001.685	1987.5
1001.904	1940.5
1002.123	1922.5
1002.342	1902.5
1002.561	1887.5
1002.78	1893.5
1002.999	1911.5
1003.218	1862.5
1003.436	1833.5
1003.655	1879.5
1003.874	1838.5
1004.092	1821.5
1004.311	1882.5
1004.53	1854.5
1004.748	1918.5
1004.966	1849.5
1005.185	1897.5
1005.403	1866.5
1005.622	1874.5
1005.84	1942.5
1006.058	1813.5
1006.276	1855.5
1006.494	2307.5
1006.712	1863.5
1006.931	1915.5
1007.149	1791.5
1007.367	1814.5
1007.584	1860.5
1007.802	1862.5
1008.02	1847.5
1008.238	1941.5
1008.456	1929.5
1008.673	1806.5
1008.891	1940.5
1009.109	1900.5
1009.326	1966.5
1009.544	2061.5
1009.761	1993.5
1009.979	2119.5
1010.196	2148.5
1010.413	2241.5
1010.631	2305.5
1010.848	2392.5
1011.065	2394.5
1011.282	2355.5
1011.5	2271.5
1011.717	2415.5
1011.934	2338.5
1012.151	2359.5
1012.368	2319.5
1012.585	2282.5
1012.801	2334.5
1013.018	2302.5
1013.235	2251.5
1013.452	2256.5
1013.669	2300.5
1013.885	2293.5
1014.102	2314.5
1014.318	2326.5
1014.535	2241.5
1014.751	2294.5
1014.968	2259.5
1015.184	2296.5
1015.401	2177.5
1015.617	2226.5
1015.833	2141.5
1016.049	2163.5
1016.266	2128.5
1016.482	2138.5
1016.698	2044.5
1016.914	2097.5
1017.13	2034.5
1017.346	2026.5
1017.562	2067.5
1017.778	1988.5
1017.993	1958.5
1018.209	2016.5
1018.425	2016.5
1018.641	1928.5
1018.856	1925.5
1019.072	1986.5
1019.288	2001.5
1019.503	1960.5
1019.719	1873.5
1019.934	1884.5
1020.149	1955.5
1020.365	1905.5
1020.58	1817.5
1020.795	1857.5
1021.011	1787.5
1021.226	1766.5
1021.441	1777.5
1021.656	1648.5
1021.871	1586.5
1022.086	1570.5
1022.301	1587.5
1022.516	1520.5
1022.731	1571.5
1022.946	1514.5
1023.16	1486.5
1023.375	1456.5
1023.59	1425.5
1023.804	1372.5
1024.019	1443.5
1024.234	1328.5
1024.448	1348.5
1024.663	1293.5
1024.877	1250.5
1025.092	1280.5
1025.306	1292.5
1025.52	1165.5
1025.734	1250.5
1025.949	1170.5
1026.163	1137.5
1026.377	1051.5
1026.591	1129.5
1026.805	1039.5
1027.019	1022.5
1027.233	973.5
1027.447	927.5
1027.661	1033.5
1027.875	953.5
1028.088	957.5
1028.302	896.5
1028.516	882.5
1028.73	874.5
1028.943	851.5
1029.157	806.5
1029.37	740.5
1029.584	-0.5
1029.797	-3.5
1030.011	-1.5
1030.224	-1.5
