Data from QEP037381__307__16-20-59-910.txt Node

Date: Fri Dec 16 16:20:59 EST 2022
User: dcclab
Spectrometer: QEP03738
Trigger mode: 4
Integration Time (sec): 1.000000E1
Scans to average: 1
Electric dark correction enabled: true
Nonlinearity correction enabled: false
Boxcar width: 0
XAxis mode: Wavelengths
Number of Pixels in Spectrum: 1044
>>>>>Begin Spectral Data<<<<<
784.041	12.62
784.3	0.62
784.558	-4.38
784.817	0.62
785.075	110037.62
785.334	19045.62
785.592	8943.62
785.851	6134.62
786.109	4624.62
786.368	3603.62
786.626	2882.62
786.884	2411.62
787.143	1980.62
787.401	1656.62
787.659	1470.62
787.917	1275.62
788.175	1170.62
788.433	1028.62
788.691	916.62
788.949	840.62
789.207	806.62
789.465	697.62
789.723	677.62
789.98	621.62
790.238	645.62
790.496	617.62
790.753	586.62
791.011	617.62
791.268	570.62
791.526	550.62
791.783	564.62
792.041	535.62
792.298	467.62
792.556	512.62
792.813	514.62
793.07	480.62
793.327	463.62
793.584	546.62
793.841	459.62
794.099	494.62
794.356	551.62
794.613	431.62
794.869	477.62
795.126	437.62
795.383	415.62
795.64	448.62
795.897	395.62
796.153	453.62
796.41	452.62
796.667	429.62
796.923	452.62
797.18	436.62
797.436	468.62
797.693	434.62
797.949	495.62
798.206	495.62
798.462	424.62
798.718	495.62
798.974	469.62
799.231	499.62
799.487	496.62
799.743	497.62
799.999	529.62
800.255	541.62
800.511	526.62
800.767	565.62
801.023	547.62
801.279	606.62
801.534	646.62
801.79	687.62
802.046	730.62
802.302	878.62
802.557	1021.62
802.813	1248.62
803.068	1568.62
803.324	2170.62
803.579	2988.62
803.835	4068.62
804.09	5619.62
804.345	7290.62
804.601	9255.62
804.856	11162.62
805.111	12932.62
805.366	14260.62
805.621	15135.62
805.876	15921.62
806.131	16335.62
806.386	16750.62
806.641	16911.62
806.896	17303.62
807.151	17574.62
807.406	17836.62
807.661	18259.62
807.915	18415.62
808.17	18760.62
808.425	19028.62
808.679	19172.62
808.934	19413.62
809.188	19389.62
809.443	19805.62
809.697	20065.62
809.951	20067.62
810.206	20272.62
810.46	20581.62
810.714	20715.62
810.968	20915.62
811.223	20942.62
811.477	21207.62
811.731	21407.62
811.985	21415.62
812.239	21610.62
812.493	21679.62
812.747	21684.62
813	21845.62
813.254	22002.62
813.508	22038.62
813.762	22135.62
814.015	22116.62
814.269	22432.62
814.522	22497.62
814.776	22790.62
815.03	23114.62
815.283	23424.62
815.536	23827.62
815.79	24066.62
816.043	24544.62
816.296	24764.62
816.55	25078.62
816.803	25343.62
817.056	25684.62
817.309	25948.62
817.562	26163.62
817.815	26409.62
818.068	26587.62
818.321	26931.62
818.574	27172.62
818.827	27518.62
819.079	27795.62
819.332	28358.62
819.585	28657.62
819.838	29004.62
820.09	29220.62
820.343	29407.62
820.595	29559.62
820.848	29718.62
821.1	29801.62
821.353	29826.62
821.605	29837.62
821.857	29741.62
822.11	29658.62
822.362	29563.62
822.614	29552.62
822.866	29561.62
823.118	29527.62
823.37	29644.62
823.622	29745.62
823.874	29724.62
824.126	29885.62
824.378	29754.62
824.63	30061.62
824.882	30022.62
825.134	29925.62
825.385	29941.62
825.637	29908.62
825.888	29769.62
826.14	29791.62
826.392	29631.62
826.643	29350.62
826.895	29272.62
827.146	29168.62
827.397	29121.62
827.649	29267.62
827.9	29124.62
828.151	29224.62
828.402	29291.62
828.653	29327.62
828.905	29360.62
829.156	29420.62
829.407	29383.62
829.658	29419.62
829.909	29536.62
830.159	29522.62
830.41	29448.62
830.661	29249.62
830.912	29059.62
831.162	28850.62
831.413	28876.62
831.664	28868.62
831.914	28694.62
832.165	28780.62
832.415	28750.62
832.666	28689.62
832.916	28856.62
833.167	28740.62
833.417	28653.62
833.667	28607.62
833.917	28405.62
834.168	28410.62
834.418	28376.62
834.668	28227.62
834.918	28090.62
835.168	27900.62
835.418	27802.62
835.668	27735.62
835.918	27653.62
836.167	27695.62
836.417	27443.62
836.667	27464.62
836.917	27394.62
837.166	27422.62
837.416	27512.62
837.666	27472.62
837.915	27392.62
838.165	27254.62
838.414	27174.62
838.663	27140.62
838.913	27223.62
839.162	27124.62
839.411	27142.62
839.661	26985.62
839.91	26958.62
840.159	26866.62
840.408	26765.62
840.657	26835.62
840.906	26911.62
841.155	26897.62
841.404	26709.62
841.653	26800.62
841.902	26901.62
842.15	26841.62
842.399	26933.62
842.648	26884.62
842.897	26732.62
843.145	26609.62
843.394	26507.62
843.642	26064.62
843.891	26142.62
844.139	26023.62
844.388	25831.62
844.636	25693.62
844.884	25695.62
845.133	25678.62
845.381	25642.62
845.629	25716.62
845.877	25625.62
846.125	25603.62
846.373	25563.62
846.621	25540.62
846.869	25438.62
847.117	25247.62
847.365	25200.62
847.613	24908.62
847.861	24905.62
848.108	24882.62
848.356	24891.62
848.604	24735.62
848.851	24772.62
849.099	24795.62
849.346	24846.62
849.594	24798.62
849.841	25071.62
850.089	24923.62
850.336	24906.62
850.583	24976.62
850.831	24873.62
851.078	24683.62
851.325	24655.62
851.572	24766.62
851.819	24634.62
852.066	24073.62
852.313	23817.62
852.56	23594.62
852.807	23483.62
853.054	23290.62
853.301	23354.62
853.548	23292.62
853.794	23591.62
854.041	23594.62
854.288	23571.62
854.534	23810.62
854.781	23824.62
855.028	23767.62
855.274	23719.62
855.52	23585.62
855.767	23412.62
856.013	23562.62
856.26	23785.62
856.506	23257.62
856.752	23167.62
856.998	23238.62
857.244	23236.62
857.49	23301.62
857.736	23371.62
857.982	23419.62
858.228	23362.62
858.474	23200.62
858.72	23043.62
858.966	22785.62
859.212	22493.62
859.458	22263.62
859.703	22102.62
859.949	21902.62
860.195	21709.62
860.44	21706.62
860.686	21500.62
860.931	21506.62
861.177	21337.62
861.422	21325.62
861.667	21149.62
861.913	21224.62
862.158	21172.62
862.403	21278.62
862.648	21378.62
862.893	21362.62
863.138	21234.62
863.384	21092.62
863.629	21243.62
863.873	21144.62
864.118	21035.62
864.363	20990.62
864.608	20954.62
864.853	20834.62
865.098	20756.62
865.342	20649.62
865.587	20575.62
865.832	20517.62
866.076	20587.62
866.321	20442.62
866.565	20450.62
866.81	20268.62
867.054	20238.62
867.298	20263.62
867.543	20096.62
867.787	20109.62
868.031	20008.62
868.275	20037.62
868.519	20010.62
868.764	19989.62
869.008	19985.62
869.252	19949.62
869.496	19898.62
869.739	19781.62
869.983	19860.62
870.227	19792.62
870.471	19788.62
870.715	19888.62
870.958	19950.62
871.202	20049.62
871.446	20048.62
871.689	20022.62
871.933	19998.62
872.176	19892.62
872.42	19902.62
872.663	19860.62
872.906	19849.62
873.15	19764.62
873.393	19619.62
873.636	19689.62
873.879	19534.62
874.122	19271.62
874.366	19022.62
874.609	18875.62
874.852	18689.62
875.095	18539.62
875.337	18542.62
875.58	18407.62
875.823	18421.62
876.066	18341.62
876.309	18274.62
876.551	18204.62
876.794	17974.62
877.037	18022.62
877.279	17974.62
877.522	17885.62
877.764	17966.62
878.007	17807.62
878.249	17871.62
878.491	17731.62
878.734	17762.62
878.976	17702.62
879.218	17488.62
879.46	17408.62
879.702	17389.62
879.945	17120.62
880.187	16952.62
880.429	17026.62
880.671	16848.62
880.912	16884.62
881.154	16790.62
881.396	16707.62
881.638	16729.62
881.88	16706.62
882.121	16667.62
882.363	16699.62
882.605	16624.62
882.846	16628.62
883.088	16553.62
883.329	16639.62
883.571	16667.62
883.812	16844.62
884.053	17119.62
884.295	17460.62
884.536	17679.62
884.777	17570.62
885.018	17448.62
885.259	17328.62
885.5	17206.62
885.742	17333.62
885.982	17132.62
886.223	16990.62
886.464	16822.62
886.705	16670.62
886.946	16472.62
887.187	16170.62
887.428	16139.62
887.668	15674.62
887.909	15506.62
888.15	15303.62
888.39	15146.62
888.631	15079.62
888.871	14926.62
889.111	14857.62
889.352	14747.62
889.592	14555.62
889.833	14521.62
890.073	14467.62
890.313	14443.62
890.553	14245.62
890.793	14097.62
891.033	13997.62
891.273	14001.62
891.513	13966.62
891.753	13986.62
891.993	13871.62
892.233	13916.62
892.473	14055.62
892.713	14044.62
892.952	14064.62
893.192	14030.62
893.432	13971.62
893.671	13999.62
893.911	13912.62
894.15	13838.62
894.39	13689.62
894.629	13658.62
894.869	13583.62
895.108	13548.62
895.347	13428.62
895.587	13445.62
895.826	13414.62
896.065	13279.62
896.304	13420.62
896.543	13365.62
896.782	13234.62
897.021	13300.62
897.26	13222.62
897.499	13269.62
897.738	13163.62
897.977	13070.62
898.216	13054.62
898.454	12955.62
898.693	12768.62
898.932	12840.62
899.17	12738.62
899.409	12636.62
899.647	12679.62
899.886	12607.62
900.124	12680.62
900.363	12760.62
900.601	12736.62
900.839	12743.62
901.078	12738.62
901.316	12846.62
901.554	12909.62
901.792	12983.62
902.03	12986.62
902.268	12989.62
902.506	12989.62
902.744	12966.62
902.982	12805.62
903.22	12513.62
903.458	12309.62
903.695	12140.62
903.933	11934.62
904.171	11744.62
904.409	11635.62
904.646	11414.62
904.884	11227.62
905.121	11136.62
905.359	10976.62
905.596	10911.62
905.833	10783.62
906.071	10678.62
906.308	10740.62
906.545	10609.62
906.783	10640.62
907.02	10574.62
907.257	10480.62
907.494	10530.62
907.731	10514.62
907.968	10510.62
908.205	10344.62
908.442	10336.62
908.679	10273.62
908.915	10082.62
909.152	10093.62
909.389	9943.62
909.626	9963.62
909.862	9746.62
910.099	9787.62
910.335	9782.62
910.572	9651.62
910.808	9711.62
911.045	9605.62
911.281	9600.62
911.518	9641.62
911.754	9470.62
911.99	9483.62
912.226	9377.62
912.463	9275.62
912.699	9202.62
912.935	9157.62
913.171	9133.62
913.407	9013.62
913.643	8958.62
913.879	8900.62
914.114	8829.62
914.35	8660.62
914.586	8587.62
914.822	8594.62
915.057	8546.62
915.293	8369.62
915.529	8367.62
915.764	8434.62
916	8398.62
916.235	8358.62
916.471	8337.62
916.706	8227.62
916.941	8236.62
917.177	8269.62
917.412	8307.62
917.647	8286.62
917.882	8111.62
918.117	8209.62
918.352	8171.62
918.588	8227.62
918.823	8035.62
919.057	7998.62
919.292	7833.62
919.527	7911.62
919.762	7806.62
919.997	7761.62
920.232	7655.62
920.466	7606.62
920.701	7452.62
920.935	7473.62
921.17	7419.62
921.405	7338.62
921.639	7349.62
921.873	7338.62
922.108	7328.62
922.342	7293.62
922.576	7226.62
922.811	7178.62
923.045	7159.62
923.279	7213.62
923.513	7037.62
923.747	7068.62
923.981	7075.62
924.215	6929.62
924.449	6903.62
924.683	6801.62
924.917	6825.62
925.151	6833.62
925.385	6853.62
925.618	6757.62
925.852	6767.62
926.086	6702.62
926.319	6710.62
926.553	6667.62
926.786	6724.62
927.02	6657.62
927.253	6762.62
927.486	6706.62
927.72	6616.62
927.953	6672.62
928.186	6610.62
928.42	6564.62
928.653	6501.62
928.886	6519.62
929.119	6476.62
929.352	6469.62
929.585	6424.62
929.818	6346.62
930.051	6361.62
930.284	6333.62
930.516	6246.62
930.749	6168.62
930.982	6152.62
931.215	6102.62
931.447	6041.62
931.68	6128.62
931.912	6062.62
932.145	6027.62
932.377	6067.62
932.61	6178.62
932.842	5961.62
933.074	6063.62
933.307	5988.62
933.539	6046.62
933.771	6029.62
934.003	6018.62
934.236	6050.62
934.468	6056.62
934.7	5948.62
934.932	5973.62
935.164	5933.62
935.395	5878.62
935.627	5922.62
935.859	5831.62
936.091	5768.62
936.323	5819.62
936.554	5829.62
936.786	5741.62
937.017	5704.62
937.249	5774.62
937.481	5666.62
937.712	5757.62
937.943	5662.62
938.175	5688.62
938.406	5653.62
938.637	5737.62
938.869	5564.62
939.1	5626.62
939.331	5593.62
939.562	5647.62
939.793	5602.62
940.024	5585.62
940.255	5564.62
940.486	5536.62
940.717	5462.62
940.948	5445.62
941.179	5392.62
941.409	5440.62
941.64	5353.62
941.871	5407.62
942.102	5348.62
942.332	5377.62
942.563	5400.62
942.793	5388.62
943.024	5318.62
943.254	5340.62
943.484	5372.62
943.715	5374.62
943.945	5323.62
944.175	5245.62
944.405	5293.62
944.636	5283.62
944.866	5324.62
945.096	5328.62
945.326	5197.62
945.556	5266.62
945.786	5273.62
946.016	5221.62
946.245	5142.62
946.475	5111.62
946.705	5075.62
946.935	5051.62
947.164	5026.62
947.394	4998.62
947.624	5021.62
947.853	4975.62
948.083	4971.62
948.312	4944.62
948.542	4833.62
948.771	4829.62
949	4890.62
949.23	4810.62
949.459	4823.62
949.688	4901.62
949.917	4799.62
950.146	4808.62
950.375	4885.62
950.604	4752.62
950.833	4839.62
951.062	4818.62
951.291	4757.62
951.52	4763.62
951.749	4745.62
951.978	4680.62
952.206	4682.62
952.435	4638.62
952.664	4637.62
952.892	4656.62
953.121	4646.62
953.349	4637.62
953.578	4626.62
953.806	4583.62
954.035	4529.62
954.263	4585.62
954.491	4483.62
954.719	4540.62
954.948	4452.62
955.176	4445.62
955.404	4390.62
955.632	4445.62
955.86	4354.62
956.088	4392.62
956.316	4388.62
956.544	4362.62
956.772	4297.62
956.999	4260.62
957.227	4337.62
957.455	4193.62
957.683	4262.62
957.91	4150.62
958.138	4174.62
958.365	4169.62
958.593	4113.62
958.82	4018.62
959.048	4094.62
959.275	4084.62
959.502	4047.62
959.73	4050.62
959.957	4092.62
960.184	4057.62
960.411	4004.62
960.638	4066.62
960.865	3994.62
961.092	4050.62
961.319	3927.62
961.546	4012.62
961.773	4016.62
962	3980.62
962.227	3992.62
962.454	3954.62
962.68	3877.62
962.907	3949.62
963.134	3914.62
963.36	3915.62
963.587	3916.62
963.813	3793.62
964.04	3832.62
964.266	3738.62
964.493	3825.62
964.719	3773.62
964.945	3787.62
965.171	3668.62
965.398	3688.62
965.624	3673.62
965.85	3614.62
966.076	3639.62
966.302	3665.62
966.528	3649.62
966.754	3626.62
966.98	3642.62
967.206	3606.62
967.431	3522.62
967.657	3617.62
967.883	3556.62
968.109	3566.62
968.334	3522.62
968.56	3476.62
968.785	3498.62
969.011	3447.62
969.236	3494.62
969.462	3427.62
969.687	3499.62
969.912	3492.62
970.138	3492.62
970.363	3384.62
970.588	3422.62
970.813	3410.62
971.038	3375.62
971.263	3373.62
971.488	3342.62
971.713	3359.62
971.938	3347.62
972.163	3266.62
972.388	3325.62
972.613	3229.62
972.838	3265.62
973.062	3238.62
973.287	3227.62
973.512	3151.62
973.736	3213.62
973.961	3124.62
974.185	3171.62
974.41	3156.62
974.634	3060.62
974.858	3056.62
975.083	3086.62
975.307	3098.62
975.531	3033.62
975.755	2972.62
975.98	3041.62
976.204	2928.62
976.428	2890.62
976.652	2915.62
976.876	2922.62
977.1	2945.62
977.324	2909.62
977.547	2907.62
977.771	2934.62
977.995	2905.62
978.219	2860.62
978.442	2921.62
978.666	2856.62
978.89	2839.62
979.113	2883.62
979.337	2814.62
979.56	2773.62
979.783	2887.62
980.007	2770.62
980.23	2775.62
980.453	2786.62
980.677	2801.62
980.9	2784.62
981.123	2659.62
981.346	2767.62
981.569	2758.62
981.792	2752.62
982.015	2699.62
982.238	2656.62
982.461	2702.62
982.684	2628.62
982.907	2597.62
983.129	2584.62
983.352	2656.62
983.575	2658.62
983.797	2588.62
984.02	2549.62
984.242	2561.62
984.465	2566.62
984.687	2586.62
984.91	2573.62
985.132	2538.62
985.354	2550.62
985.577	2532.62
985.799	2492.62
986.021	2454.62
986.243	2449.62
986.465	2420.62
986.687	2533.62
986.909	2542.62
987.131	2465.62
987.353	2377.62
987.575	2455.62
987.797	2407.62
988.019	2320.62
988.241	2420.62
988.462	2355.62
988.684	2416.62
988.906	2407.62
989.127	2422.62
989.349	2311.62
989.57	2368.62
989.792	2375.62
990.013	2410.62
990.234	2395.62
990.456	2405.62
990.677	2408.62
990.898	2350.62
991.119	2340.62
991.341	2344.62
991.562	2274.62
991.783	2313.62
992.004	2247.62
992.225	2266.62
992.446	2260.62
992.667	2140.62
992.887	2253.62
993.108	2126.62
993.329	2275.62
993.55	2228.62
993.77	2149.62
993.991	2127.62
994.212	2130.62
994.432	2168.62
994.653	2156.62
994.873	2162.62
995.093	2061.62
995.314	2097.62
995.534	2132.62
995.754	2161.62
995.975	2161.62
996.195	2079.62
996.415	2093.62
996.635	2068.62
996.855	2081.62
997.075	2082.62
997.295	2047.62
997.515	2058.62
997.735	2129.62
997.955	2074.62
998.174	2052.62
998.394	1991.62
998.614	2057.62
998.834	2033.62
999.053	2095.62
999.273	1999.62
999.492	2080.62
999.712	2051.62
999.931	1991.62
1000.151	2022.62
1000.37	1986.62
1000.589	2020.62
1000.809	1959.62
1001.028	2072.62
1001.247	1981.62
1001.466	1876.62
1001.685	2029.62
1001.904	1970.62
1002.123	1954.62
1002.342	1890.62
1002.561	1914.62
1002.78	1915.62
1002.999	1964.62
1003.218	1884.62
1003.436	1879.62
1003.655	1950.62
1003.874	1847.62
1004.092	1849.62
1004.311	1914.62
1004.53	1849.62
1004.748	1939.62
1004.966	1862.62
1005.185	1892.62
1005.403	1906.62
1005.622	1883.62
1005.84	1931.62
1006.058	1835.62
1006.276	1856.62
1006.494	2332.62
1006.712	1839.62
1006.931	1927.62
1007.149	1816.62
1007.367	1820.62
1007.584	1880.62
1007.802	1876.62
1008.02	1872.62
1008.238	1984.62
1008.456	1997.62
1008.673	1857.62
1008.891	1946.62
1009.109	1930.62
1009.326	1987.62
1009.544	2110.62
1009.761	2005.62
1009.979	2114.62
1010.196	2161.62
1010.413	2273.62
1010.631	2347.62
1010.848	2410.62
1011.065	2443.62
1011.282	2382.62
1011.5	2343.62
1011.717	2428.62
1011.934	2328.62
1012.151	2450.62
1012.368	2362.62
1012.585	2359.62
1012.801	2363.62
1013.018	2369.62
1013.235	2300.62
1013.452	2358.62
1013.669	2344.62
1013.885	2342.62
1014.102	2395.62
1014.318	2362.62
1014.535	2334.62
1014.751	2335.62
1014.968	2343.62
1015.184	2371.62
1015.401	2256.62
1015.617	2264.62
1015.833	2217.62
1016.049	2204.62
1016.266	2181.62
1016.482	2176.62
1016.698	2094.62
1016.914	2139.62
1017.13	2144.62
1017.346	2075.62
1017.562	2150.62
1017.778	2063.62
1017.993	2039.62
1018.209	2070.62
1018.425	2068.62
1018.641	2066.62
1018.856	1990.62
1019.072	2016.62
1019.288	2117.62
1019.503	2054.62
1019.719	1952.62
1019.934	1976.62
1020.149	2003.62
1020.365	1962.62
1020.58	1901.62
1020.795	1939.62
1021.011	1856.62
1021.226	1819.62
1021.441	1815.62
1021.656	1749.62
1021.871	1641.62
1022.086	1635.62
1022.301	1624.62
1022.516	1590.62
1022.731	1666.62
1022.946	1545.62
1023.16	1520.62
1023.375	1473.62
1023.59	1449.62
1023.804	1430.62
1024.019	1504.62
1024.234	1361.62
1024.448	1390.62
1024.663	1317.62
1024.877	1310.62
1025.092	1324.62
1025.306	1318.62
1025.52	1194.62
1025.734	1281.62
1025.949	1182.62
1026.163	1152.62
1026.377	1093.62
1026.591	1128.62
1026.805	1048.62
1027.019	1045.62
1027.233	1003.62
1027.447	965.62
1027.661	1053.62
1027.875	993.62
1028.088	1000.62
1028.302	902.62
1028.516	909.62
1028.73	865.62
1028.943	872.62
1029.157	813.62
1029.37	766.62
1029.584	-1.38
1029.797	-0.38
1030.011	-4.38
1030.224	-3.38
