Data from QEP037381__336__16-25-49-915.txt Node

Date: Fri Dec 16 16:25:49 EST 2022
User: dcclab
Spectrometer: QEP03738
Trigger mode: 4
Integration Time (sec): 1.000000E1
Scans to average: 1
Electric dark correction enabled: true
Nonlinearity correction enabled: false
Boxcar width: 0
XAxis mode: Wavelengths
Number of Pixels in Spectrum: 1044
>>>>>Begin Spectral Data<<<<<
784.041	11.5
784.3	4.5
784.558	-3.5
784.817	-4.5
785.075	111722.5
785.334	19224.5
785.592	9064.5
785.851	6199.5
786.109	4727.5
786.368	3650.5
786.626	2964.5
786.884	2437.5
787.143	2047.5
787.401	1705.5
787.659	1570.5
787.917	1314.5
788.175	1206.5
788.433	1046.5
788.691	940.5
788.949	872.5
789.207	829.5
789.465	716.5
789.723	690.5
789.98	642.5
790.238	649.5
790.496	621.5
790.753	594.5
791.011	648.5
791.268	587.5
791.526	551.5
791.783	570.5
792.041	551.5
792.298	460.5
792.556	536.5
792.813	521.5
793.07	487.5
793.327	484.5
793.584	559.5
793.841	486.5
794.099	499.5
794.356	545.5
794.613	452.5
794.869	505.5
795.126	456.5
795.383	445.5
795.64	466.5
795.897	415.5
796.153	459.5
796.41	464.5
796.667	433.5
796.923	451.5
797.18	442.5
797.436	479.5
797.693	452.5
797.949	489.5
798.206	518.5
798.462	434.5
798.718	491.5
798.974	468.5
799.231	514.5
799.487	521.5
799.743	521.5
799.999	545.5
800.255	558.5
800.511	533.5
800.767	575.5
801.023	579.5
801.279	609.5
801.534	654.5
801.79	712.5
802.046	766.5
802.302	913.5
802.557	1038.5
802.813	1305.5
803.068	1662.5
803.324	2297.5
803.579	3135.5
803.835	4342.5
804.09	6008.5
804.345	7825.5
804.601	9817.5
804.856	11946.5
805.111	13771.5
805.366	15243.5
805.621	16277.5
805.876	17111.5
806.131	17626.5
806.386	17971.5
806.641	18206.5
806.896	18498.5
807.151	18983.5
807.406	19185.5
807.661	19570.5
807.915	19943.5
808.17	20220.5
808.425	20477.5
808.679	20614.5
808.934	20911.5
809.188	21073.5
809.443	21379.5
809.697	21552.5
809.951	21729.5
810.206	21877.5
810.46	22107.5
810.714	22231.5
810.968	22485.5
811.223	22781.5
811.477	22896.5
811.731	23102.5
811.985	23178.5
812.239	23208.5
812.493	23340.5
812.747	23529.5
813	23527.5
813.254	23734.5
813.508	23788.5
813.762	23876.5
814.015	23972.5
814.269	24167.5
814.522	24441.5
814.776	24648.5
815.03	24956.5
815.283	25210.5
815.536	25705.5
815.79	26203.5
816.043	26471.5
816.296	26875.5
816.55	27051.5
816.803	27387.5
817.056	27737.5
817.309	28199.5
817.562	28366.5
817.815	28646.5
818.068	28827.5
818.321	29048.5
818.574	29418.5
818.827	29818.5
819.079	30160.5
819.332	30837.5
819.585	31086.5
819.838	31449.5
820.09	31586.5
820.343	31776.5
820.595	32085.5
820.848	32232.5
821.1	32307.5
821.353	32326.5
821.605	32348.5
821.857	32318.5
822.11	32055.5
822.362	32217.5
822.614	32133.5
822.866	32089.5
823.118	31936.5
823.37	32242.5
823.622	32388.5
823.874	32394.5
824.126	32453.5
824.378	32459.5
824.63	32601.5
824.882	32877.5
825.134	32806.5
825.385	32564.5
825.637	32498.5
825.888	32391.5
826.14	32467.5
826.392	32309.5
826.643	32052.5
826.895	32000.5
827.146	31906.5
827.397	31768.5
827.649	31898.5
827.9	31779.5
828.151	31850.5
828.402	31975.5
828.653	31966.5
828.905	32095.5
829.156	32173.5
829.407	32138.5
829.658	32123.5
829.909	32408.5
830.159	32400.5
830.41	32131.5
830.661	31791.5
830.912	31582.5
831.162	31606.5
831.413	31648.5
831.664	31383.5
831.914	31591.5
832.165	31391.5
832.415	31491.5
832.666	31449.5
832.916	31581.5
833.167	31623.5
833.417	31591.5
833.667	31415.5
833.917	31279.5
834.168	31181.5
834.418	31137.5
834.668	31074.5
834.918	30861.5
835.168	30690.5
835.418	30570.5
835.668	30506.5
835.918	30428.5
836.167	30394.5
836.417	30230.5
836.667	30246.5
836.917	30366.5
837.166	30161.5
837.416	30291.5
837.666	30171.5
837.915	30345.5
838.165	30123.5
838.414	30006.5
838.663	29922.5
838.913	29980.5
839.162	29865.5
839.411	29915.5
839.661	29669.5
839.91	29586.5
840.159	29630.5
840.408	29669.5
840.657	29674.5
840.906	29673.5
841.155	29702.5
841.404	29707.5
841.653	29657.5
841.902	29577.5
842.15	29736.5
842.399	29772.5
842.648	29759.5
842.897	29541.5
843.145	29357.5
843.394	29262.5
843.642	29142.5
843.891	29015.5
844.139	28819.5
844.388	28539.5
844.636	28603.5
844.884	28575.5
845.133	28466.5
845.381	28413.5
845.629	28489.5
845.877	28383.5
846.125	28431.5
846.373	28224.5
846.621	28126.5
846.869	28125.5
847.117	27976.5
847.365	27781.5
847.613	27794.5
847.861	27615.5
848.108	27644.5
848.356	27666.5
848.604	27533.5
848.851	27526.5
849.099	27540.5
849.346	27633.5
849.594	27753.5
849.841	27765.5
850.089	27925.5
850.336	27922.5
850.583	27838.5
850.831	27709.5
851.078	27504.5
851.325	27522.5
851.572	27590.5
851.819	27270.5
852.066	26864.5
852.313	26450.5
852.56	26304.5
852.807	26201.5
853.054	26216.5
853.301	26069.5
853.548	26174.5
853.794	26317.5
854.041	26400.5
854.288	26510.5
854.534	26708.5
854.781	26518.5
855.028	26446.5
855.274	26522.5
855.52	26326.5
855.767	26336.5
856.013	26360.5
856.26	26652.5
856.506	26047.5
856.752	25971.5
856.998	26044.5
857.244	26040.5
857.49	26280.5
857.736	26301.5
857.982	26270.5
858.228	26177.5
858.474	25925.5
858.72	25844.5
858.966	25671.5
859.212	25338.5
859.458	24938.5
859.703	24852.5
859.949	24565.5
860.195	24539.5
860.44	24333.5
860.686	24208.5
860.931	24283.5
861.177	24055.5
861.422	23923.5
861.667	23899.5
861.913	23932.5
862.158	23956.5
862.403	23939.5
862.648	23976.5
862.893	23899.5
863.138	24000.5
863.384	23820.5
863.629	23851.5
863.873	24002.5
864.118	23786.5
864.363	23642.5
864.608	23594.5
864.853	23459.5
865.098	23329.5
865.342	23393.5
865.587	23177.5
865.832	23238.5
866.076	23131.5
866.321	23112.5
866.565	23002.5
866.81	22781.5
867.054	22716.5
867.298	22693.5
867.543	22585.5
867.787	22622.5
868.031	22576.5
868.275	22671.5
868.519	22485.5
868.764	22445.5
869.008	22448.5
869.252	22363.5
869.496	22388.5
869.739	22306.5
869.983	22394.5
870.227	22387.5
870.471	22268.5
870.715	22449.5
870.958	22420.5
871.202	22398.5
871.446	22559.5
871.689	22539.5
871.933	22428.5
872.176	22569.5
872.42	22386.5
872.663	22469.5
872.906	22396.5
873.15	22316.5
873.393	22293.5
873.636	22343.5
873.879	22057.5
874.122	21853.5
874.366	21544.5
874.609	21421.5
874.852	21109.5
875.095	21049.5
875.337	20913.5
875.58	20680.5
875.823	20861.5
876.066	20682.5
876.309	20737.5
876.551	20380.5
876.794	20450.5
877.037	20399.5
877.279	20230.5
877.522	20260.5
877.764	20332.5
878.007	20209.5
878.249	20217.5
878.491	20227.5
878.734	20151.5
878.976	20052.5
879.218	19987.5
879.46	19785.5
879.702	19756.5
879.945	19515.5
880.187	19329.5
880.429	19196.5
880.671	19140.5
880.912	19149.5
881.154	19094.5
881.396	18929.5
881.638	18928.5
881.88	18995.5
882.121	18969.5
882.363	18893.5
882.605	18992.5
882.846	18818.5
883.088	18796.5
883.329	18781.5
883.571	18820.5
883.812	19004.5
884.053	19325.5
884.295	19720.5
884.536	19961.5
884.777	19794.5
885.018	19633.5
885.259	19639.5
885.5	19382.5
885.742	19581.5
885.982	19350.5
886.223	19252.5
886.464	18997.5
886.705	18861.5
886.946	18679.5
887.187	18329.5
887.428	18203.5
887.668	17862.5
887.909	17666.5
888.15	17474.5
888.39	17363.5
888.631	17196.5
888.871	17068.5
889.111	16926.5
889.352	16863.5
889.592	16733.5
889.833	16570.5
890.073	16469.5
890.313	16339.5
890.553	16183.5
890.793	16239.5
891.033	16100.5
891.273	15955.5
891.513	15847.5
891.753	15987.5
891.993	15866.5
892.233	15941.5
892.473	15965.5
892.713	15936.5
892.952	15944.5
893.192	15934.5
893.432	15900.5
893.671	15859.5
893.911	15831.5
894.15	15800.5
894.39	15645.5
894.629	15620.5
894.869	15425.5
895.108	15454.5
895.347	15230.5
895.587	15263.5
895.826	15284.5
896.065	15232.5
896.304	15200.5
896.543	15159.5
896.782	15023.5
897.021	15074.5
897.26	15088.5
897.499	15030.5
897.738	14980.5
897.977	14942.5
898.216	14752.5
898.454	14591.5
898.693	14521.5
898.932	14543.5
899.17	14436.5
899.409	14392.5
899.647	14390.5
899.886	14321.5
900.124	14389.5
900.363	14345.5
900.601	14408.5
900.839	14462.5
901.078	14516.5
901.316	14575.5
901.554	14577.5
901.792	14653.5
902.03	14654.5
902.268	14739.5
902.506	14572.5
902.744	14495.5
902.982	14366.5
903.22	14121.5
903.458	13984.5
903.695	13906.5
903.933	13638.5
904.171	13392.5
904.409	13233.5
904.646	12971.5
904.884	12787.5
905.121	12714.5
905.359	12512.5
905.596	12523.5
905.833	12271.5
906.071	12238.5
906.308	12210.5
906.545	12188.5
906.783	12127.5
907.02	12122.5
907.257	12016.5
907.494	12014.5
907.731	11992.5
907.968	11968.5
908.205	11879.5
908.442	11816.5
908.679	11684.5
908.915	11575.5
909.152	11483.5
909.389	11303.5
909.626	11310.5
909.862	11207.5
910.099	11186.5
910.335	11253.5
910.572	11051.5
910.808	11104.5
911.045	11042.5
911.281	10944.5
911.518	10993.5
911.754	10850.5
911.99	10861.5
912.226	10688.5
912.463	10585.5
912.699	10535.5
912.935	10415.5
913.171	10369.5
913.407	10252.5
913.643	10241.5
913.879	10177.5
914.114	10114.5
914.35	9971.5
914.586	9924.5
914.822	9758.5
915.057	9731.5
915.293	9639.5
915.529	9569.5
915.764	9674.5
916	9565.5
916.235	9510.5
916.471	9544.5
916.706	9469.5
916.941	9465.5
917.177	9442.5
917.412	9426.5
917.647	9442.5
917.882	9380.5
918.117	9409.5
918.352	9339.5
918.588	9394.5
918.823	9232.5
919.057	9158.5
919.292	8976.5
919.527	9073.5
919.762	8883.5
919.997	8866.5
920.232	8724.5
920.466	8738.5
920.701	8496.5
920.935	8506.5
921.17	8493.5
921.405	8396.5
921.639	8403.5
921.873	8315.5
922.108	8329.5
922.342	8353.5
922.576	8296.5
922.811	8117.5
923.045	8260.5
923.279	8160.5
923.513	8041.5
923.747	8037.5
923.981	8013.5
924.215	7867.5
924.449	7953.5
924.683	7868.5
924.917	7835.5
925.151	7749.5
925.385	7847.5
925.618	7721.5
925.852	7682.5
926.086	7643.5
926.319	7650.5
926.553	7609.5
926.786	7645.5
927.02	7574.5
927.253	7643.5
927.486	7636.5
927.72	7556.5
927.953	7601.5
928.186	7568.5
928.42	7601.5
928.653	7448.5
928.886	7379.5
929.119	7437.5
929.352	7402.5
929.585	7375.5
929.818	7256.5
930.051	7235.5
930.284	7222.5
930.516	7079.5
930.749	7037.5
930.982	7048.5
931.215	6998.5
931.447	6933.5
931.68	6913.5
931.912	6913.5
932.145	6856.5
932.377	6924.5
932.61	6968.5
932.842	6775.5
933.074	6857.5
933.307	6796.5
933.539	6895.5
933.771	6882.5
934.003	6788.5
934.236	6862.5
934.468	6865.5
934.7	6800.5
934.932	6818.5
935.164	6811.5
935.395	6727.5
935.627	6781.5
935.859	6712.5
936.091	6598.5
936.323	6612.5
936.554	6656.5
936.786	6582.5
937.017	6479.5
937.249	6569.5
937.481	6419.5
937.712	6487.5
937.943	6416.5
938.175	6444.5
938.406	6417.5
938.637	6507.5
938.869	6425.5
939.1	6373.5
939.331	6383.5
939.562	6389.5
939.793	6292.5
940.024	6344.5
940.255	6311.5
940.486	6283.5
940.717	6251.5
940.948	6186.5
941.179	6134.5
941.409	6185.5
941.64	6094.5
941.871	6127.5
942.102	6057.5
942.332	6110.5
942.563	6161.5
942.793	6111.5
943.024	6088.5
943.254	6089.5
943.484	6107.5
943.715	6104.5
943.945	6113.5
944.175	6011.5
944.405	5996.5
944.636	5970.5
944.866	6050.5
945.096	6035.5
945.326	5945.5
945.556	5942.5
945.786	5979.5
946.016	5874.5
946.245	5798.5
946.475	5777.5
946.705	5788.5
946.935	5727.5
947.164	5680.5
947.394	5697.5
947.624	5633.5
947.853	5656.5
948.083	5668.5
948.312	5573.5
948.542	5545.5
948.771	5477.5
949	5480.5
949.23	5468.5
949.459	5511.5
949.688	5515.5
949.917	5466.5
950.146	5463.5
950.375	5525.5
950.604	5399.5
950.833	5530.5
951.062	5485.5
951.291	5416.5
951.52	5408.5
951.749	5392.5
951.978	5297.5
952.206	5278.5
952.435	5331.5
952.664	5317.5
952.892	5281.5
953.121	5289.5
953.349	5219.5
953.578	5219.5
953.806	5182.5
954.035	5115.5
954.263	5158.5
954.491	5058.5
954.719	5138.5
954.948	5089.5
955.176	4967.5
955.404	4952.5
955.632	5015.5
955.86	4969.5
956.088	4952.5
956.316	4935.5
956.544	4941.5
956.772	4895.5
956.999	4826.5
957.227	4866.5
957.455	4786.5
957.683	4765.5
957.91	4669.5
958.138	4692.5
958.365	4684.5
958.593	4643.5
958.82	4556.5
959.048	4611.5
959.275	4653.5
959.502	4588.5
959.73	4594.5
959.957	4621.5
960.184	4572.5
960.411	4548.5
960.638	4561.5
960.865	4553.5
961.092	4547.5
961.319	4445.5
961.546	4541.5
961.773	4527.5
962	4473.5
962.227	4545.5
962.454	4446.5
962.68	4485.5
962.907	4465.5
963.134	4376.5
963.36	4381.5
963.587	4388.5
963.813	4275.5
964.04	4308.5
964.266	4276.5
964.493	4331.5
964.719	4250.5
964.945	4257.5
965.171	4134.5
965.398	4168.5
965.624	4161.5
965.85	4099.5
966.076	4080.5
966.302	4122.5
966.528	4057.5
966.754	4078.5
966.98	4073.5
967.206	4042.5
967.431	4000.5
967.657	4010.5
967.883	4018.5
968.109	4022.5
968.334	3926.5
968.56	3932.5
968.785	3900.5
969.011	3906.5
969.236	3959.5
969.462	3880.5
969.687	3906.5
969.912	3915.5
970.138	3924.5
970.363	3840.5
970.588	3845.5
970.813	3839.5
971.038	3794.5
971.263	3813.5
971.488	3780.5
971.713	3793.5
971.938	3766.5
972.163	3649.5
972.388	3660.5
972.613	3689.5
972.838	3675.5
973.062	3683.5
973.287	3617.5
973.512	3554.5
973.736	3590.5
973.961	3550.5
974.185	3551.5
974.41	3552.5
974.634	3456.5
974.858	3464.5
975.083	3501.5
975.307	3448.5
975.531	3369.5
975.755	3351.5
975.98	3378.5
976.204	3290.5
976.428	3287.5
976.652	3291.5
976.876	3259.5
977.1	3252.5
977.324	3284.5
977.547	3253.5
977.771	3270.5
977.995	3243.5
978.219	3166.5
978.442	3314.5
978.666	3235.5
978.89	3173.5
979.113	3166.5
979.337	3208.5
979.56	3123.5
979.783	3214.5
980.007	3098.5
980.23	3119.5
980.453	3094.5
980.677	3134.5
980.9	3083.5
981.123	3020.5
981.346	3083.5
981.569	3030.5
981.792	3082.5
982.015	3026.5
982.238	2960.5
982.461	2959.5
982.684	2965.5
982.907	2954.5
983.129	2899.5
983.352	2916.5
983.575	2890.5
983.797	2895.5
984.02	2842.5
984.242	2825.5
984.465	2832.5
984.687	2863.5
984.91	2836.5
985.132	2833.5
985.354	2854.5
985.577	2805.5
985.799	2781.5
986.021	2669.5
986.243	2752.5
986.465	2706.5
986.687	2782.5
986.909	2799.5
987.131	2730.5
987.353	2679.5
987.575	2736.5
987.797	2693.5
988.019	2597.5
988.241	2682.5
988.462	2622.5
988.684	2670.5
988.906	2675.5
989.127	2702.5
989.349	2589.5
989.57	2637.5
989.792	2662.5
990.013	2617.5
990.234	2645.5
990.456	2691.5
990.677	2622.5
990.898	2554.5
991.119	2570.5
991.341	2600.5
991.562	2513.5
991.783	2555.5
992.004	2465.5
992.225	2465.5
992.446	2499.5
992.667	2410.5
992.887	2430.5
993.108	2389.5
993.329	2507.5
993.55	2402.5
993.77	2396.5
993.991	2368.5
994.212	2365.5
994.432	2371.5
994.653	2365.5
994.873	2317.5
995.093	2252.5
995.314	2295.5
995.534	2350.5
995.754	2363.5
995.975	2341.5
996.195	2250.5
996.415	2336.5
996.635	2294.5
996.855	2305.5
997.075	2259.5
997.295	2250.5
997.515	2249.5
997.735	2289.5
997.955	2264.5
998.174	2263.5
998.394	2236.5
998.614	2275.5
998.834	2183.5
999.053	2272.5
999.273	2232.5
999.492	2286.5
999.712	2207.5
999.931	2182.5
1000.151	2234.5
1000.37	2173.5
1000.589	2232.5
1000.809	2112.5
1001.028	2252.5
1001.247	2181.5
1001.466	2078.5
1001.685	2192.5
1001.904	2129.5
1002.123	2103.5
1002.342	2096.5
1002.561	2057.5
1002.78	2061.5
1002.999	2121.5
1003.218	2063.5
1003.436	2053.5
1003.655	2064.5
1003.874	2000.5
1004.092	2039.5
1004.311	2057.5
1004.53	2038.5
1004.748	2111.5
1004.966	1997.5
1005.185	2061.5
1005.403	2050.5
1005.622	2013.5
1005.84	2123.5
1006.058	1999.5
1006.276	1964.5
1006.494	2492.5
1006.712	1980.5
1006.931	2082.5
1007.149	1964.5
1007.367	1992.5
1007.584	2015.5
1007.802	2068.5
1008.02	2013.5
1008.238	2125.5
1008.456	2087.5
1008.673	1992.5
1008.891	2101.5
1009.109	2054.5
1009.326	2123.5
1009.544	2209.5
1009.761	2155.5
1009.979	2268.5
1010.196	2307.5
1010.413	2414.5
1010.631	2481.5
1010.848	2585.5
1011.065	2577.5
1011.282	2506.5
1011.5	2485.5
1011.717	2576.5
1011.934	2477.5
1012.151	2538.5
1012.368	2486.5
1012.585	2405.5
1012.801	2471.5
1013.018	2477.5
1013.235	2420.5
1013.452	2475.5
1013.669	2529.5
1013.885	2469.5
1014.102	2511.5
1014.318	2484.5
1014.535	2472.5
1014.751	2432.5
1014.968	2459.5
1015.184	2482.5
1015.401	2347.5
1015.617	2360.5
1015.833	2323.5
1016.049	2292.5
1016.266	2297.5
1016.482	2293.5
1016.698	2196.5
1016.914	2263.5
1017.13	2213.5
1017.346	2152.5
1017.562	2222.5
1017.778	2147.5
1017.993	2120.5
1018.209	2190.5
1018.425	2170.5
1018.641	2092.5
1018.856	2075.5
1019.072	2107.5
1019.288	2153.5
1019.503	2125.5
1019.719	2040.5
1019.934	2001.5
1020.149	2126.5
1020.365	2014.5
1020.58	1958.5
1020.795	2002.5
1021.011	1932.5
1021.226	1884.5
1021.441	1878.5
1021.656	1785.5
1021.871	1721.5
1022.086	1704.5
1022.301	1682.5
1022.516	1674.5
1022.731	1700.5
1022.946	1610.5
1023.16	1574.5
1023.375	1542.5
1023.59	1529.5
1023.804	1514.5
1024.019	1562.5
1024.234	1427.5
1024.448	1430.5
1024.663	1380.5
1024.877	1385.5
1025.092	1400.5
1025.306	1372.5
1025.52	1254.5
1025.734	1358.5
1025.949	1247.5
1026.163	1191.5
1026.377	1149.5
1026.591	1197.5
1026.805	1116.5
1027.019	1106.5
1027.233	1049.5
1027.447	1009.5
1027.661	1094.5
1027.875	1037.5
1028.088	1051.5
1028.302	960.5
1028.516	925.5
1028.73	921.5
1028.943	903.5
1029.157	846.5
1029.37	777.5
1029.584	-3.5
1029.797	-2.5
1030.011	0.5
1030.224	-2.5
