Data from QEP037381__267__16-14-19-904.txt Node

Date: Fri Dec 16 16:14:19 EST 2022
User: dcclab
Spectrometer: QEP03738
Trigger mode: 4
Integration Time (sec): 1.000000E1
Scans to average: 1
Electric dark correction enabled: true
Nonlinearity correction enabled: false
Boxcar width: 0
XAxis mode: Wavelengths
Number of Pixels in Spectrum: 1044
>>>>>Begin Spectral Data<<<<<
784.041	12.38
784.3	0.38
784.558	-2.62
784.817	-1.62
785.075	110750.38
785.334	19029.38
785.592	8902.38
785.851	6108.38
786.109	4665.38
786.368	3612.38
786.626	2888.38
786.884	2431.38
787.143	1994.38
787.401	1634.38
787.659	1510.38
787.917	1265.38
788.175	1182.38
788.433	1023.38
788.691	916.38
788.949	848.38
789.207	808.38
789.465	710.38
789.723	661.38
789.98	629.38
790.238	658.38
790.496	632.38
790.753	604.38
791.011	629.38
791.268	554.38
791.526	549.38
791.783	551.38
792.041	548.38
792.298	461.38
792.556	523.38
792.813	491.38
793.07	470.38
793.327	457.38
793.584	549.38
793.841	461.38
794.099	479.38
794.356	545.38
794.613	434.38
794.869	488.38
795.126	444.38
795.383	417.38
795.64	447.38
795.897	413.38
796.153	457.38
796.41	439.38
796.667	433.38
796.923	448.38
797.18	431.38
797.436	452.38
797.693	410.38
797.949	481.38
798.206	506.38
798.462	425.38
798.718	478.38
798.974	451.38
799.231	501.38
799.487	483.38
799.743	495.38
799.999	518.38
800.255	513.38
800.511	505.38
800.767	551.38
801.023	528.38
801.279	567.38
801.534	616.38
801.79	663.38
802.046	706.38
802.302	850.38
802.557	969.38
802.813	1195.38
803.068	1454.38
803.324	2021.38
803.579	2772.38
803.835	3785.38
804.09	5177.38
804.345	6764.38
804.601	8434.38
804.856	10207.38
805.111	11812.38
805.366	12980.38
805.621	13860.38
805.876	14491.38
806.131	14893.38
806.386	15196.38
806.641	15423.38
806.896	15635.38
807.151	16016.38
807.406	16190.38
807.661	16559.38
807.915	16754.38
808.17	17001.38
808.425	17186.38
808.679	17264.38
808.934	17551.38
809.188	17670.38
809.443	17845.38
809.697	17997.38
809.951	18198.38
810.206	18391.38
810.46	18475.38
810.714	18638.38
810.968	18804.38
811.223	19004.38
811.477	19080.38
811.731	19362.38
811.985	19391.38
812.239	19435.38
812.493	19550.38
812.747	19615.38
813	19581.38
813.254	19674.38
813.508	19826.38
813.762	19838.38
814.015	19941.38
814.269	20141.38
814.522	20298.38
814.776	20494.38
815.03	20775.38
815.283	20934.38
815.536	21385.38
815.79	21578.38
816.043	21926.38
816.296	22087.38
816.55	22495.38
816.803	22672.38
817.056	23026.38
817.309	23096.38
817.562	23397.38
817.815	23556.38
818.068	23787.38
818.321	23996.38
818.574	24179.38
818.827	24546.38
819.079	24843.38
819.332	25291.38
819.585	25586.38
819.838	25952.38
820.09	25949.38
820.343	26071.38
820.595	26271.38
820.848	26368.38
821.1	26469.38
821.353	26445.38
821.605	26483.38
821.857	26480.38
822.11	26245.38
822.362	26127.38
822.614	26223.38
822.866	26381.38
823.118	26177.38
823.37	26275.38
823.622	26366.38
823.874	26611.38
824.126	26649.38
824.378	26525.38
824.63	26574.38
824.882	26668.38
825.134	26622.38
825.385	26523.38
825.637	26541.38
825.888	26334.38
826.14	26343.38
826.392	26253.38
826.643	26059.38
826.895	26019.38
827.146	25911.38
827.397	25852.38
827.649	25947.38
827.9	25613.38
828.151	25911.38
828.402	25913.38
828.653	25907.38
828.905	26022.38
829.156	26154.38
829.407	26006.38
829.658	26026.38
829.909	26224.38
830.159	26273.38
830.41	26140.38
830.661	25858.38
830.912	25799.38
831.162	25641.38
831.413	25639.38
831.664	25622.38
831.914	25475.38
832.165	25427.38
832.415	25489.38
832.666	25539.38
832.916	25605.38
833.167	25502.38
833.417	25441.38
833.667	25395.38
833.917	25419.38
834.168	25297.38
834.418	25344.38
834.668	25189.38
834.918	24914.38
835.168	24869.38
835.418	24793.38
835.668	24653.38
835.918	24698.38
836.167	24430.38
836.417	24457.38
836.667	24386.38
836.917	24559.38
837.166	24384.38
837.416	24510.38
837.666	24446.38
837.915	24373.38
838.165	24286.38
838.414	24229.38
838.663	24195.38
838.913	24263.38
839.162	24201.38
839.411	24215.38
839.661	24065.38
839.91	24045.38
840.159	23894.38
840.408	23970.38
840.657	23933.38
840.906	23920.38
841.155	23975.38
841.404	23912.38
841.653	24084.38
841.902	24059.38
842.15	24049.38
842.399	23996.38
842.648	24045.38
842.897	23902.38
843.145	23742.38
843.394	23525.38
843.642	23454.38
843.891	23287.38
844.139	22970.38
844.388	23057.38
844.636	22903.38
844.884	23028.38
845.133	23015.38
845.381	22857.38
845.629	23004.38
845.877	22911.38
846.125	22922.38
846.373	22846.38
846.621	22858.38
846.869	22712.38
847.117	22530.38
847.365	22426.38
847.613	22311.38
847.861	22249.38
848.108	22234.38
848.356	22212.38
848.604	22148.38
848.851	22128.38
849.099	22261.38
849.346	22185.38
849.594	22258.38
849.841	22318.38
850.089	22405.38
850.336	22350.38
850.583	22279.38
850.831	22263.38
851.078	22108.38
851.325	22220.38
851.572	22324.38
851.819	22022.38
852.066	21660.38
852.313	21264.38
852.56	21146.38
852.807	20967.38
853.054	21082.38
853.301	21004.38
853.548	20994.38
853.794	21109.38
854.041	21287.38
854.288	21286.38
854.534	21381.38
854.781	21374.38
855.028	21223.38
855.274	21339.38
855.52	21259.38
855.767	21067.38
856.013	21175.38
856.26	21633.38
856.506	20915.38
856.752	20985.38
856.998	20915.38
857.244	21006.38
857.49	21207.38
857.736	21135.38
857.982	21129.38
858.228	21054.38
858.474	20772.38
858.72	20572.38
858.966	20591.38
859.212	20291.38
859.458	20147.38
859.703	19919.38
859.949	19683.38
860.195	19620.38
860.44	19575.38
860.686	19412.38
860.931	19502.38
861.177	19295.38
861.422	19158.38
861.667	19014.38
861.913	19006.38
862.158	19103.38
862.403	19049.38
862.648	19119.38
862.893	19171.38
863.138	19162.38
863.384	19030.38
863.629	19068.38
863.873	18977.38
864.118	19041.38
864.363	18809.38
864.608	18830.38
864.853	18715.38
865.098	18667.38
865.342	18511.38
865.587	18450.38
865.832	18444.38
866.076	18439.38
866.321	18485.38
866.565	18370.38
866.81	18282.38
867.054	18198.38
867.298	18182.38
867.543	18034.38
867.787	18104.38
868.031	18017.38
868.275	18027.38
868.519	18039.38
868.764	17947.38
869.008	18074.38
869.252	17993.38
869.496	17862.38
869.739	17807.38
869.983	17897.38
870.227	17825.38
870.471	17904.38
870.715	17937.38
870.958	17961.38
871.202	18123.38
871.446	18113.38
871.689	18103.38
871.933	18007.38
872.176	18043.38
872.42	18005.38
872.663	17956.38
872.906	17911.38
873.15	17912.38
873.393	17938.38
873.636	18038.38
873.879	17875.38
874.122	17646.38
874.366	17329.38
874.609	17283.38
874.852	16986.38
875.095	16877.38
875.337	16740.38
875.58	16709.38
875.823	16669.38
876.066	16605.38
876.309	16543.38
876.551	16408.38
876.794	16263.38
877.037	16414.38
877.279	16278.38
877.522	16234.38
877.764	16235.38
878.007	16166.38
878.249	16193.38
878.491	16017.38
878.734	16056.38
878.976	16069.38
879.218	15879.38
879.46	15824.38
879.702	15711.38
879.945	15543.38
880.187	15401.38
880.429	15321.38
880.671	15190.38
880.912	15210.38
881.154	15083.38
881.396	14999.38
881.638	15080.38
881.88	15010.38
882.121	15021.38
882.363	15075.38
882.605	15131.38
882.846	14980.38
883.088	15017.38
883.329	15055.38
883.571	15199.38
883.812	15374.38
884.053	15701.38
884.295	16126.38
884.536	16471.38
884.777	16326.38
885.018	16135.38
885.259	16091.38
885.5	15950.38
885.742	16007.38
885.982	15837.38
886.223	15621.38
886.464	15438.38
886.705	15262.38
886.946	15152.38
887.187	14764.38
887.428	14472.38
887.668	14260.38
887.909	14079.38
888.15	13828.38
888.39	13814.38
888.631	13671.38
888.871	13542.38
889.111	13460.38
889.352	13297.38
889.592	13265.38
889.833	13070.38
890.073	13026.38
890.313	13042.38
890.553	12875.38
890.793	12756.38
891.033	12739.38
891.273	12756.38
891.513	12653.38
891.753	12630.38
891.993	12641.38
892.233	12653.38
892.473	12765.38
892.713	12687.38
892.952	12728.38
893.192	12692.38
893.432	12690.38
893.671	12721.38
893.911	12526.38
894.15	12594.38
894.39	12329.38
894.629	12347.38
894.869	12274.38
895.108	12294.38
895.347	12165.38
895.587	12187.38
895.826	12116.38
896.065	12081.38
896.304	12041.38
896.543	12138.38
896.782	12025.38
897.021	12004.38
897.26	12015.38
897.499	12054.38
897.738	11948.38
897.977	11998.38
898.216	11799.38
898.454	11741.38
898.693	11662.38
898.932	11659.38
899.17	11617.38
899.409	11576.38
899.647	11510.38
899.886	11515.38
900.124	11564.38
900.363	11618.38
900.601	11647.38
900.839	11704.38
901.078	11703.38
901.316	11751.38
901.554	11817.38
901.792	11951.38
902.03	11903.38
902.268	11893.38
902.506	11910.38
902.744	11826.38
902.982	11715.38
903.22	11445.38
903.458	11226.38
903.695	11136.38
903.933	10912.38
904.171	10697.38
904.409	10552.38
904.646	10389.38
904.884	10216.38
905.121	10152.38
905.359	9984.38
905.596	9964.38
905.833	9841.38
906.071	9770.38
906.308	9754.38
906.545	9678.38
906.783	9553.38
907.02	9646.38
907.257	9487.38
907.494	9515.38
907.731	9509.38
907.968	9400.38
908.205	9410.38
908.442	9323.38
908.679	9240.38
908.915	9185.38
909.152	9206.38
909.389	9042.38
909.626	8972.38
909.862	8908.38
910.099	8904.38
910.335	8900.38
910.572	8651.38
910.808	8747.38
911.045	8683.38
911.281	8631.38
911.518	8685.38
911.754	8564.38
911.99	8530.38
912.226	8428.38
912.463	8379.38
912.699	8435.38
912.935	8299.38
913.171	8260.38
913.407	8155.38
913.643	8117.38
913.879	8020.38
914.114	7940.38
914.35	7882.38
914.586	7817.38
914.822	7731.38
915.057	7745.38
915.293	7609.38
915.529	7627.38
915.764	7656.38
916	7618.38
916.235	7622.38
916.471	7579.38
916.706	7479.38
916.941	7443.38
917.177	7453.38
917.412	7513.38
917.647	7530.38
917.882	7445.38
918.117	7494.38
918.352	7405.38
918.588	7349.38
918.823	7322.38
919.057	7311.38
919.292	7116.38
919.527	7156.38
919.762	7087.38
919.997	7001.38
920.232	6888.38
920.466	6904.38
920.701	6769.38
920.935	6742.38
921.17	6772.38
921.405	6651.38
921.639	6666.38
921.873	6623.38
922.108	6611.38
922.342	6621.38
922.576	6560.38
922.811	6506.38
923.045	6525.38
923.279	6510.38
923.513	6359.38
923.747	6452.38
923.981	6364.38
924.215	6292.38
924.449	6234.38
924.683	6205.38
924.917	6147.38
925.151	6195.38
925.385	6216.38
925.618	6150.38
925.852	6098.38
926.086	6011.38
926.319	6078.38
926.553	6064.38
926.786	6094.38
927.02	6107.38
927.253	6130.38
927.486	6121.38
927.72	5992.38
927.953	6043.38
928.186	5997.38
928.42	6055.38
928.653	5980.38
928.886	5929.38
929.119	5882.38
929.352	5882.38
929.585	5833.38
929.818	5814.38
930.051	5819.38
930.284	5772.38
930.516	5626.38
930.749	5604.38
930.982	5595.38
931.215	5580.38
931.447	5545.38
931.68	5547.38
931.912	5513.38
932.145	5457.38
932.377	5496.38
932.61	5645.38
932.842	5416.38
933.074	5473.38
933.307	5381.38
933.539	5538.38
933.771	5542.38
934.003	5436.38
934.236	5511.38
934.468	5546.38
934.7	5401.38
934.932	5430.38
935.164	5361.38
935.395	5382.38
935.627	5366.38
935.859	5349.38
936.091	5286.38
936.323	5315.38
936.554	5306.38
936.786	5290.38
937.017	5220.38
937.249	5252.38
937.481	5120.38
937.712	5215.38
937.943	5113.38
938.175	5175.38
938.406	5148.38
938.637	5240.38
938.869	5083.38
939.1	5124.38
939.331	5082.38
939.562	5071.38
939.793	5062.38
940.024	5117.38
940.255	5073.38
940.486	5025.38
940.717	4949.38
940.948	4931.38
941.179	4898.38
941.409	4898.38
941.64	4880.38
941.871	4916.38
942.102	4891.38
942.332	4908.38
942.563	4907.38
942.793	4928.38
943.024	4885.38
943.254	4862.38
943.484	4915.38
943.715	4936.38
943.945	4868.38
944.175	4848.38
944.405	4767.38
944.636	4791.38
944.866	4819.38
945.096	4798.38
945.326	4736.38
945.556	4848.38
945.786	4834.38
946.016	4742.38
946.245	4614.38
946.475	4686.38
946.705	4609.38
946.935	4626.38
947.164	4583.38
947.394	4563.38
947.624	4556.38
947.853	4572.38
948.083	4507.38
948.312	4467.38
948.542	4431.38
948.771	4377.38
949	4412.38
949.23	4413.38
949.459	4432.38
949.688	4429.38
949.917	4378.38
950.146	4411.38
950.375	4449.38
950.604	4308.38
950.833	4396.38
951.062	4409.38
951.291	4328.38
951.52	4263.38
951.749	4294.38
951.978	4293.38
952.206	4269.38
952.435	4220.38
952.664	4280.38
952.892	4230.38
953.121	4211.38
953.349	4250.38
953.578	4224.38
953.806	4172.38
954.035	4096.38
954.263	4147.38
954.491	4050.38
954.719	4132.38
954.948	4063.38
955.176	4047.38
955.404	3972.38
955.632	4025.38
955.86	4036.38
956.088	3960.38
956.316	3984.38
956.544	4014.38
956.772	3891.38
956.999	3877.38
957.227	3963.38
957.455	3860.38
957.683	3885.38
957.91	3776.38
958.138	3746.38
958.365	3802.38
958.593	3777.38
958.82	3668.38
959.048	3780.38
959.275	3747.38
959.502	3692.38
959.73	3669.38
959.957	3747.38
960.184	3720.38
960.411	3662.38
960.638	3737.38
960.865	3638.38
961.092	3694.38
961.319	3595.38
961.546	3643.38
961.773	3685.38
962	3623.38
962.227	3674.38
962.454	3648.38
962.68	3574.38
962.907	3550.38
963.134	3497.38
963.36	3564.38
963.587	3559.38
963.813	3510.38
964.04	3519.38
964.266	3422.38
964.493	3516.38
964.719	3490.38
964.945	3440.38
965.171	3337.38
965.398	3363.38
965.624	3386.38
965.85	3310.38
966.076	3290.38
966.302	3333.38
966.528	3289.38
966.754	3310.38
966.98	3310.38
967.206	3304.38
967.431	3200.38
967.657	3305.38
967.883	3294.38
968.109	3281.38
968.334	3167.38
968.56	3173.38
968.785	3220.38
969.011	3139.38
969.236	3211.38
969.462	3139.38
969.687	3150.38
969.912	3172.38
970.138	3174.38
970.363	3096.38
970.588	3127.38
970.813	3099.38
971.038	3076.38
971.263	3065.38
971.488	3100.38
971.713	3128.38
971.938	3106.38
972.163	2961.38
972.388	3000.38
972.613	2980.38
972.838	3005.38
973.062	2984.38
973.287	2973.38
973.512	2862.38
973.736	2919.38
973.961	2892.38
974.185	2896.38
974.41	2914.38
974.634	2827.38
974.858	2786.38
975.083	2835.38
975.307	2852.38
975.531	2769.38
975.755	2719.38
975.98	2741.38
976.204	2683.38
976.428	2662.38
976.652	2688.38
976.876	2666.38
977.1	2707.38
977.324	2618.38
977.547	2690.38
977.771	2678.38
977.995	2671.38
978.219	2580.38
978.442	2694.38
978.666	2623.38
978.89	2625.38
979.113	2585.38
979.337	2612.38
979.56	2562.38
979.783	2649.38
980.007	2558.38
980.23	2543.38
980.453	2549.38
980.677	2555.38
980.9	2526.38
981.123	2420.38
981.346	2534.38
981.569	2552.38
981.792	2537.38
982.015	2467.38
982.238	2438.38
982.461	2454.38
982.684	2432.38
982.907	2387.38
983.129	2386.38
983.352	2449.38
983.575	2408.38
983.797	2377.38
984.02	2351.38
984.242	2332.38
984.465	2377.38
984.687	2367.38
984.91	2396.38
985.132	2329.38
985.354	2319.38
985.577	2308.38
985.799	2314.38
986.021	2241.38
986.243	2270.38
986.465	2290.38
986.687	2303.38
986.909	2336.38
987.131	2262.38
987.353	2220.38
987.575	2264.38
987.797	2229.38
988.019	2164.38
988.241	2254.38
988.462	2171.38
988.684	2208.38
988.906	2254.38
989.127	2265.38
989.349	2155.38
989.57	2222.38
989.792	2223.38
990.013	2205.38
990.234	2227.38
990.456	2245.38
990.677	2229.38
990.898	2156.38
991.119	2165.38
991.341	2157.38
991.562	2091.38
991.783	2158.38
992.004	2069.38
992.225	2033.38
992.446	2105.38
992.667	2034.38
992.887	2086.38
993.108	1985.38
993.329	2122.38
993.55	2037.38
993.77	1995.38
993.991	1973.38
994.212	2013.38
994.432	2001.38
994.653	2043.38
994.873	1994.38
995.093	1882.38
995.314	1938.38
995.534	1976.38
995.754	2005.38
995.975	2038.38
996.195	1927.38
996.415	1963.38
996.635	1944.38
996.855	1984.38
997.075	1923.38
997.295	1936.38
997.515	1904.38
997.735	1971.38
997.955	1975.38
998.174	1909.38
998.394	1906.38
998.614	1981.38
998.834	1894.38
999.053	1947.38
999.273	1929.38
999.492	1961.38
999.712	1913.38
999.931	1860.38
1000.151	1916.38
1000.37	1886.38
1000.589	1936.38
1000.809	1833.38
1001.028	1986.38
1001.247	1872.38
1001.466	1777.38
1001.685	1935.38
1001.904	1849.38
1002.123	1827.38
1002.342	1822.38
1002.561	1773.38
1002.78	1787.38
1002.999	1854.38
1003.218	1816.38
1003.436	1789.38
1003.655	1839.38
1003.874	1746.38
1004.092	1798.38
1004.311	1801.38
1004.53	1774.38
1004.748	1826.38
1004.966	1767.38
1005.185	1785.38
1005.403	1796.38
1005.622	1792.38
1005.84	1846.38
1006.058	1732.38
1006.276	1779.38
1006.494	2287.38
1006.712	1786.38
1006.931	1842.38
1007.149	1745.38
1007.367	1755.38
1007.584	1818.38
1007.802	1814.38
1008.02	1800.38
1008.238	1902.38
1008.456	1916.38
1008.673	1765.38
1008.891	1913.38
1009.109	1875.38
1009.326	1969.38
1009.544	2052.38
1009.761	1990.38
1009.979	2110.38
1010.196	2125.38
1010.413	2279.38
1010.631	2378.38
1010.848	2462.38
1011.065	2483.38
1011.282	2435.38
1011.5	2388.38
1011.717	2445.38
1011.934	2410.38
1012.151	2426.38
1012.368	2408.38
1012.585	2324.38
1012.801	2420.38
1013.018	2372.38
1013.235	2322.38
1013.452	2354.38
1013.669	2387.38
1013.885	2403.38
1014.102	2430.38
1014.318	2414.38
1014.535	2398.38
1014.751	2426.38
1014.968	2383.38
1015.184	2409.38
1015.401	2270.38
1015.617	2311.38
1015.833	2239.38
1016.049	2234.38
1016.266	2184.38
1016.482	2204.38
1016.698	2116.38
1016.914	2216.38
1017.13	2098.38
1017.346	2108.38
1017.562	2141.38
1017.778	2091.38
1017.993	2041.38
1018.209	2101.38
1018.425	2099.38
1018.641	2043.38
1018.856	2020.38
1019.072	2058.38
1019.288	2105.38
1019.503	2055.38
1019.719	1951.38
1019.934	1978.38
1020.149	2046.38
1020.365	1973.38
1020.58	1908.38
1020.795	1912.38
1021.011	1859.38
1021.226	1823.38
1021.441	1806.38
1021.656	1703.38
1021.871	1658.38
1022.086	1645.38
1022.301	1605.38
1022.516	1572.38
1022.731	1593.38
1022.946	1529.38
1023.16	1506.38
1023.375	1482.38
1023.59	1464.38
1023.804	1382.38
1024.019	1472.38
1024.234	1330.38
1024.448	1367.38
1024.663	1278.38
1024.877	1279.38
1025.092	1292.38
1025.306	1276.38
1025.52	1170.38
1025.734	1250.38
1025.949	1173.38
1026.163	1126.38
1026.377	1047.38
1026.591	1102.38
1026.805	1037.38
1027.019	1004.38
1027.233	970.38
1027.447	938.38
1027.661	1042.38
1027.875	976.38
1028.088	956.38
1028.302	910.38
1028.516	874.38
1028.73	876.38
1028.943	834.38
1029.157	793.38
1029.37	727.38
1029.584	1.38
1029.797	-3.62
1030.011	-1.62
1030.224	-4.62
