Data from QEP037381__257__16-12-39-905.txt Node

Date: Fri Dec 16 16:12:39 EST 2022
User: dcclab
Spectrometer: QEP03738
Trigger mode: 4
Integration Time (sec): 1.000000E1
Scans to average: 1
Electric dark correction enabled: true
Nonlinearity correction enabled: false
Boxcar width: 0
XAxis mode: Wavelengths
Number of Pixels in Spectrum: 1044
>>>>>Begin Spectral Data<<<<<
784.041	10.5
784.3	0.5
784.558	0.5
784.817	-2.5
785.075	110588.5
785.334	18894.5
785.592	8811.5
785.851	6103.5
786.109	4619.5
786.368	3595.5
786.626	2918.5
786.884	2437.5
787.143	2042.5
787.401	1667.5
787.659	1504.5
787.917	1277.5
788.175	1173.5
788.433	1035.5
788.691	946.5
788.949	852.5
789.207	824.5
789.465	706.5
789.723	687.5
789.98	623.5
790.238	668.5
790.496	616.5
790.753	595.5
791.011	645.5
791.268	571.5
791.526	561.5
791.783	569.5
792.041	559.5
792.298	472.5
792.556	529.5
792.813	520.5
793.07	503.5
793.327	474.5
793.584	570.5
793.841	464.5
794.099	492.5
794.356	554.5
794.613	465.5
794.869	497.5
795.126	470.5
795.383	455.5
795.64	470.5
795.897	431.5
796.153	484.5
796.41	463.5
796.667	463.5
796.923	476.5
797.18	457.5
797.436	485.5
797.693	453.5
797.949	510.5
798.206	553.5
798.462	464.5
798.718	526.5
798.974	501.5
799.231	541.5
799.487	537.5
799.743	534.5
799.999	593.5
800.255	580.5
800.511	557.5
800.767	627.5
801.023	623.5
801.279	664.5
801.534	699.5
801.79	800.5
802.046	841.5
802.302	1038.5
802.557	1184.5
802.813	1524.5
803.068	1956.5
803.324	2748.5
803.579	3745.5
803.835	5236.5
804.09	7256.5
804.345	9530.5
804.601	12072.5
804.856	14679.5
805.111	16843.5
805.366	18750.5
805.621	20016.5
805.876	20912.5
806.131	21578.5
806.386	21956.5
806.641	22341.5
806.896	22727.5
807.151	23206.5
807.406	23493.5
807.661	23985.5
807.915	24329.5
808.17	24868.5
808.425	25061.5
808.679	25309.5
808.934	25530.5
809.188	25752.5
809.443	26127.5
809.697	26401.5
809.951	26563.5
810.206	26853.5
810.46	27112.5
810.714	27407.5
810.968	27746.5
811.223	27821.5
811.477	28143.5
811.731	28312.5
811.985	28365.5
812.239	28585.5
812.493	28727.5
812.747	28857.5
813	28911.5
813.254	29016.5
813.508	29239.5
813.762	29365.5
814.015	29406.5
814.269	29794.5
814.522	30038.5
814.776	30306.5
815.03	30719.5
815.283	31162.5
815.536	31690.5
815.79	32079.5
816.043	32594.5
816.296	33035.5
816.55	33461.5
816.803	33822.5
817.056	34334.5
817.309	34711.5
817.562	34919.5
817.815	35241.5
818.068	35530.5
818.321	36162.5
818.574	36298.5
818.827	36879.5
819.079	37242.5
819.332	37905.5
819.585	38422.5
819.838	38853.5
820.09	39130.5
820.343	39451.5
820.595	39439.5
820.848	39803.5
821.1	40020.5
821.353	40058.5
821.605	40009.5
821.857	40041.5
822.11	40036.5
822.362	39837.5
822.614	39591.5
822.866	39713.5
823.118	39796.5
823.37	39773.5
823.622	40069.5
823.874	39997.5
824.126	40302.5
824.378	40269.5
824.63	40456.5
824.882	40565.5
825.134	40407.5
825.385	40536.5
825.637	40438.5
825.888	40126.5
826.14	40226.5
826.392	40085.5
826.643	39924.5
826.895	39680.5
827.146	39593.5
827.397	39364.5
827.649	39572.5
827.9	39657.5
828.151	39512.5
828.402	39589.5
828.653	39755.5
828.905	39923.5
829.156	40031.5
829.407	40087.5
829.658	39861.5
829.909	40023.5
830.159	40112.5
830.41	39950.5
830.661	39549.5
830.912	39415.5
831.162	39280.5
831.413	39262.5
831.664	39183.5
831.914	39188.5
832.165	39145.5
832.415	39049.5
832.666	39125.5
832.916	39257.5
833.167	39047.5
833.417	39110.5
833.667	38944.5
833.917	38806.5
834.168	38793.5
834.418	38701.5
834.668	38583.5
834.918	38240.5
835.168	38192.5
835.418	38036.5
835.668	37885.5
835.918	37939.5
836.167	37808.5
836.417	37689.5
836.667	37635.5
836.917	37541.5
837.166	37571.5
837.416	37722.5
837.666	37508.5
837.915	37476.5
838.165	37374.5
838.414	37316.5
838.663	37231.5
838.913	37394.5
839.162	37075.5
839.411	37128.5
839.661	36838.5
839.91	36871.5
840.159	36766.5
840.408	36740.5
840.657	36837.5
840.906	36735.5
841.155	36795.5
841.404	36799.5
841.653	36899.5
841.902	36827.5
842.15	36941.5
842.399	36899.5
842.648	36955.5
842.897	36636.5
843.145	36458.5
843.394	36289.5
843.642	35991.5
843.891	35981.5
844.139	35759.5
844.388	35418.5
844.636	35522.5
844.884	35474.5
845.133	35397.5
845.381	35299.5
845.629	35362.5
845.877	35137.5
846.125	35129.5
846.373	35230.5
846.621	34981.5
846.869	34879.5
847.117	34614.5
847.365	34456.5
847.613	34406.5
847.861	34237.5
848.108	34378.5
848.356	34141.5
848.604	34030.5
848.851	34144.5
849.099	34072.5
849.346	34339.5
849.594	34347.5
849.841	34635.5
850.089	34616.5
850.336	34562.5
850.583	34470.5
850.831	34310.5
851.078	34226.5
851.325	34176.5
851.572	34255.5
851.819	34010.5
852.066	33290.5
852.313	32918.5
852.56	32734.5
852.807	32575.5
853.054	32506.5
853.301	32263.5
853.548	32429.5
853.794	32558.5
854.041	32578.5
854.288	32790.5
854.534	32935.5
854.781	32856.5
855.028	32956.5
855.274	32775.5
855.52	32533.5
855.767	32365.5
856.013	32328.5
856.26	32709.5
856.506	32124.5
856.752	32068.5
856.998	32229.5
857.244	32213.5
857.49	32354.5
857.736	32454.5
857.982	32511.5
858.228	32327.5
858.474	32118.5
858.72	31921.5
858.966	31668.5
859.212	31407.5
859.458	31075.5
859.703	30717.5
859.949	30429.5
860.195	30249.5
860.44	30157.5
860.686	29960.5
860.931	29996.5
861.177	29739.5
861.422	29685.5
861.667	29637.5
861.913	29628.5
862.158	29599.5
862.403	29673.5
862.648	29727.5
862.893	29772.5
863.138	29838.5
863.384	29545.5
863.629	29649.5
863.873	29536.5
864.118	29561.5
864.363	29314.5
864.608	29263.5
864.853	29142.5
865.098	29017.5
865.342	28830.5
865.587	28798.5
865.832	28693.5
866.076	28565.5
866.321	28504.5
866.565	28424.5
866.81	28207.5
867.054	28266.5
867.298	28301.5
867.543	28100.5
867.787	28039.5
868.031	28058.5
868.275	27890.5
868.519	27830.5
868.764	27873.5
869.008	27807.5
869.252	27628.5
869.496	27654.5
869.739	27677.5
869.983	27577.5
870.227	27654.5
870.471	27526.5
870.715	27534.5
870.958	27654.5
871.202	27715.5
871.446	27831.5
871.689	27830.5
871.933	27815.5
872.176	27733.5
872.42	27595.5
872.663	27606.5
872.906	27490.5
873.15	27364.5
873.393	27268.5
873.636	27150.5
873.879	26961.5
874.122	26522.5
874.366	26347.5
874.609	26155.5
874.852	26008.5
875.095	25949.5
875.337	25787.5
875.58	25596.5
875.823	25539.5
876.066	25466.5
876.309	25382.5
876.551	25214.5
876.794	25059.5
877.037	25154.5
877.279	25109.5
877.522	24922.5
877.764	25088.5
878.007	24816.5
878.249	24821.5
878.491	24859.5
878.734	24764.5
878.976	24742.5
879.218	24494.5
879.46	24423.5
879.702	24320.5
879.945	24039.5
880.187	23860.5
880.429	23842.5
880.671	23708.5
880.912	23591.5
881.154	23491.5
881.396	23361.5
881.638	23426.5
881.88	23456.5
882.121	23412.5
882.363	23405.5
882.605	23305.5
882.846	23197.5
883.088	23204.5
883.329	23119.5
883.571	23034.5
883.812	23148.5
884.053	23537.5
884.295	23788.5
884.536	24013.5
884.777	23859.5
885.018	23795.5
885.259	23696.5
885.5	23573.5
885.742	23648.5
885.982	23516.5
886.223	23314.5
886.464	23112.5
886.705	22943.5
886.946	22702.5
887.187	22403.5
887.428	22302.5
887.668	21941.5
887.909	21770.5
888.15	21427.5
888.39	21308.5
888.631	21187.5
888.871	21063.5
889.111	20863.5
889.352	20660.5
889.592	20611.5
889.833	20414.5
890.073	20335.5
890.313	20220.5
890.553	20002.5
890.793	19921.5
891.033	19873.5
891.273	19821.5
891.513	19687.5
891.753	19628.5
891.993	19532.5
892.233	19543.5
892.473	19749.5
892.713	19704.5
892.952	19665.5
893.192	19715.5
893.432	19674.5
893.671	19546.5
893.911	19476.5
894.15	19466.5
894.39	19266.5
894.629	19160.5
894.869	19167.5
895.108	18940.5
895.347	18834.5
895.587	18814.5
895.826	18718.5
896.065	18643.5
896.304	18705.5
896.543	18742.5
896.782	18590.5
897.021	18519.5
897.26	18526.5
897.499	18379.5
897.738	18399.5
897.977	18220.5
898.216	18161.5
898.454	17927.5
898.693	17780.5
898.932	17786.5
899.17	17688.5
899.409	17610.5
899.647	17548.5
899.886	17543.5
900.124	17568.5
900.363	17621.5
900.601	17614.5
900.839	17536.5
901.078	17615.5
901.316	17723.5
901.554	17722.5
901.792	17870.5
902.03	17764.5
902.268	17750.5
902.506	17731.5
902.744	17672.5
902.982	17486.5
903.22	17192.5
903.458	17022.5
903.695	16872.5
903.933	16540.5
904.171	16244.5
904.409	16035.5
904.646	15927.5
904.884	15735.5
905.121	15534.5
905.359	15348.5
905.596	15134.5
905.833	15148.5
906.071	14965.5
906.308	14956.5
906.545	14896.5
906.783	14810.5
907.02	14846.5
907.257	14785.5
907.494	14714.5
907.731	14573.5
907.968	14564.5
908.205	14482.5
908.442	14363.5
908.679	14291.5
908.915	14156.5
909.152	14050.5
909.389	13977.5
909.626	13834.5
909.862	13692.5
910.099	13809.5
910.335	13626.5
910.572	13524.5
910.808	13607.5
911.045	13475.5
911.281	13408.5
911.518	13434.5
911.754	13222.5
911.99	13200.5
912.226	13100.5
912.463	12972.5
912.699	12899.5
912.935	12851.5
913.171	12751.5
913.407	12644.5
913.643	12542.5
913.879	12412.5
914.114	12331.5
914.35	12190.5
914.586	12064.5
914.822	11963.5
915.057	11975.5
915.293	11747.5
915.529	11711.5
915.764	11748.5
916	11680.5
916.235	11726.5
916.471	11675.5
916.706	11588.5
916.941	11615.5
917.177	11521.5
917.412	11572.5
917.647	11598.5
917.882	11422.5
918.117	11517.5
918.352	11450.5
918.588	11450.5
918.823	11230.5
919.057	11198.5
919.292	10957.5
919.527	11051.5
919.762	10847.5
919.997	10711.5
920.232	10623.5
920.466	10527.5
920.701	10341.5
920.935	10377.5
921.17	10297.5
921.405	10203.5
921.639	10252.5
921.873	10159.5
922.108	10075.5
922.342	10068.5
922.576	9978.5
922.811	9873.5
923.045	9999.5
923.279	10006.5
923.513	9799.5
923.747	9777.5
923.981	9739.5
924.215	9688.5
924.449	9583.5
924.683	9538.5
924.917	9452.5
925.151	9332.5
925.385	9413.5
925.618	9382.5
925.852	9329.5
926.086	9263.5
926.319	9281.5
926.553	9247.5
926.786	9331.5
927.02	9264.5
927.253	9307.5
927.486	9302.5
927.72	9110.5
927.953	9195.5
928.186	9098.5
928.42	9184.5
928.653	9004.5
928.886	8971.5
929.119	8950.5
929.352	8898.5
929.585	8854.5
929.818	8742.5
930.051	8729.5
930.284	8696.5
930.516	8597.5
930.749	8505.5
930.982	8520.5
931.215	8466.5
931.447	8387.5
931.68	8390.5
931.912	8320.5
932.145	8269.5
932.377	8302.5
932.61	8438.5
932.842	8280.5
933.074	8282.5
933.307	8278.5
933.539	8264.5
933.771	8273.5
934.003	8219.5
934.236	8230.5
934.468	8266.5
934.7	8151.5
934.932	8156.5
935.164	8174.5
935.395	8044.5
935.627	8070.5
935.859	8087.5
936.091	8016.5
936.323	7979.5
936.554	7980.5
936.786	7920.5
937.017	7805.5
937.249	7843.5
937.481	7777.5
937.712	7793.5
937.943	7721.5
938.175	7776.5
938.406	7716.5
938.637	7784.5
938.869	7651.5
939.1	7763.5
939.331	7703.5
939.562	7681.5
939.793	7643.5
940.024	7559.5
940.255	7505.5
940.486	7494.5
940.717	7481.5
940.948	7382.5
941.179	7374.5
941.409	7385.5
941.64	7377.5
941.871	7358.5
942.102	7300.5
942.332	7381.5
942.563	7343.5
942.793	7348.5
943.024	7201.5
943.254	7290.5
943.484	7345.5
943.715	7433.5
943.945	7314.5
944.175	7256.5
944.405	7228.5
944.636	7169.5
944.866	7194.5
945.096	7211.5
945.326	7171.5
945.556	7187.5
945.786	7156.5
946.016	7059.5
946.245	6994.5
946.475	6956.5
946.705	6937.5
946.935	6917.5
947.164	6905.5
947.394	6804.5
947.624	6801.5
947.853	6802.5
948.083	6772.5
948.312	6662.5
948.542	6604.5
948.771	6511.5
949	6582.5
949.23	6573.5
949.459	6535.5
949.688	6588.5
949.917	6581.5
950.146	6532.5
950.375	6527.5
950.604	6462.5
950.833	6526.5
951.062	6523.5
951.291	6463.5
951.52	6408.5
951.749	6436.5
951.978	6382.5
952.206	6315.5
952.435	6321.5
952.664	6299.5
952.892	6330.5
953.121	6211.5
953.349	6355.5
953.578	6203.5
953.806	6165.5
954.035	6115.5
954.263	6136.5
954.491	6021.5
954.719	6081.5
954.948	5992.5
955.176	5992.5
955.404	5860.5
955.632	5959.5
955.86	5903.5
956.088	5898.5
956.316	5874.5
956.544	5937.5
956.772	5808.5
956.999	5707.5
957.227	5785.5
957.455	5676.5
957.683	5667.5
957.91	5648.5
958.138	5564.5
958.365	5561.5
958.593	5584.5
958.82	5485.5
959.048	5514.5
959.275	5498.5
959.502	5471.5
959.73	5382.5
959.957	5432.5
960.184	5452.5
960.411	5404.5
960.638	5449.5
960.865	5393.5
961.092	5427.5
961.319	5306.5
961.546	5394.5
961.773	5359.5
962	5302.5
962.227	5374.5
962.454	5320.5
962.68	5320.5
962.907	5288.5
963.134	5223.5
963.36	5211.5
963.587	5187.5
963.813	5104.5
964.04	5102.5
964.266	5019.5
964.493	5096.5
964.719	5072.5
964.945	5036.5
965.171	4917.5
965.398	4964.5
965.624	4926.5
965.85	4829.5
966.076	4832.5
966.302	4838.5
966.528	4791.5
966.754	4832.5
966.98	4809.5
967.206	4776.5
967.431	4691.5
967.657	4785.5
967.883	4703.5
968.109	4707.5
968.334	4627.5
968.56	4636.5
968.785	4637.5
969.011	4650.5
969.236	4641.5
969.462	4535.5
969.687	4574.5
969.912	4579.5
970.138	4626.5
970.363	4527.5
970.588	4520.5
970.813	4421.5
971.038	4405.5
971.263	4484.5
971.488	4478.5
971.713	4489.5
971.938	4399.5
972.163	4339.5
972.388	4353.5
972.613	4305.5
972.838	4332.5
973.062	4298.5
973.287	4316.5
973.512	4134.5
973.736	4207.5
973.961	4218.5
974.185	4151.5
974.41	4193.5
974.634	4070.5
974.858	4033.5
975.083	4095.5
975.307	4067.5
975.531	3983.5
975.755	3939.5
975.98	3959.5
976.204	3829.5
976.428	3850.5
976.652	3903.5
976.876	3813.5
977.1	3877.5
977.324	3805.5
977.547	3863.5
977.771	3835.5
977.995	3775.5
978.219	3752.5
978.442	3822.5
978.666	3797.5
978.89	3744.5
979.113	3764.5
979.337	3759.5
979.56	3683.5
979.783	3779.5
980.007	3684.5
980.23	3711.5
980.453	3622.5
980.677	3635.5
980.9	3560.5
981.123	3525.5
981.346	3616.5
981.569	3593.5
981.792	3561.5
982.015	3531.5
982.238	3447.5
982.461	3464.5
982.684	3417.5
982.907	3412.5
983.129	3342.5
983.352	3398.5
983.575	3400.5
983.797	3363.5
984.02	3344.5
984.242	3278.5
984.465	3302.5
984.687	3326.5
984.91	3344.5
985.132	3273.5
985.354	3273.5
985.577	3239.5
985.799	3207.5
986.021	3135.5
986.243	3152.5
986.465	3208.5
986.687	3196.5
986.909	3234.5
987.131	3152.5
987.353	3107.5
987.575	3161.5
987.797	3095.5
988.019	3059.5
988.241	3087.5
988.462	3031.5
988.684	3076.5
988.906	3124.5
989.127	3116.5
989.349	2983.5
989.57	3036.5
989.792	3033.5
990.013	3066.5
990.234	3053.5
990.456	3022.5
990.677	3072.5
990.898	2954.5
991.119	2940.5
991.341	2995.5
991.562	2903.5
991.783	2929.5
992.004	2827.5
992.225	2849.5
992.446	2896.5
992.667	2785.5
992.887	2850.5
993.108	2757.5
993.329	2830.5
993.55	2801.5
993.77	2691.5
993.991	2684.5
994.212	2750.5
994.432	2734.5
994.653	2723.5
994.873	2700.5
995.093	2599.5
995.314	2581.5
995.534	2693.5
995.754	2679.5
995.975	2695.5
996.195	2575.5
996.415	2594.5
996.635	2625.5
996.855	2621.5
997.075	2592.5
997.295	2581.5
997.515	2537.5
997.735	2618.5
997.955	2566.5
998.174	2528.5
998.394	2525.5
998.614	2569.5
998.834	2519.5
999.053	2609.5
999.273	2495.5
999.492	2592.5
999.712	2532.5
999.931	2449.5
1000.151	2520.5
1000.37	2501.5
1000.589	2507.5
1000.809	2445.5
1001.028	2561.5
1001.247	2464.5
1001.466	2337.5
1001.685	2475.5
1001.904	2435.5
1002.123	2392.5
1002.342	2371.5
1002.561	2318.5
1002.78	2372.5
1002.999	2407.5
1003.218	2301.5
1003.436	2285.5
1003.655	2327.5
1003.874	2261.5
1004.092	2261.5
1004.311	2346.5
1004.53	2286.5
1004.748	2347.5
1004.966	2220.5
1005.185	2313.5
1005.403	2307.5
1005.622	2267.5
1005.84	2339.5
1006.058	2219.5
1006.276	2220.5
1006.494	2724.5
1006.712	2238.5
1006.931	2296.5
1007.149	2185.5
1007.367	2222.5
1007.584	2241.5
1007.802	2273.5
1008.02	2223.5
1008.238	2321.5
1008.456	2331.5
1008.673	2188.5
1008.891	2301.5
1009.109	2259.5
1009.326	2298.5
1009.544	2384.5
1009.761	2323.5
1009.979	2452.5
1010.196	2468.5
1010.413	2524.5
1010.631	2635.5
1010.848	2690.5
1011.065	2724.5
1011.282	2663.5
1011.5	2613.5
1011.717	2734.5
1011.934	2646.5
1012.151	2643.5
1012.368	2633.5
1012.585	2600.5
1012.801	2614.5
1013.018	2605.5
1013.235	2592.5
1013.452	2584.5
1013.669	2604.5
1013.885	2588.5
1014.102	2646.5
1014.318	2609.5
1014.535	2533.5
1014.751	2573.5
1014.968	2579.5
1015.184	2551.5
1015.401	2477.5
1015.617	2491.5
1015.833	2443.5
1016.049	2470.5
1016.266	2419.5
1016.482	2409.5
1016.698	2344.5
1016.914	2372.5
1017.13	2309.5
1017.346	2295.5
1017.562	2348.5
1017.778	2288.5
1017.993	2240.5
1018.209	2289.5
1018.425	2279.5
1018.641	2254.5
1018.856	2228.5
1019.072	2255.5
1019.288	2288.5
1019.503	2223.5
1019.719	2146.5
1019.934	2132.5
1020.149	2239.5
1020.365	2138.5
1020.58	2109.5
1020.795	2144.5
1021.011	2044.5
1021.226	2067.5
1021.441	2034.5
1021.656	1911.5
1021.871	1866.5
1022.086	1834.5
1022.301	1803.5
1022.516	1795.5
1022.731	1819.5
1022.946	1748.5
1023.16	1724.5
1023.375	1681.5
1023.59	1653.5
1023.804	1605.5
1024.019	1694.5
1024.234	1537.5
1024.448	1538.5
1024.663	1481.5
1024.877	1506.5
1025.092	1455.5
1025.306	1479.5
1025.52	1362.5
1025.734	1456.5
1025.949	1348.5
1026.163	1323.5
1026.377	1227.5
1026.591	1294.5
1026.805	1196.5
1027.019	1188.5
1027.233	1156.5
1027.447	1107.5
1027.661	1205.5
1027.875	1128.5
1028.088	1143.5
1028.302	1065.5
1028.516	1030.5
1028.73	1023.5
1028.943	981.5
1029.157	934.5
1029.37	864.5
1029.584	-3.5
1029.797	-1.5
1030.011	-1.5
1030.224	-2.5
