Data from QEP037381__293__16-18-39-907.txt Node

Date: Fri Dec 16 16:18:39 EST 2022
User: dcclab
Spectrometer: QEP03738
Trigger mode: 4
Integration Time (sec): 1.000000E1
Scans to average: 1
Electric dark correction enabled: true
Nonlinearity correction enabled: false
Boxcar width: 0
XAxis mode: Wavelengths
Number of Pixels in Spectrum: 1044
>>>>>Begin Spectral Data<<<<<
784.041	14.12
784.3	2.12
784.558	2.12
784.817	-6.88
785.075	111235.12
785.334	19158.12
785.592	8909.12
785.851	6143.12
786.109	4612.12
786.368	3595.12
786.626	2876.12
786.884	2412.12
787.143	2026.12
787.401	1699.12
787.659	1500.12
787.917	1306.12
788.175	1172.12
788.433	1055.12
788.691	934.12
788.949	863.12
789.207	821.12
789.465	724.12
789.723	700.12
789.98	631.12
790.238	675.12
790.496	641.12
790.753	598.12
791.011	636.12
791.268	573.12
791.526	559.12
791.783	577.12
792.041	557.12
792.298	460.12
792.556	529.12
792.813	511.12
793.07	494.12
793.327	490.12
793.584	555.12
793.841	472.12
794.099	492.12
794.356	565.12
794.613	470.12
794.869	512.12
795.126	458.12
795.383	428.12
795.64	460.12
795.897	407.12
796.153	477.12
796.41	459.12
796.667	452.12
796.923	465.12
797.18	471.12
797.436	492.12
797.693	450.12
797.949	509.12
798.206	523.12
798.462	444.12
798.718	511.12
798.974	492.12
799.231	528.12
799.487	522.12
799.743	541.12
799.999	548.12
800.255	555.12
800.511	548.12
800.767	597.12
801.023	586.12
801.279	619.12
801.534	676.12
801.79	728.12
802.046	795.12
802.302	951.12
802.557	1111.12
802.813	1401.12
803.068	1757.12
803.324	2439.12
803.579	3369.12
803.835	4672.12
804.09	6456.12
804.345	8449.12
804.601	10716.12
804.856	12977.12
805.111	15048.12
805.366	16618.12
805.621	17843.12
805.876	18688.12
806.131	19067.12
806.386	19551.12
806.641	19967.12
806.896	20169.12
807.151	20648.12
807.406	21022.12
807.661	21289.12
807.915	21764.12
808.17	22037.12
808.425	22364.12
808.679	22349.12
808.934	22767.12
809.188	22900.12
809.443	23278.12
809.697	23543.12
809.951	23721.12
810.206	23852.12
810.46	24112.12
810.714	24260.12
810.968	24443.12
811.223	24648.12
811.477	25006.12
811.731	25221.12
811.985	25364.12
812.239	25343.12
812.493	25527.12
812.747	25679.12
813	25767.12
813.254	25865.12
813.508	25992.12
813.762	26060.12
814.015	26195.12
814.269	26289.12
814.522	26548.12
814.776	26877.12
815.03	27322.12
815.283	27648.12
815.536	28076.12
815.79	28630.12
816.043	28940.12
816.296	29225.12
816.55	29721.12
816.803	29937.12
817.056	30310.12
817.309	30622.12
817.562	30923.12
817.815	31317.12
818.068	31493.12
818.321	31905.12
818.574	32277.12
818.827	32651.12
819.079	33084.12
819.332	33704.12
819.585	33919.12
819.838	34352.12
820.09	34555.12
820.343	34812.12
820.595	35102.12
820.848	35227.12
821.1	35202.12
821.353	35449.12
821.605	35355.12
821.857	35361.12
822.11	35142.12
822.362	35291.12
822.614	35061.12
822.866	35221.12
823.118	34927.12
823.37	35293.12
823.622	35236.12
823.874	35423.12
824.126	35489.12
824.378	35549.12
824.63	35534.12
824.882	35917.12
825.134	35624.12
825.385	35696.12
825.637	35597.12
825.888	35447.12
826.14	35358.12
826.392	35285.12
826.643	35065.12
826.895	34872.12
827.146	34853.12
827.397	34673.12
827.649	34826.12
827.9	34680.12
828.151	34799.12
828.402	34892.12
828.653	35016.12
828.905	35036.12
829.156	35074.12
829.407	35099.12
829.658	35117.12
829.909	35333.12
830.159	35148.12
830.41	35007.12
830.661	34756.12
830.912	34581.12
831.162	34573.12
831.413	34475.12
831.664	34411.12
831.914	34314.12
832.165	34223.12
832.415	34386.12
832.666	34187.12
832.916	34386.12
833.167	34275.12
833.417	34265.12
833.667	34095.12
833.917	33906.12
834.168	33993.12
834.418	33801.12
834.668	33693.12
834.918	33627.12
835.168	33417.12
835.418	33328.12
835.668	33301.12
835.918	33149.12
836.167	33092.12
836.417	33005.12
836.667	32853.12
836.917	32911.12
837.166	32992.12
837.416	32993.12
837.666	32848.12
837.915	32828.12
838.165	32846.12
838.414	32552.12
838.663	32549.12
838.913	32604.12
839.162	32485.12
839.411	32519.12
839.661	32362.12
839.91	32307.12
840.159	32165.12
840.408	32157.12
840.657	32015.12
840.906	32083.12
841.155	32167.12
841.404	32089.12
841.653	32205.12
841.902	32279.12
842.15	32309.12
842.399	32365.12
842.648	32156.12
842.897	32041.12
843.145	31821.12
843.394	31751.12
843.642	31565.12
843.891	31452.12
844.139	31292.12
844.388	31099.12
844.636	30844.12
844.884	30976.12
845.133	30838.12
845.381	30945.12
845.629	30782.12
845.877	30786.12
846.125	30688.12
846.373	30732.12
846.621	30654.12
846.869	30515.12
847.117	30267.12
847.365	30160.12
847.613	30047.12
847.861	29919.12
848.108	29922.12
848.356	29889.12
848.604	29769.12
848.851	29813.12
849.099	29842.12
849.346	29814.12
849.594	30060.12
849.841	30060.12
850.089	30306.12
850.336	30141.12
850.583	29987.12
850.831	29897.12
851.078	29748.12
851.325	29782.12
851.572	29779.12
851.819	29614.12
852.066	29115.12
852.313	28682.12
852.56	28418.12
852.807	28412.12
853.054	28173.12
853.301	28157.12
853.548	28085.12
853.794	28293.12
854.041	28366.12
854.288	28514.12
854.534	28631.12
854.781	28804.12
855.028	28544.12
855.274	28628.12
855.52	28387.12
855.767	28337.12
856.013	28356.12
856.26	28557.12
856.506	27934.12
856.752	27991.12
856.998	28003.12
857.244	28008.12
857.49	28207.12
857.736	28171.12
857.982	28390.12
858.228	28071.12
858.474	27987.12
858.72	27763.12
858.966	27541.12
859.212	27229.12
859.458	26977.12
859.703	26718.12
859.949	26415.12
860.195	26293.12
860.44	26255.12
860.686	26141.12
860.931	26144.12
861.177	25863.12
861.422	25803.12
861.667	25625.12
861.913	25745.12
862.158	25705.12
862.403	25720.12
862.648	25863.12
862.893	26005.12
863.138	25782.12
863.384	25728.12
863.629	25703.12
863.873	25633.12
864.118	25493.12
864.363	25519.12
864.608	25356.12
864.853	25220.12
865.098	25156.12
865.342	25042.12
865.587	24999.12
865.832	24962.12
866.076	24995.12
866.321	24780.12
866.565	24754.12
866.81	24638.12
867.054	24536.12
867.298	24492.12
867.543	24471.12
867.787	24380.12
868.031	24307.12
868.275	24304.12
868.519	24194.12
868.764	24199.12
869.008	24102.12
869.252	24051.12
869.496	23987.12
869.739	23924.12
869.983	23921.12
870.227	23908.12
870.471	23950.12
870.715	24062.12
870.958	24053.12
871.202	24101.12
871.446	24120.12
871.689	24060.12
871.933	24161.12
872.176	24016.12
872.42	24052.12
872.663	23942.12
872.906	23989.12
873.15	23801.12
873.393	23712.12
873.636	23756.12
873.879	23475.12
874.122	23148.12
874.366	23063.12
874.609	22812.12
874.852	22569.12
875.095	22461.12
875.337	22239.12
875.58	22180.12
875.823	22254.12
876.066	22066.12
876.309	22169.12
876.551	21977.12
876.794	21674.12
877.037	21828.12
877.279	21698.12
877.522	21759.12
877.764	21668.12
878.007	21673.12
878.249	21757.12
878.491	21689.12
878.734	21525.12
878.976	21466.12
879.218	21270.12
879.46	21265.12
879.702	21125.12
879.945	20938.12
880.187	20761.12
880.429	20589.12
880.671	20557.12
880.912	20464.12
881.154	20383.12
881.396	20247.12
881.638	20436.12
881.88	20321.12
882.121	20193.12
882.363	20305.12
882.605	20251.12
882.846	20190.12
883.088	20233.12
883.329	20097.12
883.571	20101.12
883.812	20306.12
884.053	20448.12
884.295	20834.12
884.536	21009.12
884.777	20914.12
885.018	20749.12
885.259	20779.12
885.5	20557.12
885.742	20726.12
885.982	20468.12
886.223	20397.12
886.464	20233.12
886.705	20044.12
886.946	19878.12
887.187	19468.12
887.428	19343.12
887.668	19080.12
887.909	18867.12
888.15	18557.12
888.39	18502.12
888.631	18388.12
888.871	18247.12
889.111	18117.12
889.352	18074.12
889.592	17861.12
889.833	17823.12
890.073	17622.12
890.313	17529.12
890.553	17266.12
890.793	17372.12
891.033	17310.12
891.273	17126.12
891.513	17045.12
891.753	17095.12
891.993	16996.12
892.233	17078.12
892.473	17155.12
892.713	17058.12
892.952	17034.12
893.192	17049.12
893.432	17081.12
893.671	17065.12
893.911	16972.12
894.15	16844.12
894.39	16600.12
894.629	16524.12
894.869	16530.12
895.108	16407.12
895.347	16339.12
895.587	16346.12
895.826	16251.12
896.065	16263.12
896.304	16273.12
896.543	16304.12
896.782	16081.12
897.021	16129.12
897.26	16084.12
897.499	16062.12
897.738	16101.12
897.977	15934.12
898.216	15746.12
898.454	15592.12
898.693	15546.12
898.932	15573.12
899.17	15388.12
899.409	15431.12
899.647	15360.12
899.886	15351.12
900.124	15382.12
900.363	15291.12
900.601	15314.12
900.839	15482.12
901.078	15483.12
901.316	15471.12
901.554	15560.12
901.792	15632.12
902.03	15603.12
902.268	15573.12
902.506	15576.12
902.744	15421.12
902.982	15321.12
903.22	15046.12
903.458	14890.12
903.695	14690.12
903.933	14541.12
904.171	14197.12
904.409	14105.12
904.646	13839.12
904.884	13689.12
905.121	13593.12
905.359	13397.12
905.596	13302.12
905.833	13120.12
906.071	13134.12
906.308	13041.12
906.545	12956.12
906.783	12894.12
907.02	12953.12
907.257	12823.12
907.494	12854.12
907.731	12834.12
907.968	12708.12
908.205	12559.12
908.442	12534.12
908.679	12540.12
908.915	12392.12
909.152	12268.12
909.389	12109.12
909.626	12055.12
909.862	12029.12
910.099	12055.12
910.335	11989.12
910.572	11830.12
910.808	11852.12
911.045	11816.12
911.281	11669.12
911.518	11744.12
911.754	11576.12
911.99	11581.12
912.226	11430.12
912.463	11358.12
912.699	11239.12
912.935	11223.12
913.171	11115.12
913.407	10998.12
913.643	10966.12
913.879	10794.12
914.114	10662.12
914.35	10628.12
914.586	10624.12
914.822	10452.12
915.057	10498.12
915.293	10240.12
915.529	10351.12
915.764	10311.12
916	10221.12
916.235	10211.12
916.471	10222.12
916.706	10069.12
916.941	10077.12
917.177	9997.12
917.412	10039.12
917.647	10065.12
917.882	9965.12
918.117	9985.12
918.352	9994.12
918.588	9927.12
918.823	9825.12
919.057	9754.12
919.292	9602.12
919.527	9569.12
919.762	9381.12
919.997	9461.12
920.232	9245.12
920.466	9297.12
920.701	9093.12
920.935	9012.12
921.17	9043.12
921.405	8942.12
921.639	9010.12
921.873	8831.12
922.108	8834.12
922.342	8839.12
922.576	8778.12
922.811	8758.12
923.045	8816.12
923.279	8769.12
923.513	8569.12
923.747	8628.12
923.981	8527.12
924.215	8431.12
924.449	8316.12
924.683	8345.12
924.917	8311.12
925.151	8251.12
925.385	8281.12
925.618	8266.12
925.852	8144.12
926.086	8110.12
926.319	8194.12
926.553	8164.12
926.786	8191.12
927.02	8167.12
927.253	8163.12
927.486	8096.12
927.72	8017.12
927.953	8068.12
928.186	7988.12
928.42	8019.12
928.653	7992.12
928.886	7876.12
929.119	7952.12
929.352	7796.12
929.585	7760.12
929.818	7713.12
930.051	7694.12
930.284	7609.12
930.516	7445.12
930.749	7484.12
930.982	7471.12
931.215	7455.12
931.447	7322.12
931.68	7377.12
931.912	7310.12
932.145	7296.12
932.377	7287.12
932.61	7430.12
932.842	7284.12
933.074	7309.12
933.307	7225.12
933.539	7352.12
933.771	7263.12
934.003	7211.12
934.236	7276.12
934.468	7310.12
934.7	7186.12
934.932	7246.12
935.164	7126.12
935.395	7111.12
935.627	7144.12
935.859	7119.12
936.091	7021.12
936.323	7095.12
936.554	7041.12
936.786	7002.12
937.017	6911.12
937.249	6954.12
937.481	6830.12
937.712	6887.12
937.943	6883.12
938.175	6842.12
938.406	6847.12
938.637	6824.12
938.869	6762.12
939.1	6868.12
939.331	6694.12
939.562	6778.12
939.793	6735.12
940.024	6679.12
940.255	6658.12
940.486	6635.12
940.717	6558.12
940.948	6518.12
941.179	6507.12
941.409	6514.12
941.64	6494.12
941.871	6500.12
942.102	6482.12
942.332	6462.12
942.563	6507.12
942.793	6452.12
943.024	6445.12
943.254	6444.12
943.484	6482.12
943.715	6500.12
943.945	6412.12
944.175	6362.12
944.405	6300.12
944.636	6371.12
944.866	6389.12
945.096	6373.12
945.326	6252.12
945.556	6297.12
945.786	6306.12
946.016	6244.12
946.245	6110.12
946.475	6123.12
946.705	6087.12
946.935	6089.12
947.164	6037.12
947.394	5971.12
947.624	6010.12
947.853	6009.12
948.083	5895.12
948.312	5908.12
948.542	5847.12
948.771	5798.12
949	5830.12
949.23	5830.12
949.459	5776.12
949.688	5881.12
949.917	5834.12
950.146	5812.12
950.375	5797.12
950.604	5710.12
950.833	5810.12
951.062	5783.12
951.291	5719.12
951.52	5685.12
951.749	5652.12
951.978	5613.12
952.206	5556.12
952.435	5593.12
952.664	5565.12
952.892	5645.12
953.121	5552.12
953.349	5524.12
953.578	5527.12
953.806	5491.12
954.035	5417.12
954.263	5472.12
954.491	5369.12
954.719	5398.12
954.948	5321.12
955.176	5310.12
955.404	5208.12
955.632	5271.12
955.86	5237.12
956.088	5187.12
956.316	5199.12
956.544	5193.12
956.772	5160.12
956.999	5066.12
957.227	5164.12
957.455	5071.12
957.683	5024.12
957.91	4974.12
958.138	4946.12
958.365	4986.12
958.593	4892.12
958.82	4864.12
959.048	4922.12
959.275	4863.12
959.502	4846.12
959.73	4803.12
959.957	4837.12
960.184	4829.12
960.411	4744.12
960.638	4803.12
960.865	4744.12
961.092	4835.12
961.319	4708.12
961.546	4813.12
961.773	4813.12
962	4766.12
962.227	4769.12
962.454	4693.12
962.68	4619.12
962.907	4711.12
963.134	4637.12
963.36	4649.12
963.587	4646.12
963.813	4532.12
964.04	4527.12
964.266	4470.12
964.493	4534.12
964.719	4527.12
964.945	4489.12
965.171	4365.12
965.398	4361.12
965.624	4353.12
965.85	4324.12
966.076	4303.12
966.302	4353.12
966.528	4275.12
966.754	4286.12
966.98	4294.12
967.206	4266.12
967.431	4174.12
967.657	4256.12
967.883	4232.12
968.109	4199.12
968.334	4147.12
968.56	4121.12
968.785	4153.12
969.011	4067.12
969.236	4156.12
969.462	4097.12
969.687	4105.12
969.912	4116.12
970.138	4113.12
970.363	4001.12
970.588	4097.12
970.813	3994.12
971.038	3959.12
971.263	3989.12
971.488	3961.12
971.713	4034.12
971.938	3966.12
972.163	3828.12
972.388	3870.12
972.613	3811.12
972.838	3809.12
973.062	3810.12
973.287	3861.12
973.512	3769.12
973.736	3786.12
973.961	3743.12
974.185	3728.12
974.41	3735.12
974.634	3639.12
974.858	3608.12
975.083	3658.12
975.307	3624.12
975.531	3598.12
975.755	3504.12
975.98	3520.12
976.204	3471.12
976.428	3425.12
976.652	3466.12
976.876	3432.12
977.1	3406.12
977.324	3405.12
977.547	3443.12
977.771	3471.12
977.995	3399.12
978.219	3347.12
978.442	3461.12
978.666	3378.12
978.89	3379.12
979.113	3339.12
979.337	3334.12
979.56	3324.12
979.783	3359.12
980.007	3284.12
980.23	3274.12
980.453	3238.12
980.677	3277.12
980.9	3251.12
981.123	3128.12
981.346	3231.12
981.569	3189.12
981.792	3227.12
982.015	3165.12
982.238	3171.12
982.461	3133.12
982.684	3082.12
982.907	3040.12
983.129	2999.12
983.352	3075.12
983.575	3035.12
983.797	3029.12
984.02	3006.12
984.242	2951.12
984.465	2963.12
984.687	3023.12
984.91	2983.12
985.132	2961.12
985.354	2964.12
985.577	2914.12
985.799	2889.12
986.021	2832.12
986.243	2826.12
986.465	2861.12
986.687	2895.12
986.909	2894.12
987.131	2857.12
987.353	2810.12
987.575	2832.12
987.797	2806.12
988.019	2732.12
988.241	2759.12
988.462	2731.12
988.684	2788.12
988.906	2813.12
989.127	2854.12
989.349	2737.12
989.57	2757.12
989.792	2786.12
990.013	2740.12
990.234	2768.12
990.456	2758.12
990.677	2713.12
990.898	2700.12
991.119	2692.12
991.341	2675.12
991.562	2598.12
991.783	2670.12
992.004	2553.12
992.225	2524.12
992.446	2645.12
992.667	2516.12
992.887	2593.12
993.108	2453.12
993.329	2627.12
993.55	2542.12
993.77	2461.12
993.991	2433.12
994.212	2510.12
994.432	2440.12
994.653	2467.12
994.873	2452.12
995.093	2321.12
995.314	2397.12
995.534	2428.12
995.754	2429.12
995.975	2432.12
996.195	2337.12
996.415	2406.12
996.635	2355.12
996.855	2387.12
997.075	2310.12
997.295	2308.12
997.515	2332.12
997.735	2385.12
997.955	2357.12
998.174	2343.12
998.394	2271.12
998.614	2332.12
998.834	2280.12
999.053	2368.12
999.273	2320.12
999.492	2334.12
999.712	2262.12
999.931	2252.12
1000.151	2293.12
1000.37	2244.12
1000.589	2290.12
1000.809	2177.12
1001.028	2323.12
1001.247	2254.12
1001.466	2127.12
1001.685	2267.12
1001.904	2232.12
1002.123	2165.12
1002.342	2184.12
1002.561	2146.12
1002.78	2135.12
1002.999	2228.12
1003.218	2125.12
1003.436	2135.12
1003.655	2138.12
1003.874	2081.12
1004.092	2071.12
1004.311	2150.12
1004.53	2098.12
1004.748	2166.12
1004.966	2068.12
1005.185	2136.12
1005.403	2099.12
1005.622	2070.12
1005.84	2171.12
1006.058	2050.12
1006.276	2061.12
1006.494	2547.12
1006.712	2080.12
1006.931	2135.12
1007.149	2021.12
1007.367	2038.12
1007.584	2078.12
1007.802	2133.12
1008.02	2075.12
1008.238	2143.12
1008.456	2153.12
1008.673	1992.12
1008.891	2124.12
1009.109	2105.12
1009.326	2125.12
1009.544	2208.12
1009.761	2173.12
1009.979	2272.12
1010.196	2284.12
1010.413	2431.12
1010.631	2483.12
1010.848	2511.12
1011.065	2542.12
1011.282	2480.12
1011.5	2447.12
1011.717	2570.12
1011.934	2484.12
1012.151	2501.12
1012.368	2489.12
1012.585	2411.12
1012.801	2461.12
1013.018	2485.12
1013.235	2414.12
1013.452	2437.12
1013.669	2466.12
1013.885	2438.12
1014.102	2464.12
1014.318	2417.12
1014.535	2398.12
1014.751	2409.12
1014.968	2433.12
1015.184	2415.12
1015.401	2334.12
1015.617	2345.12
1015.833	2316.12
1016.049	2281.12
1016.266	2267.12
1016.482	2264.12
1016.698	2209.12
1016.914	2179.12
1017.13	2193.12
1017.346	2166.12
1017.562	2225.12
1017.778	2122.12
1017.993	2097.12
1018.209	2178.12
1018.425	2138.12
1018.641	2102.12
1018.856	2085.12
1019.072	2119.12
1019.288	2148.12
1019.503	2115.12
1019.719	2054.12
1019.934	2021.12
1020.149	2114.12
1020.365	2058.12
1020.58	1988.12
1020.795	2011.12
1021.011	1928.12
1021.226	1908.12
1021.441	1911.12
1021.656	1809.12
1021.871	1732.12
1022.086	1759.12
1022.301	1702.12
1022.516	1700.12
1022.731	1729.12
1022.946	1636.12
1023.16	1598.12
1023.375	1572.12
1023.59	1543.12
1023.804	1515.12
1024.019	1600.12
1024.234	1449.12
1024.448	1493.12
1024.663	1388.12
1024.877	1404.12
1025.092	1417.12
1025.306	1396.12
1025.52	1294.12
1025.734	1349.12
1025.949	1291.12
1026.163	1238.12
1026.377	1200.12
1026.591	1209.12
1026.805	1136.12
1027.019	1133.12
1027.233	1080.12
1027.447	1035.12
1027.661	1130.12
1027.875	1054.12
1028.088	1086.12
1028.302	996.12
1028.516	970.12
1028.73	942.12
1028.943	933.12
1029.157	873.12
1029.37	810.12
1029.584	-5.88
1029.797	-0.88
1030.011	-1.88
1030.224	-2.88
