Data from QEP037381__280__16-16-29-906.txt Node

Date: Fri Dec 16 16:16:29 EST 2022
User: dcclab
Spectrometer: QEP03738
Trigger mode: 4
Integration Time (sec): 1.000000E1
Scans to average: 1
Electric dark correction enabled: true
Nonlinearity correction enabled: false
Boxcar width: 0
XAxis mode: Wavelengths
Number of Pixels in Spectrum: 1044
>>>>>Begin Spectral Data<<<<<
784.041	12.38
784.3	3.38
784.558	-3.62
784.817	-4.62
785.075	110178.38
785.334	18963.38
785.592	8874.38
785.851	6118.38
786.109	4657.38
786.368	3604.38
786.626	2896.38
786.884	2369.38
787.143	2024.38
787.401	1677.38
787.659	1501.38
787.917	1279.38
788.175	1155.38
788.433	1035.38
788.691	911.38
788.949	855.38
789.207	815.38
789.465	699.38
789.723	682.38
789.98	628.38
790.238	648.38
790.496	623.38
790.753	584.38
791.011	635.38
791.268	564.38
791.526	561.38
791.783	557.38
792.041	541.38
792.298	459.38
792.556	522.38
792.813	513.38
793.07	484.38
793.327	468.38
793.584	555.38
793.841	469.38
794.099	501.38
794.356	534.38
794.613	463.38
794.869	482.38
795.126	432.38
795.383	434.38
795.64	453.38
795.897	398.38
796.153	458.38
796.41	443.38
796.667	428.38
796.923	442.38
797.18	441.38
797.436	485.38
797.693	438.38
797.949	497.38
798.206	526.38
798.462	435.38
798.718	487.38
798.974	471.38
799.231	525.38
799.487	501.38
799.743	504.38
799.999	539.38
800.255	541.38
800.511	533.38
800.767	573.38
801.023	563.38
801.279	609.38
801.534	653.38
801.79	700.38
802.046	744.38
802.302	901.38
802.557	1045.38
802.813	1270.38
803.068	1600.38
803.324	2217.38
803.579	3073.38
803.835	4197.38
804.09	5873.38
804.345	7641.38
804.601	9706.38
804.856	11639.38
805.111	13514.38
805.366	14912.38
805.621	15954.38
805.876	16724.38
806.131	17147.38
806.386	17467.38
806.641	17771.38
806.896	18023.38
807.151	18438.38
807.406	18649.38
807.661	18967.38
807.915	19349.38
808.17	19622.38
808.425	19874.38
808.679	20021.38
808.934	20320.38
809.188	20440.38
809.443	20608.38
809.697	20866.38
809.951	21127.38
810.206	21241.38
810.46	21467.38
810.714	21680.38
810.968	21932.38
811.223	21965.38
811.477	22190.38
811.731	22417.38
811.985	22407.38
812.239	22565.38
812.493	22695.38
812.747	22818.38
813	22888.38
813.254	22961.38
813.508	23178.38
813.762	23146.38
814.015	23238.38
814.269	23528.38
814.522	23582.38
814.776	23955.38
815.03	24198.38
815.283	24492.38
815.536	25056.38
815.79	25280.38
816.043	25733.38
816.296	25998.38
816.55	26386.38
816.803	26622.38
817.056	27013.38
817.309	27289.38
817.562	27478.38
817.815	27909.38
818.068	28046.38
818.321	28257.38
818.574	28496.38
818.827	28896.38
819.079	29198.38
819.332	29833.38
819.585	30186.38
819.838	30514.38
820.09	30599.38
820.343	30843.38
820.595	30944.38
820.848	31165.38
821.1	31302.38
821.353	31310.38
821.605	31454.38
821.857	31387.38
822.11	31164.38
822.362	31092.38
822.614	31096.38
822.866	31085.38
823.118	31036.38
823.37	31251.38
823.622	31201.38
823.874	31235.38
824.126	31612.38
824.378	31533.38
824.63	31501.38
824.882	31662.38
825.134	31587.38
825.385	31609.38
825.637	31500.38
825.888	31477.38
826.14	31304.38
826.392	31181.38
826.643	31180.38
826.895	30800.38
827.146	30927.38
827.397	30740.38
827.649	30783.38
827.9	30748.38
828.151	30778.38
828.402	30895.38
828.653	30895.38
828.905	31208.38
829.156	31061.38
829.407	31070.38
829.658	31169.38
829.909	31230.38
830.159	31120.38
830.41	31100.38
830.661	30836.38
830.912	30726.38
831.162	30533.38
831.413	30464.38
831.664	30627.38
831.914	30468.38
832.165	30364.38
832.415	30304.38
832.666	30411.38
832.916	30468.38
833.167	30433.38
833.417	30340.38
833.667	30244.38
833.917	30115.38
834.168	30112.38
834.418	29935.38
834.668	29989.38
834.918	29712.38
835.168	29622.38
835.418	29512.38
835.668	29442.38
835.918	29259.38
836.167	29284.38
836.417	29172.38
836.667	29141.38
836.917	29153.38
837.166	29152.38
837.416	29193.38
837.666	29150.38
837.915	29077.38
838.165	29018.38
838.414	29067.38
838.663	28905.38
838.913	28836.38
839.162	28837.38
839.411	28827.38
839.661	28668.38
839.91	28543.38
840.159	28528.38
840.408	28470.38
840.657	28610.38
840.906	28604.38
841.155	28505.38
841.404	28567.38
841.653	28548.38
841.902	28551.38
842.15	28595.38
842.399	28660.38
842.648	28672.38
842.897	28525.38
843.145	28345.38
843.394	28180.38
843.642	27975.38
843.891	27988.38
844.139	27867.38
844.388	27495.38
844.636	27454.38
844.884	27415.38
845.133	27371.38
845.381	27375.38
845.629	27361.38
845.877	27288.38
846.125	27402.38
846.373	27229.38
846.621	27209.38
846.869	27129.38
847.117	26933.38
847.365	26834.38
847.613	26630.38
847.861	26475.38
848.108	26723.38
848.356	26467.38
848.604	26376.38
848.851	26372.38
849.099	26451.38
849.346	26491.38
849.594	26669.38
849.841	26812.38
850.089	26605.38
850.336	26706.38
850.583	26668.38
850.831	26505.38
851.078	26504.38
851.325	26360.38
851.572	26646.38
851.819	26357.38
852.066	25829.38
852.313	25437.38
852.56	25164.38
852.807	25140.38
853.054	25205.38
853.301	25044.38
853.548	25097.38
853.794	25311.38
854.041	25179.38
854.288	25355.38
854.534	25491.38
854.781	25393.38
855.028	25366.38
855.274	25490.38
855.52	25419.38
855.767	25286.38
856.013	25154.38
856.26	25534.38
856.506	24912.38
856.752	24931.38
856.998	24965.38
857.244	24893.38
857.49	25122.38
857.736	25063.38
857.982	25190.38
858.228	25093.38
858.474	24828.38
858.72	24656.38
858.966	24451.38
859.212	24241.38
859.458	24004.38
859.703	23726.38
859.949	23386.38
860.195	23402.38
860.44	23356.38
860.686	23272.38
860.931	23273.38
861.177	23022.38
861.422	22861.38
861.667	22794.38
861.913	22796.38
862.158	22806.38
862.403	22804.38
862.648	22975.38
862.893	22919.38
863.138	22920.38
863.384	22901.38
863.629	22837.38
863.873	22885.38
864.118	22672.38
864.363	22518.38
864.608	22623.38
864.853	22581.38
865.098	22441.38
865.342	22236.38
865.587	22158.38
865.832	22234.38
866.076	22080.38
866.321	21981.38
866.565	21957.38
866.81	21813.38
867.054	21870.38
867.298	21748.38
867.543	21644.38
867.787	21703.38
868.031	21619.38
868.275	21628.38
868.519	21523.38
868.764	21502.38
869.008	21400.38
869.252	21434.38
869.496	21381.38
869.739	21434.38
869.983	21307.38
870.227	21385.38
870.471	21305.38
870.715	21347.38
870.958	21590.38
871.202	21491.38
871.446	21520.38
871.689	21506.38
871.933	21549.38
872.176	21435.38
872.42	21309.38
872.663	21347.38
872.906	21322.38
873.15	21287.38
873.393	21219.38
873.636	21106.38
873.879	21006.38
874.122	20680.38
874.366	20555.38
874.609	20258.38
874.852	20269.38
875.095	20042.38
875.337	19973.38
875.58	19909.38
875.823	19838.38
876.066	19796.38
876.309	19808.38
876.551	19623.38
876.794	19547.38
877.037	19489.38
877.279	19408.38
877.522	19402.38
877.764	19403.38
878.007	19328.38
878.249	19354.38
878.491	19198.38
878.734	19270.38
878.976	19122.38
879.218	19044.38
879.46	18886.38
879.702	18829.38
879.945	18613.38
880.187	18406.38
880.429	18426.38
880.671	18223.38
880.912	18219.38
881.154	18116.38
881.396	18072.38
881.638	18140.38
881.88	18153.38
882.121	18042.38
882.363	18013.38
882.605	17970.38
882.846	18062.38
883.088	18000.38
883.329	17885.38
883.571	17950.38
883.812	18113.38
884.053	18444.38
884.295	18684.38
884.536	18924.38
884.777	18874.38
885.018	18807.38
885.259	18738.38
885.5	18486.38
885.742	18631.38
885.982	18328.38
886.223	18231.38
886.464	18207.38
886.705	17968.38
886.946	17808.38
887.187	17440.38
887.428	17340.38
887.668	16932.38
887.909	16720.38
888.15	16583.38
888.39	16513.38
888.631	16384.38
888.871	16334.38
889.111	16111.38
889.352	16082.38
889.592	15924.38
889.833	15790.38
890.073	15767.38
890.313	15640.38
890.553	15539.38
890.793	15427.38
891.033	15352.38
891.273	15294.38
891.513	15195.38
891.753	15245.38
891.993	15218.38
892.233	15206.38
892.473	15349.38
892.713	15279.38
892.952	15237.38
893.192	15221.38
893.432	15151.38
893.671	15303.38
893.911	15100.38
894.15	15013.38
894.39	14950.38
894.629	14860.38
894.869	14805.38
895.108	14800.38
895.347	14538.38
895.587	14634.38
895.826	14536.38
896.065	14489.38
896.304	14511.38
896.543	14559.38
896.782	14336.38
897.021	14428.38
897.26	14395.38
897.499	14453.38
897.738	14403.38
897.977	14316.38
898.216	14102.38
898.454	13992.38
898.693	13899.38
898.932	13979.38
899.17	13833.38
899.409	13829.38
899.647	13698.38
899.886	13737.38
900.124	13845.38
900.363	13788.38
900.601	13774.38
900.839	13779.38
901.078	13890.38
901.316	13939.38
901.554	14005.38
901.792	14083.38
902.03	14023.38
902.268	14020.38
902.506	14033.38
902.744	13917.38
902.982	13886.38
903.22	13559.38
903.458	13372.38
903.695	13233.38
903.933	13040.38
904.171	12773.38
904.409	12585.38
904.646	12413.38
904.884	12316.38
905.121	12155.38
905.359	12030.38
905.596	11875.38
905.833	11748.38
906.071	11718.38
906.308	11690.38
906.545	11690.38
906.783	11668.38
907.02	11558.38
907.257	11466.38
907.494	11428.38
907.731	11462.38
907.968	11401.38
908.205	11333.38
908.442	11286.38
908.679	11148.38
908.915	11096.38
909.152	10954.38
909.389	10871.38
909.626	10813.38
909.862	10641.38
910.099	10665.38
910.335	10676.38
910.572	10576.38
910.808	10521.38
911.045	10505.38
911.281	10452.38
911.518	10506.38
911.754	10381.38
911.99	10402.38
912.226	10210.38
912.463	10169.38
912.699	10051.38
912.935	9967.38
913.171	9981.38
913.407	9872.38
913.643	9786.38
913.879	9737.38
914.114	9661.38
914.35	9488.38
914.586	9430.38
914.822	9404.38
915.057	9395.38
915.293	9178.38
915.529	9130.38
915.764	9184.38
916	9189.38
916.235	9157.38
916.471	9113.38
916.706	9061.38
916.941	9078.38
917.177	9069.38
917.412	9021.38
917.647	9046.38
917.882	8957.38
918.117	8987.38
918.352	8941.38
918.588	9005.38
918.823	8875.38
919.057	8724.38
919.292	8617.38
919.527	8668.38
919.762	8552.38
919.997	8475.38
920.232	8406.38
920.466	8314.38
920.701	8187.38
920.935	8242.38
921.17	8148.38
921.405	8070.38
921.639	8089.38
921.873	8049.38
922.108	7943.38
922.342	7982.38
922.576	7902.38
922.811	7863.38
923.045	7905.38
923.279	7894.38
923.513	7694.38
923.747	7817.38
923.981	7679.38
924.215	7602.38
924.449	7641.38
924.683	7506.38
924.917	7416.38
925.151	7432.38
925.385	7448.38
925.618	7470.38
925.852	7360.38
926.086	7311.38
926.319	7393.38
926.553	7330.38
926.786	7338.38
927.02	7276.38
927.253	7365.38
927.486	7307.38
927.72	7252.38
927.953	7357.38
928.186	7149.38
928.42	7257.38
928.653	7144.38
928.886	7139.38
929.119	7128.38
929.352	7123.38
929.585	7021.38
929.818	6984.38
930.051	6921.38
930.284	6898.38
930.516	6787.38
930.749	6726.38
930.982	6752.38
931.215	6701.38
931.447	6641.38
931.68	6627.38
931.912	6611.38
932.145	6598.38
932.377	6661.38
932.61	6655.38
932.842	6577.38
933.074	6605.38
933.307	6532.38
933.539	6669.38
933.771	6581.38
934.003	6541.38
934.236	6633.38
934.468	6649.38
934.7	6574.38
934.932	6536.38
935.164	6444.38
935.395	6467.38
935.627	6483.38
935.859	6430.38
936.091	6365.38
936.323	6419.38
936.554	6489.38
936.786	6342.38
937.017	6199.38
937.249	6291.38
937.481	6234.38
937.712	6270.38
937.943	6265.38
938.175	6163.38
938.406	6183.38
938.637	6270.38
938.869	6150.38
939.1	6158.38
939.331	6117.38
939.562	6129.38
939.793	6090.38
940.024	6122.38
940.255	6091.38
940.486	6028.38
940.717	5969.38
940.948	6005.38
941.179	5946.38
941.409	5917.38
941.64	5878.38
941.871	5902.38
942.102	5885.38
942.332	5892.38
942.563	5918.38
942.793	5906.38
943.024	5788.38
943.254	5865.38
943.484	5907.38
943.715	5950.38
943.945	5877.38
944.175	5755.38
944.405	5771.38
944.636	5760.38
944.866	5821.38
945.096	5803.38
945.326	5744.38
945.556	5739.38
945.786	5788.38
946.016	5670.38
946.245	5605.38
946.475	5591.38
946.705	5581.38
946.935	5519.38
947.164	5498.38
947.394	5411.38
947.624	5451.38
947.853	5459.38
948.083	5369.38
948.312	5376.38
948.542	5286.38
948.771	5280.38
949	5227.38
949.23	5217.38
949.459	5315.38
949.688	5331.38
949.917	5283.38
950.146	5260.38
950.375	5318.38
950.604	5229.38
950.833	5283.38
951.062	5228.38
951.291	5205.38
951.52	5181.38
951.749	5177.38
951.978	5155.38
952.206	5122.38
952.435	5108.38
952.664	5183.38
952.892	5086.38
953.121	5015.38
953.349	5041.38
953.578	5051.38
953.806	5034.38
954.035	4956.38
954.263	4945.38
954.491	4881.38
954.719	4946.38
954.948	4915.38
955.176	4824.38
955.404	4748.38
955.632	4835.38
955.86	4831.38
956.088	4800.38
956.316	4755.38
956.544	4782.38
956.772	4699.38
956.999	4681.38
957.227	4688.38
957.455	4613.38
957.683	4592.38
957.91	4568.38
958.138	4529.38
958.365	4532.38
958.593	4504.38
958.82	4428.38
959.048	4485.38
959.275	4424.38
959.502	4433.38
959.73	4358.38
959.957	4488.38
960.184	4437.38
960.411	4365.38
960.638	4452.38
960.865	4386.38
961.092	4424.38
961.319	4278.38
961.546	4394.38
961.773	4404.38
962	4310.38
962.227	4340.38
962.454	4290.38
962.68	4307.38
962.907	4276.38
963.134	4256.38
963.36	4220.38
963.587	4222.38
963.813	4148.38
964.04	4200.38
964.266	4091.38
964.493	4162.38
964.719	4097.38
964.945	4113.38
965.171	3982.38
965.398	4069.38
965.624	4056.38
965.85	3961.38
966.076	3951.38
966.302	3960.38
966.528	3897.38
966.754	3945.38
966.98	3941.38
967.206	3922.38
967.431	3805.38
967.657	3930.38
967.883	3887.38
968.109	3871.38
968.334	3830.38
968.56	3819.38
968.785	3801.38
969.011	3774.38
969.236	3831.38
969.462	3768.38
969.687	3734.38
969.912	3810.38
970.138	3784.38
970.363	3739.38
970.588	3695.38
970.813	3649.38
971.038	3601.38
971.263	3684.38
971.488	3663.38
971.713	3701.38
971.938	3644.38
972.163	3564.38
972.388	3593.38
972.613	3564.38
972.838	3565.38
973.062	3554.38
973.287	3515.38
973.512	3434.38
973.736	3466.38
973.961	3475.38
974.185	3433.38
974.41	3463.38
974.634	3366.38
974.858	3348.38
975.083	3368.38
975.307	3356.38
975.531	3300.38
975.755	3226.38
975.98	3243.38
976.204	3211.38
976.428	3197.38
976.652	3167.38
976.876	3139.38
977.1	3174.38
977.324	3190.38
977.547	3136.38
977.771	3168.38
977.995	3153.38
978.219	3055.38
978.442	3223.38
978.666	3123.38
978.89	3105.38
979.113	3096.38
979.337	3098.38
979.56	3041.38
979.783	3128.38
980.007	3007.38
980.23	3049.38
980.453	2972.38
980.677	3006.38
980.9	2982.38
981.123	2889.38
981.346	3004.38
981.569	2967.38
981.792	2955.38
982.015	2911.38
982.238	2878.38
982.461	2934.38
982.684	2861.38
982.907	2856.38
983.129	2833.38
983.352	2818.38
983.575	2839.38
983.797	2804.38
984.02	2786.38
984.242	2753.38
984.465	2729.38
984.687	2772.38
984.91	2773.38
985.132	2776.38
985.354	2780.38
985.577	2731.38
985.799	2701.38
986.021	2652.38
986.243	2647.38
986.465	2661.38
986.687	2722.38
986.909	2735.38
987.131	2661.38
987.353	2605.38
987.575	2621.38
987.797	2615.38
988.019	2561.38
988.241	2606.38
988.462	2531.38
988.684	2602.38
988.906	2623.38
989.127	2639.38
989.349	2506.38
989.57	2557.38
989.792	2585.38
990.013	2565.38
990.234	2570.38
990.456	2596.38
990.677	2594.38
990.898	2545.38
991.119	2479.38
991.341	2523.38
991.562	2451.38
991.783	2497.38
992.004	2453.38
992.225	2398.38
992.446	2441.38
992.667	2328.38
992.887	2410.38
993.108	2317.38
993.329	2437.38
993.55	2371.38
993.77	2336.38
993.991	2272.38
994.212	2312.38
994.432	2285.38
994.653	2324.38
994.873	2317.38
995.093	2174.38
995.314	2205.38
995.534	2290.38
995.754	2301.38
995.975	2287.38
996.195	2194.38
996.415	2241.38
996.635	2239.38
996.855	2248.38
997.075	2190.38
997.295	2218.38
997.515	2190.38
997.735	2235.38
997.955	2174.38
998.174	2196.38
998.394	2175.38
998.614	2220.38
998.834	2170.38
999.053	2231.38
999.273	2178.38
999.492	2209.38
999.712	2164.38
999.931	2082.38
1000.151	2156.38
1000.37	2135.38
1000.589	2181.38
1000.809	2062.38
1001.028	2185.38
1001.247	2140.38
1001.466	2006.38
1001.685	2141.38
1001.904	2074.38
1002.123	2055.38
1002.342	2036.38
1002.561	2015.38
1002.78	2038.38
1002.999	2101.38
1003.218	2020.38
1003.436	1986.38
1003.655	2023.38
1003.874	1949.38
1004.092	1996.38
1004.311	2024.38
1004.53	1970.38
1004.748	2072.38
1004.966	1962.38
1005.185	2020.38
1005.403	2001.38
1005.622	1990.38
1005.84	2033.38
1006.058	1959.38
1006.276	1981.38
1006.494	2447.38
1006.712	1951.38
1006.931	2004.38
1007.149	1944.38
1007.367	1942.38
1007.584	2009.38
1007.802	1992.38
1008.02	1969.38
1008.238	2080.38
1008.456	2053.38
1008.673	1940.38
1008.891	2040.38
1009.109	2023.38
1009.326	2093.38
1009.544	2153.38
1009.761	2058.38
1009.979	2219.38
1010.196	2230.38
1010.413	2375.38
1010.631	2405.38
1010.848	2473.38
1011.065	2469.38
1011.282	2468.38
1011.5	2392.38
1011.717	2507.38
1011.934	2398.38
1012.151	2441.38
1012.368	2400.38
1012.585	2339.38
1012.801	2400.38
1013.018	2389.38
1013.235	2350.38
1013.452	2378.38
1013.669	2383.38
1013.885	2342.38
1014.102	2412.38
1014.318	2402.38
1014.535	2335.38
1014.751	2382.38
1014.968	2351.38
1015.184	2385.38
1015.401	2265.38
1015.617	2331.38
1015.833	2243.38
1016.049	2251.38
1016.266	2217.38
1016.482	2183.38
1016.698	2137.38
1016.914	2181.38
1017.13	2108.38
1017.346	2109.38
1017.562	2175.38
1017.778	2089.38
1017.993	2028.38
1018.209	2111.38
1018.425	2107.38
1018.641	2078.38
1018.856	2061.38
1019.072	2077.38
1019.288	2118.38
1019.503	2043.38
1019.719	2003.38
1019.934	1962.38
1020.149	2031.38
1020.365	2000.38
1020.58	1913.38
1020.795	1958.38
1021.011	1877.38
1021.226	1818.38
1021.441	1852.38
1021.656	1753.38
1021.871	1657.38
1022.086	1662.38
1022.301	1631.38
1022.516	1652.38
1022.731	1667.38
1022.946	1611.38
1023.16	1580.38
1023.375	1511.38
1023.59	1498.38
1023.804	1482.38
1024.019	1538.38
1024.234	1392.38
1024.448	1428.38
1024.663	1362.38
1024.877	1352.38
1025.092	1368.38
1025.306	1365.38
1025.52	1250.38
1025.734	1314.38
1025.949	1231.38
1026.163	1212.38
1026.377	1144.38
1026.591	1189.38
1026.805	1106.38
1027.019	1088.38
1027.233	1050.38
1027.447	978.38
1027.661	1083.38
1027.875	1029.38
1028.088	1012.38
1028.302	942.38
1028.516	924.38
1028.73	903.38
1028.943	902.38
1029.157	839.38
1029.37	814.38
1029.584	-1.62
1029.797	-1.62
1030.011	0.38
1030.224	-4.62
