Data from QEP037381__321__16-23-19-912.txt Node

Date: Fri Dec 16 16:23:19 EST 2022
User: dcclab
Spectrometer: QEP03738
Trigger mode: 4
Integration Time (sec): 1.000000E1
Scans to average: 1
Electric dark correction enabled: true
Nonlinearity correction enabled: false
Boxcar width: 0
XAxis mode: Wavelengths
Number of Pixels in Spectrum: 1044
>>>>>Begin Spectral Data<<<<<
784.041	9.88
784.3	-1.12
784.558	-6.12
784.817	-3.12
785.075	112185.88
785.334	19334.88
785.592	9053.88
785.851	6254.88
786.109	4669.88
786.368	3628.88
786.626	2944.88
786.884	2484.88
787.143	2052.88
787.401	1704.88
787.659	1541.88
787.917	1305.88
788.175	1184.88
788.433	1037.88
788.691	951.88
788.949	880.88
789.207	832.88
789.465	717.88
789.723	682.88
789.98	650.88
790.238	685.88
790.496	624.88
790.753	596.88
791.011	656.88
791.268	576.88
791.526	558.88
791.783	553.88
792.041	542.88
792.298	473.88
792.556	519.88
792.813	502.88
793.07	485.88
793.327	469.88
793.584	548.88
793.841	483.88
794.099	505.88
794.356	531.88
794.613	453.88
794.869	473.88
795.126	463.88
795.383	440.88
795.64	461.88
795.897	412.88
796.153	459.88
796.41	458.88
796.667	433.88
796.923	445.88
797.18	447.88
797.436	464.88
797.693	428.88
797.949	494.88
798.206	523.88
798.462	427.88
798.718	486.88
798.974	458.88
799.231	513.88
799.487	498.88
799.743	505.88
799.999	552.88
800.255	552.88
800.511	523.88
800.767	561.88
801.023	562.88
801.279	599.88
801.534	645.88
801.79	685.88
802.046	728.88
802.302	876.88
802.557	1022.88
802.813	1268.88
803.068	1592.88
803.324	2184.88
803.579	3006.88
803.835	4124.88
804.09	5679.88
804.345	7349.88
804.601	9327.88
804.856	11193.88
805.111	12927.88
805.366	14272.88
805.621	15247.88
805.876	15900.88
806.131	16305.88
806.386	16726.88
806.641	16979.88
806.896	17263.88
807.151	17569.88
807.406	17824.88
807.661	18290.88
807.915	18415.88
808.17	18722.88
808.425	19005.88
808.679	19138.88
808.934	19436.88
809.188	19506.88
809.443	19777.88
809.697	20051.88
809.951	20165.88
810.206	20295.88
810.46	20488.88
810.714	20643.88
810.968	20937.88
811.223	20931.88
811.477	21237.88
811.731	21250.88
811.985	21493.88
812.239	21513.88
812.493	21510.88
812.747	21766.88
813	21712.88
813.254	21892.88
813.508	22040.88
813.762	22095.88
814.015	22224.88
814.269	22239.88
814.522	22538.88
814.776	22803.88
815.03	23013.88
815.283	23376.88
815.536	23671.88
815.79	24054.88
816.043	24444.88
816.296	24701.88
816.55	25079.88
816.803	25317.88
817.056	25647.88
817.309	25975.88
817.562	26212.88
817.815	26393.88
818.068	26578.88
818.321	26842.88
818.574	27136.88
818.827	27421.88
819.079	27753.88
819.332	28397.88
819.585	28587.88
819.838	28903.88
820.09	29145.88
820.343	29344.88
820.595	29421.88
820.848	29740.88
821.1	29775.88
821.353	29792.88
821.605	29786.88
821.857	29795.88
822.11	29644.88
822.362	29504.88
822.614	29522.88
822.866	29555.88
823.118	29565.88
823.37	29670.88
823.622	29797.88
823.874	29850.88
824.126	29887.88
824.378	29861.88
824.63	29995.88
824.882	29986.88
825.134	30006.88
825.385	29851.88
825.637	29782.88
825.888	29767.88
826.14	29758.88
826.392	29617.88
826.643	29389.88
826.895	29480.88
827.146	29268.88
827.397	29207.88
827.649	29208.88
827.9	29130.88
828.151	29096.88
828.402	29179.88
828.653	29392.88
828.905	29545.88
829.156	29508.88
829.407	29486.88
829.658	29469.88
829.909	29675.88
830.159	29668.88
830.41	29572.88
830.661	29320.88
830.912	29048.88
831.162	29071.88
831.413	28837.88
831.664	29027.88
831.914	28916.88
832.165	28791.88
832.415	28865.88
832.666	28766.88
832.916	28785.88
833.167	28747.88
833.417	28847.88
833.667	28757.88
833.917	28632.88
834.168	28504.88
834.418	28621.88
834.668	28437.88
834.918	28225.88
835.168	28095.88
835.418	27994.88
835.668	27904.88
835.918	27794.88
836.167	27883.88
836.417	27694.88
836.667	27688.88
836.917	27707.88
837.166	27615.88
837.416	27666.88
837.666	27653.88
837.915	27618.88
838.165	27522.88
838.414	27439.88
838.663	27474.88
838.913	27455.88
839.162	27329.88
839.411	27418.88
839.661	27210.88
839.91	27117.88
840.159	27089.88
840.408	27190.88
840.657	27115.88
840.906	27170.88
841.155	27177.88
841.404	27058.88
841.653	27121.88
841.902	27199.88
842.15	27188.88
842.399	27170.88
842.648	27276.88
842.897	27001.88
843.145	26895.88
843.394	26772.88
843.642	26523.88
843.891	26472.88
844.139	26271.88
844.388	26129.88
844.636	26028.88
844.884	26073.88
845.133	26012.88
845.381	25976.88
845.629	26065.88
845.877	25973.88
846.125	25991.88
846.373	25949.88
846.621	25741.88
846.869	25659.88
847.117	25451.88
847.365	25323.88
847.613	25257.88
847.861	25105.88
848.108	25219.88
848.356	25038.88
848.604	25038.88
848.851	24980.88
849.099	25165.88
849.346	25060.88
849.594	25246.88
849.841	25387.88
850.089	25326.88
850.336	25261.88
850.583	25372.88
850.831	25219.88
851.078	25094.88
851.325	25129.88
851.572	25095.88
851.819	25075.88
852.066	24528.88
852.313	24190.88
852.56	23937.88
852.807	23855.88
853.054	23737.88
853.301	23865.88
853.548	23932.88
853.794	24061.88
854.041	24076.88
854.288	24147.88
854.534	24390.88
854.781	24191.88
855.028	24230.88
855.274	24228.88
855.52	24024.88
855.767	23954.88
856.013	24004.88
856.26	24402.88
856.506	23799.88
856.752	23836.88
856.998	23816.88
857.244	23937.88
857.49	23910.88
857.736	23975.88
857.982	24033.88
858.228	23872.88
858.474	23626.88
858.72	23471.88
858.966	23270.88
859.212	23104.88
859.458	22855.88
859.703	22569.88
859.949	22320.88
860.195	22328.88
860.44	22153.88
860.686	22154.88
860.931	22138.88
861.177	21885.88
861.422	21908.88
861.667	21653.88
861.913	21822.88
862.158	21704.88
862.403	21819.88
862.648	21810.88
862.893	21781.88
863.138	21750.88
863.384	21648.88
863.629	21787.88
863.873	21663.88
864.118	21733.88
864.363	21485.88
864.608	21512.88
864.853	21379.88
865.098	21197.88
865.342	21140.88
865.587	21121.88
865.832	21073.88
866.076	21003.88
866.321	20909.88
866.565	20851.88
866.81	20756.88
867.054	20816.88
867.298	20712.88
867.543	20614.88
867.787	20648.88
868.031	20648.88
868.275	20423.88
868.519	20504.88
868.764	20443.88
869.008	20434.88
869.252	20500.88
869.496	20344.88
869.739	20280.88
869.983	20293.88
870.227	20317.88
870.471	20340.88
870.715	20425.88
870.958	20394.88
871.202	20494.88
871.446	20526.88
871.689	20517.88
871.933	20545.88
872.176	20439.88
872.42	20381.88
872.663	20356.88
872.906	20363.88
873.15	20341.88
873.393	20310.88
873.636	20330.88
873.879	20033.88
874.122	19920.88
874.366	19663.88
874.609	19447.88
874.852	19188.88
875.095	19145.88
875.337	19071.88
875.58	18777.88
875.823	18977.88
876.066	18804.88
876.309	18718.88
876.551	18646.88
876.794	18545.88
877.037	18508.88
877.279	18416.88
877.522	18372.88
877.764	18391.88
878.007	18298.88
878.249	18284.88
878.491	18311.88
878.734	18301.88
878.976	18188.88
879.218	18082.88
879.46	17949.88
879.702	17822.88
879.945	17735.88
880.187	17557.88
880.429	17527.88
880.671	17252.88
880.912	17296.88
881.154	17244.88
881.396	17202.88
881.638	17291.88
881.88	17073.88
882.121	17051.88
882.363	17110.88
882.605	17111.88
882.846	17034.88
883.088	17041.88
883.329	17132.88
883.571	17096.88
883.812	17294.88
884.053	17701.88
884.295	18026.88
884.536	18244.88
884.777	18199.88
885.018	18025.88
885.259	17919.88
885.5	17772.88
885.742	17914.88
885.982	17711.88
886.223	17501.88
886.464	17368.88
886.705	17179.88
886.946	16948.88
887.187	16595.88
887.428	16536.88
887.668	16251.88
887.909	15878.88
888.15	15865.88
888.39	15696.88
888.631	15537.88
888.871	15478.88
889.111	15382.88
889.352	15250.88
889.592	15030.88
889.833	14897.88
890.073	14870.88
890.313	14784.88
890.553	14633.88
890.793	14526.88
891.033	14594.88
891.273	14413.88
891.513	14403.88
891.753	14338.88
891.993	14417.88
892.233	14377.88
892.473	14461.88
892.713	14453.88
892.952	14380.88
893.192	14437.88
893.432	14338.88
893.671	14466.88
893.911	14274.88
894.15	14224.88
894.39	14024.88
894.629	14072.88
894.869	14129.88
895.108	13882.88
895.347	13810.88
895.587	13801.88
895.826	13820.88
896.065	13772.88
896.304	13740.88
896.543	13755.88
896.782	13608.88
897.021	13700.88
897.26	13658.88
897.499	13648.88
897.738	13644.88
897.977	13477.88
898.216	13302.88
898.454	13247.88
898.693	13140.88
898.932	13128.88
899.17	13048.88
899.409	13058.88
899.647	13036.88
899.886	12995.88
900.124	13060.88
900.363	13064.88
900.601	13137.88
900.839	13150.88
901.078	13192.88
901.316	13194.88
901.554	13207.88
901.792	13291.88
902.03	13333.88
902.268	13313.88
902.506	13260.88
902.744	13205.88
902.982	13137.88
903.22	12829.88
903.458	12675.88
903.695	12567.88
903.933	12356.88
904.171	12067.88
904.409	11895.88
904.646	11760.88
904.884	11561.88
905.121	11542.88
905.359	11341.88
905.596	11276.88
905.833	11093.88
906.071	11051.88
906.308	11037.88
906.545	11020.88
906.783	10946.88
907.02	10928.88
907.257	10846.88
907.494	10905.88
907.731	10841.88
907.968	10750.88
908.205	10719.88
908.442	10631.88
908.679	10577.88
908.915	10481.88
909.152	10371.88
909.389	10292.88
909.626	10235.88
909.862	10083.88
910.099	10093.88
910.335	10118.88
910.572	9921.88
910.808	10027.88
911.045	9981.88
911.281	9830.88
911.518	9912.88
911.754	9867.88
911.99	9755.88
912.226	9615.88
912.463	9596.88
912.699	9556.88
912.935	9440.88
913.171	9434.88
913.407	9347.88
913.643	9231.88
913.879	9172.88
914.114	9107.88
914.35	8980.88
914.586	8951.88
914.822	8827.88
915.057	8855.88
915.293	8721.88
915.529	8608.88
915.764	8751.88
916	8687.88
916.235	8608.88
916.471	8637.88
916.706	8495.88
916.941	8563.88
917.177	8569.88
917.412	8542.88
917.647	8598.88
917.882	8488.88
918.117	8532.88
918.352	8450.88
918.588	8470.88
918.823	8290.88
919.057	8277.88
919.292	8124.88
919.527	8164.88
919.762	8055.88
919.997	8052.88
920.232	7901.88
920.466	7880.88
920.701	7745.88
920.935	7776.88
921.17	7633.88
921.405	7630.88
921.639	7649.88
921.873	7531.88
922.108	7527.88
922.342	7496.88
922.576	7407.88
922.811	7466.88
923.045	7413.88
923.279	7466.88
923.513	7236.88
923.747	7304.88
923.981	7287.88
924.215	7197.88
924.449	7166.88
924.683	7073.88
924.917	7066.88
925.151	7050.88
925.385	7055.88
925.618	7011.88
925.852	7018.88
926.086	6955.88
926.319	7004.88
926.553	6969.88
926.786	6865.88
927.02	6911.88
927.253	6918.88
927.486	6896.88
927.72	6840.88
927.953	6843.88
928.186	6824.88
928.42	6855.88
928.653	6711.88
928.886	6713.88
929.119	6752.88
929.352	6682.88
929.585	6641.88
929.818	6533.88
930.051	6545.88
930.284	6494.88
930.516	6401.88
930.749	6337.88
930.982	6402.88
931.215	6357.88
931.447	6252.88
931.68	6249.88
931.912	6253.88
932.145	6230.88
932.377	6266.88
932.61	6308.88
932.842	6118.88
933.074	6288.88
933.307	6132.88
933.539	6236.88
933.771	6253.88
934.003	6133.88
934.236	6249.88
934.468	6201.88
934.7	6087.88
934.932	6230.88
935.164	6123.88
935.395	6087.88
935.627	6154.88
935.859	6102.88
936.091	6029.88
936.323	6081.88
936.554	6084.88
936.786	6044.88
937.017	5888.88
937.249	5954.88
937.481	5853.88
937.712	5909.88
937.943	5854.88
938.175	5888.88
938.406	5826.88
938.637	5826.88
938.869	5787.88
939.1	5832.88
939.331	5796.88
939.562	5800.88
939.793	5808.88
940.024	5732.88
940.255	5783.88
940.486	5727.88
940.717	5681.88
940.948	5644.88
941.179	5569.88
941.409	5588.88
941.64	5572.88
941.871	5601.88
942.102	5508.88
942.332	5546.88
942.563	5577.88
942.793	5546.88
943.024	5475.88
943.254	5540.88
943.484	5562.88
943.715	5609.88
943.945	5555.88
944.175	5465.88
944.405	5484.88
944.636	5442.88
944.866	5436.88
945.096	5524.88
945.326	5394.88
945.556	5489.88
945.786	5422.88
946.016	5348.88
946.245	5299.88
946.475	5284.88
946.705	5261.88
946.935	5198.88
947.164	5238.88
947.394	5098.88
947.624	5152.88
947.853	5142.88
948.083	5134.88
948.312	5087.88
948.542	5017.88
948.771	4950.88
949	5007.88
949.23	5004.88
949.459	4981.88
949.688	5037.88
949.917	5002.88
950.146	4990.88
950.375	5047.88
950.604	4893.88
950.833	4929.88
951.062	4971.88
951.291	4891.88
951.52	4842.88
951.749	4885.88
951.978	4824.88
952.206	4804.88
952.435	4820.88
952.664	4871.88
952.892	4835.88
953.121	4810.88
953.349	4778.88
953.578	4774.88
953.806	4727.88
954.035	4667.88
954.263	4653.88
954.491	4629.88
954.719	4626.88
954.948	4574.88
955.176	4576.88
955.404	4526.88
955.632	4586.88
955.86	4551.88
956.088	4484.88
956.316	4466.88
956.544	4482.88
956.772	4432.88
956.999	4401.88
957.227	4469.88
957.455	4352.88
957.683	4348.88
957.91	4322.88
958.138	4251.88
958.365	4221.88
958.593	4230.88
958.82	4196.88
959.048	4260.88
959.275	4235.88
959.502	4218.88
959.73	4171.88
959.957	4206.88
960.184	4239.88
960.411	4142.88
960.638	4171.88
960.865	4129.88
961.092	4193.88
961.319	4042.88
961.546	4171.88
961.773	4158.88
962	4128.88
962.227	4141.88
962.454	4079.88
962.68	4088.88
962.907	4087.88
963.134	3991.88
963.36	3997.88
963.587	4050.88
963.813	3937.88
964.04	3937.88
964.266	3873.88
964.493	3974.88
964.719	3893.88
964.945	3920.88
965.171	3768.88
965.398	3862.88
965.624	3852.88
965.85	3769.88
966.076	3761.88
966.302	3799.88
966.528	3741.88
966.754	3743.88
966.98	3696.88
967.206	3705.88
967.431	3668.88
967.657	3738.88
967.883	3661.88
968.109	3632.88
968.334	3594.88
968.56	3589.88
968.785	3625.88
969.011	3572.88
969.236	3592.88
969.462	3539.88
969.687	3526.88
969.912	3620.88
970.138	3583.88
970.363	3492.88
970.588	3536.88
970.813	3489.88
971.038	3469.88
971.263	3500.88
971.488	3468.88
971.713	3470.88
971.938	3452.88
972.163	3320.88
972.388	3380.88
972.613	3358.88
972.838	3392.88
973.062	3357.88
973.287	3318.88
973.512	3292.88
973.736	3296.88
973.961	3280.88
974.185	3245.88
974.41	3285.88
974.634	3189.88
974.858	3174.88
975.083	3244.88
975.307	3209.88
975.531	3130.88
975.755	3114.88
975.98	3109.88
976.204	3054.88
976.428	3026.88
976.652	3026.88
976.876	3029.88
977.1	3007.88
977.324	2952.88
977.547	3040.88
977.771	2993.88
977.995	2986.88
978.219	2928.88
978.442	3036.88
978.666	2982.88
978.89	2971.88
979.113	2920.88
979.337	2917.88
979.56	2891.88
979.783	2958.88
980.007	2854.88
980.23	2893.88
980.453	2867.88
980.677	2901.88
980.9	2850.88
981.123	2732.88
981.346	2852.88
981.569	2803.88
981.792	2841.88
982.015	2777.88
982.238	2728.88
982.461	2712.88
982.684	2702.88
982.907	2697.88
983.129	2682.88
983.352	2705.88
983.575	2663.88
983.797	2662.88
984.02	2613.88
984.242	2602.88
984.465	2591.88
984.687	2639.88
984.91	2635.88
985.132	2609.88
985.354	2651.88
985.577	2581.88
985.799	2565.88
986.021	2508.88
986.243	2544.88
986.465	2568.88
986.687	2575.88
986.909	2596.88
987.131	2563.88
987.353	2452.88
987.575	2537.88
987.797	2476.88
988.019	2419.88
988.241	2480.88
988.462	2417.88
988.684	2451.88
988.906	2527.88
989.127	2543.88
989.349	2401.88
989.57	2421.88
989.792	2471.88
990.013	2444.88
990.234	2469.88
990.456	2474.88
990.677	2438.88
990.898	2377.88
991.119	2393.88
991.341	2401.88
991.562	2321.88
991.783	2408.88
992.004	2314.88
992.225	2252.88
992.446	2308.88
992.667	2236.88
992.887	2305.88
993.108	2171.88
993.329	2336.88
993.55	2303.88
993.77	2195.88
993.991	2205.88
994.212	2229.88
994.432	2206.88
994.653	2205.88
994.873	2168.88
995.093	2078.88
995.314	2121.88
995.534	2208.88
995.754	2192.88
995.975	2263.88
996.195	2087.88
996.415	2160.88
996.635	2141.88
996.855	2152.88
997.075	2149.88
997.295	2109.88
997.515	2078.88
997.735	2182.88
997.955	2103.88
998.174	2105.88
998.394	2055.88
998.614	2143.88
998.834	2065.88
999.053	2124.88
999.273	2100.88
999.492	2112.88
999.712	2075.88
999.931	2032.88
1000.151	2087.88
1000.37	2050.88
1000.589	2092.88
1000.809	1987.88
1001.028	2109.88
1001.247	2052.88
1001.466	1887.88
1001.685	2073.88
1001.904	1998.88
1002.123	1979.88
1002.342	1984.88
1002.561	1937.88
1002.78	1921.88
1002.999	2017.88
1003.218	1915.88
1003.436	1891.88
1003.655	1963.88
1003.874	1920.88
1004.092	1921.88
1004.311	1945.88
1004.53	1875.88
1004.748	1966.88
1004.966	1890.88
1005.185	1938.88
1005.403	1912.88
1005.622	1921.88
1005.84	1980.88
1006.058	1879.88
1006.276	1905.88
1006.494	2392.88
1006.712	1879.88
1006.931	1951.88
1007.149	1861.88
1007.367	1887.88
1007.584	1907.88
1007.802	1949.88
1008.02	1909.88
1008.238	2010.88
1008.456	2001.88
1008.673	1906.88
1008.891	2023.88
1009.109	1969.88
1009.326	2009.88
1009.544	2128.88
1009.761	2060.88
1009.979	2122.88
1010.196	2197.88
1010.413	2326.88
1010.631	2426.88
1010.848	2479.88
1011.065	2496.88
1011.282	2467.88
1011.5	2377.88
1011.717	2483.88
1011.934	2424.88
1012.151	2459.88
1012.368	2429.88
1012.585	2336.88
1012.801	2445.88
1013.018	2395.88
1013.235	2345.88
1013.452	2365.88
1013.669	2383.88
1013.885	2362.88
1014.102	2423.88
1014.318	2397.88
1014.535	2354.88
1014.751	2369.88
1014.968	2420.88
1015.184	2392.88
1015.401	2302.88
1015.617	2281.88
1015.833	2267.88
1016.049	2226.88
1016.266	2199.88
1016.482	2198.88
1016.698	2148.88
1016.914	2164.88
1017.13	2076.88
1017.346	2095.88
1017.562	2152.88
1017.778	2064.88
1017.993	2016.88
1018.209	2096.88
1018.425	2081.88
1018.641	2012.88
1018.856	2025.88
1019.072	2069.88
1019.288	2082.88
1019.503	2032.88
1019.719	1935.88
1019.934	1997.88
1020.149	2029.88
1020.365	1950.88
1020.58	1901.88
1020.795	1925.88
1021.011	1845.88
1021.226	1810.88
1021.441	1811.88
1021.656	1724.88
1021.871	1659.88
1022.086	1673.88
1022.301	1639.88
1022.516	1612.88
1022.731	1634.88
1022.946	1562.88
1023.16	1541.88
1023.375	1491.88
1023.59	1471.88
1023.804	1433.88
1024.019	1504.88
1024.234	1376.88
1024.448	1385.88
1024.663	1287.88
1024.877	1305.88
1025.092	1336.88
1025.306	1326.88
1025.52	1193.88
1025.734	1290.88
1025.949	1203.88
1026.163	1158.88
1026.377	1089.88
1026.591	1155.88
1026.805	1072.88
1027.019	1055.88
1027.233	1012.88
1027.447	969.88
1027.661	1053.88
1027.875	1005.88
1028.088	980.88
1028.302	900.88
1028.516	887.88
1028.73	881.88
1028.943	867.88
1029.157	810.88
1029.37	768.88
1029.584	-1.12
1029.797	0.88
1030.011	-1.12
1030.224	1.88
