Data from QEP037381__326__16-24-09-912.txt Node

Date: Fri Dec 16 16:24:09 EST 2022
User: dcclab
Spectrometer: QEP03738
Trigger mode: 4
Integration Time (sec): 1.000000E1
Scans to average: 1
Electric dark correction enabled: true
Nonlinearity correction enabled: false
Boxcar width: 0
XAxis mode: Wavelengths
Number of Pixels in Spectrum: 1044
>>>>>Begin Spectral Data<<<<<
784.041	11.62
784.3	1.62
784.558	-2.38
784.817	-6.38
785.075	108251.62
785.334	19061.62
785.592	9082.62
785.851	6250.62
786.109	4705.62
786.368	3664.62
786.626	2975.62
786.884	2431.62
787.143	2035.62
787.401	1687.62
787.659	1538.62
787.917	1308.62
788.175	1186.62
788.433	1033.62
788.691	927.62
788.949	868.62
789.207	808.62
789.465	721.62
789.723	685.62
789.98	623.62
790.238	648.62
790.496	626.62
790.753	585.62
791.011	642.62
791.268	581.62
791.526	545.62
791.783	554.62
792.041	551.62
792.298	463.62
792.556	530.62
792.813	503.62
793.07	490.62
793.327	482.62
793.584	546.62
793.841	483.62
794.099	495.62
794.356	552.62
794.613	447.62
794.869	480.62
795.126	447.62
795.383	447.62
795.64	451.62
795.897	409.62
796.153	456.62
796.41	440.62
796.667	435.62
796.923	448.62
797.18	443.62
797.436	477.62
797.693	428.62
797.949	484.62
798.206	519.62
798.462	427.62
798.718	489.62
798.974	470.62
799.231	500.62
799.487	506.62
799.743	507.62
799.999	538.62
800.255	528.62
800.511	530.62
800.767	562.62
801.023	562.62
801.279	595.62
801.534	652.62
801.79	669.62
802.046	742.62
802.302	868.62
802.557	1009.62
802.813	1244.62
803.068	1549.62
803.324	2168.62
803.579	2964.62
803.835	4089.62
804.09	5629.62
804.345	7406.62
804.601	9376.62
804.856	11340.62
805.111	13132.62
805.366	14413.62
805.621	15590.62
805.876	16044.62
806.131	16639.62
806.386	16974.62
806.641	17244.62
806.896	17467.62
807.151	17896.62
807.406	18147.62
807.661	18443.62
807.915	18706.62
808.17	19046.62
808.425	19230.62
808.679	19358.62
808.934	19598.62
809.188	19772.62
809.443	20054.62
809.697	20318.62
809.951	20503.62
810.206	20485.62
810.46	20750.62
810.714	20996.62
810.968	21168.62
811.223	21313.62
811.477	21478.62
811.731	21737.62
811.985	21754.62
812.239	21861.62
812.493	21963.62
812.747	22031.62
813	22083.62
813.254	22210.62
813.508	22327.62
813.762	22367.62
814.015	22571.62
814.269	22735.62
814.522	22843.62
814.776	23120.62
815.03	23290.62
815.283	23653.62
815.536	24203.62
815.79	24450.62
816.043	24819.62
816.296	25101.62
816.55	25452.62
816.803	25686.62
817.056	26078.62
817.309	26256.62
817.562	26497.62
817.815	26810.62
818.068	26967.62
818.321	27186.62
818.574	27530.62
818.827	27968.62
819.079	28261.62
819.332	28761.62
819.585	29062.62
819.838	29293.62
820.09	29499.62
820.343	29940.62
820.595	29800.62
820.848	30059.62
821.1	30252.62
821.353	30213.62
821.605	30345.62
821.857	30339.62
822.11	30085.62
822.362	30012.62
822.614	29954.62
822.866	29971.62
823.118	29918.62
823.37	29965.62
823.622	30261.62
823.874	30208.62
824.126	30392.62
824.378	30320.62
824.63	30403.62
824.882	30358.62
825.134	30634.62
825.385	30474.62
825.637	30415.62
825.888	30297.62
826.14	30226.62
826.392	30181.62
826.643	29862.62
826.895	29988.62
827.146	29624.62
827.397	29572.62
827.649	29682.62
827.9	29629.62
828.151	29756.62
828.402	29808.62
828.653	29921.62
828.905	30012.62
829.156	29924.62
829.407	29921.62
829.658	29938.62
829.909	30138.62
830.159	30034.62
830.41	29812.62
830.661	29653.62
830.912	29565.62
831.162	29378.62
831.413	29448.62
831.664	29349.62
831.914	29323.62
832.165	29397.62
832.415	29255.62
832.666	29277.62
832.916	29358.62
833.167	29203.62
833.417	29295.62
833.667	29182.62
833.917	29034.62
834.168	29082.62
834.418	28863.62
834.668	28832.62
834.918	28733.62
835.168	28642.62
835.418	28483.62
835.668	28338.62
835.918	28275.62
836.167	28227.62
836.417	28173.62
836.667	28081.62
836.917	28134.62
837.166	28204.62
837.416	28151.62
837.666	28088.62
837.915	28050.62
838.165	28069.62
838.414	27916.62
838.663	27850.62
838.913	27907.62
839.162	27714.62
839.411	27864.62
839.661	27713.62
839.91	27597.62
840.159	27464.62
840.408	27475.62
840.657	27601.62
840.906	27613.62
841.155	27502.62
841.404	27440.62
841.653	27432.62
841.902	27512.62
842.15	27721.62
842.399	27687.62
842.648	27566.62
842.897	27441.62
843.145	27328.62
843.394	27026.62
843.642	26922.62
843.891	26924.62
844.139	26632.62
844.388	26564.62
844.636	26433.62
844.884	26474.62
845.133	26343.62
845.381	26365.62
845.629	26347.62
845.877	26390.62
846.125	26244.62
846.373	26217.62
846.621	26127.62
846.869	26177.62
847.117	25888.62
847.365	25690.62
847.613	25702.62
847.861	25600.62
848.108	25652.62
848.356	25515.62
848.604	25472.62
848.851	25474.62
849.099	25490.62
849.346	25496.62
849.594	25779.62
849.841	25738.62
850.089	25760.62
850.336	25666.62
850.583	25743.62
850.831	25523.62
851.078	25414.62
851.325	25531.62
851.572	25537.62
851.819	25457.62
852.066	24971.62
852.313	24538.62
852.56	24383.62
852.807	24375.62
853.054	24215.62
853.301	24194.62
853.548	24172.62
853.794	24297.62
854.041	24315.62
854.288	24381.62
854.534	24773.62
854.781	24647.62
855.028	24603.62
855.274	24494.62
855.52	24413.62
855.767	24338.62
856.013	24403.62
856.26	24473.62
856.506	24052.62
856.752	24102.62
856.998	24018.62
857.244	24095.62
857.49	24258.62
857.736	24201.62
857.982	24344.62
858.228	24243.62
858.474	23998.62
858.72	23837.62
858.966	23650.62
859.212	23490.62
859.458	23188.62
859.703	22917.62
859.949	22599.62
860.195	22611.62
860.44	22435.62
860.686	22392.62
860.931	22415.62
861.177	22241.62
861.422	22084.62
861.667	22015.62
861.913	22046.62
862.158	22122.62
862.403	22132.62
862.648	22194.62
862.893	22294.62
863.138	22135.62
863.384	22045.62
863.629	22006.62
863.873	22041.62
864.118	22036.62
864.363	21916.62
864.608	21775.62
864.853	21752.62
865.098	21566.62
865.342	21506.62
865.587	21420.62
865.832	21441.62
866.076	21285.62
866.321	21318.62
866.565	21313.62
866.81	21053.62
867.054	21187.62
867.298	20938.62
867.543	20913.62
867.787	20888.62
868.031	20838.62
868.275	20802.62
868.519	20786.62
868.764	20746.62
869.008	20778.62
869.252	20746.62
869.496	20568.62
869.739	20645.62
869.983	20735.62
870.227	20653.62
870.471	20637.62
870.715	20720.62
870.958	20721.62
871.202	20755.62
871.446	20776.62
871.689	20843.62
871.933	20760.62
872.176	20720.62
872.42	20794.62
872.663	20547.62
872.906	20725.62
873.15	20561.62
873.393	20569.62
873.636	20445.62
873.879	20268.62
874.122	20011.62
874.366	19806.62
874.609	19714.62
874.852	19549.62
875.095	19349.62
875.337	19346.62
875.58	19251.62
875.823	19197.62
876.066	19088.62
876.309	19063.62
876.551	18913.62
876.794	18694.62
877.037	18821.62
877.279	18762.62
877.522	18776.62
877.764	18626.62
878.007	18681.62
878.249	18608.62
878.491	18503.62
878.734	18639.62
878.976	18583.62
879.218	18402.62
879.46	18330.62
879.702	18152.62
879.945	18065.62
880.187	17902.62
880.429	17784.62
880.671	17642.62
880.912	17611.62
881.154	17624.62
881.396	17430.62
881.638	17557.62
881.88	17551.62
882.121	17385.62
882.363	17554.62
882.605	17434.62
882.846	17367.62
883.088	17400.62
883.329	17423.62
883.571	17349.62
883.812	17574.62
884.053	17868.62
884.295	18218.62
884.536	18428.62
884.777	18312.62
885.018	18142.62
885.259	17964.62
885.5	17962.62
885.742	18106.62
885.982	17778.62
886.223	17725.62
886.464	17582.62
886.705	17274.62
886.946	17172.62
887.187	16895.62
887.428	16771.62
887.668	16510.62
887.909	16198.62
888.15	16051.62
888.39	16021.62
888.631	15896.62
888.871	15791.62
889.111	15667.62
889.352	15582.62
889.592	15357.62
889.833	15312.62
890.073	15138.62
890.313	15030.62
890.553	14961.62
890.793	14958.62
891.033	14904.62
891.273	14789.62
891.513	14767.62
891.753	14720.62
891.993	14666.62
892.233	14644.62
892.473	14864.62
892.713	14835.62
892.952	14770.62
893.192	14733.62
893.432	14713.62
893.671	14712.62
893.911	14588.62
894.15	14600.62
894.39	14459.62
894.629	14373.62
894.869	14283.62
895.108	14166.62
895.347	14191.62
895.587	14199.62
895.826	14085.62
896.065	14046.62
896.304	14095.62
896.543	14043.62
896.782	13875.62
897.021	13952.62
897.26	13939.62
897.499	13971.62
897.738	13840.62
897.977	13747.62
898.216	13706.62
898.454	13577.62
898.693	13516.62
898.932	13450.62
899.17	13337.62
899.409	13375.62
899.647	13262.62
899.886	13252.62
900.124	13297.62
900.363	13347.62
900.601	13357.62
900.839	13341.62
901.078	13304.62
901.316	13555.62
901.554	13489.62
901.792	13583.62
902.03	13506.62
902.268	13455.62
902.506	13512.62
902.744	13353.62
902.982	13394.62
903.22	13161.62
903.458	12941.62
903.695	12843.62
903.933	12574.62
904.171	12322.62
904.409	12165.62
904.646	12022.62
904.884	11832.62
905.121	11745.62
905.359	11534.62
905.596	11521.62
905.833	11423.62
906.071	11304.62
906.308	11342.62
906.545	11262.62
906.783	11242.62
907.02	11170.62
907.257	11122.62
907.494	11072.62
907.731	11153.62
907.968	11054.62
908.205	10981.62
908.442	10894.62
908.679	10864.62
908.915	10761.62
909.152	10656.62
909.389	10515.62
909.626	10480.62
909.862	10403.62
910.099	10384.62
910.335	10314.62
910.572	10130.62
910.808	10134.62
911.045	10264.62
911.281	10135.62
911.518	10189.62
911.754	10053.62
911.99	10036.62
912.226	9915.62
912.463	9838.62
912.699	9830.62
912.935	9732.62
913.171	9687.62
913.407	9535.62
913.643	9496.62
913.879	9395.62
914.114	9351.62
914.35	9231.62
914.586	9142.62
914.822	9082.62
915.057	9149.62
915.293	8825.62
915.529	8863.62
915.764	8993.62
916	8842.62
916.235	8873.62
916.471	8850.62
916.706	8772.62
916.941	8735.62
917.177	8768.62
917.412	8793.62
917.647	8741.62
917.882	8673.62
918.117	8718.62
918.352	8677.62
918.588	8745.62
918.823	8578.62
919.057	8494.62
919.292	8306.62
919.527	8462.62
919.762	8282.62
919.997	8228.62
920.232	8120.62
920.466	8042.62
920.701	7922.62
920.935	7963.62
921.17	7919.62
921.405	7774.62
921.639	7779.62
921.873	7750.62
922.108	7708.62
922.342	7744.62
922.576	7581.62
922.811	7623.62
923.045	7638.62
923.279	7599.62
923.513	7480.62
923.747	7539.62
923.981	7414.62
924.215	7316.62
924.449	7316.62
924.683	7268.62
924.917	7237.62
925.151	7174.62
925.385	7282.62
925.618	7194.62
925.852	7163.62
926.086	7075.62
926.319	7155.62
926.553	7164.62
926.786	7118.62
927.02	7111.62
927.253	7138.62
927.486	7103.62
927.72	7014.62
927.953	7093.62
928.186	7016.62
928.42	7046.62
928.653	6992.62
928.886	6898.62
929.119	6877.62
929.352	6844.62
929.585	6781.62
929.818	6734.62
930.051	6752.62
930.284	6659.62
930.516	6545.62
930.749	6545.62
930.982	6572.62
931.215	6546.62
931.447	6403.62
931.68	6385.62
931.912	6425.62
932.145	6403.62
932.377	6389.62
932.61	6498.62
932.842	6341.62
933.074	6385.62
933.307	6357.62
933.539	6468.62
933.771	6395.62
934.003	6325.62
934.236	6378.62
934.468	6420.62
934.7	6293.62
934.932	6327.62
935.164	6220.62
935.395	6205.62
935.627	6235.62
935.859	6277.62
936.091	6120.62
936.323	6205.62
936.554	6135.62
936.786	6115.62
937.017	6046.62
937.249	6082.62
937.481	5978.62
937.712	6062.62
937.943	6015.62
938.175	6009.62
938.406	5982.62
938.637	6052.62
938.869	5955.62
939.1	5986.62
939.331	5964.62
939.562	5899.62
939.793	5883.62
940.024	5884.62
940.255	5896.62
940.486	5821.62
940.717	5737.62
940.948	5755.62
941.179	5721.62
941.409	5785.62
941.64	5741.62
941.871	5708.62
942.102	5713.62
942.332	5693.62
942.563	5743.62
942.793	5714.62
943.024	5647.62
943.254	5708.62
943.484	5684.62
943.715	5705.62
943.945	5676.62
944.175	5582.62
944.405	5619.62
944.636	5619.62
944.866	5621.62
945.096	5607.62
945.326	5511.62
945.556	5618.62
945.786	5576.62
946.016	5455.62
946.245	5417.62
946.475	5397.62
946.705	5377.62
946.935	5329.62
947.164	5366.62
947.394	5252.62
947.624	5269.62
947.853	5271.62
948.083	5238.62
948.312	5203.62
948.542	5153.62
948.771	5133.62
949	5161.62
949.23	5076.62
949.459	5109.62
949.688	5216.62
949.917	5104.62
950.146	5189.62
950.375	5142.62
950.604	5024.62
950.833	5089.62
951.062	5060.62
951.291	5025.62
951.52	4972.62
951.749	5001.62
951.978	4952.62
952.206	4934.62
952.435	4986.62
952.664	4956.62
952.892	4979.62
953.121	4822.62
953.349	4928.62
953.578	4900.62
953.806	4847.62
954.035	4778.62
954.263	4789.62
954.491	4732.62
954.719	4730.62
954.948	4674.62
955.176	4709.62
955.404	4622.62
955.632	4679.62
955.86	4677.62
956.088	4634.62
956.316	4667.62
956.544	4623.62
956.772	4545.62
956.999	4553.62
957.227	4564.62
957.455	4440.62
957.683	4498.62
957.91	4433.62
958.138	4416.62
958.365	4405.62
958.593	4371.62
958.82	4348.62
959.048	4352.62
959.275	4328.62
959.502	4271.62
959.73	4271.62
959.957	4318.62
960.184	4291.62
960.411	4244.62
960.638	4284.62
960.865	4227.62
961.092	4253.62
961.319	4178.62
961.546	4267.62
961.773	4244.62
962	4192.62
962.227	4240.62
962.454	4207.62
962.68	4205.62
962.907	4159.62
963.134	4096.62
963.36	4143.62
963.587	4109.62
963.813	4030.62
964.04	4060.62
964.266	3961.62
964.493	4077.62
964.719	4007.62
964.945	4002.62
965.171	3862.62
965.398	3906.62
965.624	3953.62
965.85	3864.62
966.076	3835.62
966.302	3902.62
966.528	3838.62
966.754	3827.62
966.98	3769.62
967.206	3809.62
967.431	3695.62
967.657	3782.62
967.883	3725.62
968.109	3720.62
968.334	3662.62
968.56	3709.62
968.785	3702.62
969.011	3625.62
969.236	3703.62
969.462	3680.62
969.687	3638.62
969.912	3681.62
970.138	3692.62
970.363	3559.62
970.588	3583.62
970.813	3550.62
971.038	3522.62
971.263	3512.62
971.488	3587.62
971.713	3583.62
971.938	3526.62
972.163	3425.62
972.388	3466.62
972.613	3423.62
972.838	3447.62
973.062	3421.62
973.287	3392.62
973.512	3363.62
973.736	3401.62
973.961	3354.62
974.185	3352.62
974.41	3342.62
974.634	3203.62
974.858	3223.62
975.083	3238.62
975.307	3257.62
975.531	3214.62
975.755	3188.62
975.98	3159.62
976.204	3103.62
976.428	3124.62
976.652	3071.62
976.876	3087.62
977.1	3125.62
977.324	3043.62
977.547	3081.62
977.771	3075.62
977.995	3067.62
978.219	2994.62
978.442	3119.62
978.666	3027.62
978.89	3008.62
979.113	2998.62
979.337	2974.62
979.56	2948.62
979.783	3045.62
980.007	2893.62
980.23	2962.62
980.453	2925.62
980.677	2898.62
980.9	2950.62
981.123	2846.62
981.346	2904.62
981.569	2866.62
981.792	2900.62
982.015	2840.62
982.238	2806.62
982.461	2819.62
982.684	2782.62
982.907	2776.62
983.129	2734.62
983.352	2788.62
983.575	2734.62
983.797	2730.62
984.02	2687.62
984.242	2689.62
984.465	2682.62
984.687	2717.62
984.91	2718.62
985.132	2681.62
985.354	2678.62
985.577	2667.62
985.799	2630.62
986.021	2550.62
986.243	2604.62
986.465	2595.62
986.687	2628.62
986.909	2624.62
987.131	2598.62
987.353	2555.62
987.575	2571.62
987.797	2513.62
988.019	2443.62
988.241	2529.62
988.462	2456.62
988.684	2490.62
988.906	2541.62
989.127	2561.62
989.349	2435.62
989.57	2473.62
989.792	2502.62
990.013	2510.62
990.234	2548.62
990.456	2546.62
990.677	2509.62
990.898	2446.62
991.119	2445.62
991.341	2442.62
991.562	2344.62
991.783	2418.62
992.004	2359.62
992.225	2319.62
992.446	2365.62
992.667	2301.62
992.887	2344.62
993.108	2242.62
993.329	2325.62
993.55	2303.62
993.77	2215.62
993.991	2251.62
994.212	2268.62
994.432	2228.62
994.653	2243.62
994.873	2247.62
995.093	2167.62
995.314	2177.62
995.534	2225.62
995.754	2227.62
995.975	2235.62
996.195	2117.62
996.415	2156.62
996.635	2156.62
996.855	2153.62
997.075	2141.62
997.295	2146.62
997.515	2154.62
997.735	2203.62
997.955	2126.62
998.174	2154.62
998.394	2125.62
998.614	2143.62
998.834	2093.62
999.053	2169.62
999.273	2111.62
999.492	2169.62
999.712	2078.62
999.931	2036.62
1000.151	2089.62
1000.37	2050.62
1000.589	2108.62
1000.809	2038.62
1001.028	2139.62
1001.247	2080.62
1001.466	1992.62
1001.685	2093.62
1001.904	2045.62
1002.123	1994.62
1002.342	2037.62
1002.561	1988.62
1002.78	2016.62
1002.999	2029.62
1003.218	1981.62
1003.436	1941.62
1003.655	1978.62
1003.874	1942.62
1004.092	1947.62
1004.311	1994.62
1004.53	1939.62
1004.748	1990.62
1004.966	1907.62
1005.185	1975.62
1005.403	1972.62
1005.622	1958.62
1005.84	2007.62
1006.058	1888.62
1006.276	1918.62
1006.494	2402.62
1006.712	1893.62
1006.931	1979.62
1007.149	1868.62
1007.367	1883.62
1007.584	1912.62
1007.802	1997.62
1008.02	1922.62
1008.238	1995.62
1008.456	1983.62
1008.673	1856.62
1008.891	2002.62
1009.109	1947.62
1009.326	1997.62
1009.544	2116.62
1009.761	2013.62
1009.979	2143.62
1010.196	2150.62
1010.413	2266.62
1010.631	2327.62
1010.848	2401.62
1011.065	2408.62
1011.282	2344.62
1011.5	2280.62
1011.717	2392.62
1011.934	2300.62
1012.151	2320.62
1012.368	2336.62
1012.585	2266.62
1012.801	2338.62
1013.018	2295.62
1013.235	2260.62
1013.452	2287.62
1013.669	2300.62
1013.885	2297.62
1014.102	2344.62
1014.318	2326.62
1014.535	2253.62
1014.751	2281.62
1014.968	2290.62
1015.184	2307.62
1015.401	2240.62
1015.617	2238.62
1015.833	2191.62
1016.049	2166.62
1016.266	2140.62
1016.482	2148.62
1016.698	2052.62
1016.914	2109.62
1017.13	2056.62
1017.346	2009.62
1017.562	2094.62
1017.778	1985.62
1017.993	1976.62
1018.209	2012.62
1018.425	2002.62
1018.641	1976.62
1018.856	1968.62
1019.072	1998.62
1019.288	2044.62
1019.503	1986.62
1019.719	1878.62
1019.934	1893.62
1020.149	1996.62
1020.365	1887.62
1020.58	1851.62
1020.795	1894.62
1021.011	1790.62
1021.226	1764.62
1021.441	1806.62
1021.656	1685.62
1021.871	1605.62
1022.086	1600.62
1022.301	1594.62
1022.516	1559.62
1022.731	1603.62
1022.946	1509.62
1023.16	1506.62
1023.375	1457.62
1023.59	1477.62
1023.804	1408.62
1024.019	1481.62
1024.234	1377.62
1024.448	1371.62
1024.663	1295.62
1024.877	1315.62
1025.092	1319.62
1025.306	1333.62
1025.52	1194.62
1025.734	1301.62
1025.949	1187.62
1026.163	1152.62
1026.377	1101.62
1026.591	1147.62
1026.805	1062.62
1027.019	1055.62
1027.233	1005.62
1027.447	948.62
1027.661	1065.62
1027.875	991.62
1028.088	995.62
1028.302	933.62
1028.516	906.62
1028.73	875.62
1028.943	861.62
1029.157	803.62
1029.37	762.62
1029.584	-1.38
1029.797	-0.38
1030.011	0.62
1030.224	-3.38
