Data from QEP037381__360__16-29-49-920.txt Node

Date: Fri Dec 16 16:29:49 EST 2022
User: dcclab
Spectrometer: QEP03738
Trigger mode: 4
Integration Time (sec): 1.000000E1
Scans to average: 1
Electric dark correction enabled: true
Nonlinearity correction enabled: false
Boxcar width: 0
XAxis mode: Wavelengths
Number of Pixels in Spectrum: 1044
>>>>>Begin Spectral Data<<<<<
784.041	13.25
784.3	0.25
784.558	-2.75
784.817	-7.75
785.075	114491.25
785.334	19871.25
785.592	9285.25
785.851	6445.25
786.109	4874.25
786.368	3789.25
786.626	3036.25
786.884	2546.25
787.143	2183.25
787.401	1781.25
787.659	1629.25
787.917	1377.25
788.175	1239.25
788.433	1121.25
788.691	993.25
788.949	932.25
789.207	892.25
789.465	780.25
789.723	748.25
789.98	705.25
790.238	737.25
790.496	691.25
790.753	664.25
791.011	711.25
791.268	645.25
791.526	612.25
791.783	630.25
792.041	620.25
792.298	516.25
792.556	592.25
792.813	576.25
793.07	549.25
793.327	547.25
793.584	617.25
793.841	544.25
794.099	574.25
794.356	626.25
794.613	544.25
794.869	572.25
795.126	519.25
795.383	504.25
795.64	519.25
795.897	483.25
796.153	546.25
796.41	525.25
796.667	540.25
796.923	536.25
797.18	539.25
797.436	560.25
797.693	510.25
797.949	590.25
798.206	615.25
798.462	544.25
798.718	607.25
798.974	590.25
799.231	642.25
799.487	660.25
799.743	657.25
799.999	708.25
800.255	726.25
800.511	713.25
800.767	775.25
801.023	798.25
801.279	860.25
801.534	944.25
801.79	1052.25
802.046	1156.25
802.302	1442.25
802.557	1730.25
802.813	2251.25
803.068	2932.25
803.324	4269.25
803.579	5946.25
803.835	8385.25
804.09	11656.25
804.345	15495.25
804.601	19659.25
804.856	23832.25
805.111	27676.25
805.366	30630.25
805.621	32893.25
805.876	34540.25
806.131	35508.25
806.386	36385.25
806.641	37055.25
806.896	37714.25
807.151	38243.25
807.406	39087.25
807.661	39756.25
807.915	40592.25
808.17	41341.25
808.425	41953.25
808.679	42272.25
808.934	42774.25
809.188	43228.25
809.443	43645.25
809.697	44232.25
809.951	44573.25
810.206	45141.25
810.46	45561.25
810.714	45819.25
810.968	46419.25
811.223	46889.25
811.477	47298.25
811.731	47777.25
811.985	47937.25
812.239	48349.25
812.493	48661.25
812.747	48779.25
813	48843.25
813.254	49249.25
813.508	49469.25
813.762	49815.25
814.015	50003.25
814.269	50497.25
814.522	50812.25
814.776	51616.25
815.03	52467.25
815.283	53130.25
815.536	54006.25
815.79	55027.25
816.043	55876.25
816.296	56418.25
816.55	57365.25
816.803	58024.25
817.056	58885.25
817.309	59350.25
817.562	60086.25
817.815	60687.25
818.068	61321.25
818.321	62026.25
818.574	62713.25
818.827	63637.25
819.079	64294.25
819.332	65611.25
819.585	66344.25
819.838	67146.25
820.09	67485.25
820.343	68325.25
820.595	68812.25
820.848	69113.25
821.1	69518.25
821.353	69615.25
821.605	69692.25
821.857	69492.25
822.11	69424.25
822.362	69314.25
822.614	69235.25
822.866	69349.25
823.118	69231.25
823.37	69346.25
823.622	69499.25
823.874	69884.25
824.126	70030.25
824.378	70592.25
824.63	70356.25
824.882	70729.25
825.134	71001.25
825.385	70786.25
825.637	70654.25
825.888	70509.25
826.14	70581.25
826.392	70383.25
826.643	69973.25
826.895	69671.25
827.146	69795.25
827.397	69504.25
827.649	69589.25
827.9	69318.25
828.151	69670.25
828.402	69918.25
828.653	70155.25
828.905	70423.25
829.156	70411.25
829.407	70415.25
829.658	70358.25
829.909	70541.25
830.159	70349.25
830.41	70175.25
830.661	69685.25
830.912	69382.25
831.162	69323.25
831.413	69089.25
831.664	69031.25
831.914	69077.25
832.165	69014.25
832.415	69090.25
832.666	68847.25
832.916	69344.25
833.167	68931.25
833.417	69095.25
833.667	68903.25
833.917	68828.25
834.168	68430.25
834.418	68393.25
834.668	68254.25
834.918	67929.25
835.168	67852.25
835.418	67441.25
835.668	67331.25
835.918	67251.25
836.167	67020.25
836.417	66971.25
836.667	66923.25
836.917	66921.25
837.166	66550.25
837.416	66844.25
837.666	66860.25
837.915	66855.25
838.165	66734.25
838.414	66510.25
838.663	66358.25
838.913	66326.25
839.162	66157.25
839.411	66013.25
839.661	65622.25
839.91	65723.25
840.159	65615.25
840.408	65521.25
840.657	65544.25
840.906	65527.25
841.155	65486.25
841.404	65601.25
841.653	65754.25
841.902	65941.25
842.15	65997.25
842.399	65859.25
842.648	65839.25
842.897	65573.25
843.145	65179.25
843.394	64746.25
843.642	64496.25
843.891	64407.25
844.139	64090.25
844.388	63951.25
844.636	63707.25
844.884	63551.25
845.133	63553.25
845.381	63431.25
845.629	63439.25
845.877	63326.25
846.125	63053.25
846.373	63263.25
846.621	63011.25
846.869	62693.25
847.117	62553.25
847.365	61986.25
847.613	61962.25
847.861	61744.25
848.108	61687.25
848.356	61574.25
848.604	61440.25
848.851	61444.25
849.099	61712.25
849.346	61852.25
849.594	62167.25
849.841	62316.25
850.089	62408.25
850.336	62453.25
850.583	62482.25
850.831	62121.25
851.078	61698.25
851.325	61621.25
851.572	61528.25
851.819	60926.25
852.066	60160.25
852.313	59469.25
852.56	59404.25
852.807	59173.25
853.054	58938.25
853.301	58937.25
853.548	58818.25
853.794	59067.25
854.041	59211.25
854.288	59482.25
854.534	59823.25
854.781	59762.25
855.028	59624.25
855.274	59395.25
855.52	59231.25
855.767	58665.25
856.013	58784.25
856.26	58973.25
856.506	58386.25
856.752	58258.25
856.998	58394.25
857.244	58651.25
857.49	58778.25
857.736	59027.25
857.982	58956.25
858.228	58924.25
858.474	58430.25
858.72	58188.25
858.966	57655.25
859.212	57183.25
859.458	56821.25
859.703	56228.25
859.949	55782.25
860.195	55462.25
860.44	55164.25
860.686	54847.25
860.931	54854.25
861.177	54525.25
861.422	54170.25
861.667	54506.25
861.913	54262.25
862.158	54532.25
862.403	54770.25
862.648	54772.25
862.893	54716.25
863.138	54846.25
863.384	54665.25
863.629	54674.25
863.873	54555.25
864.118	54521.25
864.363	54164.25
864.608	53998.25
864.853	53737.25
865.098	53518.25
865.342	53323.25
865.587	53111.25
865.832	53236.25
866.076	52949.25
866.321	52981.25
866.565	52729.25
866.81	52448.25
867.054	52339.25
867.298	52222.25
867.543	51933.25
867.787	52053.25
868.031	51755.25
868.275	51512.25
868.519	51664.25
868.764	51636.25
869.008	51315.25
869.252	51282.25
869.496	51105.25
869.739	51022.25
869.983	50919.25
870.227	50636.25
870.471	50777.25
870.715	50954.25
870.958	51040.25
871.202	51011.25
871.446	51178.25
871.689	51202.25
871.933	51156.25
872.176	51159.25
872.42	50997.25
872.663	50930.25
872.906	50731.25
873.15	50504.25
873.393	50267.25
873.636	50097.25
873.879	49640.25
874.122	49039.25
874.366	48673.25
874.609	48288.25
874.852	47967.25
875.095	47955.25
875.337	47764.25
875.58	47669.25
875.823	47476.25
876.066	47296.25
876.309	47197.25
876.551	46948.25
876.794	46865.25
877.037	46730.25
877.279	46483.25
877.522	46613.25
877.764	46745.25
878.007	46744.25
878.249	46702.25
878.491	46767.25
878.734	46524.25
878.976	46398.25
879.218	46314.25
879.46	45996.25
879.702	45597.25
879.945	45318.25
880.187	45069.25
880.429	44977.25
880.671	44684.25
880.912	44375.25
881.154	44301.25
881.396	44220.25
881.638	44117.25
881.88	44046.25
882.121	44033.25
882.363	44057.25
882.605	43845.25
882.846	43723.25
883.088	43643.25
883.329	43526.25
883.571	43282.25
883.812	43273.25
884.053	43531.25
884.295	43808.25
884.536	44073.25
884.777	43830.25
885.018	43676.25
885.259	43559.25
885.5	43325.25
885.742	43710.25
885.982	43310.25
886.223	43218.25
886.464	43111.25
886.705	42952.25
886.946	42714.25
887.187	42134.25
887.428	42005.25
887.668	41649.25
887.909	41365.25
888.15	40892.25
888.39	40657.25
888.631	40285.25
888.871	40124.25
889.111	39946.25
889.352	39723.25
889.592	39509.25
889.833	39097.25
890.073	39013.25
890.313	38793.25
890.553	38465.25
890.793	38341.25
891.033	38021.25
891.273	37900.25
891.513	37767.25
891.753	37816.25
891.993	37668.25
892.233	37679.25
892.473	37949.25
892.713	37972.25
892.952	37832.25
893.192	37753.25
893.432	37617.25
893.671	37606.25
893.911	37449.25
894.15	37313.25
894.39	36949.25
894.629	36800.25
894.869	36648.25
895.108	36281.25
895.347	36269.25
895.587	36184.25
895.826	36097.25
896.065	35861.25
896.304	35860.25
896.543	35871.25
896.782	35444.25
897.021	35531.25
897.26	35426.25
897.499	35280.25
897.738	35299.25
897.977	34855.25
898.216	34635.25
898.454	34373.25
898.693	34065.25
898.932	33891.25
899.17	33938.25
899.409	33850.25
899.647	33603.25
899.886	33477.25
900.124	33509.25
900.363	33661.25
900.601	33509.25
900.839	33463.25
901.078	33537.25
901.316	33523.25
901.554	33555.25
901.792	33557.25
902.03	33554.25
902.268	33272.25
902.506	33368.25
902.744	33226.25
902.982	33024.25
903.22	32781.25
903.458	32471.25
903.695	32083.25
903.933	31776.25
904.171	31346.25
904.409	31010.25
904.646	30690.25
904.884	30349.25
905.121	30009.25
905.359	29756.25
905.596	29434.25
905.833	29271.25
906.071	29066.25
906.308	29121.25
906.545	29047.25
906.783	28938.25
907.02	28947.25
907.257	28696.25
907.494	28710.25
907.731	28594.25
907.968	28534.25
908.205	28304.25
908.442	28207.25
908.679	28038.25
908.915	27749.25
909.152	27491.25
909.389	27364.25
909.626	27290.25
909.862	27030.25
910.099	26947.25
910.335	26941.25
910.572	26796.25
910.808	26591.25
911.045	26547.25
911.281	26519.25
911.518	26410.25
911.754	26211.25
911.99	26105.25
912.226	25739.25
912.463	25677.25
912.699	25558.25
912.935	25168.25
913.171	25054.25
913.407	24883.25
913.643	24881.25
913.879	24470.25
914.114	24269.25
914.35	24067.25
914.586	23762.25
914.822	23580.25
915.057	23608.25
915.293	23303.25
915.529	23176.25
915.764	23142.25
916	23194.25
916.235	23058.25
916.471	23021.25
916.706	22913.25
916.941	22886.25
917.177	22701.25
917.412	22756.25
917.647	22782.25
917.882	22777.25
918.117	22750.25
918.352	22581.25
918.588	22575.25
918.823	22234.25
919.057	22132.25
919.292	21652.25
919.527	21682.25
919.762	21387.25
919.997	21173.25
920.232	20937.25
920.466	20874.25
920.701	20619.25
920.935	20506.25
921.17	20465.25
921.405	20263.25
921.639	20273.25
921.873	20096.25
922.108	19993.25
922.342	20062.25
922.576	19877.25
922.811	19779.25
923.045	19855.25
923.279	19710.25
923.513	19458.25
923.747	19460.25
923.981	19187.25
924.215	19126.25
924.449	19058.25
924.683	18943.25
924.917	18832.25
925.151	18725.25
925.385	18667.25
925.618	18568.25
925.852	18437.25
926.086	18513.25
926.319	18456.25
926.553	18415.25
926.786	18276.25
927.02	18388.25
927.253	18306.25
927.486	18272.25
927.72	18203.25
927.953	18219.25
928.186	17992.25
928.42	18134.25
928.653	17945.25
928.886	17818.25
929.119	17774.25
929.352	17820.25
929.585	17563.25
929.818	17459.25
930.051	17275.25
930.284	17211.25
930.516	16897.25
930.749	16887.25
930.982	16895.25
931.215	16710.25
931.447	16575.25
931.68	16497.25
931.912	16472.25
932.145	16473.25
932.377	16455.25
932.61	16619.25
932.842	16426.25
933.074	16400.25
933.307	16316.25
933.539	16410.25
933.771	16432.25
934.003	16287.25
934.236	16357.25
934.468	16365.25
934.7	16148.25
934.932	16197.25
935.164	16116.25
935.395	15998.25
935.627	15966.25
935.859	16041.25
936.091	15804.25
936.323	15878.25
936.554	15830.25
936.786	15721.25
937.017	15554.25
937.249	15578.25
937.481	15443.25
937.712	15412.25
937.943	15461.25
938.175	15424.25
938.406	15394.25
938.637	15331.25
938.869	15357.25
939.1	15335.25
939.331	15144.25
939.562	15190.25
939.793	15107.25
940.024	15016.25
940.255	14993.25
940.486	14761.25
940.717	14731.25
940.948	14685.25
941.179	14583.25
941.409	14617.25
941.64	14536.25
941.871	14642.25
942.102	14572.25
942.332	14626.25
942.563	14540.25
942.793	14620.25
943.024	14533.25
943.254	14373.25
943.484	14515.25
943.715	14495.25
943.945	14397.25
944.175	14252.25
944.405	14336.25
944.636	14236.25
944.866	14306.25
945.096	14257.25
945.326	14136.25
945.556	14168.25
945.786	14103.25
946.016	13981.25
946.245	13841.25
946.475	13682.25
946.705	13686.25
946.935	13670.25
947.164	13549.25
947.394	13401.25
947.624	13391.25
947.853	13316.25
948.083	13264.25
948.312	13217.25
948.542	13135.25
948.771	13063.25
949	13017.25
949.23	13085.25
949.459	13050.25
949.688	13068.25
949.917	12983.25
950.146	12993.25
950.375	12959.25
950.604	12892.25
950.833	12915.25
951.062	12876.25
951.291	12830.25
951.52	12698.25
951.749	12699.25
951.978	12616.25
952.206	12581.25
952.435	12501.25
952.664	12560.25
952.892	12471.25
953.121	12406.25
953.349	12455.25
953.578	12334.25
953.806	12191.25
954.035	12161.25
954.263	12150.25
954.491	11934.25
954.719	12038.25
954.948	11895.25
955.176	11839.25
955.404	11790.25
955.632	11781.25
955.86	11669.25
956.088	11660.25
956.316	11571.25
956.544	11539.25
956.772	11390.25
956.999	11367.25
957.227	11332.25
957.455	11262.25
957.683	11224.25
957.91	11156.25
958.138	11135.25
958.365	10977.25
958.593	10920.25
958.82	10868.25
959.048	10908.25
959.275	10829.25
959.502	10825.25
959.73	10699.25
959.957	10773.25
960.184	10771.25
960.411	10682.25
960.638	10698.25
960.865	10645.25
961.092	10572.25
961.319	10500.25
961.546	10618.25
961.773	10570.25
962	10582.25
962.227	10500.25
962.454	10513.25
962.68	10411.25
962.907	10374.25
963.134	10331.25
963.36	10232.25
963.587	10178.25
963.813	10052.25
964.04	10084.25
964.266	9913.25
964.493	9928.25
964.719	9874.25
964.945	9808.25
965.171	9701.25
965.398	9708.25
965.624	9674.25
965.85	9596.25
966.076	9516.25
966.302	9470.25
966.528	9421.25
966.754	9421.25
966.98	9288.25
967.206	9333.25
967.431	9198.25
967.657	9261.25
967.883	9187.25
968.109	9166.25
968.334	9162.25
968.56	9045.25
968.785	9049.25
969.011	9016.25
969.236	9026.25
969.462	8928.25
969.687	8941.25
969.912	8970.25
970.138	8903.25
970.363	8837.25
970.588	8767.25
970.813	8747.25
971.038	8667.25
971.263	8655.25
971.488	8658.25
971.713	8705.25
971.938	8629.25
972.163	8434.25
972.388	8435.25
972.613	8464.25
972.838	8400.25
973.062	8267.25
973.287	8375.25
973.512	8236.25
973.736	8219.25
973.961	8193.25
974.185	8161.25
974.41	8094.25
974.634	7991.25
974.858	7925.25
975.083	7888.25
975.307	7841.25
975.531	7708.25
975.755	7717.25
975.98	7668.25
976.204	7544.25
976.428	7524.25
976.652	7529.25
976.876	7482.25
977.1	7436.25
977.324	7426.25
977.547	7403.25
977.771	7392.25
977.995	7375.25
978.219	7252.25
978.442	7377.25
978.666	7300.25
978.89	7214.25
979.113	7186.25
979.337	7177.25
979.56	7124.25
979.783	7200.25
980.007	6994.25
980.23	7025.25
980.453	6978.25
980.677	6954.25
980.9	6950.25
981.123	6864.25
981.346	6891.25
981.569	6861.25
981.792	6810.25
982.015	6719.25
982.238	6658.25
982.461	6624.25
982.684	6626.25
982.907	6529.25
983.129	6480.25
983.352	6506.25
983.575	6389.25
983.797	6411.25
984.02	6325.25
984.242	6306.25
984.465	6285.25
984.687	6284.25
984.91	6272.25
985.132	6193.25
985.354	6169.25
985.577	6093.25
985.799	6121.25
986.021	5976.25
986.243	5973.25
986.465	5975.25
986.687	6012.25
986.909	5999.25
987.131	5918.25
987.353	5874.25
987.575	5860.25
987.797	5833.25
988.019	5764.25
988.241	5785.25
988.462	5747.25
988.684	5818.25
988.906	5764.25
989.127	5793.25
989.349	5660.25
989.57	5664.25
989.792	5660.25
990.013	5696.25
990.234	5606.25
990.456	5619.25
990.677	5584.25
990.898	5470.25
991.119	5461.25
991.341	5514.25
991.562	5401.25
991.783	5364.25
992.004	5382.25
992.225	5254.25
992.446	5278.25
992.667	5207.25
992.887	5194.25
993.108	5080.25
993.329	5154.25
993.55	5089.25
993.77	5004.25
993.991	4996.25
994.212	5013.25
994.432	4929.25
994.653	4986.25
994.873	4894.25
995.093	4724.25
995.314	4754.25
995.534	4832.25
995.754	4812.25
995.975	4845.25
996.195	4711.25
996.415	4753.25
996.635	4663.25
996.855	4696.25
997.075	4650.25
997.295	4654.25
997.515	4623.25
997.735	4642.25
997.955	4598.25
998.174	4628.25
998.394	4534.25
998.614	4569.25
998.834	4482.25
999.053	4541.25
999.273	4498.25
999.492	4552.25
999.712	4442.25
999.931	4353.25
1000.151	4376.25
1000.37	4417.25
1000.589	4362.25
1000.809	4263.25
1001.028	4392.25
1001.247	4258.25
1001.466	4116.25
1001.685	4260.25
1001.904	4165.25
1002.123	4166.25
1002.342	4113.25
1002.561	4059.25
1002.78	4047.25
1002.999	4062.25
1003.218	4033.25
1003.436	4011.25
1003.655	4009.25
1003.874	3881.25
1004.092	3919.25
1004.311	3941.25
1004.53	3900.25
1004.748	3905.25
1004.966	3847.25
1005.185	3840.25
1005.403	3821.25
1005.622	3810.25
1005.84	3856.25
1006.058	3718.25
1006.276	3759.25
1006.494	4235.25
1006.712	3708.25
1006.931	3823.25
1007.149	3708.25
1007.367	3662.25
1007.584	3673.25
1007.802	3732.25
1008.02	3678.25
1008.238	3741.25
1008.456	3796.25
1008.673	3598.25
1008.891	3711.25
1009.109	3664.25
1009.326	3679.25
1009.544	3778.25
1009.761	3685.25
1009.979	3782.25
1010.196	3797.25
1010.413	3897.25
1010.631	4010.25
1010.848	4016.25
1011.065	4050.25
1011.282	3967.25
1011.5	3928.25
1011.717	4003.25
1011.934	3902.25
1012.151	3933.25
1012.368	3886.25
1012.585	3827.25
1012.801	3814.25
1013.018	3839.25
1013.235	3745.25
1013.452	3784.25
1013.669	3807.25
1013.885	3749.25
1014.102	3828.25
1014.318	3755.25
1014.535	3705.25
1014.751	3722.25
1014.968	3710.25
1015.184	3669.25
1015.401	3552.25
1015.617	3593.25
1015.833	3540.25
1016.049	3522.25
1016.266	3447.25
1016.482	3416.25
1016.698	3330.25
1016.914	3388.25
1017.13	3274.25
1017.346	3315.25
1017.562	3336.25
1017.778	3255.25
1017.993	3207.25
1018.209	3238.25
1018.425	3201.25
1018.641	3137.25
1018.856	3177.25
1019.072	3192.25
1019.288	3197.25
1019.503	3191.25
1019.719	3048.25
1019.934	3059.25
1020.149	3114.25
1020.365	3056.25
1020.58	2949.25
1020.795	3031.25
1021.011	2918.25
1021.226	2881.25
1021.441	2861.25
1021.656	2798.25
1021.871	2669.25
1022.086	2658.25
1022.301	2629.25
1022.516	2564.25
1022.731	2592.25
1022.946	2538.25
1023.16	2473.25
1023.375	2451.25
1023.59	2380.25
1023.804	2339.25
1024.019	2409.25
1024.234	2279.25
1024.448	2270.25
1024.663	2196.25
1024.877	2185.25
1025.092	2179.25
1025.306	2142.25
1025.52	2019.25
1025.734	2077.25
1025.949	1986.25
1026.163	1940.25
1026.377	1841.25
1026.591	1870.25
1026.805	1765.25
1027.019	1772.25
1027.233	1677.25
1027.447	1662.25
1027.661	1733.25
1027.875	1655.25
1028.088	1628.25
1028.302	1554.25
1028.516	1505.25
1028.73	1471.25
1028.943	1433.25
1029.157	1367.25
1029.37	1275.25
1029.584	1.25
1029.797	0.25
1030.011	-2.75
1030.224	-1.75
