Data from QEP037381__310__16-21-29-910.txt Node

Date: Fri Dec 16 16:21:29 EST 2022
User: dcclab
Spectrometer: QEP03738
Trigger mode: 4
Integration Time (sec): 1.000000E1
Scans to average: 1
Electric dark correction enabled: true
Nonlinearity correction enabled: false
Boxcar width: 0
XAxis mode: Wavelengths
Number of Pixels in Spectrum: 1044
>>>>>Begin Spectral Data<<<<<
784.041	12.25
784.3	-3.75
784.558	0.25
784.817	-4.75
785.075	113098.25
785.334	19267.25
785.592	8908.25
785.851	6087.25
786.109	4625.25
786.368	3567.25
786.626	2866.25
786.884	2384.25
787.143	2027.25
787.401	1656.25
787.659	1497.25
787.917	1293.25
788.175	1189.25
788.433	1026.25
788.691	919.25
788.949	845.25
789.207	834.25
789.465	711.25
789.723	689.25
789.98	641.25
790.238	652.25
790.496	627.25
790.753	605.25
791.011	655.25
791.268	593.25
791.526	565.25
791.783	592.25
792.041	558.25
792.298	480.25
792.556	537.25
792.813	518.25
793.07	508.25
793.327	486.25
793.584	557.25
793.841	484.25
794.099	506.25
794.356	561.25
794.613	476.25
794.869	505.25
795.126	460.25
795.383	441.25
795.64	488.25
795.897	431.25
796.153	473.25
796.41	469.25
796.667	448.25
796.923	461.25
797.18	466.25
797.436	488.25
797.693	450.25
797.949	492.25
798.206	544.25
798.462	464.25
798.718	511.25
798.974	498.25
799.231	531.25
799.487	533.25
799.743	535.25
799.999	573.25
800.255	557.25
800.511	560.25
800.767	602.25
801.023	599.25
801.279	653.25
801.534	704.25
801.79	759.25
802.046	823.25
802.302	995.25
802.557	1167.25
802.813	1487.25
803.068	1873.25
803.324	2619.25
803.579	3608.25
803.835	5048.25
804.09	6903.25
804.345	9041.25
804.601	11463.25
804.856	13991.25
805.111	16212.25
805.366	17940.25
805.621	19191.25
805.876	20127.25
806.131	20721.25
806.386	21131.25
806.641	21500.25
806.896	21984.25
807.151	22291.25
807.406	22638.25
807.661	23101.25
807.915	23463.25
808.17	23715.25
808.425	24180.25
808.679	24426.25
808.934	24642.25
809.188	24893.25
809.443	25157.25
809.697	25495.25
809.951	25631.25
810.206	25825.25
810.46	26100.25
810.714	26342.25
810.968	26616.25
811.223	26882.25
811.477	27167.25
811.731	27305.25
811.985	27496.25
812.239	27519.25
812.493	27727.25
812.747	27829.25
813	27976.25
813.254	28113.25
813.508	28196.25
813.762	28385.25
814.015	28581.25
814.269	28655.25
814.522	28830.25
814.776	29179.25
815.03	29626.25
815.283	30148.25
815.536	30601.25
815.79	31026.25
816.043	31520.25
816.296	31879.25
816.55	32211.25
816.803	32760.25
817.056	33197.25
817.309	33476.25
817.562	33704.25
817.815	34197.25
818.068	34444.25
818.321	34836.25
818.574	35170.25
818.827	35628.25
819.079	35978.25
819.332	36724.25
819.585	37134.25
819.838	37669.25
820.09	37828.25
820.343	38062.25
820.595	38261.25
820.848	38633.25
821.1	38700.25
821.353	38691.25
821.605	38607.25
821.857	38895.25
822.11	38556.25
822.362	38524.25
822.614	38444.25
822.866	38588.25
823.118	38530.25
823.37	38633.25
823.622	38643.25
823.874	38719.25
824.126	38964.25
824.378	38948.25
824.63	39111.25
824.882	39189.25
825.134	38995.25
825.385	39136.25
825.637	39042.25
825.888	38989.25
826.14	38929.25
826.392	38703.25
826.643	38537.25
826.895	38384.25
827.146	38327.25
827.397	38232.25
827.649	38329.25
827.9	38153.25
828.151	38271.25
828.402	38188.25
828.653	38402.25
828.905	38467.25
829.156	38718.25
829.407	38584.25
829.658	38306.25
829.909	38512.25
830.159	38656.25
830.41	38264.25
830.661	38147.25
830.912	37828.25
831.162	37697.25
831.413	37676.25
831.664	37632.25
831.914	37587.25
832.165	37710.25
832.415	37732.25
832.666	37521.25
832.916	37653.25
833.167	37542.25
833.417	37526.25
833.667	37254.25
833.917	37262.25
834.168	37241.25
834.418	37207.25
834.668	37004.25
834.918	36717.25
835.168	36650.25
835.418	36490.25
835.668	36459.25
835.918	36274.25
836.167	36106.25
836.417	35980.25
836.667	36105.25
836.917	35925.25
837.166	35845.25
837.416	36127.25
837.666	35959.25
837.915	35906.25
838.165	35933.25
838.414	35800.25
838.663	35679.25
838.913	35518.25
839.162	35543.25
839.411	35594.25
839.661	35437.25
839.91	35266.25
840.159	35187.25
840.408	35222.25
840.657	35243.25
840.906	35092.25
841.155	35116.25
841.404	35069.25
841.653	35213.25
841.902	35199.25
842.15	35305.25
842.399	35268.25
842.648	35143.25
842.897	35098.25
843.145	34823.25
843.394	34486.25
843.642	34354.25
843.891	34282.25
844.139	34089.25
844.388	33953.25
844.636	33752.25
844.884	33652.25
845.133	33791.25
845.381	33552.25
845.629	33731.25
845.877	33513.25
846.125	33543.25
846.373	33509.25
846.621	33390.25
846.869	33323.25
847.117	33001.25
847.365	32930.25
847.613	32757.25
847.861	32651.25
848.108	32686.25
848.356	32457.25
848.604	32449.25
848.851	32351.25
849.099	32402.25
849.346	32615.25
849.594	32634.25
849.841	32910.25
850.089	32860.25
850.336	32793.25
850.583	32723.25
850.831	32552.25
851.078	32375.25
851.325	32358.25
851.572	32454.25
851.819	32104.25
852.066	31617.25
852.313	31166.25
852.56	30910.25
852.807	30809.25
853.054	30737.25
853.301	30751.25
853.548	30662.25
853.794	30792.25
854.041	30891.25
854.288	30977.25
854.534	31196.25
854.781	31295.25
855.028	31003.25
855.274	30949.25
855.52	30861.25
855.767	30642.25
856.013	30623.25
856.26	30915.25
856.506	30181.25
856.752	30363.25
856.998	30226.25
857.244	30380.25
857.49	30508.25
857.736	30530.25
857.982	30604.25
858.228	30491.25
858.474	30271.25
858.72	30036.25
858.966	29705.25
859.212	29702.25
859.458	29115.25
859.703	28911.25
859.949	28560.25
860.195	28464.25
860.44	28224.25
860.686	28215.25
860.931	28191.25
861.177	28049.25
861.422	27907.25
861.667	27752.25
861.913	27836.25
862.158	27831.25
862.403	27918.25
862.648	27962.25
862.893	27861.25
863.138	27938.25
863.384	27847.25
863.629	27777.25
863.873	27799.25
864.118	27759.25
864.363	27466.25
864.608	27435.25
864.853	27413.25
865.098	27229.25
865.342	27170.25
865.587	26975.25
865.832	27030.25
866.076	26852.25
866.321	26920.25
866.565	26846.25
866.81	26619.25
867.054	26534.25
867.298	26415.25
867.543	26363.25
867.787	26365.25
868.031	26318.25
868.275	26310.25
868.519	26075.25
868.764	26094.25
869.008	25974.25
869.252	25998.25
869.496	25798.25
869.739	25940.25
869.983	25949.25
870.227	25796.25
870.471	25700.25
870.715	25828.25
870.958	25801.25
871.202	25969.25
871.446	26014.25
871.689	25973.25
871.933	26035.25
872.176	25833.25
872.42	25869.25
872.663	25705.25
872.906	25578.25
873.15	25481.25
873.393	25486.25
873.636	25365.25
873.879	25150.25
874.122	24852.25
874.366	24635.25
874.609	24470.25
874.852	24345.25
875.095	24122.25
875.337	24135.25
875.58	23946.25
875.823	23841.25
876.066	23693.25
876.309	23648.25
876.551	23473.25
876.794	23405.25
877.037	23359.25
877.279	23228.25
877.522	23412.25
877.764	23314.25
878.007	23246.25
878.249	23172.25
878.491	23111.25
878.734	23184.25
878.976	23008.25
879.218	22912.25
879.46	22781.25
879.702	22601.25
879.945	22454.25
880.187	22249.25
880.429	22149.25
880.671	22030.25
880.912	21907.25
881.154	21897.25
881.396	21808.25
881.638	21851.25
881.88	21822.25
882.121	21805.25
882.363	21641.25
882.605	21667.25
882.846	21572.25
883.088	21603.25
883.329	21443.25
883.571	21356.25
883.812	21555.25
884.053	21822.25
884.295	22100.25
884.536	22276.25
884.777	22176.25
885.018	21949.25
885.259	22067.25
885.5	21921.25
885.742	22039.25
885.982	21665.25
886.223	21505.25
886.464	21556.25
886.705	21298.25
886.946	21136.25
887.187	20863.25
887.428	20585.25
887.668	20311.25
887.909	20150.25
888.15	19925.25
888.39	19825.25
888.631	19602.25
888.871	19484.25
889.111	19267.25
889.352	19282.25
889.592	19058.25
889.833	18992.25
890.073	18800.25
890.313	18752.25
890.553	18546.25
890.793	18470.25
891.033	18438.25
891.273	18287.25
891.513	18270.25
891.753	18353.25
891.993	18198.25
892.233	18224.25
892.473	18245.25
892.713	18257.25
892.952	18250.25
893.192	18346.25
893.432	18288.25
893.671	18265.25
893.911	18035.25
894.15	18066.25
894.39	17850.25
894.629	17759.25
894.869	17613.25
895.108	17631.25
895.347	17433.25
895.587	17385.25
895.826	17301.25
896.065	17324.25
896.304	17336.25
896.543	17337.25
896.782	17227.25
897.021	17180.25
897.26	17092.25
897.499	17164.25
897.738	17012.25
897.977	16929.25
898.216	16830.25
898.454	16675.25
898.693	16452.25
898.932	16492.25
899.17	16469.25
899.409	16422.25
899.647	16334.25
899.886	16243.25
900.124	16262.25
900.363	16300.25
900.601	16323.25
900.839	16316.25
901.078	16399.25
901.316	16490.25
901.554	16504.25
901.792	16534.25
902.03	16579.25
902.268	16601.25
902.506	16582.25
902.744	16328.25
902.982	16318.25
903.22	15982.25
903.458	15836.25
903.695	15635.25
903.933	15300.25
904.171	15129.25
904.409	14882.25
904.646	14850.25
904.884	14538.25
905.121	14406.25
905.359	14240.25
905.596	14213.25
905.833	14032.25
906.071	13869.25
906.308	13935.25
906.545	13817.25
906.783	13811.25
907.02	13730.25
907.257	13686.25
907.494	13656.25
907.731	13605.25
907.968	13590.25
908.205	13411.25
908.442	13324.25
908.679	13301.25
908.915	13173.25
909.152	13051.25
909.389	12913.25
909.626	12785.25
909.862	12760.25
910.099	12707.25
910.335	12697.25
910.572	12507.25
910.808	12523.25
911.045	12465.25
911.281	12545.25
911.518	12378.25
911.754	12348.25
911.99	12296.25
912.226	12130.25
912.463	12110.25
912.699	11992.25
912.935	11930.25
913.171	11790.25
913.407	11705.25
913.643	11614.25
913.879	11559.25
914.114	11366.25
914.35	11320.25
914.586	11193.25
914.822	11102.25
915.057	11088.25
915.293	10862.25
915.529	10842.25
915.764	10937.25
916	10901.25
916.235	10890.25
916.471	10827.25
916.706	10713.25
916.941	10743.25
917.177	10776.25
917.412	10743.25
917.647	10709.25
917.882	10666.25
918.117	10674.25
918.352	10563.25
918.588	10517.25
918.823	10453.25
919.057	10398.25
919.292	10171.25
919.527	10238.25
919.762	10018.25
919.997	10040.25
920.232	9864.25
920.466	9849.25
920.701	9621.25
920.935	9652.25
921.17	9625.25
921.405	9509.25
921.639	9483.25
921.873	9490.25
922.108	9437.25
922.342	9406.25
922.576	9250.25
922.811	9248.25
923.045	9276.25
923.279	9271.25
923.513	9115.25
923.747	9168.25
923.981	9106.25
924.215	8988.25
924.449	8917.25
924.683	8817.25
924.917	8804.25
925.151	8758.25
925.385	8828.25
925.618	8758.25
925.852	8727.25
926.086	8606.25
926.319	8699.25
926.553	8717.25
926.786	8650.25
927.02	8562.25
927.253	8659.25
927.486	8602.25
927.72	8534.25
927.953	8605.25
928.186	8489.25
928.42	8547.25
928.653	8467.25
928.886	8419.25
929.119	8339.25
929.352	8307.25
929.585	8270.25
929.818	8164.25
930.051	8217.25
930.284	8093.25
930.516	7923.25
930.749	7878.25
930.982	7944.25
931.215	7911.25
931.447	7840.25
931.68	7744.25
931.912	7703.25
932.145	7790.25
932.377	7787.25
932.61	7888.25
932.842	7669.25
933.074	7790.25
933.307	7708.25
933.539	7772.25
933.771	7788.25
934.003	7690.25
934.236	7751.25
934.468	7754.25
934.7	7659.25
934.932	7631.25
935.164	7586.25
935.395	7552.25
935.627	7534.25
935.859	7521.25
936.091	7440.25
936.323	7512.25
936.554	7533.25
936.786	7355.25
937.017	7328.25
937.249	7374.25
937.481	7281.25
937.712	7321.25
937.943	7318.25
938.175	7251.25
938.406	7325.25
938.637	7255.25
938.869	7153.25
939.1	7228.25
939.331	7149.25
939.562	7217.25
939.793	7179.25
940.024	7144.25
940.255	7134.25
940.486	7086.25
940.717	7019.25
940.948	7021.25
941.179	6913.25
941.409	6899.25
941.64	6873.25
941.871	6931.25
942.102	6904.25
942.332	6882.25
942.563	6941.25
942.793	6923.25
943.024	6839.25
943.254	6791.25
943.484	6905.25
943.715	6896.25
943.945	6798.25
944.175	6828.25
944.405	6723.25
944.636	6748.25
944.866	6823.25
945.096	6781.25
945.326	6674.25
945.556	6804.25
945.786	6702.25
946.016	6685.25
946.245	6523.25
946.475	6482.25
946.705	6530.25
946.935	6478.25
947.164	6455.25
947.394	6353.25
947.624	6388.25
947.853	6381.25
948.083	6336.25
948.312	6324.25
948.542	6209.25
948.771	6154.25
949	6198.25
949.23	6245.25
949.459	6210.25
949.688	6234.25
949.917	6180.25
950.146	6183.25
950.375	6222.25
950.604	6075.25
950.833	6182.25
951.062	6188.25
951.291	6136.25
951.52	6043.25
951.749	6049.25
951.978	5994.25
952.206	5988.25
952.435	5978.25
952.664	5990.25
952.892	5955.25
953.121	5953.25
953.349	5951.25
953.578	5898.25
953.806	5826.25
954.035	5782.25
954.263	5806.25
954.491	5646.25
954.719	5738.25
954.948	5696.25
955.176	5658.25
955.404	5588.25
955.632	5627.25
955.86	5559.25
956.088	5553.25
956.316	5544.25
956.544	5496.25
956.772	5480.25
956.999	5445.25
957.227	5513.25
957.455	5409.25
957.683	5395.25
957.91	5319.25
958.138	5271.25
958.365	5271.25
958.593	5252.25
958.82	5186.25
959.048	5251.25
959.275	5165.25
959.502	5161.25
959.73	5155.25
959.957	5214.25
960.184	5187.25
960.411	5110.25
960.638	5198.25
960.865	5152.25
961.092	5107.25
961.319	5057.25
961.546	5115.25
961.773	5092.25
962	5053.25
962.227	5094.25
962.454	5055.25
962.68	5030.25
962.907	5009.25
963.134	4926.25
963.36	4946.25
963.587	4946.25
963.813	4895.25
964.04	4880.25
964.266	4768.25
964.493	4879.25
964.719	4813.25
964.945	4779.25
965.171	4711.25
965.398	4746.25
965.624	4701.25
965.85	4625.25
966.076	4619.25
966.302	4580.25
966.528	4549.25
966.754	4536.25
966.98	4539.25
967.206	4529.25
967.431	4464.25
967.657	4562.25
967.883	4506.25
968.109	4448.25
968.334	4465.25
968.56	4457.25
968.785	4436.25
969.011	4419.25
969.236	4403.25
969.462	4355.25
969.687	4346.25
969.912	4370.25
970.138	4362.25
970.363	4280.25
970.588	4323.25
970.813	4283.25
971.038	4255.25
971.263	4267.25
971.488	4247.25
971.713	4243.25
971.938	4252.25
972.163	4137.25
972.388	4147.25
972.613	4108.25
972.838	4135.25
973.062	4119.25
973.287	4097.25
973.512	4011.25
973.736	4017.25
973.961	4029.25
974.185	3997.25
974.41	3992.25
974.634	3891.25
974.858	3874.25
975.083	3965.25
975.307	3906.25
975.531	3829.25
975.755	3705.25
975.98	3755.25
976.204	3699.25
976.428	3669.25
976.652	3717.25
976.876	3684.25
977.1	3685.25
977.324	3638.25
977.547	3684.25
977.771	3691.25
977.995	3681.25
978.219	3597.25
978.442	3693.25
978.666	3610.25
978.89	3582.25
979.113	3579.25
979.337	3573.25
979.56	3531.25
979.783	3574.25
980.007	3484.25
980.23	3463.25
980.453	3457.25
980.677	3486.25
980.9	3465.25
981.123	3345.25
981.346	3449.25
981.569	3448.25
981.792	3438.25
982.015	3389.25
982.238	3284.25
982.461	3309.25
982.684	3292.25
982.907	3233.25
983.129	3246.25
983.352	3277.25
983.575	3249.25
983.797	3245.25
984.02	3153.25
984.242	3156.25
984.465	3161.25
984.687	3193.25
984.91	3207.25
985.132	3151.25
985.354	3176.25
985.577	3137.25
985.799	3092.25
986.021	3033.25
986.243	3048.25
986.465	3071.25
986.687	3079.25
986.909	3107.25
987.131	3049.25
987.353	2990.25
987.575	3017.25
987.797	2969.25
988.019	2954.25
988.241	3013.25
988.462	2924.25
988.684	2981.25
988.906	2948.25
989.127	3021.25
989.349	2884.25
989.57	2924.25
989.792	2961.25
990.013	2938.25
990.234	2908.25
990.456	2957.25
990.677	2968.25
990.898	2852.25
991.119	2820.25
991.341	2843.25
991.562	2779.25
991.783	2798.25
992.004	2746.25
992.225	2702.25
992.446	2745.25
992.667	2668.25
992.887	2772.25
993.108	2599.25
993.329	2754.25
993.55	2672.25
993.77	2578.25
993.991	2630.25
994.212	2659.25
994.432	2609.25
994.653	2588.25
994.873	2638.25
995.093	2495.25
995.314	2540.25
995.534	2584.25
995.754	2567.25
995.975	2627.25
996.195	2499.25
996.415	2548.25
996.635	2483.25
996.855	2546.25
997.075	2499.25
997.295	2458.25
997.515	2480.25
997.735	2484.25
997.955	2469.25
998.174	2459.25
998.394	2440.25
998.614	2482.25
998.834	2438.25
999.053	2503.25
999.273	2449.25
999.492	2475.25
999.712	2422.25
999.931	2366.25
1000.151	2431.25
1000.37	2358.25
1000.589	2410.25
1000.809	2311.25
1001.028	2441.25
1001.247	2357.25
1001.466	2233.25
1001.685	2403.25
1001.904	2340.25
1002.123	2292.25
1002.342	2300.25
1002.561	2279.25
1002.78	2251.25
1002.999	2316.25
1003.218	2247.25
1003.436	2238.25
1003.655	2255.25
1003.874	2196.25
1004.092	2210.25
1004.311	2227.25
1004.53	2219.25
1004.748	2296.25
1004.966	2173.25
1005.185	2228.25
1005.403	2199.25
1005.622	2187.25
1005.84	2225.25
1006.058	2166.25
1006.276	2171.25
1006.494	2668.25
1006.712	2170.25
1006.931	2217.25
1007.149	2162.25
1007.367	2133.25
1007.584	2185.25
1007.802	2205.25
1008.02	2142.25
1008.238	2276.25
1008.456	2212.25
1008.673	2114.25
1008.891	2232.25
1009.109	2197.25
1009.326	2228.25
1009.544	2351.25
1009.761	2254.25
1009.979	2366.25
1010.196	2371.25
1010.413	2480.25
1010.631	2565.25
1010.848	2587.25
1011.065	2612.25
1011.282	2571.25
1011.5	2508.25
1011.717	2604.25
1011.934	2547.25
1012.151	2571.25
1012.368	2543.25
1012.585	2474.25
1012.801	2537.25
1013.018	2491.25
1013.235	2474.25
1013.452	2489.25
1013.669	2493.25
1013.885	2479.25
1014.102	2544.25
1014.318	2503.25
1014.535	2435.25
1014.751	2474.25
1014.968	2470.25
1015.184	2479.25
1015.401	2379.25
1015.617	2430.25
1015.833	2331.25
1016.049	2351.25
1016.266	2326.25
1016.482	2322.25
1016.698	2247.25
1016.914	2275.25
1017.13	2228.25
1017.346	2244.25
1017.562	2249.25
1017.778	2202.25
1017.993	2191.25
1018.209	2234.25
1018.425	2224.25
1018.641	2177.25
1018.856	2160.25
1019.072	2172.25
1019.288	2214.25
1019.503	2171.25
1019.719	2101.25
1019.934	2107.25
1020.149	2183.25
1020.365	2080.25
1020.58	2076.25
1020.795	2057.25
1021.011	1989.25
1021.226	1935.25
1021.441	2001.25
1021.656	1857.25
1021.871	1816.25
1022.086	1778.25
1022.301	1771.25
1022.516	1740.25
1022.731	1778.25
1022.946	1689.25
1023.16	1687.25
1023.375	1632.25
1023.59	1600.25
1023.804	1558.25
1024.019	1661.25
1024.234	1486.25
1024.448	1518.25
1024.663	1435.25
1024.877	1480.25
1025.092	1455.25
1025.306	1463.25
1025.52	1356.25
1025.734	1440.25
1025.949	1326.25
1026.163	1281.25
1026.377	1205.25
1026.591	1260.25
1026.805	1189.25
1027.019	1153.25
1027.233	1142.25
1027.447	1077.25
1027.661	1178.25
1027.875	1103.25
1028.088	1084.25
1028.302	1020.25
1028.516	1005.25
1028.73	993.25
1028.943	972.25
1029.157	901.25
1029.37	849.25
1029.584	0.25
1029.797	-2.75
1030.011	-1.75
1030.224	0.25
