Data from QEP037381__252__16-11-49-903.txt Node

Date: Fri Dec 16 16:11:49 EST 2022
User: dcclab
Spectrometer: QEP03738
Trigger mode: 4
Integration Time (sec): 1.000000E1
Scans to average: 1
Electric dark correction enabled: true
Nonlinearity correction enabled: false
Boxcar width: 0
XAxis mode: Wavelengths
Number of Pixels in Spectrum: 1044
>>>>>Begin Spectral Data<<<<<
784.041	12.5
784.3	0.5
784.558	-3.5
784.817	-1.5
785.075	112638.5
785.334	19499.5
785.592	9122.5
785.851	6265.5
786.109	4754.5
786.368	3649.5
786.626	2949.5
786.884	2454.5
787.143	2062.5
787.401	1716.5
787.659	1543.5
787.917	1307.5
788.175	1173.5
788.433	1025.5
788.691	930.5
788.949	862.5
789.207	815.5
789.465	711.5
789.723	694.5
789.98	647.5
790.238	675.5
790.496	624.5
790.753	603.5
791.011	660.5
791.268	565.5
791.526	574.5
791.783	582.5
792.041	567.5
792.298	476.5
792.556	559.5
792.813	522.5
793.07	502.5
793.327	483.5
793.584	566.5
793.841	500.5
794.099	507.5
794.356	577.5
794.613	452.5
794.869	504.5
795.126	474.5
795.383	464.5
795.64	479.5
795.897	428.5
796.153	501.5
796.41	484.5
796.667	471.5
796.923	468.5
797.18	482.5
797.436	501.5
797.693	455.5
797.949	515.5
798.206	552.5
798.462	478.5
798.718	534.5
798.974	509.5
799.231	558.5
799.487	560.5
799.743	581.5
799.999	591.5
800.255	608.5
800.511	594.5
800.767	638.5
801.023	654.5
801.279	688.5
801.534	758.5
801.79	814.5
802.046	895.5
802.302	1101.5
802.557	1275.5
802.813	1650.5
803.068	2137.5
803.324	2964.5
803.579	4143.5
803.835	5755.5
804.09	7966.5
804.345	10490.5
804.601	13282.5
804.856	16089.5
805.111	18597.5
805.366	20692.5
805.621	21877.5
805.876	22977.5
806.131	23599.5
806.386	24119.5
806.641	24482.5
806.896	24979.5
807.151	25527.5
807.406	25787.5
807.661	26198.5
807.915	26777.5
808.17	27239.5
808.425	27501.5
808.679	27767.5
808.934	28067.5
809.188	28357.5
809.443	28698.5
809.697	28903.5
809.951	29224.5
810.206	29489.5
810.46	29801.5
810.714	30030.5
810.968	30502.5
811.223	30617.5
811.477	30884.5
811.731	31114.5
811.985	31252.5
812.239	31354.5
812.493	31594.5
812.747	31800.5
813	31838.5
813.254	32026.5
813.508	32191.5
813.762	32253.5
814.015	32469.5
814.269	32880.5
814.522	33115.5
814.776	33456.5
815.03	33769.5
815.283	34358.5
815.536	34934.5
815.79	35469.5
816.043	35974.5
816.296	36382.5
816.55	36859.5
816.803	37363.5
817.056	37880.5
817.309	38142.5
817.562	38515.5
817.815	38858.5
818.068	39046.5
818.321	39638.5
818.574	40082.5
818.827	40547.5
819.079	41064.5
819.332	41869.5
819.585	42319.5
819.838	42890.5
820.09	43105.5
820.343	43472.5
820.595	43687.5
820.848	44106.5
821.1	44126.5
821.353	44280.5
821.605	44182.5
821.857	44148.5
822.11	44025.5
822.362	43949.5
822.614	43863.5
822.866	43903.5
823.118	43840.5
823.37	44045.5
823.622	44144.5
823.874	44165.5
824.126	44454.5
824.378	44514.5
824.63	44583.5
824.882	44726.5
825.134	44696.5
825.385	44764.5
825.637	44496.5
825.888	44603.5
826.14	44673.5
826.392	44419.5
826.643	44125.5
826.895	43933.5
827.146	43907.5
827.397	43692.5
827.649	43751.5
827.9	43686.5
828.151	43829.5
828.402	43740.5
828.653	44070.5
828.905	44151.5
829.156	44231.5
829.407	44207.5
829.658	44237.5
829.909	44228.5
830.159	44222.5
830.41	44139.5
830.661	43878.5
830.912	43558.5
831.162	43249.5
831.413	43315.5
831.664	43367.5
831.914	43246.5
832.165	43182.5
832.415	43341.5
832.666	43200.5
832.916	43385.5
833.167	43183.5
833.417	43217.5
833.667	43106.5
833.917	42961.5
834.168	42905.5
834.418	42684.5
834.668	42492.5
834.918	42544.5
835.168	42357.5
835.418	42097.5
835.668	41886.5
835.918	41960.5
836.167	41982.5
836.417	41661.5
836.667	41631.5
836.917	41660.5
837.166	41535.5
837.416	41733.5
837.666	41632.5
837.915	41587.5
838.165	41492.5
838.414	41394.5
838.663	41313.5
838.913	41230.5
839.162	41179.5
839.411	41083.5
839.661	40750.5
839.91	40758.5
840.159	40585.5
840.408	40646.5
840.657	40699.5
840.906	40798.5
841.155	40778.5
841.404	40753.5
841.653	40864.5
841.902	40687.5
842.15	40878.5
842.399	41043.5
842.648	40852.5
842.897	40682.5
843.145	40334.5
843.394	40294.5
843.642	39939.5
843.891	39874.5
844.139	39749.5
844.388	39615.5
844.636	39463.5
844.884	39155.5
845.133	39175.5
845.381	39309.5
845.629	39193.5
845.877	39028.5
846.125	39144.5
846.373	39119.5
846.621	38903.5
846.869	38720.5
847.117	38503.5
847.365	38364.5
847.613	38211.5
847.861	38112.5
848.108	38113.5
848.356	38014.5
848.604	37983.5
848.851	37895.5
849.099	37959.5
849.346	38155.5
849.594	38182.5
849.841	38381.5
850.089	38355.5
850.336	38390.5
850.583	38493.5
850.831	38181.5
851.078	37963.5
851.325	38061.5
851.572	38037.5
851.819	37642.5
852.066	37133.5
852.313	36513.5
852.56	36456.5
852.807	36178.5
853.054	36164.5
853.301	36040.5
853.548	36062.5
853.794	36249.5
854.041	36290.5
854.288	36332.5
854.534	36769.5
854.781	36679.5
855.028	36550.5
855.274	36406.5
855.52	36421.5
855.767	36042.5
856.013	35986.5
856.26	36501.5
856.506	35781.5
856.752	35674.5
856.998	35761.5
857.244	35849.5
857.49	36085.5
857.736	36129.5
857.982	35993.5
858.228	35917.5
858.474	35798.5
858.72	35732.5
858.966	35344.5
859.212	34972.5
859.458	34598.5
859.703	34174.5
859.949	33922.5
860.195	33785.5
860.44	33529.5
860.686	33388.5
860.931	33473.5
861.177	33153.5
861.422	33166.5
861.667	32946.5
861.913	33030.5
862.158	32942.5
862.403	33171.5
862.648	33334.5
862.893	33262.5
863.138	33145.5
863.384	33050.5
863.629	33193.5
863.873	33085.5
864.118	33014.5
864.363	32894.5
864.608	32646.5
864.853	32526.5
865.098	32518.5
865.342	32345.5
865.587	32213.5
865.832	32163.5
866.076	32098.5
866.321	32036.5
866.565	31902.5
866.81	31751.5
867.054	31684.5
867.298	31670.5
867.543	31525.5
867.787	31350.5
868.031	31267.5
868.275	31309.5
868.519	31302.5
868.764	31249.5
869.008	31240.5
869.252	31044.5
869.496	30959.5
869.739	30979.5
869.983	30844.5
870.227	31040.5
870.471	30685.5
870.715	30894.5
870.958	30979.5
871.202	30937.5
871.446	31246.5
871.689	31072.5
871.933	31098.5
872.176	30966.5
872.42	31054.5
872.663	30916.5
872.906	30882.5
873.15	30734.5
873.393	30454.5
873.636	30488.5
873.879	30145.5
874.122	29900.5
874.366	29504.5
874.609	29418.5
874.852	29246.5
875.095	29036.5
875.337	28946.5
875.58	28898.5
875.823	28671.5
876.066	28707.5
876.309	28618.5
876.551	28388.5
876.794	28302.5
877.037	28263.5
877.279	28159.5
877.522	28187.5
877.764	28103.5
878.007	28084.5
878.249	28043.5
878.491	28086.5
878.734	27994.5
878.976	27854.5
879.218	27793.5
879.46	27708.5
879.702	27530.5
879.945	27267.5
880.187	27006.5
880.429	26924.5
880.671	26668.5
880.912	26757.5
881.154	26553.5
881.396	26422.5
881.638	26554.5
881.88	26561.5
882.121	26448.5
882.363	26364.5
882.605	26385.5
882.846	26211.5
883.088	26262.5
883.329	26176.5
883.571	26058.5
883.812	26293.5
884.053	26536.5
884.295	26681.5
884.536	26958.5
884.777	26793.5
885.018	26678.5
885.259	26637.5
885.5	26516.5
885.742	26658.5
885.982	26541.5
886.223	26281.5
886.464	26063.5
886.705	25964.5
886.946	25777.5
887.187	25483.5
887.428	25172.5
887.668	24909.5
887.909	24605.5
888.15	24397.5
888.39	24225.5
888.631	24156.5
888.871	23844.5
889.111	23788.5
889.352	23660.5
889.592	23287.5
889.833	23284.5
890.073	23120.5
890.313	23088.5
890.553	22921.5
890.793	22600.5
891.033	22545.5
891.273	22449.5
891.513	22439.5
891.753	22386.5
891.993	22490.5
892.233	22374.5
892.473	22549.5
892.713	22412.5
892.952	22371.5
893.192	22509.5
893.432	22367.5
893.671	22486.5
893.911	22250.5
894.15	22138.5
894.39	21983.5
894.629	21951.5
894.869	21728.5
895.108	21568.5
895.347	21544.5
895.587	21436.5
895.826	21473.5
896.065	21322.5
896.304	21403.5
896.543	21432.5
896.782	21251.5
897.021	21225.5
897.26	20998.5
897.499	21156.5
897.738	21038.5
897.977	20943.5
898.216	20778.5
898.454	20631.5
898.693	20381.5
898.932	20338.5
899.17	20360.5
899.409	20267.5
899.647	20150.5
899.886	20140.5
900.124	20184.5
900.363	20105.5
900.601	20218.5
900.839	20120.5
901.078	20210.5
901.316	20326.5
901.554	20349.5
901.792	20452.5
902.03	20420.5
902.268	20352.5
902.506	20336.5
902.744	20153.5
902.982	20057.5
903.22	19679.5
903.458	19529.5
903.695	19286.5
903.933	19066.5
904.171	18772.5
904.409	18494.5
904.646	18336.5
904.884	17986.5
905.121	17931.5
905.359	17690.5
905.596	17507.5
905.833	17478.5
906.071	17304.5
906.308	17345.5
906.545	17241.5
906.783	17134.5
907.02	17081.5
907.257	17048.5
907.494	17027.5
907.731	17039.5
907.968	16846.5
908.205	16695.5
908.442	16668.5
908.679	16530.5
908.915	16419.5
909.152	16250.5
909.389	16126.5
909.626	16055.5
909.862	15931.5
910.099	15898.5
910.335	15847.5
910.572	15764.5
910.808	15685.5
911.045	15693.5
911.281	15566.5
911.518	15534.5
911.754	15443.5
911.99	15352.5
912.226	15210.5
912.463	15098.5
912.699	15087.5
912.935	14852.5
913.171	14771.5
913.407	14560.5
913.643	14582.5
913.879	14429.5
914.114	14255.5
914.35	14135.5
914.586	14126.5
914.822	13836.5
915.057	13827.5
915.293	13738.5
915.529	13640.5
915.764	13685.5
916	13628.5
916.235	13661.5
916.471	13619.5
916.706	13426.5
916.941	13425.5
917.177	13469.5
917.412	13544.5
917.647	13475.5
917.882	13438.5
918.117	13422.5
918.352	13328.5
918.588	13207.5
918.823	13107.5
919.057	13059.5
919.292	12823.5
919.527	12889.5
919.762	12623.5
919.997	12559.5
920.232	12412.5
920.466	12349.5
920.701	12155.5
920.935	12146.5
921.17	11995.5
921.405	11937.5
921.639	12000.5
921.873	11843.5
922.108	11817.5
922.342	11811.5
922.576	11745.5
922.811	11651.5
923.045	11652.5
923.279	11657.5
923.513	11505.5
923.747	11535.5
923.981	11393.5
924.215	11379.5
924.449	11235.5
924.683	11151.5
924.917	11073.5
925.151	11148.5
925.385	11169.5
925.618	11028.5
925.852	11017.5
926.086	10960.5
926.319	10910.5
926.553	10902.5
926.786	10902.5
927.02	10944.5
927.253	10960.5
927.486	10896.5
927.72	10779.5
927.953	10869.5
928.186	10790.5
928.42	10722.5
928.653	10657.5
928.886	10537.5
929.119	10615.5
929.352	10576.5
929.585	10439.5
929.818	10405.5
930.051	10279.5
930.284	10248.5
930.516	10117.5
930.749	10029.5
930.982	10004.5
931.215	10026.5
931.447	9854.5
931.68	9921.5
931.912	9804.5
932.145	9807.5
932.377	9899.5
932.61	9866.5
932.842	9734.5
933.074	9856.5
933.307	9709.5
933.539	9842.5
933.771	9794.5
934.003	9738.5
934.236	9813.5
934.468	9805.5
934.7	9633.5
934.932	9721.5
935.164	9572.5
935.395	9505.5
935.627	9607.5
935.859	9581.5
936.091	9447.5
936.323	9480.5
936.554	9481.5
936.786	9391.5
937.017	9216.5
937.249	9320.5
937.481	9288.5
937.712	9253.5
937.943	9223.5
938.175	9236.5
938.406	9265.5
938.637	9223.5
938.869	9101.5
939.1	9160.5
939.331	9074.5
939.562	9066.5
939.793	9013.5
940.024	9066.5
940.255	9006.5
940.486	8874.5
940.717	8773.5
940.948	8782.5
941.179	8767.5
941.409	8760.5
941.64	8729.5
941.871	8808.5
942.102	8727.5
942.332	8772.5
942.563	8746.5
942.793	8731.5
943.024	8669.5
943.254	8664.5
943.484	8652.5
943.715	8696.5
943.945	8662.5
944.175	8651.5
944.405	8589.5
944.636	8566.5
944.866	8633.5
945.096	8631.5
945.326	8509.5
945.556	8535.5
945.786	8540.5
946.016	8420.5
946.245	8311.5
946.475	8315.5
946.705	8202.5
946.935	8207.5
947.164	8162.5
947.394	8034.5
947.624	8063.5
947.853	8058.5
948.083	7970.5
948.312	7964.5
948.542	7895.5
948.771	7839.5
949	7845.5
949.23	7838.5
949.459	7887.5
949.688	7930.5
949.917	7856.5
950.146	7842.5
950.375	7831.5
950.604	7746.5
950.833	7865.5
951.062	7792.5
951.291	7709.5
951.52	7642.5
951.749	7687.5
951.978	7566.5
952.206	7619.5
952.435	7577.5
952.664	7604.5
952.892	7548.5
953.121	7539.5
953.349	7494.5
953.578	7499.5
953.806	7381.5
954.035	7379.5
954.263	7361.5
954.491	7240.5
954.719	7347.5
954.948	7205.5
955.176	7225.5
955.404	7033.5
955.632	7104.5
955.86	7152.5
956.088	7062.5
956.316	7130.5
956.544	7028.5
956.772	6895.5
956.999	6944.5
957.227	6953.5
957.455	6779.5
957.683	6807.5
957.91	6740.5
958.138	6682.5
958.365	6695.5
958.593	6656.5
958.82	6568.5
959.048	6657.5
959.275	6597.5
959.502	6577.5
959.73	6565.5
959.957	6507.5
960.184	6588.5
960.411	6503.5
960.638	6580.5
960.865	6420.5
961.092	6509.5
961.319	6384.5
961.546	6463.5
961.773	6510.5
962	6416.5
962.227	6438.5
962.454	6362.5
962.68	6358.5
962.907	6358.5
963.134	6247.5
963.36	6235.5
963.587	6306.5
963.813	6157.5
964.04	6117.5
964.266	6076.5
964.493	6128.5
964.719	6078.5
964.945	6040.5
965.171	5900.5
965.398	5899.5
965.624	5961.5
965.85	5886.5
966.076	5825.5
966.302	5821.5
966.528	5793.5
966.754	5790.5
966.98	5770.5
967.206	5703.5
967.431	5703.5
967.657	5733.5
967.883	5713.5
968.109	5698.5
968.334	5589.5
968.56	5602.5
968.785	5616.5
969.011	5572.5
969.236	5602.5
969.462	5502.5
969.687	5502.5
969.912	5546.5
970.138	5510.5
970.363	5471.5
970.588	5479.5
970.813	5396.5
971.038	5347.5
971.263	5367.5
971.488	5404.5
971.713	5394.5
971.938	5375.5
972.163	5226.5
972.388	5223.5
972.613	5209.5
972.838	5225.5
973.062	5194.5
973.287	5179.5
973.512	5124.5
973.736	5115.5
973.961	5042.5
974.185	5048.5
974.41	5074.5
974.634	4911.5
974.858	4939.5
975.083	4900.5
975.307	4884.5
975.531	4875.5
975.755	4738.5
975.98	4799.5
976.204	4705.5
976.428	4683.5
976.652	4670.5
976.876	4676.5
977.1	4677.5
977.324	4624.5
977.547	4642.5
977.771	4597.5
977.995	4591.5
978.219	4487.5
978.442	4607.5
978.666	4544.5
978.89	4497.5
979.113	4496.5
979.337	4512.5
979.56	4435.5
979.783	4531.5
980.007	4379.5
980.23	4444.5
980.453	4351.5
980.677	4382.5
980.9	4392.5
981.123	4265.5
981.346	4325.5
981.569	4326.5
981.792	4318.5
982.015	4228.5
982.238	4209.5
982.461	4198.5
982.684	4150.5
982.907	4098.5
983.129	4106.5
983.352	4096.5
983.575	4033.5
983.797	4045.5
984.02	4017.5
984.242	4014.5
984.465	3988.5
984.687	3987.5
984.91	4011.5
985.132	3962.5
985.354	3923.5
985.577	3958.5
985.799	3866.5
986.021	3818.5
986.243	3831.5
986.465	3853.5
986.687	3865.5
986.909	3853.5
987.131	3766.5
987.353	3750.5
987.575	3815.5
987.797	3747.5
988.019	3660.5
988.241	3667.5
988.462	3653.5
988.684	3712.5
988.906	3719.5
989.127	3733.5
989.349	3652.5
989.57	3601.5
989.792	3626.5
990.013	3646.5
990.234	3608.5
990.456	3672.5
990.677	3640.5
990.898	3524.5
991.119	3507.5
991.341	3533.5
991.562	3486.5
991.783	3502.5
992.004	3469.5
992.225	3428.5
992.446	3443.5
992.667	3309.5
992.887	3388.5
993.108	3244.5
993.329	3371.5
993.55	3318.5
993.77	3213.5
993.991	3271.5
994.212	3257.5
994.432	3229.5
994.653	3249.5
994.873	3201.5
995.093	3079.5
995.314	3154.5
995.534	3179.5
995.754	3180.5
995.975	3214.5
996.195	3050.5
996.415	3141.5
996.635	3077.5
996.855	3094.5
997.075	3081.5
997.295	3107.5
997.515	3027.5
997.735	3134.5
997.955	3076.5
998.174	3019.5
998.394	3031.5
998.614	3037.5
998.834	2972.5
999.053	3039.5
999.273	3011.5
999.492	3031.5
999.712	2966.5
999.931	2904.5
1000.151	2949.5
1000.37	2912.5
1000.589	2947.5
1000.809	2851.5
1001.028	2948.5
1001.247	2894.5
1001.466	2802.5
1001.685	2936.5
1001.904	2831.5
1002.123	2839.5
1002.342	2766.5
1002.561	2763.5
1002.78	2742.5
1002.999	2771.5
1003.218	2732.5
1003.436	2720.5
1003.655	2740.5
1003.874	2672.5
1004.092	2667.5
1004.311	2691.5
1004.53	2687.5
1004.748	2720.5
1004.966	2615.5
1005.185	2668.5
1005.403	2618.5
1005.622	2643.5
1005.84	2710.5
1006.058	2584.5
1006.276	2631.5
1006.494	3088.5
1006.712	2617.5
1006.931	2643.5
1007.149	2577.5
1007.367	2552.5
1007.584	2602.5
1007.802	2634.5
1008.02	2564.5
1008.238	2694.5
1008.456	2648.5
1008.673	2554.5
1008.891	2644.5
1009.109	2651.5
1009.326	2662.5
1009.544	2768.5
1009.761	2704.5
1009.979	2794.5
1010.196	2792.5
1010.413	2962.5
1010.631	3016.5
1010.848	3063.5
1011.065	3075.5
1011.282	3013.5
1011.5	2942.5
1011.717	3066.5
1011.934	2960.5
1012.151	2992.5
1012.368	2972.5
1012.585	2922.5
1012.801	2975.5
1013.018	2943.5
1013.235	2925.5
1013.452	2939.5
1013.669	2934.5
1013.885	2923.5
1014.102	2945.5
1014.318	2916.5
1014.535	2840.5
1014.751	2920.5
1014.968	2874.5
1015.184	2914.5
1015.401	2789.5
1015.617	2816.5
1015.833	2759.5
1016.049	2735.5
1016.266	2725.5
1016.482	2701.5
1016.698	2638.5
1016.914	2681.5
1017.13	2611.5
1017.346	2599.5
1017.562	2661.5
1017.778	2529.5
1017.993	2553.5
1018.209	2575.5
1018.425	2513.5
1018.641	2560.5
1018.856	2514.5
1019.072	2525.5
1019.288	2570.5
1019.503	2528.5
1019.719	2433.5
1019.934	2437.5
1020.149	2542.5
1020.365	2436.5
1020.58	2374.5
1020.795	2427.5
1021.011	2319.5
1021.226	2277.5
1021.441	2296.5
1021.656	2180.5
1021.871	2095.5
1022.086	2077.5
1022.301	2076.5
1022.516	2038.5
1022.731	2067.5
1022.946	1978.5
1023.16	1940.5
1023.375	1924.5
1023.59	1855.5
1023.804	1812.5
1024.019	1884.5
1024.234	1750.5
1024.448	1770.5
1024.663	1677.5
1024.877	1707.5
1025.092	1711.5
1025.306	1647.5
1025.52	1552.5
1025.734	1647.5
1025.949	1545.5
1026.163	1507.5
1026.377	1417.5
1026.591	1458.5
1026.805	1391.5
1027.019	1376.5
1027.233	1319.5
1027.447	1260.5
1027.661	1367.5
1027.875	1280.5
1028.088	1272.5
1028.302	1196.5
1028.516	1166.5
1028.73	1148.5
1028.943	1136.5
1029.157	1035.5
1029.37	984.5
1029.584	-2.5
1029.797	0.5
1030.011	-1.5
1030.224	-4.5
