Data from QEP037381__353__16-28-39-916.txt Node

Date: Fri Dec 16 16:28:39 EST 2022
User: dcclab
Spectrometer: QEP03738
Trigger mode: 4
Integration Time (sec): 1.000000E1
Scans to average: 1
Electric dark correction enabled: true
Nonlinearity correction enabled: false
Boxcar width: 0
XAxis mode: Wavelengths
Number of Pixels in Spectrum: 1044
>>>>>Begin Spectral Data<<<<<
784.041	12.5
784.3	0.5
784.558	-3.5
784.817	-7.5
785.075	107575.5
785.334	18900.5
785.592	8838.5
785.851	6123.5
786.109	4656.5
786.368	3591.5
786.626	2896.5
786.884	2416.5
787.143	2020.5
787.401	1692.5
787.659	1518.5
787.917	1301.5
788.175	1180.5
788.433	1016.5
788.691	923.5
788.949	875.5
789.207	821.5
789.465	715.5
789.723	680.5
789.98	628.5
790.238	656.5
790.496	631.5
790.753	597.5
791.011	653.5
791.268	572.5
791.526	570.5
791.783	563.5
792.041	554.5
792.298	471.5
792.556	531.5
792.813	507.5
793.07	472.5
793.327	472.5
793.584	555.5
793.841	478.5
794.099	487.5
794.356	547.5
794.613	450.5
794.869	499.5
795.126	471.5
795.383	433.5
795.64	463.5
795.897	424.5
796.153	458.5
796.41	459.5
796.667	441.5
796.923	437.5
797.18	453.5
797.436	479.5
797.693	453.5
797.949	494.5
798.206	516.5
798.462	425.5
798.718	501.5
798.974	489.5
799.231	529.5
799.487	515.5
799.743	514.5
799.999	541.5
800.255	561.5
800.511	535.5
800.767	587.5
801.023	574.5
801.279	616.5
801.534	654.5
801.79	718.5
802.046	760.5
802.302	912.5
802.557	1062.5
802.813	1311.5
803.068	1641.5
803.324	2284.5
803.579	3169.5
803.835	4366.5
804.09	6049.5
804.345	7831.5
804.601	9990.5
804.856	12097.5
805.111	14031.5
805.366	15438.5
805.621	16608.5
805.876	17354.5
806.131	17863.5
806.386	18173.5
806.641	18603.5
806.896	18881.5
807.151	19174.5
807.406	19574.5
807.661	19948.5
807.915	20239.5
808.17	20545.5
808.425	20786.5
808.679	21006.5
808.934	21235.5
809.188	21326.5
809.443	21653.5
809.697	22016.5
809.951	22041.5
810.206	22216.5
810.46	22490.5
810.714	22726.5
810.968	23016.5
811.223	23099.5
811.477	23358.5
811.731	23553.5
811.985	23551.5
812.239	23669.5
812.493	23843.5
812.747	23933.5
813	24107.5
813.254	24181.5
813.508	24273.5
813.762	24374.5
814.015	24582.5
814.269	24745.5
814.522	24876.5
814.776	25156.5
815.03	25544.5
815.283	25918.5
815.536	26312.5
815.79	26680.5
816.043	27140.5
816.296	27525.5
816.55	27842.5
816.803	28174.5
817.056	28587.5
817.309	28736.5
817.562	29009.5
817.815	29333.5
818.068	29539.5
818.321	29874.5
818.574	30196.5
818.827	30594.5
819.079	31011.5
819.332	31562.5
819.585	31696.5
819.838	32288.5
820.09	32628.5
820.343	32872.5
820.595	32885.5
820.848	33219.5
821.1	33302.5
821.353	33406.5
821.605	33284.5
821.857	33328.5
822.11	33186.5
822.362	33056.5
822.614	32973.5
822.866	33031.5
823.118	33001.5
823.37	33211.5
823.622	33187.5
823.874	33487.5
824.126	33472.5
824.378	33520.5
824.63	33642.5
824.882	33775.5
825.134	33747.5
825.385	33636.5
825.637	33769.5
825.888	33401.5
826.14	33441.5
826.392	33288.5
826.643	33151.5
826.895	32940.5
827.146	33008.5
827.397	32874.5
827.649	32933.5
827.9	32838.5
828.151	32895.5
828.402	33102.5
828.653	33197.5
828.905	33148.5
829.156	33167.5
829.407	33211.5
829.658	33316.5
829.909	33317.5
830.159	33270.5
830.41	33063.5
830.661	32975.5
830.912	32760.5
831.162	32692.5
831.413	32652.5
831.664	32599.5
831.914	32534.5
832.165	32610.5
832.415	32542.5
832.666	32565.5
832.916	32558.5
833.167	32582.5
833.417	32544.5
833.667	32437.5
833.917	32291.5
834.168	32146.5
834.418	32182.5
834.668	32054.5
834.918	31896.5
835.168	31887.5
835.418	31756.5
835.668	31476.5
835.918	31408.5
836.167	31460.5
836.417	31322.5
836.667	31304.5
836.917	31311.5
837.166	31339.5
837.416	31348.5
837.666	31246.5
837.915	31248.5
838.165	31221.5
838.414	31011.5
838.663	31066.5
838.913	31050.5
839.162	30911.5
839.411	31006.5
839.661	30799.5
839.91	30713.5
840.159	30663.5
840.408	30699.5
840.657	30723.5
840.906	30774.5
841.155	30751.5
841.404	30647.5
841.653	30601.5
841.902	30822.5
842.15	30806.5
842.399	30693.5
842.648	30682.5
842.897	30586.5
843.145	30403.5
843.394	30269.5
843.642	30177.5
843.891	29951.5
844.139	29802.5
844.388	29603.5
844.636	29581.5
844.884	29503.5
845.133	29497.5
845.381	29454.5
845.629	29572.5
845.877	29483.5
846.125	29404.5
846.373	29395.5
846.621	29205.5
846.869	29096.5
847.117	29009.5
847.365	28728.5
847.613	28747.5
847.861	28645.5
848.108	28578.5
848.356	28538.5
848.604	28483.5
848.851	28494.5
849.099	28522.5
849.346	28538.5
849.594	28646.5
849.841	28862.5
850.089	28934.5
850.336	28823.5
850.583	28945.5
850.831	28703.5
851.078	28585.5
851.325	28552.5
851.572	28547.5
851.819	28365.5
852.066	27846.5
852.313	27490.5
852.56	27300.5
852.807	27282.5
853.054	27094.5
853.301	27097.5
853.548	27097.5
853.794	27311.5
854.041	27252.5
854.288	27368.5
854.534	27600.5
854.781	27542.5
855.028	27551.5
855.274	27480.5
855.52	27289.5
855.767	27180.5
856.013	27350.5
856.26	27428.5
856.506	26899.5
856.752	26882.5
856.998	26946.5
857.244	26956.5
857.49	26961.5
857.736	27145.5
857.982	27096.5
858.228	27081.5
858.474	26962.5
858.72	26597.5
858.966	26550.5
859.212	26294.5
859.458	25909.5
859.703	25755.5
859.949	25448.5
860.195	25447.5
860.44	25260.5
860.686	25090.5
860.931	25077.5
861.177	24903.5
861.422	24880.5
861.667	24757.5
861.913	24787.5
862.158	24826.5
862.403	24812.5
862.648	24993.5
862.893	24987.5
863.138	24935.5
863.384	24888.5
863.629	24785.5
863.873	24817.5
864.118	24650.5
864.363	24447.5
864.608	24540.5
864.853	24439.5
865.098	24307.5
865.342	24234.5
865.587	24075.5
865.832	24087.5
866.076	24043.5
866.321	23920.5
866.565	23960.5
866.81	23811.5
867.054	23706.5
867.298	23804.5
867.543	23548.5
867.787	23680.5
868.031	23464.5
868.275	23432.5
868.519	23426.5
868.764	23436.5
869.008	23304.5
869.252	23404.5
869.496	23144.5
869.739	23172.5
869.983	23319.5
870.227	23221.5
870.471	23215.5
870.715	23217.5
870.958	23271.5
871.202	23298.5
871.446	23425.5
871.689	23431.5
871.933	23356.5
872.176	23291.5
872.42	23332.5
872.663	23243.5
872.906	23182.5
873.15	23088.5
873.393	22969.5
873.636	22951.5
873.879	22680.5
874.122	22575.5
874.366	22313.5
874.609	22038.5
874.852	21964.5
875.095	21782.5
875.337	21785.5
875.58	21573.5
875.823	21623.5
876.066	21472.5
876.309	21575.5
876.551	21259.5
876.794	21157.5
877.037	21188.5
877.279	21079.5
877.522	21097.5
877.764	21140.5
878.007	21087.5
878.249	21067.5
878.491	20997.5
878.734	20920.5
878.976	20937.5
879.218	20854.5
879.46	20689.5
879.702	20500.5
879.945	20306.5
880.187	20251.5
880.429	20123.5
880.671	20082.5
880.912	19900.5
881.154	19963.5
881.396	19844.5
881.638	19848.5
881.88	19833.5
882.121	19728.5
882.363	19730.5
882.605	19733.5
882.846	19713.5
883.088	19649.5
883.329	19511.5
883.571	19664.5
883.812	19764.5
884.053	19888.5
884.295	20264.5
884.536	20493.5
884.777	20366.5
885.018	20227.5
885.259	20114.5
885.5	20031.5
885.742	20206.5
885.982	19902.5
886.223	19806.5
886.464	19658.5
886.705	19431.5
886.946	19394.5
887.187	19154.5
887.428	18886.5
887.668	18693.5
887.909	18454.5
888.15	18217.5
888.39	18198.5
888.631	18014.5
888.871	17941.5
889.111	17838.5
889.352	17678.5
889.592	17439.5
889.833	17363.5
890.073	17311.5
890.313	17269.5
890.553	17016.5
890.793	16920.5
891.033	16918.5
891.273	17018.5
891.513	16770.5
891.753	16699.5
891.993	16740.5
892.233	16739.5
892.473	16896.5
892.713	16856.5
892.952	16648.5
893.192	16777.5
893.432	16752.5
893.671	16711.5
893.911	16581.5
894.15	16527.5
894.39	16419.5
894.629	16317.5
894.869	16243.5
895.108	16144.5
895.347	16035.5
895.587	16087.5
895.826	15886.5
896.065	15929.5
896.304	16001.5
896.543	15983.5
896.782	15902.5
897.021	15801.5
897.26	15798.5
897.499	15799.5
897.738	15783.5
897.977	15690.5
898.216	15505.5
898.454	15434.5
898.693	15247.5
898.932	15188.5
899.17	15199.5
899.409	15248.5
899.647	15135.5
899.886	15005.5
900.124	15149.5
900.363	15098.5
900.601	15132.5
900.839	15065.5
901.078	15228.5
901.316	15265.5
901.554	15158.5
901.792	15366.5
902.03	15278.5
902.268	15404.5
902.506	15266.5
902.744	15139.5
902.982	15131.5
903.22	14803.5
903.458	14694.5
903.695	14546.5
903.933	14393.5
904.171	14042.5
904.409	13878.5
904.646	13736.5
904.884	13486.5
905.121	13409.5
905.359	13235.5
905.596	13226.5
905.833	12990.5
906.071	12983.5
906.308	12963.5
906.545	12905.5
906.783	12833.5
907.02	12821.5
907.257	12764.5
907.494	12752.5
907.731	12643.5
907.968	12634.5
908.205	12588.5
908.442	12472.5
908.679	12442.5
908.915	12345.5
909.152	12178.5
909.389	12051.5
909.626	12106.5
909.862	11899.5
910.099	11945.5
910.335	11905.5
910.572	11727.5
910.808	11764.5
911.045	11717.5
911.281	11664.5
911.518	11660.5
911.754	11562.5
911.99	11481.5
912.226	11384.5
912.463	11363.5
912.699	11221.5
912.935	11191.5
913.171	11088.5
913.407	10985.5
913.643	10936.5
913.879	10898.5
914.114	10772.5
914.35	10589.5
914.586	10531.5
914.822	10474.5
915.057	10421.5
915.293	10247.5
915.529	10243.5
915.764	10273.5
916	10234.5
916.235	10184.5
916.471	10197.5
916.706	10111.5
916.941	10089.5
917.177	10102.5
917.412	10121.5
917.647	10101.5
917.882	10055.5
918.117	10135.5
918.352	10028.5
918.588	9964.5
918.823	9850.5
919.057	9732.5
919.292	9690.5
919.527	9662.5
919.762	9505.5
919.997	9478.5
920.232	9307.5
920.466	9317.5
920.701	9183.5
920.935	9084.5
921.17	9011.5
921.405	8942.5
921.639	9036.5
921.873	8956.5
922.108	8932.5
922.342	8925.5
922.576	8852.5
922.811	8801.5
923.045	8795.5
923.279	8827.5
923.513	8654.5
923.747	8619.5
923.981	8635.5
924.215	8485.5
924.449	8514.5
924.683	8414.5
924.917	8350.5
925.151	8372.5
925.385	8399.5
925.618	8304.5
925.852	8326.5
926.086	8184.5
926.319	8266.5
926.553	8223.5
926.786	8230.5
927.02	8151.5
927.253	8267.5
927.486	8217.5
927.72	8133.5
927.953	8164.5
928.186	8161.5
928.42	8103.5
928.653	8012.5
928.886	8015.5
929.119	8007.5
929.352	7964.5
929.585	7897.5
929.818	7887.5
930.051	7822.5
930.284	7692.5
930.516	7616.5
930.749	7608.5
930.982	7597.5
931.215	7549.5
931.447	7422.5
931.68	7430.5
931.912	7432.5
932.145	7378.5
932.377	7481.5
932.61	7564.5
932.842	7393.5
933.074	7423.5
933.307	7316.5
933.539	7393.5
933.771	7423.5
934.003	7403.5
934.236	7417.5
934.468	7385.5
934.7	7316.5
934.932	7322.5
935.164	7268.5
935.395	7249.5
935.627	7249.5
935.859	7267.5
936.091	7115.5
936.323	7217.5
936.554	7195.5
936.786	7067.5
937.017	7022.5
937.249	7053.5
937.481	6949.5
937.712	7029.5
937.943	6949.5
938.175	7004.5
938.406	6982.5
938.637	6993.5
938.869	6919.5
939.1	6919.5
939.331	6858.5
939.562	6915.5
939.793	6861.5
940.024	6883.5
940.255	6846.5
940.486	6806.5
940.717	6734.5
940.948	6650.5
941.179	6649.5
941.409	6671.5
941.64	6645.5
941.871	6640.5
942.102	6582.5
942.332	6684.5
942.563	6663.5
942.793	6628.5
943.024	6585.5
943.254	6610.5
943.484	6688.5
943.715	6602.5
943.945	6615.5
944.175	6452.5
944.405	6504.5
944.636	6500.5
944.866	6489.5
945.096	6569.5
945.326	6452.5
945.556	6456.5
945.786	6523.5
946.016	6441.5
946.245	6316.5
946.475	6295.5
946.705	6258.5
946.935	6256.5
947.164	6188.5
947.394	6133.5
947.624	6159.5
947.853	6152.5
948.083	6111.5
948.312	6066.5
948.542	5979.5
948.771	5944.5
949	6026.5
949.23	5993.5
949.459	6012.5
949.688	6017.5
949.917	5943.5
950.146	5988.5
950.375	6042.5
950.604	5890.5
950.833	5911.5
951.062	5945.5
951.291	5863.5
951.52	5817.5
951.749	5856.5
951.978	5823.5
952.206	5755.5
952.435	5783.5
952.664	5794.5
952.892	5771.5
953.121	5735.5
953.349	5786.5
953.578	5705.5
953.806	5684.5
954.035	5563.5
954.263	5606.5
954.491	5597.5
954.719	5566.5
954.948	5521.5
955.176	5523.5
955.404	5421.5
955.632	5479.5
955.86	5422.5
956.088	5408.5
956.316	5369.5
956.544	5361.5
956.772	5297.5
956.999	5306.5
957.227	5329.5
957.455	5241.5
957.683	5197.5
957.91	5147.5
958.138	5140.5
958.365	5126.5
958.593	5150.5
958.82	5023.5
959.048	5112.5
959.275	5045.5
959.502	5052.5
959.73	4974.5
959.957	4967.5
960.184	4991.5
960.411	4909.5
960.638	5078.5
960.865	4946.5
961.092	4946.5
961.319	4934.5
961.546	4987.5
961.773	4968.5
962	4964.5
962.227	4941.5
962.454	4919.5
962.68	4894.5
962.907	4891.5
963.134	4769.5
963.36	4764.5
963.587	4846.5
963.813	4687.5
964.04	4754.5
964.266	4593.5
964.493	4688.5
964.719	4647.5
964.945	4665.5
965.171	4524.5
965.398	4604.5
965.624	4626.5
965.85	4492.5
966.076	4538.5
966.302	4500.5
966.528	4487.5
966.754	4426.5
966.98	4434.5
967.206	4441.5
967.431	4318.5
967.657	4416.5
967.883	4407.5
968.109	4418.5
968.334	4319.5
968.56	4270.5
968.785	4346.5
969.011	4294.5
969.236	4287.5
969.462	4235.5
969.687	4185.5
969.912	4262.5
970.138	4313.5
970.363	4205.5
970.588	4228.5
970.813	4198.5
971.038	4185.5
971.263	4157.5
971.488	4119.5
971.713	4155.5
971.938	4137.5
972.163	4041.5
972.388	4072.5
972.613	3994.5
972.838	4008.5
973.062	3996.5
973.287	4003.5
973.512	3906.5
973.736	3923.5
973.961	3918.5
974.185	3909.5
974.41	3896.5
974.634	3795.5
974.858	3804.5
975.083	3822.5
975.307	3778.5
975.531	3732.5
975.755	3700.5
975.98	3766.5
976.204	3618.5
976.428	3618.5
976.652	3619.5
976.876	3573.5
977.1	3634.5
977.324	3542.5
977.547	3567.5
977.771	3620.5
977.995	3569.5
978.219	3520.5
978.442	3612.5
978.666	3554.5
978.89	3503.5
979.113	3450.5
979.337	3492.5
979.56	3453.5
979.783	3531.5
980.007	3431.5
980.23	3427.5
980.453	3397.5
980.677	3411.5
980.9	3382.5
981.123	3289.5
981.346	3422.5
981.569	3358.5
981.792	3369.5
982.015	3297.5
982.238	3265.5
982.461	3271.5
982.684	3276.5
982.907	3187.5
983.129	3173.5
983.352	3215.5
983.575	3179.5
983.797	3177.5
984.02	3087.5
984.242	3103.5
984.465	3119.5
984.687	3152.5
984.91	3159.5
985.132	3127.5
985.354	3094.5
985.577	3106.5
985.799	3025.5
986.021	3002.5
986.243	2961.5
986.465	3007.5
986.687	3043.5
986.909	3064.5
987.131	3040.5
987.353	2955.5
987.575	2969.5
987.797	2917.5
988.019	2878.5
988.241	2866.5
988.462	2866.5
988.684	2926.5
988.906	2939.5
989.127	2944.5
989.349	2849.5
989.57	2860.5
989.792	2875.5
990.013	2923.5
990.234	2860.5
990.456	2902.5
990.677	2888.5
990.898	2816.5
991.119	2829.5
991.341	2812.5
991.562	2759.5
991.783	2782.5
992.004	2684.5
992.225	2653.5
992.446	2719.5
992.667	2627.5
992.887	2700.5
993.108	2602.5
993.329	2717.5
993.55	2657.5
993.77	2578.5
993.991	2581.5
994.212	2620.5
994.432	2624.5
994.653	2605.5
994.873	2574.5
995.093	2462.5
995.314	2515.5
995.534	2561.5
995.754	2539.5
995.975	2560.5
996.195	2445.5
996.415	2507.5
996.635	2491.5
996.855	2466.5
997.075	2435.5
997.295	2451.5
997.515	2429.5
997.735	2510.5
997.955	2481.5
998.174	2398.5
998.394	2404.5
998.614	2433.5
998.834	2416.5
999.053	2454.5
999.273	2439.5
999.492	2451.5
999.712	2405.5
999.931	2366.5
1000.151	2393.5
1000.37	2339.5
1000.589	2406.5
1000.809	2310.5
1001.028	2410.5
1001.247	2341.5
1001.466	2245.5
1001.685	2344.5
1001.904	2278.5
1002.123	2268.5
1002.342	2253.5
1002.561	2183.5
1002.78	2251.5
1002.999	2282.5
1003.218	2228.5
1003.436	2191.5
1003.655	2241.5
1003.874	2147.5
1004.092	2177.5
1004.311	2230.5
1004.53	2175.5
1004.748	2246.5
1004.966	2156.5
1005.185	2238.5
1005.403	2201.5
1005.622	2156.5
1005.84	2254.5
1006.058	2143.5
1006.276	2155.5
1006.494	2670.5
1006.712	2136.5
1006.931	2195.5
1007.149	2116.5
1007.367	2116.5
1007.584	2166.5
1007.802	2201.5
1008.02	2088.5
1008.238	2252.5
1008.456	2231.5
1008.673	2095.5
1008.891	2200.5
1009.109	2175.5
1009.326	2203.5
1009.544	2303.5
1009.761	2209.5
1009.979	2286.5
1010.196	2334.5
1010.413	2441.5
1010.631	2508.5
1010.848	2578.5
1011.065	2595.5
1011.282	2535.5
1011.5	2438.5
1011.717	2559.5
1011.934	2483.5
1012.151	2505.5
1012.368	2475.5
1012.585	2427.5
1012.801	2461.5
1013.018	2423.5
1013.235	2431.5
1013.452	2422.5
1013.669	2475.5
1013.885	2454.5
1014.102	2481.5
1014.318	2468.5
1014.535	2362.5
1014.751	2404.5
1014.968	2419.5
1015.184	2410.5
1015.401	2312.5
1015.617	2395.5
1015.833	2292.5
1016.049	2271.5
1016.266	2252.5
1016.482	2258.5
1016.698	2191.5
1016.914	2218.5
1017.13	2174.5
1017.346	2169.5
1017.562	2231.5
1017.778	2169.5
1017.993	2112.5
1018.209	2169.5
1018.425	2149.5
1018.641	2076.5
1018.856	2080.5
1019.072	2098.5
1019.288	2168.5
1019.503	2078.5
1019.719	2033.5
1019.934	2024.5
1020.149	2095.5
1020.365	2024.5
1020.58	1988.5
1020.795	2028.5
1021.011	1906.5
1021.226	1881.5
1021.441	1894.5
1021.656	1808.5
1021.871	1738.5
1022.086	1714.5
1022.301	1693.5
1022.516	1700.5
1022.731	1722.5
1022.946	1605.5
1023.16	1628.5
1023.375	1592.5
1023.59	1534.5
1023.804	1520.5
1024.019	1607.5
1024.234	1470.5
1024.448	1488.5
1024.663	1417.5
1024.877	1429.5
1025.092	1423.5
1025.306	1422.5
1025.52	1303.5
1025.734	1366.5
1025.949	1297.5
1026.163	1257.5
1026.377	1185.5
1026.591	1243.5
1026.805	1174.5
1027.019	1154.5
1027.233	1141.5
1027.447	1058.5
1027.661	1142.5
1027.875	1078.5
1028.088	1078.5
1028.302	1000.5
1028.516	992.5
1028.73	963.5
1028.943	938.5
1029.157	884.5
1029.37	819.5
1029.584	0.5
1029.797	-3.5
1030.011	-1.5
1030.224	2.5
