Data from QEP037381__298__16-19-29-908.txt Node

Date: Fri Dec 16 16:19:29 EST 2022
User: dcclab
Spectrometer: QEP03738
Trigger mode: 4
Integration Time (sec): 1.000000E1
Scans to average: 1
Electric dark correction enabled: true
Nonlinearity correction enabled: false
Boxcar width: 0
XAxis mode: Wavelengths
Number of Pixels in Spectrum: 1044
>>>>>Begin Spectral Data<<<<<
784.041	15
784.3	0
784.558	0
784.817	-4
785.075	110271
785.334	18773
785.592	8746
785.851	6021
786.109	4528
786.368	3535
786.626	2851
786.884	2363
787.143	2008
787.401	1623
787.659	1471
787.917	1268
788.175	1172
788.433	1045
788.691	919
788.949	842
789.207	816
789.465	701
789.723	684
789.98	632
790.238	649
790.496	603
790.753	578
791.011	644
791.268	559
791.526	556
791.783	573
792.041	554
792.298	460
792.556	522
792.813	497
793.07	493
793.327	469
793.584	551
793.841	471
794.099	488
794.356	548
794.613	436
794.869	486
795.126	456
795.383	432
795.64	452
795.897	413
796.153	474
796.41	463
796.667	440
796.923	461
797.18	445
797.436	473
797.693	439
797.949	495
798.206	521
798.462	435
798.718	501
798.974	482
799.231	534
799.487	515
799.743	529
799.999	554
800.255	549
800.511	533
800.767	577
801.023	597
801.279	616
801.534	655
801.79	718
802.046	776
802.302	922
802.557	1064
802.813	1351
803.068	1678
803.324	2358
803.579	3197
803.835	4357
804.09	6081
804.345	7948
804.601	9977
804.856	12216
805.111	14156
805.366	15592
805.621	16670
805.876	17406
806.131	17851
806.386	18219
806.641	18697
806.896	18944
807.151	19225
807.406	19661
807.661	19962
807.915	20257
808.17	20701
808.425	20906
808.679	21050
808.934	21348
809.188	21433
809.443	21746
809.697	21995
809.951	22070
810.206	22225
810.46	22486
810.714	22545
810.968	22810
811.223	23090
811.477	23227
811.731	23567
811.985	23556
812.239	23656
812.493	23832
812.747	23783
813	23962
813.254	24093
813.508	24137
813.762	24256
814.015	24347
814.269	24606
814.522	24875
814.776	25035
815.03	25419
815.283	25767
815.536	26210
815.79	26418
816.043	26927
816.296	27299
816.55	27514
816.803	27936
817.056	28290
817.309	28498
817.562	28795
817.815	29150
818.068	29286
818.321	29607
818.574	29816
818.827	30238
819.079	30659
819.332	31286
819.585	31520
819.838	31914
820.09	32064
820.343	32292
820.595	32437
820.848	32754
821.1	32895
821.353	32919
821.605	32811
821.857	32832
822.11	32637
822.362	32477
822.614	32446
822.866	32516
823.118	32551
823.37	32494
823.622	32698
823.874	32956
824.126	32918
824.378	32921
824.63	33099
824.882	33233
825.134	33088
825.385	33167
825.637	33052
825.888	32877
826.14	32929
826.392	32725
826.643	32496
826.895	32410
827.146	32202
827.397	32245
827.649	32364
827.9	32184
828.151	32379
828.402	32293
828.653	32508
828.905	32562
829.156	32538
829.407	32495
829.658	32582
829.909	32678
830.159	32652
830.41	32597
830.661	32394
830.912	31931
831.162	32067
831.413	31927
831.664	31995
831.914	31896
832.165	31854
832.415	31883
832.666	31896
832.916	31920
833.167	31815
833.417	31826
833.667	31826
833.917	31515
834.168	31577
834.418	31487
834.668	31386
834.918	31235
835.168	31136
835.418	30974
835.668	30847
835.918	30779
836.167	30624
836.417	30672
836.667	30558
836.917	30700
837.166	30581
837.416	30677
837.666	30565
837.915	30706
838.165	30542
838.414	30403
838.663	30395
838.913	30372
839.162	30193
839.411	30337
839.661	30093
839.91	30047
840.159	30054
840.408	30004
840.657	30022
840.906	30036
841.155	30122
841.404	29955
841.653	30051
841.902	30101
842.15	30040
842.399	30207
842.648	30115
842.897	29952
843.145	29686
843.394	29560
843.642	29437
843.891	29313
844.139	29352
844.388	29096
844.636	28925
844.884	28850
845.133	28881
845.381	28891
845.629	28861
845.877	28825
846.125	28824
846.373	28798
846.621	28630
846.869	28637
847.117	28444
847.365	28385
847.613	28208
847.861	28052
848.108	27983
848.356	27895
848.604	27813
848.851	27989
849.099	27973
849.346	28086
849.594	28133
849.841	28245
850.089	28284
850.336	28249
850.583	28221
850.831	28110
851.078	28140
851.325	27854
851.572	28152
851.819	27824
852.066	27382
852.313	27045
852.56	26755
852.807	26616
853.054	26532
853.301	26515
853.548	26545
853.794	26685
854.041	26754
854.288	26847
854.534	27144
854.781	26915
855.028	26907
855.274	26965
855.52	26623
855.767	26686
856.013	26698
856.26	26989
856.506	26355
856.752	26508
856.998	26329
857.244	26472
857.49	26685
857.736	26664
857.982	26686
858.228	26596
858.474	26394
858.72	26189
858.966	26037
859.212	25695
859.458	25478
859.703	25120
859.949	24941
860.195	24802
860.44	24743
860.686	24561
860.931	24595
861.177	24446
861.422	24256
861.667	24246
861.913	24333
862.158	24271
862.403	24211
862.648	24360
862.893	24275
863.138	24355
863.384	24122
863.629	24275
863.873	24150
864.118	24182
864.363	24054
864.608	23952
864.853	23818
865.098	23804
865.342	23746
865.587	23545
865.832	23575
866.076	23482
866.321	23492
866.565	23287
866.81	23286
867.054	23233
867.298	23174
867.543	23035
867.787	23053
868.031	23059
868.275	23079
868.519	22911
868.764	22985
869.008	22863
869.252	22921
869.496	22747
869.739	22708
869.983	22730
870.227	22633
870.471	22681
870.715	22881
870.958	22814
871.202	22911
871.446	22900
871.689	22802
871.933	22952
872.176	22822
872.42	22807
872.663	22796
872.906	22704
873.15	22624
873.393	22615
873.636	22564
873.879	22353
874.122	22166
874.366	21717
874.609	21705
874.852	21465
875.095	21411
875.337	21255
875.58	21112
875.823	21123
876.066	21004
876.309	21079
876.551	20777
876.794	20687
877.037	20763
877.279	20500
877.522	20661
877.764	20629
878.007	20488
878.249	20485
878.491	20291
878.734	20457
878.976	20259
879.218	20239
879.46	20179
879.702	19926
879.945	19756
880.187	19561
880.429	19524
880.671	19465
880.912	19328
881.154	19378
881.396	19240
881.638	19260
881.88	19247
882.121	19273
882.363	19160
882.605	19243
882.846	19222
883.088	19143
883.329	19124
883.571	19168
883.812	19281
884.053	19689
884.295	19951
884.536	20280
884.777	20089
885.018	19978
885.259	19859
885.5	19821
885.742	19862
885.982	19731
886.223	19462
886.464	19282
886.705	19147
886.946	18884
887.187	18601
887.428	18487
887.668	18211
887.909	17853
888.15	17578
888.39	17559
888.631	17335
888.871	17187
889.111	17107
889.352	17114
889.592	16854
889.833	16791
890.073	16707
890.313	16615
890.553	16430
890.793	16396
891.033	16235
891.273	16172
891.513	16169
891.753	16189
891.993	16155
892.233	16154
892.473	16307
892.713	16189
892.952	16215
893.192	16180
893.432	16100
893.671	16107
893.911	15974
894.15	15962
894.39	15763
894.629	15679
894.869	15665
895.108	15574
895.347	15493
895.587	15493
895.826	15441
896.065	15391
896.304	15434
896.543	15431
896.782	15373
897.021	15259
897.26	15277
897.499	15324
897.738	15164
897.977	15148
898.216	14972
898.454	14842
898.693	14736
898.932	14793
899.17	14632
899.409	14594
899.647	14534
899.886	14588
900.124	14553
900.363	14564
900.601	14621
900.839	14674
901.078	14647
901.316	14759
901.554	14832
901.792	14786
902.03	14872
902.268	14889
902.506	14794
902.744	14767
902.982	14634
903.22	14328
903.458	14203
903.695	13977
903.933	13774
904.171	13568
904.409	13300
904.646	13157
904.884	12971
905.121	12855
905.359	12660
905.596	12632
905.833	12415
906.071	12351
906.308	12443
906.545	12349
906.783	12162
907.02	12303
907.257	12182
907.494	12145
907.731	12064
907.968	11971
908.205	11810
908.442	11830
908.679	11822
908.915	11730
909.152	11667
909.389	11384
909.626	11381
909.862	11320
910.099	11329
910.335	11308
910.572	11200
910.808	11163
911.045	11113
911.281	11081
911.518	11143
911.754	10952
911.99	10897
912.226	10853
912.463	10661
912.699	10640
912.935	10594
913.171	10478
913.407	10372
913.643	10406
913.879	10281
914.114	10106
914.35	10031
914.586	10024
914.822	9905
915.057	9868
915.293	9707
915.529	9659
915.764	9710
916	9650
916.235	9672
916.471	9657
916.706	9632
916.941	9500
917.177	9528
917.412	9580
917.647	9505
917.882	9448
918.117	9446
918.352	9437
918.588	9415
918.823	9329
919.057	9244
919.292	9033
919.527	9090
919.762	8995
919.997	8908
920.232	8797
920.466	8756
920.701	8607
920.935	8598
921.17	8544
921.405	8434
921.639	8492
921.873	8491
922.108	8441
922.342	8379
922.576	8323
922.811	8238
923.045	8274
923.279	8241
923.513	8155
923.747	8166
923.981	8039
924.215	7957
924.449	7947
924.683	7865
924.917	7858
925.151	7778
925.385	7834
925.618	7753
925.852	7757
926.086	7657
926.319	7763
926.553	7706
926.786	7733
927.02	7696
927.253	7682
927.486	7684
927.72	7597
927.953	7656
928.186	7545
928.42	7590
928.653	7476
928.886	7449
929.119	7466
929.352	7392
929.585	7447
929.818	7309
930.051	7238
930.284	7237
930.516	7099
930.749	7111
930.982	7077
931.215	7110
931.447	6965
931.68	7019
931.912	6937
932.145	6834
932.377	6980
932.61	7039
932.842	6853
933.074	6943
933.307	6871
933.539	6984
933.771	6908
934.003	6824
934.236	6983
934.468	6907
934.7	6843
934.932	6845
935.164	6739
935.395	6776
935.627	6786
935.859	6728
936.091	6593
936.323	6697
936.554	6674
936.786	6639
937.017	6566
937.249	6580
937.481	6517
937.712	6541
937.943	6516
938.175	6494
938.406	6504
938.637	6537
938.869	6398
939.1	6505
939.331	6378
939.562	6322
939.793	6424
940.024	6370
940.255	6305
940.486	6262
940.717	6230
940.948	6210
941.179	6154
941.409	6192
941.64	6106
941.871	6200
942.102	6133
942.332	6145
942.563	6177
942.793	6116
943.024	6110
943.254	6058
943.484	6149
943.715	6159
943.945	6081
944.175	6017
944.405	6000
944.636	5991
944.866	6059
945.096	5996
945.326	6033
945.556	5976
945.786	6012
946.016	5914
946.245	5838
946.475	5783
946.705	5783
946.935	5796
947.164	5744
947.394	5696
947.624	5656
947.853	5697
948.083	5620
948.312	5555
948.542	5514
948.771	5473
949	5548
949.23	5513
949.459	5546
949.688	5562
949.917	5503
950.146	5461
950.375	5578
950.604	5449
950.833	5468
951.062	5474
951.291	5503
951.52	5369
951.749	5407
951.978	5326
952.206	5345
952.435	5217
952.664	5357
952.892	5308
953.121	5265
953.349	5235
953.578	5244
953.806	5265
954.035	5127
954.263	5155
954.491	5111
954.719	5095
954.948	5072
955.176	5034
955.404	4954
955.632	5021
955.86	4980
956.088	4968
956.316	4936
956.544	4931
956.772	4859
956.999	4837
957.227	4912
957.455	4805
957.683	4837
957.91	4708
958.138	4666
958.365	4693
958.593	4623
958.82	4621
959.048	4665
959.275	4634
959.502	4588
959.73	4568
959.957	4585
960.184	4602
960.411	4524
960.638	4645
960.865	4546
961.092	4521
961.319	4490
961.546	4549
961.773	4573
962	4518
962.227	4554
962.454	4487
962.68	4425
962.907	4446
963.134	4369
963.36	4427
963.587	4370
963.813	4309
964.04	4344
964.266	4218
964.493	4285
964.719	4258
964.945	4278
965.171	4116
965.398	4164
965.624	4164
965.85	4076
966.076	4070
966.302	4106
966.528	4052
966.754	4090
966.98	4076
967.206	4047
967.431	3980
967.657	4018
967.883	4016
968.109	4024
968.334	3959
968.56	3904
968.785	3950
969.011	3856
969.236	3929
969.462	3909
969.687	3872
969.912	3902
970.138	3896
970.363	3823
970.588	3861
970.813	3823
971.038	3777
971.263	3763
971.488	3814
971.713	3780
971.938	3795
972.163	3679
972.388	3620
972.613	3630
972.838	3665
973.062	3645
973.287	3645
973.512	3549
973.736	3621
973.961	3581
974.185	3510
974.41	3574
974.634	3475
974.858	3459
975.083	3497
975.307	3498
975.531	3389
975.755	3359
975.98	3373
976.204	3294
976.428	3314
976.652	3287
976.876	3270
977.1	3256
977.324	3265
977.547	3272
977.771	3296
977.995	3215
978.219	3158
978.442	3281
978.666	3198
978.89	3234
979.113	3166
979.337	3195
979.56	3164
979.783	3225
980.007	3076
980.23	3114
980.453	3041
980.677	3145
980.9	3082
981.123	2965
981.346	3096
981.569	3069
981.792	3033
982.015	3017
982.238	3002
982.461	3003
982.684	2943
982.907	2940
983.129	2873
983.352	2950
983.575	2897
983.797	2895
984.02	2815
984.242	2816
984.465	2817
984.687	2841
984.91	2886
985.132	2875
985.354	2821
985.577	2803
985.799	2786
986.021	2673
986.243	2710
986.465	2750
986.687	2754
986.909	2805
987.131	2689
987.353	2674
987.575	2713
987.797	2678
988.019	2621
988.241	2653
988.462	2611
988.684	2659
988.906	2654
989.127	2725
989.349	2586
989.57	2604
989.792	2646
990.013	2663
990.234	2625
990.456	2683
990.677	2652
990.898	2605
991.119	2579
991.341	2582
991.562	2501
991.783	2549
992.004	2472
992.225	2452
992.446	2465
992.667	2421
992.887	2500
993.108	2368
993.329	2504
993.55	2420
993.77	2353
993.991	2331
994.212	2371
994.432	2369
994.653	2391
994.873	2337
995.093	2242
995.314	2287
995.534	2379
995.754	2334
995.975	2411
996.195	2250
996.415	2287
996.635	2264
996.855	2309
997.075	2262
997.295	2257
997.515	2247
997.735	2310
997.955	2271
998.174	2250
998.394	2221
998.614	2286
998.834	2197
999.053	2273
999.273	2227
999.492	2283
999.712	2212
999.931	2152
1000.151	2186
1000.37	2169
1000.589	2240
1000.809	2139
1001.028	2225
1001.247	2154
1001.466	2060
1001.685	2206
1001.904	2124
1002.123	2115
1002.342	2095
1002.561	2043
1002.78	2083
1002.999	2126
1003.218	2068
1003.436	2025
1003.655	2052
1003.874	2007
1004.092	2035
1004.311	2076
1004.53	2033
1004.748	2085
1004.966	1982
1005.185	2042
1005.403	2054
1005.622	2009
1005.84	2093
1006.058	1961
1006.276	2003
1006.494	2483
1006.712	2026
1006.931	2078
1007.149	1976
1007.367	1998
1007.584	2000
1007.802	2048
1008.02	2000
1008.238	2097
1008.456	2116
1008.673	2006
1008.891	2081
1009.109	2089
1009.326	2138
1009.544	2223
1009.761	2186
1009.979	2236
1010.196	2294
1010.413	2420
1010.631	2454
1010.848	2564
1011.065	2621
1011.282	2529
1011.5	2456
1011.717	2580
1011.934	2528
1012.151	2549
1012.368	2472
1012.585	2446
1012.801	2495
1013.018	2449
1013.235	2441
1013.452	2468
1013.669	2477
1013.885	2454
1014.102	2515
1014.318	2477
1014.535	2416
1014.751	2465
1014.968	2450
1015.184	2459
1015.401	2353
1015.617	2375
1015.833	2308
1016.049	2335
1016.266	2254
1016.482	2303
1016.698	2200
1016.914	2247
1017.13	2174
1017.346	2167
1017.562	2216
1017.778	2172
1017.993	2117
1018.209	2208
1018.425	2202
1018.641	2134
1018.856	2090
1019.072	2100
1019.288	2151
1019.503	2128
1019.719	2036
1019.934	2030
1020.149	2106
1020.365	2047
1020.58	1963
1020.795	2004
1021.011	1926
1021.226	1912
1021.441	1891
1021.656	1819
1021.871	1722
1022.086	1718
1022.301	1706
1022.516	1676
1022.731	1697
1022.946	1614
1023.16	1622
1023.375	1557
1023.59	1549
1023.804	1491
1024.019	1590
1024.234	1420
1024.448	1483
1024.663	1401
1024.877	1373
1025.092	1403
1025.306	1397
1025.52	1289
1025.734	1329
1025.949	1283
1026.163	1222
1026.377	1163
1026.591	1197
1026.805	1118
1027.019	1116
1027.233	1057
1027.447	1036
1027.661	1117
1027.875	1031
1028.088	1046
1028.302	972
1028.516	941
1028.73	930
1028.943	924
1029.157	856
1029.37	803
1029.584	-2
1029.797	-6
1030.011	-2
1030.224	-1
