Data from QEP037381__276__16-15-49-905.txt Node

Date: Fri Dec 16 16:15:49 EST 2022
User: dcclab
Spectrometer: QEP03738
Trigger mode: 4
Integration Time (sec): 1.000000E1
Scans to average: 1
Electric dark correction enabled: true
Nonlinearity correction enabled: false
Boxcar width: 0
XAxis mode: Wavelengths
Number of Pixels in Spectrum: 1044
>>>>>Begin Spectral Data<<<<<
784.041	11.25
784.3	-0.75
784.558	-3.75
784.817	-2.75
785.075	111278.25
785.334	19195.25
785.592	9005.25
785.851	6237.25
786.109	4697.25
786.368	3653.25
786.626	2939.25
786.884	2418.25
787.143	2040.25
787.401	1684.25
787.659	1505.25
787.917	1277.25
788.175	1198.25
788.433	1039.25
788.691	917.25
788.949	868.25
789.207	813.25
789.465	718.25
789.723	694.25
789.98	632.25
790.238	654.25
790.496	610.25
790.753	604.25
791.011	659.25
791.268	572.25
791.526	549.25
791.783	562.25
792.041	559.25
792.298	475.25
792.556	529.25
792.813	514.25
793.07	476.25
793.327	464.25
793.584	543.25
793.841	472.25
794.099	490.25
794.356	571.25
794.613	453.25
794.869	498.25
795.126	451.25
795.383	442.25
795.64	454.25
795.897	413.25
796.153	477.25
796.41	466.25
796.667	446.25
796.923	452.25
797.18	459.25
797.436	479.25
797.693	431.25
797.949	496.25
798.206	521.25
798.462	450.25
798.718	498.25
798.974	479.25
799.231	527.25
799.487	508.25
799.743	530.25
799.999	550.25
800.255	548.25
800.511	542.25
800.767	582.25
801.023	600.25
801.279	605.25
801.534	674.25
801.79	718.25
802.046	763.25
802.302	952.25
802.557	1070.25
802.813	1346.25
803.068	1715.25
803.324	2369.25
803.579	3269.25
803.835	4488.25
804.09	6176.25
804.345	8121.25
804.601	10252.25
804.856	12334.25
805.111	14309.25
805.366	15813.25
805.621	16949.25
805.876	17773.25
806.131	18301.25
806.386	18527.25
806.641	18899.25
806.896	19146.25
807.151	19617.25
807.406	19842.25
807.661	20208.25
807.915	20586.25
808.17	20963.25
808.425	21195.25
808.679	21234.25
808.934	21561.25
809.188	21706.25
809.443	22090.25
809.697	22263.25
809.951	22451.25
810.206	22646.25
810.46	22800.25
810.714	23030.25
810.968	23206.25
811.223	23361.25
811.477	23699.25
811.731	23863.25
811.985	23885.25
812.239	23992.25
812.493	24156.25
812.747	24095.25
813	24303.25
813.254	24483.25
813.508	24537.25
813.762	24646.25
814.015	24823.25
814.269	25010.25
814.522	25067.25
814.776	25590.25
815.03	25817.25
815.283	26128.25
815.536	26578.25
815.79	26951.25
816.043	27425.25
816.296	27801.25
816.55	28043.25
816.803	28243.25
817.056	28841.25
817.309	29180.25
817.562	29342.25
817.815	29684.25
818.068	29978.25
818.321	30062.25
818.574	30409.25
818.827	30758.25
819.079	31254.25
819.332	31785.25
819.585	32129.25
819.838	32428.25
820.09	32815.25
820.343	33044.25
820.595	33081.25
820.848	33265.25
821.1	33340.25
821.353	33438.25
821.605	33365.25
821.857	33478.25
822.11	33175.25
822.362	33212.25
822.614	33108.25
822.866	33179.25
823.118	33169.25
823.37	33306.25
823.622	33425.25
823.874	33445.25
824.126	33545.25
824.378	33583.25
824.63	33744.25
824.882	33895.25
825.134	33825.25
825.385	33617.25
825.637	33746.25
825.888	33686.25
826.14	33554.25
826.392	33399.25
826.643	33305.25
826.895	33210.25
827.146	33053.25
827.397	33014.25
827.649	33063.25
827.9	32948.25
828.151	33012.25
828.402	33066.25
828.653	33180.25
828.905	33295.25
829.156	33315.25
829.407	33301.25
829.658	33395.25
829.909	33465.25
830.159	33453.25
830.41	33439.25
830.661	33073.25
830.912	32883.25
831.162	32763.25
831.413	32629.25
831.664	32807.25
831.914	32665.25
832.165	32664.25
832.415	32656.25
832.666	32695.25
832.916	32774.25
833.167	32750.25
833.417	32611.25
833.667	32550.25
833.917	32326.25
834.168	32475.25
834.418	32274.25
834.668	32159.25
834.918	32097.25
835.168	31815.25
835.418	31766.25
835.668	31604.25
835.918	31601.25
836.167	31681.25
836.417	31380.25
836.667	31473.25
836.917	31385.25
837.166	31418.25
837.416	31347.25
837.666	31368.25
837.915	31409.25
838.165	31304.25
838.414	31216.25
838.663	31042.25
838.913	31191.25
839.162	30971.25
839.411	31101.25
839.661	30916.25
839.91	30886.25
840.159	30837.25
840.408	30848.25
840.657	30907.25
840.906	30734.25
841.155	30919.25
841.404	30731.25
841.653	30813.25
841.902	30822.25
842.15	30897.25
842.399	31013.25
842.648	30886.25
842.897	30737.25
843.145	30522.25
843.394	30520.25
843.642	30362.25
843.891	30161.25
844.139	29984.25
844.388	29831.25
844.636	29639.25
844.884	29589.25
845.133	29720.25
845.381	29596.25
845.629	29679.25
845.877	29580.25
846.125	29471.25
846.373	29630.25
846.621	29302.25
846.869	29389.25
847.117	29261.25
847.365	28928.25
847.613	28756.25
847.861	28844.25
848.108	28714.25
848.356	28630.25
848.604	28632.25
848.851	28696.25
849.099	28641.25
849.346	28781.25
849.594	28844.25
849.841	28971.25
850.089	28953.25
850.336	29046.25
850.583	28951.25
850.831	28782.25
851.078	28686.25
851.325	28681.25
851.572	28803.25
851.819	28558.25
852.066	28074.25
852.313	27635.25
852.56	27391.25
852.807	27364.25
853.054	27382.25
853.301	27200.25
853.548	27171.25
853.794	27324.25
854.041	27425.25
854.288	27605.25
854.534	27916.25
854.781	27764.25
855.028	27648.25
855.274	27741.25
855.52	27485.25
855.767	27405.25
856.013	27454.25
856.26	27798.25
856.506	27181.25
856.752	27201.25
856.998	27104.25
857.244	27230.25
857.49	27314.25
857.736	27546.25
857.982	27480.25
858.228	27442.25
858.474	27078.25
858.72	26985.25
858.966	26696.25
859.212	26505.25
859.458	26186.25
859.703	25904.25
859.949	25715.25
860.195	25650.25
860.44	25464.25
860.686	25320.25
860.931	25398.25
861.177	25230.25
861.422	25055.25
861.667	24943.25
861.913	24917.25
862.158	24977.25
862.403	24956.25
862.648	25075.25
862.893	25278.25
863.138	25048.25
863.384	25055.25
863.629	24978.25
863.873	24965.25
864.118	24821.25
864.363	24854.25
864.608	24780.25
864.853	24535.25
865.098	24501.25
865.342	24393.25
865.587	24248.25
865.832	24242.25
866.076	24220.25
866.321	24149.25
866.565	24170.25
866.81	24013.25
867.054	23929.25
867.298	23774.25
867.543	23811.25
867.787	23852.25
868.031	23676.25
868.275	23699.25
868.519	23637.25
868.764	23645.25
869.008	23432.25
869.252	23579.25
869.496	23303.25
869.739	23363.25
869.983	23426.25
870.227	23409.25
870.471	23425.25
870.715	23437.25
870.958	23485.25
871.202	23542.25
871.446	23574.25
871.689	23535.25
871.933	23572.25
872.176	23554.25
872.42	23447.25
872.663	23406.25
872.906	23426.25
873.15	23378.25
873.393	23355.25
873.636	23272.25
873.879	23027.25
874.122	22818.25
874.366	22490.25
874.609	22375.25
874.852	22150.25
875.095	22055.25
875.337	21987.25
875.58	21824.25
875.823	21731.25
876.066	21660.25
876.309	21644.25
876.551	21404.25
876.794	21349.25
877.037	21383.25
877.279	21372.25
877.522	21277.25
877.764	21315.25
878.007	21200.25
878.249	21156.25
878.491	21113.25
878.734	21109.25
878.976	21013.25
879.218	20751.25
879.46	20733.25
879.702	20678.25
879.945	20547.25
880.187	20305.25
880.429	20191.25
880.671	20143.25
880.912	20023.25
881.154	20098.25
881.396	19868.25
881.638	19923.25
881.88	19880.25
882.121	19876.25
882.363	19836.25
882.605	19917.25
882.846	19747.25
883.088	19767.25
883.329	19614.25
883.571	19779.25
883.812	19926.25
884.053	20238.25
884.295	20694.25
884.536	20781.25
884.777	20660.25
885.018	20606.25
885.259	20471.25
885.5	20305.25
885.742	20415.25
885.982	20199.25
886.223	20042.25
886.464	19903.25
886.705	19644.25
886.946	19497.25
887.187	19243.25
887.428	19111.25
887.668	18785.25
887.909	18541.25
888.15	18370.25
888.39	18252.25
888.631	18103.25
888.871	17955.25
889.111	17792.25
889.352	17630.25
889.592	17559.25
889.833	17422.25
890.073	17264.25
890.313	17280.25
890.553	16961.25
890.793	16856.25
891.033	16913.25
891.273	16722.25
891.513	16828.25
891.753	16741.25
891.993	16635.25
892.233	16743.25
892.473	16903.25
892.713	16839.25
892.952	16701.25
893.192	16731.25
893.432	16759.25
893.671	16755.25
893.911	16688.25
894.15	16480.25
894.39	16407.25
894.629	16374.25
894.869	16228.25
895.108	16066.25
895.347	16042.25
895.587	16004.25
895.826	16002.25
896.065	16015.25
896.304	16027.25
896.543	16011.25
896.782	15904.25
897.021	15868.25
897.26	15802.25
897.499	15780.25
897.738	15776.25
897.977	15679.25
898.216	15513.25
898.454	15409.25
898.693	15256.25
898.932	15319.25
899.17	15149.25
899.409	15122.25
899.647	15136.25
899.886	15035.25
900.124	15067.25
900.363	15005.25
900.601	15091.25
900.839	15156.25
901.078	15126.25
901.316	15268.25
901.554	15287.25
901.792	15293.25
902.03	15344.25
902.268	15350.25
902.506	15421.25
902.744	15206.25
902.982	15088.25
903.22	14939.25
903.458	14749.25
903.695	14489.25
903.933	14273.25
904.171	14038.25
904.409	13801.25
904.646	13723.25
904.884	13454.25
905.121	13368.25
905.359	13071.25
905.596	13020.25
905.833	12899.25
906.071	12838.25
906.308	12867.25
906.545	12760.25
906.783	12793.25
907.02	12705.25
907.257	12619.25
907.494	12606.25
907.731	12531.25
907.968	12517.25
908.205	12402.25
908.442	12326.25
908.679	12291.25
908.915	12177.25
909.152	12096.25
909.389	11909.25
909.626	11903.25
909.862	11893.25
910.099	11718.25
910.335	11740.25
910.572	11670.25
910.808	11598.25
911.045	11579.25
911.281	11524.25
911.518	11512.25
911.754	11402.25
911.99	11360.25
912.226	11311.25
912.463	11202.25
912.699	11037.25
912.935	10972.25
913.171	10918.25
913.407	10853.25
913.643	10838.25
913.879	10624.25
914.114	10606.25
914.35	10454.25
914.586	10358.25
914.822	10272.25
915.057	10246.25
915.293	10080.25
915.529	10018.25
915.764	10095.25
916	10025.25
916.235	10026.25
916.471	9988.25
916.706	9871.25
916.941	9950.25
917.177	9935.25
917.412	9878.25
917.647	9948.25
917.882	9851.25
918.117	9808.25
918.352	9848.25
918.588	9876.25
918.823	9629.25
919.057	9596.25
919.292	9492.25
919.527	9474.25
919.762	9282.25
919.997	9247.25
920.232	9131.25
920.466	9120.25
920.701	8944.25
920.935	8996.25
921.17	8864.25
921.405	8829.25
921.639	8880.25
921.873	8739.25
922.108	8778.25
922.342	8729.25
922.576	8623.25
922.811	8602.25
923.045	8631.25
923.279	8636.25
923.513	8426.25
923.747	8453.25
923.981	8494.25
924.215	8333.25
924.449	8273.25
924.683	8217.25
924.917	8195.25
925.151	8107.25
925.385	8133.25
925.618	8137.25
925.852	8087.25
926.086	7955.25
926.319	8023.25
926.553	7996.25
926.786	8042.25
927.02	7936.25
927.253	7959.25
927.486	8018.25
927.72	7864.25
927.953	7919.25
928.186	7844.25
928.42	7892.25
928.653	7840.25
928.886	7759.25
929.119	7756.25
929.352	7726.25
929.585	7663.25
929.818	7571.25
930.051	7582.25
930.284	7521.25
930.516	7437.25
930.749	7358.25
930.982	7347.25
931.215	7362.25
931.447	7191.25
931.68	7241.25
931.912	7155.25
932.145	7132.25
932.377	7154.25
932.61	7320.25
932.842	7109.25
933.074	7203.25
933.307	7106.25
933.539	7210.25
933.771	7160.25
934.003	7107.25
934.236	7134.25
934.468	7166.25
934.7	7113.25
934.932	7065.25
935.164	7057.25
935.395	7025.25
935.627	7046.25
935.859	7039.25
936.091	6891.25
936.323	6945.25
936.554	6940.25
936.786	6858.25
937.017	6768.25
937.249	6781.25
937.481	6748.25
937.712	6785.25
937.943	6799.25
938.175	6718.25
938.406	6741.25
938.637	6801.25
938.869	6696.25
939.1	6711.25
939.331	6613.25
939.562	6630.25
939.793	6692.25
940.024	6592.25
940.255	6581.25
940.486	6467.25
940.717	6506.25
940.948	6486.25
941.179	6470.25
941.409	6391.25
941.64	6409.25
941.871	6362.25
942.102	6378.25
942.332	6374.25
942.563	6376.25
942.793	6334.25
943.024	6269.25
943.254	6366.25
943.484	6370.25
943.715	6405.25
943.945	6342.25
944.175	6324.25
944.405	6231.25
944.636	6211.25
944.866	6286.25
945.096	6333.25
945.326	6189.25
945.556	6276.25
945.786	6259.25
946.016	6164.25
946.245	6066.25
946.475	6042.25
946.705	5946.25
946.935	6000.25
947.164	6003.25
947.394	5945.25
947.624	5907.25
947.853	5868.25
948.083	5863.25
948.312	5825.25
948.542	5753.25
948.771	5699.25
949	5709.25
949.23	5776.25
949.459	5717.25
949.688	5735.25
949.917	5721.25
950.146	5705.25
950.375	5772.25
950.604	5691.25
950.833	5751.25
951.062	5671.25
951.291	5627.25
951.52	5607.25
951.749	5628.25
951.978	5571.25
952.206	5544.25
952.435	5537.25
952.664	5520.25
952.892	5546.25
953.121	5469.25
953.349	5496.25
953.578	5484.25
953.806	5382.25
954.035	5381.25
954.263	5379.25
954.491	5309.25
954.719	5295.25
954.948	5248.25
955.176	5240.25
955.404	5154.25
955.632	5178.25
955.86	5180.25
956.088	5179.25
956.316	5204.25
956.544	5164.25
956.772	5084.25
956.999	5071.25
957.227	5106.25
957.455	4940.25
957.683	4987.25
957.91	4943.25
958.138	4943.25
958.365	4884.25
958.593	4874.25
958.82	4803.25
959.048	4902.25
959.275	4820.25
959.502	4789.25
959.73	4736.25
959.957	4779.25
960.184	4825.25
960.411	4735.25
960.638	4771.25
960.865	4730.25
961.092	4730.25
961.319	4644.25
961.546	4727.25
961.773	4736.25
962	4687.25
962.227	4741.25
962.454	4651.25
962.68	4623.25
962.907	4662.25
963.134	4562.25
963.36	4550.25
963.587	4581.25
963.813	4510.25
964.04	4465.25
964.266	4357.25
964.493	4466.25
964.719	4431.25
964.945	4440.25
965.171	4292.25
965.398	4312.25
965.624	4362.25
965.85	4268.25
966.076	4280.25
966.302	4230.25
966.528	4258.25
966.754	4209.25
966.98	4235.25
967.206	4210.25
967.431	4135.25
967.657	4223.25
967.883	4158.25
968.109	4143.25
968.334	4108.25
968.56	4058.25
968.785	4074.25
969.011	4072.25
969.236	4117.25
969.462	4012.25
969.687	4030.25
969.912	4061.25
970.138	4025.25
970.363	3967.25
970.588	4026.25
970.813	3967.25
971.038	3915.25
971.263	3961.25
971.488	3920.25
971.713	3956.25
971.938	3899.25
972.163	3831.25
972.388	3791.25
972.613	3818.25
972.838	3822.25
973.062	3790.25
973.287	3747.25
973.512	3692.25
973.736	3707.25
973.961	3709.25
974.185	3671.25
974.41	3707.25
974.634	3625.25
974.858	3597.25
975.083	3636.25
975.307	3617.25
975.531	3551.25
975.755	3460.25
975.98	3443.25
976.204	3406.25
976.428	3442.25
976.652	3403.25
976.876	3363.25
977.1	3425.25
977.324	3337.25
977.547	3412.25
977.771	3405.25
977.995	3358.25
978.219	3298.25
978.442	3444.25
978.666	3333.25
978.89	3324.25
979.113	3341.25
979.337	3312.25
979.56	3256.25
979.783	3345.25
980.007	3260.25
980.23	3262.25
980.453	3222.25
980.677	3219.25
980.9	3218.25
981.123	3121.25
981.346	3192.25
981.569	3171.25
981.792	3169.25
982.015	3164.25
982.238	3085.25
982.461	3117.25
982.684	3051.25
982.907	3045.25
983.129	2958.25
983.352	3053.25
983.575	2987.25
983.797	2990.25
984.02	2944.25
984.242	2957.25
984.465	2952.25
984.687	2934.25
984.91	3005.25
985.132	2953.25
985.354	2961.25
985.577	2919.25
985.799	2881.25
986.021	2847.25
986.243	2851.25
986.465	2842.25
986.687	2882.25
986.909	2933.25
987.131	2812.25
987.353	2759.25
987.575	2794.25
987.797	2777.25
988.019	2729.25
988.241	2751.25
988.462	2704.25
988.684	2784.25
988.906	2763.25
989.127	2785.25
989.349	2674.25
989.57	2710.25
989.792	2734.25
990.013	2757.25
990.234	2771.25
990.456	2758.25
990.677	2705.25
990.898	2671.25
991.119	2628.25
991.341	2654.25
991.562	2606.25
991.783	2668.25
992.004	2531.25
992.225	2508.25
992.446	2558.25
992.667	2494.25
992.887	2575.25
993.108	2465.25
993.329	2590.25
993.55	2477.25
993.77	2445.25
993.991	2449.25
994.212	2448.25
994.432	2409.25
994.653	2421.25
994.873	2431.25
995.093	2316.25
995.314	2380.25
995.534	2398.25
995.754	2414.25
995.975	2476.25
996.195	2318.25
996.415	2367.25
996.635	2372.25
996.855	2378.25
997.075	2364.25
997.295	2348.25
997.515	2327.25
997.735	2391.25
997.955	2340.25
998.174	2308.25
998.394	2259.25
998.614	2324.25
998.834	2301.25
999.053	2339.25
999.273	2296.25
999.492	2343.25
999.712	2291.25
999.931	2266.25
1000.151	2240.25
1000.37	2234.25
1000.589	2281.25
1000.809	2190.25
1001.028	2276.25
1001.247	2243.25
1001.466	2095.25
1001.685	2237.25
1001.904	2171.25
1002.123	2161.25
1002.342	2137.25
1002.561	2132.25
1002.78	2128.25
1002.999	2184.25
1003.218	2154.25
1003.436	2105.25
1003.655	2146.25
1003.874	2077.25
1004.092	2113.25
1004.311	2121.25
1004.53	2098.25
1004.748	2139.25
1004.966	2053.25
1005.185	2148.25
1005.403	2075.25
1005.622	2056.25
1005.84	2129.25
1006.058	2066.25
1006.276	2103.25
1006.494	2533.25
1006.712	2043.25
1006.931	2091.25
1007.149	2016.25
1007.367	2021.25
1007.584	2078.25
1007.802	2085.25
1008.02	2060.25
1008.238	2146.25
1008.456	2150.25
1008.673	2003.25
1008.891	2157.25
1009.109	2125.25
1009.326	2165.25
1009.544	2288.25
1009.761	2211.25
1009.979	2309.25
1010.196	2345.25
1010.413	2447.25
1010.631	2527.25
1010.848	2595.25
1011.065	2637.25
1011.282	2553.25
1011.5	2483.25
1011.717	2587.25
1011.934	2540.25
1012.151	2549.25
1012.368	2537.25
1012.585	2499.25
1012.801	2517.25
1013.018	2484.25
1013.235	2461.25
1013.452	2443.25
1013.669	2505.25
1013.885	2481.25
1014.102	2527.25
1014.318	2491.25
1014.535	2478.25
1014.751	2500.25
1014.968	2482.25
1015.184	2476.25
1015.401	2394.25
1015.617	2397.25
1015.833	2328.25
1016.049	2367.25
1016.266	2305.25
1016.482	2320.25
1016.698	2232.25
1016.914	2239.25
1017.13	2206.25
1017.346	2183.25
1017.562	2231.25
1017.778	2177.25
1017.993	2125.25
1018.209	2230.25
1018.425	2185.25
1018.641	2126.25
1018.856	2077.25
1019.072	2153.25
1019.288	2182.25
1019.503	2132.25
1019.719	2041.25
1019.934	2050.25
1020.149	2139.25
1020.365	2037.25
1020.58	2001.25
1020.795	2035.25
1021.011	1951.25
1021.226	1888.25
1021.441	1909.25
1021.656	1834.25
1021.871	1738.25
1022.086	1737.25
1022.301	1728.25
1022.516	1705.25
1022.731	1724.25
1022.946	1654.25
1023.16	1597.25
1023.375	1587.25
1023.59	1552.25
1023.804	1502.25
1024.019	1604.25
1024.234	1432.25
1024.448	1465.25
1024.663	1387.25
1024.877	1428.25
1025.092	1426.25
1025.306	1398.25
1025.52	1288.25
1025.734	1364.25
1025.949	1281.25
1026.163	1238.25
1026.377	1170.25
1026.591	1233.25
1026.805	1133.25
1027.019	1127.25
1027.233	1101.25
1027.447	1036.25
1027.661	1115.25
1027.875	1046.25
1028.088	1057.25
1028.302	975.25
1028.516	953.25
1028.73	938.25
1028.943	945.25
1029.157	888.25
1029.37	823.25
1029.584	0.25
1029.797	1.25
1030.011	-3.75
1030.224	-1.75
