Data from QEP037381__294__16-18-49-908.txt Node

Date: Fri Dec 16 16:18:49 EST 2022
User: dcclab
Spectrometer: QEP03738
Trigger mode: 4
Integration Time (sec): 1.000000E1
Scans to average: 1
Electric dark correction enabled: true
Nonlinearity correction enabled: false
Boxcar width: 0
XAxis mode: Wavelengths
Number of Pixels in Spectrum: 1044
>>>>>Begin Spectral Data<<<<<
784.041	13.5
784.3	4.5
784.558	-1.5
784.817	-3.5
785.075	110716.5
785.334	18843.5
785.592	8703.5
785.851	6085.5
786.109	4565.5
786.368	3536.5
786.626	2876.5
786.884	2359.5
787.143	2017.5
787.401	1676.5
787.659	1520.5
787.917	1305.5
788.175	1192.5
788.433	1017.5
788.691	926.5
788.949	877.5
789.207	836.5
789.465	717.5
789.723	693.5
789.98	607.5
790.238	659.5
790.496	645.5
790.753	598.5
791.011	662.5
791.268	573.5
791.526	559.5
791.783	573.5
792.041	558.5
792.298	475.5
792.556	537.5
792.813	523.5
793.07	481.5
793.327	475.5
793.584	570.5
793.841	486.5
794.099	509.5
794.356	567.5
794.613	454.5
794.869	502.5
795.126	459.5
795.383	458.5
795.64	467.5
795.897	427.5
796.153	488.5
796.41	471.5
796.667	437.5
796.923	455.5
797.18	459.5
797.436	481.5
797.693	464.5
797.949	503.5
798.206	546.5
798.462	468.5
798.718	507.5
798.974	493.5
799.231	537.5
799.487	532.5
799.743	545.5
799.999	564.5
800.255	582.5
800.511	567.5
800.767	617.5
801.023	623.5
801.279	654.5
801.534	685.5
801.79	770.5
802.046	837.5
802.302	989.5
802.557	1189.5
802.813	1478.5
803.068	1866.5
803.324	2628.5
803.579	3641.5
803.835	5044.5
804.09	6990.5
804.345	9113.5
804.601	11605.5
804.856	14006.5
805.111	16245.5
805.366	18007.5
805.621	19251.5
805.876	20165.5
806.131	20690.5
806.386	21129.5
806.641	21628.5
806.896	22012.5
807.151	22420.5
807.406	22703.5
807.661	23047.5
807.915	23454.5
808.17	23934.5
808.425	24007.5
808.679	24322.5
808.934	24608.5
809.188	24826.5
809.443	25100.5
809.697	25390.5
809.951	25562.5
810.206	25878.5
810.46	26160.5
810.714	26340.5
810.968	26489.5
811.223	26774.5
811.477	27097.5
811.731	27339.5
811.985	27491.5
812.239	27482.5
812.493	27788.5
812.747	27814.5
813	27893.5
813.254	28132.5
813.508	28221.5
813.762	28149.5
814.015	28384.5
814.269	28668.5
814.522	28901.5
814.776	29266.5
815.03	29533.5
815.283	30048.5
815.536	30517.5
815.79	30895.5
816.043	31428.5
816.296	31747.5
816.55	32219.5
816.803	32619.5
817.056	32999.5
817.309	33395.5
817.562	33674.5
817.815	33964.5
818.068	34232.5
818.321	34676.5
818.574	34956.5
818.827	35450.5
819.079	36010.5
819.332	36572.5
819.585	36882.5
819.838	37440.5
820.09	37474.5
820.343	37799.5
820.595	38110.5
820.848	38344.5
821.1	38370.5
821.353	38411.5
821.605	38400.5
821.857	38491.5
822.11	38265.5
822.362	38208.5
822.614	38235.5
822.866	38217.5
823.118	38298.5
823.37	38220.5
823.622	38370.5
823.874	38522.5
824.126	38655.5
824.378	38707.5
824.63	38916.5
824.882	38841.5
825.134	38791.5
825.385	38905.5
825.637	38842.5
825.888	38601.5
826.14	38564.5
826.392	38467.5
826.643	38318.5
826.895	38084.5
827.146	37992.5
827.397	37981.5
827.649	37876.5
827.9	37909.5
828.151	38013.5
828.402	37993.5
828.653	38091.5
828.905	38237.5
829.156	38365.5
829.407	38216.5
829.658	38280.5
829.909	38463.5
830.159	38291.5
830.41	38110.5
830.661	37888.5
830.912	37706.5
831.162	37562.5
831.413	37444.5
831.664	37529.5
831.914	37357.5
832.165	37445.5
832.415	37455.5
832.666	37455.5
832.916	37381.5
833.167	37407.5
833.417	37407.5
833.667	37263.5
833.917	37213.5
834.168	37139.5
834.418	36979.5
834.668	36806.5
834.918	36620.5
835.168	36505.5
835.418	36364.5
835.668	36128.5
835.918	36348.5
836.167	36100.5
836.417	35921.5
836.667	35975.5
836.917	35927.5
837.166	35854.5
837.416	35994.5
837.666	35890.5
837.915	35781.5
838.165	35802.5
838.414	35714.5
838.663	35612.5
838.913	35757.5
839.162	35530.5
839.411	35462.5
839.661	35250.5
839.91	35182.5
840.159	35140.5
840.408	35126.5
840.657	35108.5
840.906	35180.5
841.155	35096.5
841.404	35016.5
841.653	34984.5
841.902	35005.5
842.15	35168.5
842.399	35277.5
842.648	35277.5
842.897	35014.5
843.145	34705.5
843.394	34680.5
843.642	34392.5
843.891	34199.5
844.139	34133.5
844.388	33931.5
844.636	33711.5
844.884	33708.5
845.133	33740.5
845.381	33568.5
845.629	33623.5
845.877	33738.5
846.125	33580.5
846.373	33599.5
846.621	33304.5
846.869	33148.5
847.117	33202.5
847.365	32885.5
847.613	32811.5
847.861	32805.5
848.108	32853.5
848.356	32540.5
848.604	32407.5
848.851	32525.5
849.099	32593.5
849.346	32743.5
849.594	32750.5
849.841	32897.5
850.089	32875.5
850.336	32779.5
850.583	32973.5
850.831	32547.5
851.078	32572.5
851.325	32535.5
851.572	32647.5
851.819	32119.5
852.066	31689.5
852.313	31264.5
852.56	30962.5
852.807	30938.5
853.054	30854.5
853.301	30819.5
853.548	30790.5
853.794	30916.5
854.041	30976.5
854.288	31281.5
854.534	31213.5
854.781	31311.5
855.028	31244.5
855.274	31199.5
855.52	31055.5
855.767	30753.5
856.013	30919.5
856.26	31044.5
856.506	30609.5
856.752	30452.5
856.998	30584.5
857.244	30720.5
857.49	30816.5
857.736	30843.5
857.982	30814.5
858.228	30747.5
858.474	30635.5
858.72	30319.5
858.966	30064.5
859.212	29776.5
859.458	29517.5
859.703	29194.5
859.949	28993.5
860.195	28664.5
860.44	28617.5
860.686	28543.5
860.931	28411.5
861.177	28413.5
861.422	28213.5
861.667	28104.5
861.913	28064.5
862.158	28125.5
862.403	28239.5
862.648	28137.5
862.893	28295.5
863.138	28257.5
863.384	28062.5
863.629	28036.5
863.873	28090.5
864.118	28021.5
864.363	27744.5
864.608	27747.5
864.853	27787.5
865.098	27459.5
865.342	27505.5
865.587	27229.5
865.832	27282.5
866.076	27131.5
866.321	27046.5
866.565	27147.5
866.81	26785.5
867.054	26766.5
867.298	26726.5
867.543	26683.5
867.787	26729.5
868.031	26480.5
868.275	26518.5
868.519	26361.5
868.764	26414.5
869.008	26259.5
869.252	26207.5
869.496	26311.5
869.739	26096.5
869.983	26058.5
870.227	26073.5
870.471	26023.5
870.715	26148.5
870.958	26166.5
871.202	26225.5
871.446	26186.5
871.689	26145.5
871.933	26236.5
872.176	26227.5
872.42	26224.5
872.663	26070.5
872.906	26005.5
873.15	26069.5
873.393	25847.5
873.636	25845.5
873.879	25556.5
874.122	25261.5
874.366	24903.5
874.609	24732.5
874.852	24499.5
875.095	24425.5
875.337	24431.5
875.58	24099.5
875.823	24193.5
876.066	24140.5
876.309	24167.5
876.551	23879.5
876.794	23668.5
877.037	23731.5
877.279	23649.5
877.522	23695.5
877.764	23654.5
878.007	23583.5
878.249	23491.5
878.491	23371.5
878.734	23400.5
878.976	23293.5
879.218	23090.5
879.46	23066.5
879.702	22802.5
879.945	22710.5
880.187	22540.5
880.429	22355.5
880.671	22218.5
880.912	22055.5
881.154	22082.5
881.396	21947.5
881.638	21952.5
881.88	22019.5
882.121	21949.5
882.363	21856.5
882.605	21849.5
882.846	21831.5
883.088	21779.5
883.329	21705.5
883.571	21782.5
883.812	21866.5
884.053	22280.5
884.295	22557.5
884.536	22815.5
884.777	22702.5
885.018	22588.5
885.259	22478.5
885.5	22295.5
885.742	22504.5
885.982	22161.5
886.223	22109.5
886.464	21813.5
886.705	21617.5
886.946	21390.5
887.187	21150.5
887.428	20951.5
887.668	20703.5
887.909	20378.5
888.15	20153.5
888.39	19995.5
888.631	19861.5
888.871	19667.5
889.111	19608.5
889.352	19393.5
889.592	19197.5
889.833	19160.5
890.073	18895.5
890.313	18884.5
890.553	18664.5
890.793	18614.5
891.033	18501.5
891.273	18425.5
891.513	18324.5
891.753	18469.5
891.993	18360.5
892.233	18357.5
892.473	18461.5
892.713	18428.5
892.952	18335.5
893.192	18370.5
893.432	18350.5
893.671	18295.5
893.911	18185.5
894.15	18182.5
894.39	17954.5
894.629	17857.5
894.869	17817.5
895.108	17762.5
895.347	17568.5
895.587	17620.5
895.826	17564.5
896.065	17294.5
896.304	17474.5
896.543	17360.5
896.782	17384.5
897.021	17264.5
897.26	17199.5
897.499	17125.5
897.738	17099.5
897.977	16968.5
898.216	16932.5
898.454	16686.5
898.693	16546.5
898.932	16656.5
899.17	16512.5
899.409	16504.5
899.647	16408.5
899.886	16388.5
900.124	16440.5
900.363	16355.5
900.601	16475.5
900.839	16432.5
901.078	16589.5
901.316	16527.5
901.554	16566.5
901.792	16637.5
902.03	16653.5
902.268	16558.5
902.506	16552.5
902.744	16506.5
902.982	16321.5
903.22	16081.5
903.458	15887.5
903.695	15782.5
903.933	15476.5
904.171	15169.5
904.409	15009.5
904.646	14810.5
904.884	14562.5
905.121	14438.5
905.359	14258.5
905.596	14211.5
905.833	14029.5
906.071	13878.5
906.308	13916.5
906.545	13852.5
906.783	13824.5
907.02	13730.5
907.257	13597.5
907.494	13640.5
907.731	13575.5
907.968	13497.5
908.205	13480.5
908.442	13380.5
908.679	13351.5
908.915	13158.5
909.152	13074.5
909.389	12934.5
909.626	12842.5
909.862	12751.5
910.099	12691.5
910.335	12698.5
910.572	12547.5
910.808	12621.5
911.045	12468.5
911.281	12487.5
911.518	12517.5
911.754	12292.5
911.99	12376.5
912.226	12062.5
912.463	12142.5
912.699	11958.5
912.935	11903.5
913.171	11777.5
913.407	11651.5
913.643	11724.5
913.879	11489.5
914.114	11440.5
914.35	11292.5
914.586	11212.5
914.822	11084.5
915.057	11117.5
915.293	10883.5
915.529	10832.5
915.764	10867.5
916	10868.5
916.235	10705.5
916.471	10772.5
916.706	10705.5
916.941	10722.5
917.177	10684.5
917.412	10698.5
917.647	10705.5
917.882	10575.5
918.117	10645.5
918.352	10560.5
918.588	10512.5
918.823	10370.5
919.057	10302.5
919.292	10099.5
919.527	10124.5
919.762	10016.5
919.997	9948.5
920.232	9830.5
920.466	9809.5
920.701	9637.5
920.935	9603.5
921.17	9559.5
921.405	9398.5
921.639	9442.5
921.873	9344.5
922.108	9377.5
922.342	9308.5
922.576	9210.5
922.811	9259.5
923.045	9290.5
923.279	9241.5
923.513	9073.5
923.747	9119.5
923.981	9010.5
924.215	8925.5
924.449	8897.5
924.683	8816.5
924.917	8765.5
925.151	8697.5
925.385	8807.5
925.618	8693.5
925.852	8636.5
926.086	8551.5
926.319	8641.5
926.553	8553.5
926.786	8637.5
927.02	8580.5
927.253	8588.5
927.486	8590.5
927.72	8435.5
927.953	8522.5
928.186	8419.5
928.42	8432.5
928.653	8314.5
928.886	8333.5
929.119	8322.5
929.352	8247.5
929.585	8187.5
929.818	8094.5
930.051	8098.5
930.284	8073.5
930.516	7912.5
930.749	7827.5
930.982	7887.5
931.215	7811.5
931.447	7700.5
931.68	7632.5
931.912	7676.5
932.145	7648.5
932.377	7724.5
932.61	7740.5
932.842	7608.5
933.074	7675.5
933.307	7596.5
933.539	7676.5
933.771	7690.5
934.003	7628.5
934.236	7643.5
934.468	7729.5
934.7	7583.5
934.932	7583.5
935.164	7491.5
935.395	7440.5
935.627	7499.5
935.859	7430.5
936.091	7358.5
936.323	7360.5
936.554	7433.5
936.786	7314.5
937.017	7246.5
937.249	7230.5
937.481	7168.5
937.712	7209.5
937.943	7166.5
938.175	7178.5
938.406	7195.5
938.637	7183.5
938.869	7106.5
939.1	7127.5
939.331	7051.5
939.562	7042.5
939.793	7025.5
940.024	7045.5
940.255	7014.5
940.486	6913.5
940.717	6942.5
940.948	6870.5
941.179	6807.5
941.409	6853.5
941.64	6820.5
941.871	6825.5
942.102	6754.5
942.332	6749.5
942.563	6854.5
942.793	6749.5
943.024	6684.5
943.254	6755.5
943.484	6813.5
943.715	6758.5
943.945	6748.5
944.175	6661.5
944.405	6636.5
944.636	6622.5
944.866	6690.5
945.096	6742.5
945.326	6585.5
945.556	6623.5
945.786	6635.5
946.016	6567.5
946.245	6409.5
946.475	6401.5
946.705	6368.5
946.935	6368.5
947.164	6332.5
947.394	6201.5
947.624	6182.5
947.853	6315.5
948.083	6187.5
948.312	6173.5
948.542	6088.5
948.771	6083.5
949	6049.5
949.23	6067.5
949.459	6021.5
949.688	6105.5
949.917	6048.5
950.146	6081.5
950.375	6105.5
950.604	5968.5
950.833	6055.5
951.062	6049.5
951.291	5953.5
951.52	5918.5
951.749	5908.5
951.978	5913.5
952.206	5912.5
952.435	5847.5
952.664	5877.5
952.892	5857.5
953.121	5834.5
953.349	5821.5
953.578	5790.5
953.806	5748.5
954.035	5645.5
954.263	5725.5
954.491	5568.5
954.719	5669.5
954.948	5590.5
955.176	5511.5
955.404	5424.5
955.632	5512.5
955.86	5471.5
956.088	5494.5
956.316	5458.5
956.544	5483.5
956.772	5328.5
956.999	5311.5
957.227	5395.5
957.455	5238.5
957.683	5257.5
957.91	5212.5
958.138	5201.5
958.365	5177.5
958.593	5155.5
958.82	5063.5
959.048	5151.5
959.275	5095.5
959.502	5075.5
959.73	5064.5
959.957	4994.5
960.184	5044.5
960.411	4958.5
960.638	5096.5
960.865	4986.5
961.092	5010.5
961.319	4889.5
961.546	4972.5
961.773	5027.5
962	4916.5
962.227	4971.5
962.454	4935.5
962.68	4898.5
962.907	4894.5
963.134	4804.5
963.36	4865.5
963.587	4787.5
963.813	4745.5
964.04	4713.5
964.266	4645.5
964.493	4766.5
964.719	4675.5
964.945	4665.5
965.171	4581.5
965.398	4581.5
965.624	4588.5
965.85	4466.5
966.076	4477.5
966.302	4501.5
966.528	4477.5
966.754	4515.5
966.98	4459.5
967.206	4418.5
967.431	4313.5
967.657	4398.5
967.883	4378.5
968.109	4336.5
968.334	4298.5
968.56	4317.5
968.785	4256.5
969.011	4220.5
969.236	4328.5
969.462	4257.5
969.687	4255.5
969.912	4241.5
970.138	4273.5
970.363	4206.5
970.588	4182.5
970.813	4152.5
971.038	4085.5
971.263	4194.5
971.488	4092.5
971.713	4118.5
971.938	4109.5
972.163	4005.5
972.388	4021.5
972.613	3990.5
972.838	3967.5
973.062	4046.5
973.287	3986.5
973.512	3912.5
973.736	3931.5
973.961	3944.5
974.185	3839.5
974.41	3866.5
974.634	3754.5
974.858	3792.5
975.083	3808.5
975.307	3801.5
975.531	3706.5
975.755	3685.5
975.98	3660.5
976.204	3615.5
976.428	3578.5
976.652	3542.5
976.876	3584.5
977.1	3602.5
977.324	3522.5
977.547	3585.5
977.771	3600.5
977.995	3511.5
978.219	3428.5
978.442	3561.5
978.666	3528.5
978.89	3494.5
979.113	3488.5
979.337	3441.5
979.56	3402.5
979.783	3503.5
980.007	3341.5
980.23	3405.5
980.453	3391.5
980.677	3421.5
980.9	3359.5
981.123	3242.5
981.346	3353.5
981.569	3305.5
981.792	3304.5
982.015	3238.5
982.238	3219.5
982.461	3236.5
982.684	3167.5
982.907	3134.5
983.129	3096.5
983.352	3203.5
983.575	3146.5
983.797	3139.5
984.02	3082.5
984.242	3115.5
984.465	3074.5
984.687	3115.5
984.91	3098.5
985.132	3061.5
985.354	3070.5
985.577	3000.5
985.799	2991.5
986.021	2930.5
986.243	2929.5
986.465	2985.5
986.687	2980.5
986.909	3034.5
987.131	2940.5
987.353	2918.5
987.575	2914.5
987.797	2910.5
988.019	2853.5
988.241	2868.5
988.462	2809.5
988.684	2882.5
988.906	2890.5
989.127	2930.5
989.349	2791.5
989.57	2829.5
989.792	2809.5
990.013	2876.5
990.234	2850.5
990.456	2845.5
990.677	2832.5
990.898	2771.5
991.119	2755.5
991.341	2769.5
991.562	2704.5
991.783	2758.5
992.004	2698.5
992.225	2646.5
992.446	2695.5
992.667	2617.5
992.887	2691.5
993.108	2557.5
993.329	2677.5
993.55	2645.5
993.77	2529.5
993.991	2526.5
994.212	2576.5
994.432	2540.5
994.653	2562.5
994.873	2530.5
995.093	2447.5
995.314	2464.5
995.534	2507.5
995.754	2540.5
995.975	2532.5
996.195	2402.5
996.415	2479.5
996.635	2452.5
996.855	2450.5
997.075	2435.5
997.295	2421.5
997.515	2420.5
997.735	2457.5
997.955	2418.5
998.174	2390.5
998.394	2394.5
998.614	2431.5
998.834	2407.5
999.053	2435.5
999.273	2382.5
999.492	2440.5
999.712	2356.5
999.931	2312.5
1000.151	2309.5
1000.37	2300.5
1000.589	2372.5
1000.809	2298.5
1001.028	2392.5
1001.247	2296.5
1001.466	2174.5
1001.685	2299.5
1001.904	2273.5
1002.123	2245.5
1002.342	2236.5
1002.561	2197.5
1002.78	2200.5
1002.999	2220.5
1003.218	2200.5
1003.436	2157.5
1003.655	2213.5
1003.874	2142.5
1004.092	2176.5
1004.311	2200.5
1004.53	2178.5
1004.748	2229.5
1004.966	2126.5
1005.185	2167.5
1005.403	2174.5
1005.622	2136.5
1005.84	2194.5
1006.058	2100.5
1006.276	2125.5
1006.494	2608.5
1006.712	2106.5
1006.931	2156.5
1007.149	2101.5
1007.367	2099.5
1007.584	2131.5
1007.802	2150.5
1008.02	2133.5
1008.238	2255.5
1008.456	2217.5
1008.673	2101.5
1008.891	2212.5
1009.109	2164.5
1009.326	2228.5
1009.544	2333.5
1009.761	2272.5
1009.979	2392.5
1010.196	2427.5
1010.413	2550.5
1010.631	2652.5
1010.848	2696.5
1011.065	2737.5
1011.282	2645.5
1011.5	2573.5
1011.717	2721.5
1011.934	2642.5
1012.151	2651.5
1012.368	2663.5
1012.585	2584.5
1012.801	2632.5
1013.018	2589.5
1013.235	2578.5
1013.452	2599.5
1013.669	2621.5
1013.885	2617.5
1014.102	2630.5
1014.318	2609.5
1014.535	2566.5
1014.751	2600.5
1014.968	2575.5
1015.184	2591.5
1015.401	2502.5
1015.617	2504.5
1015.833	2449.5
1016.049	2432.5
1016.266	2423.5
1016.482	2396.5
1016.698	2309.5
1016.914	2369.5
1017.13	2288.5
1017.346	2300.5
1017.562	2332.5
1017.778	2254.5
1017.993	2220.5
1018.209	2262.5
1018.425	2258.5
1018.641	2226.5
1018.856	2204.5
1019.072	2237.5
1019.288	2249.5
1019.503	2244.5
1019.719	2144.5
1019.934	2131.5
1020.149	2194.5
1020.365	2112.5
1020.58	2049.5
1020.795	2113.5
1021.011	1957.5
1021.226	1953.5
1021.441	1957.5
1021.656	1880.5
1021.871	1803.5
1022.086	1771.5
1022.301	1736.5
1022.516	1722.5
1022.731	1797.5
1022.946	1701.5
1023.16	1658.5
1023.375	1612.5
1023.59	1604.5
1023.804	1561.5
1024.019	1649.5
1024.234	1465.5
1024.448	1529.5
1024.663	1436.5
1024.877	1434.5
1025.092	1455.5
1025.306	1433.5
1025.52	1321.5
1025.734	1385.5
1025.949	1320.5
1026.163	1239.5
1026.377	1207.5
1026.591	1242.5
1026.805	1152.5
1027.019	1157.5
1027.233	1105.5
1027.447	1065.5
1027.661	1138.5
1027.875	1079.5
1028.088	1093.5
1028.302	993.5
1028.516	983.5
1028.73	974.5
1028.943	938.5
1029.157	896.5
1029.37	831.5
1029.584	-0.5
1029.797	-3.5
1030.011	-6.5
1030.224	-2.5
