Data from QEP037381__304__16-20-29-909.txt Node

Date: Fri Dec 16 16:20:29 EST 2022
User: dcclab
Spectrometer: QEP03738
Trigger mode: 4
Integration Time (sec): 1.000000E1
Scans to average: 1
Electric dark correction enabled: true
Nonlinearity correction enabled: false
Boxcar width: 0
XAxis mode: Wavelengths
Number of Pixels in Spectrum: 1044
>>>>>Begin Spectral Data<<<<<
784.041	11.5
784.3	-0.5
784.558	-1.5
784.817	-0.5
785.075	112061.5
785.334	19365.5
785.592	9130.5
785.851	6266.5
786.109	4716.5
786.368	3661.5
786.626	2952.5
786.884	2458.5
787.143	2112.5
787.401	1682.5
787.659	1530.5
787.917	1310.5
788.175	1195.5
788.433	1045.5
788.691	929.5
788.949	878.5
789.207	812.5
789.465	712.5
789.723	683.5
789.98	631.5
790.238	671.5
790.496	640.5
790.753	606.5
791.011	649.5
791.268	586.5
791.526	564.5
791.783	585.5
792.041	556.5
792.298	466.5
792.556	536.5
792.813	514.5
793.07	496.5
793.327	487.5
793.584	565.5
793.841	483.5
794.099	494.5
794.356	557.5
794.613	475.5
794.869	503.5
795.126	456.5
795.383	460.5
795.64	454.5
795.897	423.5
796.153	481.5
796.41	460.5
796.667	452.5
796.923	459.5
797.18	447.5
797.436	485.5
797.693	455.5
797.949	498.5
798.206	537.5
798.462	445.5
798.718	520.5
798.974	482.5
799.231	531.5
799.487	529.5
799.743	533.5
799.999	568.5
800.255	547.5
800.511	544.5
800.767	601.5
801.023	591.5
801.279	650.5
801.534	677.5
801.79	738.5
802.046	791.5
802.302	967.5
802.557	1120.5
802.813	1447.5
803.068	1799.5
803.324	2499.5
803.579	3440.5
803.835	4846.5
804.09	6601.5
804.345	8670.5
804.601	10877.5
804.856	13260.5
805.111	15250.5
805.366	16881.5
805.621	18048.5
805.876	18919.5
806.131	19403.5
806.386	19781.5
806.641	20238.5
806.896	20482.5
807.151	20934.5
807.406	21235.5
807.661	21594.5
807.915	21954.5
808.17	22457.5
808.425	22757.5
808.679	22919.5
808.934	23163.5
809.188	23333.5
809.443	23575.5
809.697	23823.5
809.951	23965.5
810.206	24289.5
810.46	24479.5
810.714	24749.5
810.968	24898.5
811.223	25175.5
811.477	25412.5
811.731	25644.5
811.985	25747.5
812.239	25713.5
812.493	26021.5
812.747	26087.5
813	26130.5
813.254	26173.5
813.508	26350.5
813.762	26420.5
814.015	26727.5
814.269	26878.5
814.522	27111.5
814.776	27371.5
815.03	27775.5
815.283	28136.5
815.536	28593.5
815.79	29165.5
816.043	29431.5
816.296	29916.5
816.55	30148.5
816.803	30639.5
817.056	31027.5
817.309	31235.5
817.562	31550.5
817.815	31779.5
818.068	32118.5
818.321	32428.5
818.574	32761.5
818.827	33367.5
819.079	33604.5
819.332	34246.5
819.585	34633.5
819.838	35065.5
820.09	35326.5
820.343	35429.5
820.595	35710.5
820.848	36027.5
821.1	36110.5
821.353	36028.5
821.605	36062.5
821.857	36085.5
822.11	35956.5
822.362	35795.5
822.614	35785.5
822.866	35950.5
823.118	35841.5
823.37	36005.5
823.622	36002.5
823.874	36093.5
824.126	36180.5
824.378	36325.5
824.63	36477.5
824.882	36607.5
825.134	36505.5
825.385	36467.5
825.637	36519.5
825.888	36188.5
826.14	36325.5
826.392	36049.5
826.643	35825.5
826.895	35805.5
827.146	35604.5
827.397	35503.5
827.649	35796.5
827.9	35463.5
828.151	35479.5
828.402	35745.5
828.653	35842.5
828.905	35795.5
829.156	35956.5
829.407	35927.5
829.658	36002.5
829.909	36182.5
830.159	35996.5
830.41	35793.5
830.661	35510.5
830.912	35359.5
831.162	35262.5
831.413	35128.5
831.664	35173.5
831.914	35330.5
832.165	35075.5
832.415	35185.5
832.666	35215.5
832.916	35136.5
833.167	35162.5
833.417	35077.5
833.667	35042.5
833.917	34750.5
834.168	34797.5
834.418	34725.5
834.668	34494.5
834.918	34315.5
835.168	34186.5
835.418	34053.5
835.668	33957.5
835.918	33981.5
836.167	33717.5
836.417	33811.5
836.667	33701.5
836.917	33634.5
837.166	33618.5
837.416	33684.5
837.666	33636.5
837.915	33507.5
838.165	33557.5
838.414	33533.5
838.663	33350.5
838.913	33415.5
839.162	33413.5
839.411	33252.5
839.661	33126.5
839.91	32989.5
840.159	32944.5
840.408	32885.5
840.657	33095.5
840.906	32839.5
841.155	33066.5
841.404	32887.5
841.653	33017.5
841.902	32898.5
842.15	33059.5
842.399	32978.5
842.648	32937.5
842.897	32921.5
843.145	32593.5
843.394	32423.5
843.642	32270.5
843.891	31950.5
844.139	32027.5
844.388	31835.5
844.636	31782.5
844.884	31545.5
845.133	31630.5
845.381	31617.5
845.629	31415.5
845.877	31579.5
846.125	31466.5
846.373	31413.5
846.621	31309.5
846.869	31164.5
847.117	30955.5
847.365	30706.5
847.613	30704.5
847.861	30693.5
848.108	30606.5
848.356	30576.5
848.604	30494.5
848.851	30492.5
849.099	30484.5
849.346	30559.5
849.594	30800.5
849.841	30835.5
850.089	30825.5
850.336	30813.5
850.583	30781.5
850.831	30522.5
851.078	30417.5
851.325	30423.5
851.572	30489.5
851.819	30252.5
852.066	29820.5
852.313	29385.5
852.56	29104.5
852.807	29028.5
853.054	28791.5
853.301	28903.5
853.548	28915.5
853.794	28971.5
854.041	29019.5
854.288	29225.5
854.534	29458.5
854.781	29322.5
855.028	29149.5
855.274	29287.5
855.52	29000.5
855.767	28939.5
856.013	29129.5
856.26	29252.5
856.506	28696.5
856.752	28707.5
856.998	28663.5
857.244	28716.5
857.49	28842.5
857.736	28842.5
857.982	28962.5
858.228	28883.5
858.474	28592.5
858.72	28338.5
858.966	28172.5
859.212	27907.5
859.458	27676.5
859.703	27480.5
859.949	27088.5
860.195	26954.5
860.44	26760.5
860.686	26752.5
860.931	26622.5
861.177	26465.5
861.422	26467.5
861.667	26314.5
861.913	26286.5
862.158	26280.5
862.403	26338.5
862.648	26469.5
862.893	26545.5
863.138	26358.5
863.384	26331.5
863.629	26284.5
863.873	26226.5
864.118	26316.5
864.363	26167.5
864.608	26013.5
864.853	25821.5
865.098	25745.5
865.342	25731.5
865.587	25540.5
865.832	25578.5
866.076	25516.5
866.321	25324.5
866.565	25329.5
866.81	25121.5
867.054	25120.5
867.298	25020.5
867.543	24913.5
867.787	24912.5
868.031	24840.5
868.275	24794.5
868.519	24732.5
868.764	24686.5
869.008	24721.5
869.252	24507.5
869.496	24561.5
869.739	24572.5
869.983	24507.5
870.227	24438.5
870.471	24386.5
870.715	24490.5
870.958	24484.5
871.202	24553.5
871.446	24671.5
871.689	24559.5
871.933	24573.5
872.176	24483.5
872.42	24588.5
872.663	24509.5
872.906	24378.5
873.15	24334.5
873.393	24232.5
873.636	24168.5
873.879	23970.5
874.122	23662.5
874.366	23388.5
874.609	23303.5
874.852	23125.5
875.095	22833.5
875.337	22862.5
875.58	22847.5
875.823	22671.5
876.066	22651.5
876.309	22570.5
876.551	22353.5
876.794	22247.5
877.037	22308.5
877.279	22131.5
877.522	22023.5
877.764	22193.5
878.007	22066.5
878.249	22084.5
878.491	21927.5
878.734	22026.5
878.976	21914.5
879.218	21825.5
879.46	21730.5
879.702	21542.5
879.945	21194.5
880.187	21150.5
880.429	21068.5
880.671	20864.5
880.912	20924.5
881.154	20885.5
881.396	20711.5
881.638	20735.5
881.88	20719.5
882.121	20652.5
882.363	20579.5
882.605	20665.5
882.846	20578.5
883.088	20501.5
883.329	20507.5
883.571	20464.5
883.812	20587.5
884.053	20823.5
884.295	21195.5
884.536	21434.5
884.777	21189.5
885.018	21170.5
885.259	20983.5
885.5	20926.5
885.742	21090.5
885.982	20745.5
886.223	20659.5
886.464	20545.5
886.705	20365.5
886.946	20193.5
887.187	19863.5
887.428	19659.5
887.668	19407.5
887.909	19220.5
888.15	18999.5
888.39	18788.5
888.631	18762.5
888.871	18641.5
889.111	18474.5
889.352	18440.5
889.592	18180.5
889.833	18042.5
890.073	17920.5
890.313	17943.5
890.553	17633.5
890.793	17615.5
891.033	17542.5
891.273	17389.5
891.513	17334.5
891.753	17457.5
891.993	17273.5
892.233	17404.5
892.473	17437.5
892.713	17472.5
892.952	17442.5
893.192	17408.5
893.432	17405.5
893.671	17365.5
893.911	17297.5
894.15	17152.5
894.39	17030.5
894.629	17000.5
894.869	16873.5
895.108	16734.5
895.347	16647.5
895.587	16597.5
895.826	16563.5
896.065	16396.5
896.304	16478.5
896.543	16519.5
896.782	16387.5
897.021	16365.5
897.26	16308.5
897.499	16334.5
897.738	16300.5
897.977	16233.5
898.216	16036.5
898.454	15884.5
898.693	15792.5
898.932	15806.5
899.17	15612.5
899.409	15600.5
899.647	15628.5
899.886	15607.5
900.124	15618.5
900.363	15541.5
900.601	15531.5
900.839	15581.5
901.078	15549.5
901.316	15640.5
901.554	15729.5
901.792	15735.5
902.03	15645.5
902.268	15711.5
902.506	15691.5
902.744	15494.5
902.982	15523.5
903.22	15262.5
903.458	14991.5
903.695	14889.5
903.933	14741.5
904.171	14341.5
904.409	14181.5
904.646	14038.5
904.884	13825.5
905.121	13787.5
905.359	13577.5
905.596	13460.5
905.833	13324.5
906.071	13254.5
906.308	13273.5
906.545	13239.5
906.783	13134.5
907.02	13128.5
907.257	13004.5
907.494	13002.5
907.731	13032.5
907.968	12883.5
908.205	12820.5
908.442	12724.5
908.679	12810.5
908.915	12639.5
909.152	12521.5
909.389	12312.5
909.626	12339.5
909.862	12204.5
910.099	12116.5
910.335	12209.5
910.572	12062.5
910.808	12056.5
911.045	11997.5
911.281	11912.5
911.518	11975.5
911.754	11793.5
911.99	11778.5
912.226	11711.5
912.463	11505.5
912.699	11477.5
912.935	11402.5
913.171	11300.5
913.407	11203.5
913.643	11120.5
913.879	11000.5
914.114	10894.5
914.35	10834.5
914.586	10681.5
914.822	10651.5
915.057	10679.5
915.293	10372.5
915.529	10364.5
915.764	10443.5
916	10448.5
916.235	10346.5
916.471	10403.5
916.706	10270.5
916.941	10278.5
917.177	10234.5
917.412	10226.5
917.647	10256.5
917.882	10176.5
918.117	10193.5
918.352	10200.5
918.588	10172.5
918.823	9992.5
919.057	9926.5
919.292	9767.5
919.527	9754.5
919.762	9639.5
919.997	9586.5
920.232	9405.5
920.466	9348.5
920.701	9253.5
920.935	9260.5
921.17	9123.5
921.405	9125.5
921.639	9125.5
921.873	9048.5
922.108	8989.5
922.342	8996.5
922.576	8909.5
922.811	8840.5
923.045	8909.5
923.279	8855.5
923.513	8725.5
923.747	8780.5
923.981	8642.5
924.215	8616.5
924.449	8563.5
924.683	8512.5
924.917	8495.5
925.151	8422.5
925.385	8448.5
925.618	8323.5
925.852	8371.5
926.086	8242.5
926.319	8288.5
926.553	8313.5
926.786	8311.5
927.02	8203.5
927.253	8298.5
927.486	8295.5
927.72	8125.5
927.953	8164.5
928.186	8150.5
928.42	8142.5
928.653	8064.5
928.886	8004.5
929.119	8028.5
929.352	7936.5
929.585	7917.5
929.818	7808.5
930.051	7798.5
930.284	7784.5
930.516	7655.5
930.749	7587.5
930.982	7577.5
931.215	7549.5
931.447	7445.5
931.68	7402.5
931.912	7432.5
932.145	7412.5
932.377	7463.5
932.61	7541.5
932.842	7356.5
933.074	7395.5
933.307	7331.5
933.539	7401.5
933.771	7402.5
934.003	7341.5
934.236	7468.5
934.468	7421.5
934.7	7355.5
934.932	7309.5
935.164	7281.5
935.395	7208.5
935.627	7291.5
935.859	7187.5
936.091	7121.5
936.323	7172.5
936.554	7143.5
936.786	7075.5
937.017	6973.5
937.249	7002.5
937.481	6935.5
937.712	6999.5
937.943	6965.5
938.175	6982.5
938.406	6928.5
938.637	6968.5
938.869	6836.5
939.1	6923.5
939.331	6843.5
939.562	6845.5
939.793	6791.5
940.024	6841.5
940.255	6775.5
940.486	6693.5
940.717	6725.5
940.948	6749.5
941.179	6602.5
941.409	6616.5
941.64	6545.5
941.871	6524.5
942.102	6555.5
942.332	6543.5
942.563	6629.5
942.793	6589.5
943.024	6511.5
943.254	6564.5
943.484	6513.5
943.715	6563.5
943.945	6534.5
944.175	6477.5
944.405	6387.5
944.636	6444.5
944.866	6471.5
945.096	6498.5
945.326	6398.5
945.556	6362.5
945.786	6381.5
946.016	6321.5
946.245	6227.5
946.475	6155.5
946.705	6153.5
946.935	6113.5
947.164	6125.5
947.394	6014.5
947.624	6071.5
947.853	6094.5
948.083	6047.5
948.312	5950.5
948.542	5931.5
948.771	5886.5
949	5885.5
949.23	5880.5
949.459	5862.5
949.688	5922.5
949.917	5875.5
950.146	5880.5
950.375	5966.5
950.604	5819.5
950.833	5843.5
951.062	5886.5
951.291	5804.5
951.52	5779.5
951.749	5761.5
951.978	5712.5
952.206	5701.5
952.435	5641.5
952.664	5715.5
952.892	5699.5
953.121	5640.5
953.349	5690.5
953.578	5595.5
953.806	5548.5
954.035	5479.5
954.263	5496.5
954.491	5483.5
954.719	5504.5
954.948	5365.5
955.176	5419.5
955.404	5280.5
955.632	5370.5
955.86	5283.5
956.088	5330.5
956.316	5264.5
956.544	5317.5
956.772	5224.5
956.999	5139.5
957.227	5211.5
957.455	5123.5
957.683	5077.5
957.91	5031.5
958.138	4977.5
958.365	5009.5
958.593	4956.5
958.82	4898.5
959.048	5049.5
959.275	4935.5
959.502	4878.5
959.73	4862.5
959.957	4909.5
960.184	4935.5
960.411	4824.5
960.638	4916.5
960.865	4875.5
961.092	4842.5
961.319	4749.5
961.546	4864.5
961.773	4861.5
962	4840.5
962.227	4826.5
962.454	4800.5
962.68	4746.5
962.907	4759.5
963.134	4647.5
963.36	4713.5
963.587	4664.5
963.813	4581.5
964.04	4641.5
964.266	4570.5
964.493	4607.5
964.719	4546.5
964.945	4521.5
965.171	4427.5
965.398	4449.5
965.624	4465.5
965.85	4343.5
966.076	4364.5
966.302	4408.5
966.528	4350.5
966.754	4373.5
966.98	4350.5
967.206	4330.5
967.431	4268.5
967.657	4325.5
967.883	4282.5
968.109	4271.5
968.334	4207.5
968.56	4202.5
968.785	4163.5
969.011	4121.5
969.236	4224.5
969.462	4102.5
969.687	4127.5
969.912	4164.5
970.138	4203.5
970.363	4068.5
970.588	4103.5
970.813	4059.5
971.038	4012.5
971.263	3999.5
971.488	4045.5
971.713	4017.5
971.938	4009.5
972.163	3941.5
972.388	3890.5
972.613	3888.5
972.838	3903.5
973.062	3894.5
973.287	3830.5
973.512	3792.5
973.736	3843.5
973.961	3757.5
974.185	3748.5
974.41	3788.5
974.634	3670.5
974.858	3669.5
975.083	3671.5
975.307	3671.5
975.531	3596.5
975.755	3541.5
975.98	3581.5
976.204	3520.5
976.428	3509.5
976.652	3471.5
976.876	3467.5
977.1	3520.5
977.324	3479.5
977.547	3457.5
977.771	3458.5
977.995	3413.5
978.219	3400.5
978.442	3494.5
978.666	3380.5
978.89	3376.5
979.113	3400.5
979.337	3364.5
979.56	3346.5
979.783	3427.5
980.007	3305.5
980.23	3338.5
980.453	3276.5
980.677	3309.5
980.9	3274.5
981.123	3173.5
981.346	3256.5
981.569	3253.5
981.792	3244.5
982.015	3192.5
982.238	3179.5
982.461	3166.5
982.684	3116.5
982.907	3078.5
983.129	3076.5
983.352	3126.5
983.575	3058.5
983.797	3052.5
984.02	3016.5
984.242	3014.5
984.465	3006.5
984.687	2981.5
984.91	3055.5
985.132	3015.5
985.354	2970.5
985.577	2971.5
985.799	2957.5
986.021	2846.5
986.243	2868.5
986.465	2870.5
986.687	2933.5
986.909	2952.5
987.131	2892.5
987.353	2831.5
987.575	2871.5
987.797	2825.5
988.019	2760.5
988.241	2805.5
988.462	2763.5
988.684	2826.5
988.906	2810.5
989.127	2853.5
989.349	2699.5
989.57	2794.5
989.792	2753.5
990.013	2783.5
990.234	2774.5
990.456	2819.5
990.677	2817.5
990.898	2705.5
991.119	2700.5
991.341	2691.5
991.562	2656.5
991.783	2669.5
992.004	2583.5
992.225	2558.5
992.446	2632.5
992.667	2507.5
992.887	2610.5
993.108	2512.5
993.329	2594.5
993.55	2528.5
993.77	2477.5
993.991	2447.5
994.212	2506.5
994.432	2480.5
994.653	2475.5
994.873	2488.5
995.093	2344.5
995.314	2389.5
995.534	2440.5
995.754	2492.5
995.975	2472.5
996.195	2392.5
996.415	2401.5
996.635	2374.5
996.855	2392.5
997.075	2357.5
997.295	2346.5
997.515	2319.5
997.735	2391.5
997.955	2353.5
998.174	2348.5
998.394	2305.5
998.614	2333.5
998.834	2293.5
999.053	2347.5
999.273	2308.5
999.492	2365.5
999.712	2289.5
999.931	2255.5
1000.151	2311.5
1000.37	2287.5
1000.589	2302.5
1000.809	2195.5
1001.028	2350.5
1001.247	2256.5
1001.466	2130.5
1001.685	2285.5
1001.904	2207.5
1002.123	2174.5
1002.342	2188.5
1002.561	2112.5
1002.78	2135.5
1002.999	2219.5
1003.218	2158.5
1003.436	2142.5
1003.655	2152.5
1003.874	2086.5
1004.092	2072.5
1004.311	2141.5
1004.53	2090.5
1004.748	2170.5
1004.966	2061.5
1005.185	2148.5
1005.403	2119.5
1005.622	2096.5
1005.84	2141.5
1006.058	2043.5
1006.276	2091.5
1006.494	2551.5
1006.712	2067.5
1006.931	2131.5
1007.149	2030.5
1007.367	2004.5
1007.584	2078.5
1007.802	2094.5
1008.02	2010.5
1008.238	2150.5
1008.456	2137.5
1008.673	1998.5
1008.891	2098.5
1009.109	2089.5
1009.326	2124.5
1009.544	2243.5
1009.761	2136.5
1009.979	2218.5
1010.196	2293.5
1010.413	2401.5
1010.631	2430.5
1010.848	2490.5
1011.065	2530.5
1011.282	2436.5
1011.5	2421.5
1011.717	2528.5
1011.934	2423.5
1012.151	2437.5
1012.368	2431.5
1012.585	2346.5
1012.801	2406.5
1013.018	2373.5
1013.235	2349.5
1013.452	2396.5
1013.669	2390.5
1013.885	2363.5
1014.102	2402.5
1014.318	2377.5
1014.535	2302.5
1014.751	2359.5
1014.968	2342.5
1015.184	2341.5
1015.401	2282.5
1015.617	2310.5
1015.833	2195.5
1016.049	2236.5
1016.266	2190.5
1016.482	2199.5
1016.698	2122.5
1016.914	2159.5
1017.13	2128.5
1017.346	2091.5
1017.562	2158.5
1017.778	2106.5
1017.993	2036.5
1018.209	2092.5
1018.425	2051.5
1018.641	2008.5
1018.856	1994.5
1019.072	2024.5
1019.288	2084.5
1019.503	2046.5
1019.719	1921.5
1019.934	1967.5
1020.149	2044.5
1020.365	1913.5
1020.58	1896.5
1020.795	1935.5
1021.011	1854.5
1021.226	1841.5
1021.441	1809.5
1021.656	1724.5
1021.871	1659.5
1022.086	1668.5
1022.301	1678.5
1022.516	1655.5
1022.731	1682.5
1022.946	1576.5
1023.16	1545.5
1023.375	1556.5
1023.59	1492.5
1023.804	1453.5
1024.019	1528.5
1024.234	1399.5
1024.448	1437.5
1024.663	1349.5
1024.877	1350.5
1025.092	1394.5
1025.306	1342.5
1025.52	1264.5
1025.734	1335.5
1025.949	1244.5
1026.163	1216.5
1026.377	1136.5
1026.591	1181.5
1026.805	1102.5
1027.019	1102.5
1027.233	1059.5
1027.447	1008.5
1027.661	1093.5
1027.875	1032.5
1028.088	1039.5
1028.302	952.5
1028.516	949.5
1028.73	930.5
1028.943	911.5
1029.157	856.5
1029.37	805.5
1029.584	-2.5
1029.797	-3.5
1030.011	-0.5
1030.224	-2.5
