Data from QEP037381__254__16-12-09-903.txt Node

Date: Fri Dec 16 16:12:09 EST 2022
User: dcclab
Spectrometer: QEP03738
Trigger mode: 4
Integration Time (sec): 1.000000E1
Scans to average: 1
Electric dark correction enabled: true
Nonlinearity correction enabled: false
Boxcar width: 0
XAxis mode: Wavelengths
Number of Pixels in Spectrum: 1044
>>>>>Begin Spectral Data<<<<<
784.041	9.62
784.3	-2.38
784.558	-1.38
784.817	0.62
785.075	109681.62
785.334	19190.62
785.592	9075.62
785.851	6295.62
786.109	4647.62
786.368	3630.62
786.626	2919.62
786.884	2458.62
787.143	2062.62
787.401	1714.62
787.659	1530.62
787.917	1314.62
788.175	1211.62
788.433	1084.62
788.691	951.62
788.949	885.62
789.207	825.62
789.465	750.62
789.723	709.62
789.98	656.62
790.238	678.62
790.496	652.62
790.753	619.62
791.011	660.62
791.268	598.62
791.526	579.62
791.783	580.62
792.041	576.62
792.298	488.62
792.556	574.62
792.813	526.62
793.07	522.62
793.327	514.62
793.584	574.62
793.841	507.62
794.099	507.62
794.356	594.62
794.613	486.62
794.869	516.62
795.126	481.62
795.383	474.62
795.64	497.62
795.897	443.62
796.153	513.62
796.41	496.62
796.667	477.62
796.923	486.62
797.18	494.62
797.436	528.62
797.693	470.62
797.949	545.62
798.206	571.62
798.462	482.62
798.718	546.62
798.974	534.62
799.231	588.62
799.487	586.62
799.743	583.62
799.999	623.62
800.255	624.62
800.511	631.62
800.767	676.62
801.023	690.62
801.279	727.62
801.534	805.62
801.79	888.62
802.046	955.62
802.302	1170.62
802.557	1366.62
802.813	1775.62
803.068	2303.62
803.324	3292.62
803.579	4526.62
803.835	6358.62
804.09	8846.62
804.345	11677.62
804.601	14855.62
804.856	18084.62
805.111	21093.62
805.366	23203.62
805.621	24977.62
805.876	26204.62
806.131	26958.62
806.386	27510.62
806.641	28058.62
806.896	28385.62
807.151	28872.62
807.406	29507.62
807.661	30020.62
807.915	30562.62
808.17	31079.62
808.425	31356.62
808.679	31649.62
808.934	32034.62
809.188	32366.62
809.443	32777.62
809.697	33139.62
809.951	33314.62
810.206	33618.62
810.46	33934.62
810.714	34239.62
810.968	34632.62
811.223	34857.62
811.477	35076.62
811.731	35500.62
811.985	35569.62
812.239	35842.62
812.493	36094.62
812.747	36153.62
813	36264.62
813.254	36466.62
813.508	36745.62
813.762	36730.62
814.015	37067.62
814.269	37282.62
814.522	37643.62
814.776	37989.62
815.03	38501.62
815.283	39065.62
815.536	39593.62
815.79	40394.62
816.043	40864.62
816.296	41451.62
816.55	42108.62
816.803	42566.62
817.056	42998.62
817.309	43544.62
817.562	43831.62
817.815	44501.62
818.068	44608.62
818.321	45204.62
818.574	45618.62
818.827	46131.62
819.079	46829.62
819.332	47510.62
819.585	48114.62
819.838	48806.62
820.09	49018.62
820.343	49593.62
820.595	49668.62
820.848	50041.62
821.1	50213.62
821.353	50346.62
821.605	50267.62
821.857	50275.62
822.11	50066.62
822.362	49967.62
822.614	49855.62
822.866	49935.62
823.118	49823.62
823.37	49990.62
823.622	50296.62
823.874	50264.62
824.126	50491.62
824.378	50538.62
824.63	50735.62
824.882	50808.62
825.134	50754.62
825.385	50662.62
825.637	50749.62
825.888	50674.62
826.14	50644.62
826.392	50317.62
826.643	50075.62
826.895	49985.62
827.146	49762.62
827.397	49701.62
827.649	49684.62
827.9	49510.62
828.151	49696.62
828.402	49919.62
828.653	50037.62
828.905	50171.62
829.156	50174.62
829.407	50279.62
829.658	50263.62
829.909	50278.62
830.159	50222.62
830.41	49942.62
830.661	49608.62
830.912	49331.62
831.162	49243.62
831.413	49304.62
831.664	49260.62
831.914	49160.62
832.165	48986.62
832.415	49317.62
832.666	49066.62
832.916	49083.62
833.167	49108.62
833.417	49059.62
833.667	49064.62
833.917	48753.62
834.168	48696.62
834.418	48545.62
834.668	48357.62
834.918	48158.62
835.168	47933.62
835.418	47775.62
835.668	47752.62
835.918	47579.62
836.167	47431.62
836.417	47277.62
836.667	47406.62
836.917	47228.62
837.166	47149.62
837.416	47312.62
837.666	47259.62
837.915	47213.62
838.165	47127.62
838.414	46951.62
838.663	46850.62
838.913	46907.62
839.162	46703.62
839.411	46671.62
839.661	46303.62
839.91	46299.62
840.159	46205.62
840.408	46192.62
840.657	46085.62
840.906	46054.62
841.155	46154.62
841.404	46145.62
841.653	46233.62
841.902	46288.62
842.15	46389.62
842.399	46289.62
842.648	46125.62
842.897	46049.62
843.145	45749.62
843.394	45406.62
843.642	45392.62
843.891	45042.62
844.139	45022.62
844.388	44638.62
844.636	44510.62
844.884	44507.62
845.133	44390.62
845.381	44347.62
845.629	44241.62
845.877	44251.62
846.125	44235.62
846.373	44216.62
846.621	43985.62
846.869	43786.62
847.117	43501.62
847.365	43359.62
847.613	43089.62
847.861	43082.62
848.108	42916.62
848.356	42856.62
848.604	42893.62
848.851	42888.62
849.099	42862.62
849.346	42992.62
849.594	42929.62
849.841	43353.62
850.089	43256.62
850.336	43393.62
850.583	43269.62
850.831	43067.62
851.078	42916.62
851.325	42809.62
851.572	42789.62
851.819	42495.62
852.066	41664.62
852.313	41231.62
852.56	40938.62
852.807	40898.62
853.054	40740.62
853.301	40563.62
853.548	40673.62
853.794	40724.62
854.041	40854.62
854.288	41004.62
854.534	41315.62
854.781	41313.62
855.028	41224.62
855.274	40975.62
855.52	40721.62
855.767	40616.62
856.013	40490.62
856.26	40912.62
856.506	40216.62
856.752	40240.62
856.998	40153.62
857.244	40326.62
857.49	40483.62
857.736	40462.62
857.982	40621.62
858.228	40456.62
858.474	40174.62
858.72	39911.62
858.966	39633.62
859.212	39278.62
859.458	38818.62
859.703	38441.62
859.949	38039.62
860.195	38039.62
860.44	37806.62
860.686	37491.62
860.931	37459.62
861.177	37298.62
861.422	37170.62
861.667	37014.62
861.913	37076.62
862.158	37089.62
862.403	37058.62
862.648	37209.62
862.893	37096.62
863.138	37202.62
863.384	37132.62
863.629	36997.62
863.873	37132.62
864.118	36954.62
864.363	36793.62
864.608	36618.62
864.853	36492.62
865.098	36354.62
865.342	36009.62
865.587	36026.62
865.832	36018.62
866.076	35807.62
866.321	35678.62
866.565	35647.62
866.81	35452.62
867.054	35305.62
867.298	35217.62
867.543	35159.62
867.787	35133.62
868.031	35024.62
868.275	34996.62
868.519	34980.62
868.764	34793.62
869.008	34804.62
869.252	34682.62
869.496	34406.62
869.739	34265.62
869.983	34310.62
870.227	34208.62
870.471	34329.62
870.715	34369.62
870.958	34422.62
871.202	34325.62
871.446	34476.62
871.689	34427.62
871.933	34514.62
872.176	34344.62
872.42	34399.62
872.663	34300.62
872.906	34134.62
873.15	34028.62
873.393	33987.62
873.636	33854.62
873.879	33463.62
874.122	33051.62
874.366	32713.62
874.609	32455.62
874.852	32275.62
875.095	32225.62
875.337	32037.62
875.58	31713.62
875.823	31757.62
876.066	31653.62
876.309	31691.62
876.551	31378.62
876.794	31189.62
877.037	31169.62
877.279	30949.62
877.522	31001.62
877.764	31168.62
878.007	31098.62
878.249	31004.62
878.491	30978.62
878.734	31031.62
878.976	30710.62
879.218	30655.62
879.46	30473.62
879.702	30191.62
879.945	29960.62
880.187	29885.62
880.429	29599.62
880.671	29436.62
880.912	29242.62
881.154	29479.62
881.396	29010.62
881.638	29175.62
881.88	29138.62
882.121	29079.62
882.363	29142.62
882.605	28950.62
882.846	28782.62
883.088	28754.62
883.329	28654.62
883.571	28646.62
883.812	28819.62
884.053	29103.62
884.295	29460.62
884.536	29645.62
884.777	29455.62
885.018	29396.62
885.259	29172.62
885.5	28992.62
885.742	29201.62
885.982	29022.62
886.223	28847.62
886.464	28714.62
886.705	28366.62
886.946	28209.62
887.187	27844.62
887.428	27634.62
887.668	27265.62
887.909	26929.62
888.15	26760.62
888.39	26563.62
888.631	26307.62
888.871	26174.62
889.111	26012.62
889.352	25807.62
889.592	25705.62
889.833	25416.62
890.073	25362.62
890.313	25206.62
890.553	24977.62
890.793	24728.62
891.033	24791.62
891.273	24507.62
891.513	24479.62
891.753	24416.62
891.993	24440.62
892.233	24386.62
892.473	24558.62
892.713	24493.62
892.952	24418.62
893.192	24467.62
893.432	24284.62
893.671	24265.62
893.911	24217.62
894.15	24087.62
894.39	23773.62
894.629	23687.62
894.869	23773.62
895.108	23396.62
895.347	23366.62
895.587	23265.62
895.826	23291.62
896.065	23126.62
896.304	23130.62
896.543	23205.62
896.782	22881.62
897.021	22906.62
897.26	22821.62
897.499	22828.62
897.738	22748.62
897.977	22583.62
898.216	22348.62
898.454	22178.62
898.693	22009.62
898.932	21906.62
899.17	21831.62
899.409	21736.62
899.647	21641.62
899.886	21668.62
900.124	21732.62
900.363	21662.62
900.601	21710.62
900.839	21661.62
901.078	21678.62
901.316	21704.62
901.554	21767.62
901.792	21766.62
902.03	21819.62
902.268	21717.62
902.506	21764.62
902.744	21540.62
902.982	21483.62
903.22	21200.62
903.458	20876.62
903.695	20674.62
903.933	20455.62
904.171	20109.62
904.409	19886.62
904.646	19651.62
904.884	19446.62
905.121	19189.62
905.359	18996.62
905.596	18742.62
905.833	18737.62
906.071	18666.62
906.308	18575.62
906.545	18372.62
906.783	18316.62
907.02	18345.62
907.257	18238.62
907.494	18179.62
907.731	18289.62
907.968	17962.62
908.205	17912.62
908.442	17827.62
908.679	17752.62
908.915	17633.62
909.152	17515.62
909.389	17392.62
909.626	17231.62
909.862	17087.62
910.099	16946.62
910.335	17054.62
910.572	16759.62
910.808	16763.62
911.045	16738.62
911.281	16605.62
911.518	16586.62
911.754	16439.62
911.99	16486.62
912.226	16311.62
912.463	16132.62
912.699	15971.62
912.935	15935.62
913.171	15821.62
913.407	15668.62
913.643	15570.62
913.879	15423.62
914.114	15354.62
914.35	15187.62
914.586	15050.62
914.822	14793.62
915.057	14838.62
915.293	14574.62
915.529	14546.62
915.764	14537.62
916	14555.62
916.235	14407.62
916.471	14477.62
916.706	14270.62
916.941	14272.62
917.177	14266.62
917.412	14270.62
917.647	14247.62
917.882	14227.62
918.117	14198.62
918.352	14135.62
918.588	14078.62
918.823	13860.62
919.057	13792.62
919.292	13547.62
919.527	13591.62
919.762	13390.62
919.997	13307.62
920.232	13122.62
920.466	13036.62
920.701	12848.62
920.935	12858.62
921.17	12759.62
921.405	12648.62
921.639	12745.62
921.873	12534.62
922.108	12487.62
922.342	12497.62
922.576	12430.62
922.811	12320.62
923.045	12403.62
923.279	12322.62
923.513	12067.62
923.747	12185.62
923.981	12049.62
924.215	11928.62
924.449	11884.62
924.683	11742.62
924.917	11596.62
925.151	11698.62
925.385	11636.62
925.618	11628.62
925.852	11627.62
926.086	11477.62
926.319	11510.62
926.553	11460.62
926.786	11427.62
927.02	11393.62
927.253	11479.62
927.486	11413.62
927.72	11274.62
927.953	11389.62
928.186	11261.62
928.42	11308.62
928.653	11155.62
928.886	11086.62
929.119	11081.62
929.352	10914.62
929.585	10899.62
929.818	10815.62
930.051	10798.62
930.284	10658.62
930.516	10491.62
930.749	10511.62
930.982	10401.62
931.215	10333.62
931.447	10238.62
931.68	10299.62
931.912	10242.62
932.145	10185.62
932.377	10278.62
932.61	10321.62
932.842	10173.62
933.074	10280.62
933.307	10144.62
933.539	10255.62
933.771	10164.62
934.003	10178.62
934.236	10224.62
934.468	10217.62
934.7	10022.62
934.932	10076.62
935.164	10000.62
935.395	9908.62
935.627	9929.62
935.859	9930.62
936.091	9774.62
936.323	9894.62
936.554	9770.62
936.786	9694.62
937.017	9646.62
937.249	9637.62
937.481	9600.62
937.712	9612.62
937.943	9566.62
938.175	9518.62
938.406	9485.62
938.637	9571.62
938.869	9413.62
939.1	9480.62
939.331	9406.62
939.562	9423.62
939.793	9393.62
940.024	9314.62
940.255	9286.62
940.486	9189.62
940.717	9149.62
940.948	9122.62
941.179	9092.62
941.409	9035.62
941.64	8972.62
941.871	9043.62
942.102	8914.62
942.332	8983.62
942.563	9065.62
942.793	9033.62
943.024	8906.62
943.254	8971.62
943.484	8955.62
943.715	8934.62
943.945	8883.62
944.175	8886.62
944.405	8811.62
944.636	8845.62
944.866	8873.62
945.096	8880.62
945.326	8727.62
945.556	8742.62
945.786	8698.62
946.016	8601.62
946.245	8542.62
946.475	8494.62
946.705	8461.62
946.935	8445.62
947.164	8378.62
947.394	8349.62
947.624	8255.62
947.853	8277.62
948.083	8260.62
948.312	8163.62
948.542	8050.62
948.771	8049.62
949	8101.62
949.23	8056.62
949.459	8041.62
949.688	8122.62
949.917	7937.62
950.146	8008.62
950.375	8077.62
950.604	7923.62
950.833	7960.62
951.062	7949.62
951.291	7875.62
951.52	7816.62
951.749	7764.62
951.978	7812.62
952.206	7760.62
952.435	7678.62
952.664	7691.62
952.892	7697.62
953.121	7760.62
953.349	7627.62
953.578	7633.62
953.806	7478.62
954.035	7497.62
954.263	7534.62
954.491	7389.62
954.719	7466.62
954.948	7287.62
955.176	7293.62
955.404	7213.62
955.632	7232.62
955.86	7233.62
956.088	7179.62
956.316	7189.62
956.544	7140.62
956.772	7036.62
956.999	7012.62
957.227	7067.62
957.455	6953.62
957.683	6912.62
957.91	6841.62
958.138	6813.62
958.365	6748.62
958.593	6727.62
958.82	6620.62
959.048	6683.62
959.275	6687.62
959.502	6696.62
959.73	6625.62
959.957	6627.62
960.184	6611.62
960.411	6555.62
960.638	6650.62
960.865	6610.62
961.092	6581.62
961.319	6445.62
961.546	6557.62
961.773	6538.62
962	6522.62
962.227	6485.62
962.454	6475.62
962.68	6444.62
962.907	6401.62
963.134	6378.62
963.36	6335.62
963.587	6282.62
963.813	6221.62
964.04	6183.62
964.266	6121.62
964.493	6213.62
964.719	6115.62
964.945	6116.62
965.171	5950.62
965.398	6030.62
965.624	5944.62
965.85	5920.62
966.076	5845.62
966.302	5891.62
966.528	5849.62
966.754	5794.62
966.98	5828.62
967.206	5746.62
967.431	5699.62
967.657	5822.62
967.883	5725.62
968.109	5686.62
968.334	5628.62
968.56	5608.62
968.785	5606.62
969.011	5508.62
969.236	5572.62
969.462	5504.62
969.687	5479.62
969.912	5563.62
970.138	5546.62
970.363	5482.62
970.588	5486.62
970.813	5405.62
971.038	5353.62
971.263	5405.62
971.488	5344.62
971.713	5422.62
971.938	5354.62
972.163	5253.62
972.388	5284.62
972.613	5204.62
972.838	5223.62
973.062	5191.62
973.287	5137.62
973.512	5069.62
973.736	5091.62
973.961	5038.62
974.185	5013.62
974.41	5069.62
974.634	4920.62
974.858	4914.62
975.083	4939.62
975.307	4917.62
975.531	4828.62
975.755	4758.62
975.98	4773.62
976.204	4665.62
976.428	4653.62
976.652	4627.62
976.876	4595.62
977.1	4640.62
977.324	4598.62
977.547	4621.62
977.771	4629.62
977.995	4589.62
978.219	4501.62
978.442	4637.62
978.666	4545.62
978.89	4501.62
979.113	4490.62
979.337	4501.62
979.56	4460.62
979.783	4550.62
980.007	4381.62
980.23	4389.62
980.453	4373.62
980.677	4382.62
980.9	4362.62
981.123	4250.62
981.346	4343.62
981.569	4260.62
981.792	4314.62
982.015	4237.62
982.238	4149.62
982.461	4180.62
982.684	4153.62
982.907	4072.62
983.129	4020.62
983.352	4097.62
983.575	4036.62
983.797	4079.62
984.02	4000.62
984.242	3940.62
984.465	4005.62
984.687	3958.62
984.91	4025.62
985.132	3951.62
985.354	3907.62
985.577	3846.62
985.799	3890.62
986.021	3746.62
986.243	3788.62
986.465	3746.62
986.687	3821.62
986.909	3816.62
987.131	3749.62
987.353	3642.62
987.575	3761.62
987.797	3697.62
988.019	3636.62
988.241	3629.62
988.462	3623.62
988.684	3711.62
988.906	3692.62
989.127	3723.62
989.349	3584.62
989.57	3596.62
989.792	3623.62
990.013	3616.62
990.234	3612.62
990.456	3609.62
990.677	3590.62
990.898	3518.62
991.119	3509.62
991.341	3519.62
991.562	3457.62
991.783	3476.62
992.004	3385.62
992.225	3305.62
992.446	3410.62
992.667	3322.62
992.887	3378.62
993.108	3253.62
993.329	3330.62
993.55	3242.62
993.77	3211.62
993.991	3211.62
994.212	3218.62
994.432	3220.62
994.653	3163.62
994.873	3198.62
995.093	3076.62
995.314	3077.62
995.534	3115.62
995.754	3156.62
995.975	3162.62
996.195	3026.62
996.415	3087.62
996.635	3080.62
996.855	3043.62
997.075	2996.62
997.295	3019.62
997.515	3003.62
997.735	3066.62
997.955	3036.62
998.174	2989.62
998.394	2962.62
998.614	2986.62
998.834	2965.62
999.053	3004.62
999.273	2986.62
999.492	2978.62
999.712	2959.62
999.931	2896.62
1000.151	2925.62
1000.37	2883.62
1000.589	2911.62
1000.809	2831.62
1001.028	2924.62
1001.247	2865.62
1001.466	2752.62
1001.685	2849.62
1001.904	2775.62
1002.123	2753.62
1002.342	2751.62
1002.561	2665.62
1002.78	2719.62
1002.999	2770.62
1003.218	2692.62
1003.436	2661.62
1003.655	2698.62
1003.874	2601.62
1004.092	2652.62
1004.311	2662.62
1004.53	2610.62
1004.748	2676.62
1004.966	2603.62
1005.185	2637.62
1005.403	2634.62
1005.622	2601.62
1005.84	2668.62
1006.058	2557.62
1006.276	2591.62
1006.494	3083.62
1006.712	2567.62
1006.931	2629.62
1007.149	2555.62
1007.367	2535.62
1007.584	2566.62
1007.802	2590.62
1008.02	2550.62
1008.238	2637.62
1008.456	2606.62
1008.673	2511.62
1008.891	2632.62
1009.109	2567.62
1009.326	2650.62
1009.544	2711.62
1009.761	2661.62
1009.979	2774.62
1010.196	2785.62
1010.413	2908.62
1010.631	3000.62
1010.848	3034.62
1011.065	3100.62
1011.282	3059.62
1011.5	2950.62
1011.717	3058.62
1011.934	2971.62
1012.151	2994.62
1012.368	2964.62
1012.585	2891.62
1012.801	2958.62
1013.018	2954.62
1013.235	2902.62
1013.452	2944.62
1013.669	2936.62
1013.885	2923.62
1014.102	2962.62
1014.318	2923.62
1014.535	2856.62
1014.751	2859.62
1014.968	2862.62
1015.184	2900.62
1015.401	2744.62
1015.617	2776.62
1015.833	2727.62
1016.049	2717.62
1016.266	2686.62
1016.482	2713.62
1016.698	2576.62
1016.914	2644.62
1017.13	2553.62
1017.346	2540.62
1017.562	2584.62
1017.778	2524.62
1017.993	2459.62
1018.209	2513.62
1018.425	2500.62
1018.641	2471.62
1018.856	2419.62
1019.072	2478.62
1019.288	2499.62
1019.503	2466.62
1019.719	2364.62
1019.934	2360.62
1020.149	2412.62
1020.365	2364.62
1020.58	2277.62
1020.795	2328.62
1021.011	2243.62
1021.226	2178.62
1021.441	2213.62
1021.656	2108.62
1021.871	2012.62
1022.086	2020.62
1022.301	2017.62
1022.516	1980.62
1022.731	1987.62
1022.946	1916.62
1023.16	1866.62
1023.375	1875.62
1023.59	1804.62
1023.804	1761.62
1024.019	1864.62
1024.234	1709.62
1024.448	1735.62
1024.663	1617.62
1024.877	1594.62
1025.092	1646.62
1025.306	1611.62
1025.52	1518.62
1025.734	1571.62
1025.949	1483.62
1026.163	1430.62
1026.377	1387.62
1026.591	1412.62
1026.805	1332.62
1027.019	1305.62
1027.233	1281.62
1027.447	1221.62
1027.661	1315.62
1027.875	1236.62
1028.088	1231.62
1028.302	1129.62
1028.516	1148.62
1028.73	1117.62
1028.943	1060.62
1029.157	1004.62
1029.37	941.62
1029.584	-4.38
1029.797	-1.38
1030.011	0.62
1030.224	-1.38
