Data from QEP037381__291__16-18-19-908.txt Node

Date: Fri Dec 16 16:18:19 EST 2022
User: dcclab
Spectrometer: QEP03738
Trigger mode: 4
Integration Time (sec): 1.000000E1
Scans to average: 1
Electric dark correction enabled: true
Nonlinearity correction enabled: false
Boxcar width: 0
XAxis mode: Wavelengths
Number of Pixels in Spectrum: 1044
>>>>>Begin Spectral Data<<<<<
784.041	15.5
784.3	-1.5
784.558	-1.5
784.817	-7.5
785.075	108564.5
785.334	19118.5
785.592	9082.5
785.851	6290.5
786.109	4745.5
786.368	3683.5
786.626	2959.5
786.884	2446.5
787.143	2072.5
787.401	1679.5
787.659	1536.5
787.917	1293.5
788.175	1188.5
788.433	1049.5
788.691	935.5
788.949	879.5
789.207	819.5
789.465	718.5
789.723	700.5
789.98	633.5
790.238	656.5
790.496	625.5
790.753	592.5
791.011	651.5
791.268	562.5
791.526	561.5
791.783	561.5
792.041	544.5
792.298	459.5
792.556	529.5
792.813	504.5
793.07	480.5
793.327	470.5
793.584	537.5
793.841	474.5
794.099	493.5
794.356	539.5
794.613	455.5
794.869	500.5
795.126	462.5
795.383	450.5
795.64	464.5
795.897	416.5
796.153	477.5
796.41	448.5
796.667	428.5
796.923	448.5
797.18	447.5
797.436	476.5
797.693	442.5
797.949	505.5
798.206	515.5
798.462	435.5
798.718	492.5
798.974	496.5
799.231	517.5
799.487	516.5
799.743	524.5
799.999	544.5
800.255	547.5
800.511	546.5
800.767	586.5
801.023	575.5
801.279	627.5
801.534	655.5
801.79	724.5
802.046	776.5
802.302	928.5
802.557	1083.5
802.813	1347.5
803.068	1718.5
803.324	2405.5
803.579	3287.5
803.835	4550.5
804.09	6246.5
804.345	8219.5
804.601	10328.5
804.856	12585.5
805.111	14577.5
805.366	16201.5
805.621	17339.5
805.876	18078.5
806.131	18677.5
806.386	19003.5
806.641	19338.5
806.896	19694.5
807.151	20042.5
807.406	20329.5
807.661	20685.5
807.915	21086.5
808.17	21417.5
808.425	21658.5
808.679	21809.5
808.934	22119.5
809.188	22406.5
809.443	22466.5
809.697	22721.5
809.951	22994.5
810.206	23213.5
810.46	23383.5
810.714	23550.5
810.968	23951.5
811.223	23907.5
811.477	24315.5
811.731	24533.5
811.985	24624.5
812.239	24647.5
812.493	24811.5
812.747	24867.5
813	24839.5
813.254	25189.5
813.508	25176.5
813.762	25217.5
814.015	25479.5
814.269	25534.5
814.522	25943.5
814.776	26156.5
815.03	26467.5
815.283	26828.5
815.536	27379.5
815.79	27737.5
816.043	28085.5
816.296	28494.5
816.55	28734.5
816.803	29145.5
817.056	29611.5
817.309	29787.5
817.562	30019.5
817.815	30398.5
818.068	30761.5
818.321	31006.5
818.574	31336.5
818.827	31766.5
819.079	32175.5
819.332	32679.5
819.585	33057.5
819.838	33443.5
820.09	33499.5
820.343	33790.5
820.595	33960.5
820.848	34208.5
821.1	34447.5
821.353	34452.5
821.605	34455.5
821.857	34403.5
822.11	34202.5
822.362	34157.5
822.614	34197.5
822.866	34129.5
823.118	34085.5
823.37	34249.5
823.622	34333.5
823.874	34371.5
824.126	34672.5
824.378	34512.5
824.63	34616.5
824.882	34860.5
825.134	34689.5
825.385	34619.5
825.637	34551.5
825.888	34582.5
826.14	34459.5
826.392	34421.5
826.643	34302.5
826.895	34110.5
827.146	33946.5
827.397	33894.5
827.649	33935.5
827.9	33824.5
828.151	33888.5
828.402	33956.5
828.653	33989.5
828.905	34000.5
829.156	34177.5
829.407	34173.5
829.658	34204.5
829.909	34315.5
830.159	34277.5
830.41	34026.5
830.661	33931.5
830.912	33800.5
831.162	33587.5
831.413	33661.5
831.664	33623.5
831.914	33506.5
832.165	33362.5
832.415	33491.5
832.666	33463.5
832.916	33494.5
833.167	33363.5
833.417	33413.5
833.667	33369.5
833.917	33176.5
834.168	33230.5
834.418	33022.5
834.668	32973.5
834.918	32811.5
835.168	32614.5
835.418	32544.5
835.668	32380.5
835.918	32418.5
836.167	32351.5
836.417	32194.5
836.667	32176.5
836.917	32066.5
837.166	32154.5
837.416	32107.5
837.666	32129.5
837.915	32047.5
838.165	31986.5
838.414	31885.5
838.663	31788.5
838.913	31848.5
839.162	31870.5
839.411	31775.5
839.661	31590.5
839.91	31532.5
840.159	31369.5
840.408	31382.5
840.657	31438.5
840.906	31415.5
841.155	31492.5
841.404	31483.5
841.653	31476.5
841.902	31496.5
842.15	31551.5
842.399	31656.5
842.648	31556.5
842.897	31353.5
843.145	31072.5
843.394	30998.5
843.642	30846.5
843.891	30620.5
844.139	30682.5
844.388	30362.5
844.636	30203.5
844.884	30307.5
845.133	30243.5
845.381	30256.5
845.629	30252.5
845.877	30093.5
846.125	30181.5
846.373	30104.5
846.621	30037.5
846.869	29933.5
847.117	29654.5
847.365	29525.5
847.613	29379.5
847.861	29334.5
848.108	29276.5
848.356	29116.5
848.604	29148.5
848.851	29080.5
849.099	29160.5
849.346	29154.5
849.594	29261.5
849.841	29529.5
850.089	29502.5
850.336	29547.5
850.583	29455.5
850.831	29259.5
851.078	29193.5
851.325	29100.5
851.572	29288.5
851.819	28998.5
852.066	28440.5
852.313	28196.5
852.56	27855.5
852.807	27809.5
853.054	27696.5
853.301	27698.5
853.548	27728.5
853.794	27819.5
854.041	27849.5
854.288	27961.5
854.534	28128.5
854.781	28114.5
855.028	28094.5
855.274	28019.5
855.52	27855.5
855.767	27817.5
856.013	27790.5
856.26	28042.5
856.506	27372.5
856.752	27605.5
856.998	27386.5
857.244	27501.5
857.49	27526.5
857.736	27626.5
857.982	27757.5
858.228	27682.5
858.474	27405.5
858.72	27227.5
858.966	27023.5
859.212	26884.5
859.458	26453.5
859.703	26207.5
859.949	25887.5
860.195	25785.5
860.44	25802.5
860.686	25673.5
860.931	25637.5
861.177	25454.5
861.422	25273.5
861.667	25261.5
861.913	25173.5
862.158	25282.5
862.403	25292.5
862.648	25474.5
862.893	25358.5
863.138	25378.5
863.384	25178.5
863.629	25180.5
863.873	25159.5
864.118	25051.5
864.363	25025.5
864.608	24923.5
864.853	24789.5
865.098	24665.5
865.342	24638.5
865.587	24570.5
865.832	24538.5
866.076	24456.5
866.321	24398.5
866.565	24318.5
866.81	24126.5
867.054	24096.5
867.298	23995.5
867.543	23956.5
867.787	24034.5
868.031	23876.5
868.275	23899.5
868.519	23878.5
868.764	23703.5
869.008	23709.5
869.252	23762.5
869.496	23556.5
869.739	23535.5
869.983	23565.5
870.227	23633.5
870.471	23418.5
870.715	23607.5
870.958	23657.5
871.202	23743.5
871.446	23853.5
871.689	23796.5
871.933	23669.5
872.176	23704.5
872.42	23626.5
872.663	23516.5
872.906	23577.5
873.15	23352.5
873.393	23322.5
873.636	23353.5
873.879	23076.5
874.122	22872.5
874.366	22601.5
874.609	22391.5
874.852	22255.5
875.095	22193.5
875.337	22049.5
875.58	21837.5
875.823	21805.5
876.066	21822.5
876.309	21739.5
876.551	21526.5
876.794	21404.5
877.037	21454.5
877.279	21267.5
877.522	21319.5
877.764	21368.5
878.007	21331.5
878.249	21167.5
878.491	21215.5
878.734	21097.5
878.976	21016.5
879.218	21000.5
879.46	20793.5
879.702	20745.5
879.945	20508.5
880.187	20367.5
880.429	20299.5
880.671	20115.5
880.912	20210.5
881.154	20031.5
881.396	19898.5
881.638	20012.5
881.88	19932.5
882.121	19954.5
882.363	19876.5
882.605	19802.5
882.846	19730.5
883.088	19710.5
883.329	19786.5
883.571	19786.5
883.812	19931.5
884.053	20301.5
884.295	20577.5
884.536	20778.5
884.777	20690.5
885.018	20561.5
885.259	20489.5
885.5	20276.5
885.742	20485.5
885.982	20168.5
886.223	20038.5
886.464	19920.5
886.705	19765.5
886.946	19507.5
887.187	19191.5
887.428	19070.5
887.668	18641.5
887.909	18411.5
888.15	18232.5
888.39	18141.5
888.631	18045.5
888.871	17885.5
889.111	17782.5
889.352	17663.5
889.592	17461.5
889.833	17434.5
890.073	17352.5
890.313	17282.5
890.553	17029.5
890.793	16876.5
891.033	16822.5
891.273	16738.5
891.513	16767.5
891.753	16721.5
891.993	16673.5
892.233	16708.5
892.473	16780.5
892.713	16794.5
892.952	16720.5
893.192	16759.5
893.432	16795.5
893.671	16745.5
893.911	16650.5
894.15	16552.5
894.39	16362.5
894.629	16348.5
894.869	16206.5
895.108	16124.5
895.347	15981.5
895.587	16050.5
895.826	15950.5
896.065	15866.5
896.304	15916.5
896.543	15866.5
896.782	15791.5
897.021	15761.5
897.26	15722.5
897.499	15728.5
897.738	15711.5
897.977	15688.5
898.216	15387.5
898.454	15308.5
898.693	15234.5
898.932	15219.5
899.17	15130.5
899.409	15030.5
899.647	15072.5
899.886	14961.5
900.124	15070.5
900.363	15003.5
900.601	15073.5
900.839	15138.5
901.078	15134.5
901.316	15179.5
901.554	15350.5
901.792	15309.5
902.03	15333.5
902.268	15271.5
902.506	15348.5
902.744	15095.5
902.982	15047.5
903.22	14807.5
903.458	14627.5
903.695	14416.5
903.933	14185.5
904.171	13908.5
904.409	13734.5
904.646	13608.5
904.884	13387.5
905.121	13318.5
905.359	13099.5
905.596	12964.5
905.833	12891.5
906.071	12781.5
906.308	12827.5
906.545	12771.5
906.783	12600.5
907.02	12620.5
907.257	12538.5
907.494	12526.5
907.731	12576.5
907.968	12429.5
908.205	12364.5
908.442	12349.5
908.679	12238.5
908.915	12098.5
909.152	12019.5
909.389	11867.5
909.626	11817.5
909.862	11687.5
910.099	11740.5
910.335	11724.5
910.572	11476.5
910.808	11519.5
911.045	11499.5
911.281	11340.5
911.518	11467.5
911.754	11359.5
911.99	11312.5
912.226	11204.5
912.463	11049.5
912.699	10976.5
912.935	10967.5
913.171	10871.5
913.407	10786.5
913.643	10761.5
913.879	10551.5
914.114	10478.5
914.35	10362.5
914.586	10285.5
914.822	10194.5
915.057	10214.5
915.293	10034.5
915.529	9992.5
915.764	10018.5
916	9987.5
916.235	9961.5
916.471	9903.5
916.706	9906.5
916.941	9869.5
917.177	9832.5
917.412	9795.5
917.647	9819.5
917.882	9751.5
918.117	9747.5
918.352	9736.5
918.588	9678.5
918.823	9606.5
919.057	9536.5
919.292	9344.5
919.527	9396.5
919.762	9258.5
919.997	9225.5
920.232	9004.5
920.466	9044.5
920.701	8826.5
920.935	8868.5
921.17	8762.5
921.405	8706.5
921.639	8759.5
921.873	8717.5
922.108	8617.5
922.342	8662.5
922.576	8529.5
922.811	8510.5
923.045	8510.5
923.279	8557.5
923.513	8390.5
923.747	8401.5
923.981	8303.5
924.215	8252.5
924.449	8202.5
924.683	8125.5
924.917	8121.5
925.151	8052.5
925.385	8055.5
925.618	7989.5
925.852	8016.5
926.086	7938.5
926.319	7963.5
926.553	7953.5
926.786	7991.5
927.02	7922.5
927.253	7960.5
927.486	7962.5
927.72	7841.5
927.953	7891.5
928.186	7804.5
928.42	7865.5
928.653	7778.5
928.886	7737.5
929.119	7718.5
929.352	7627.5
929.585	7612.5
929.818	7562.5
930.051	7518.5
930.284	7472.5
930.516	7325.5
930.749	7287.5
930.982	7326.5
931.215	7248.5
931.447	7146.5
931.68	7161.5
931.912	7158.5
932.145	7192.5
932.377	7163.5
932.61	7254.5
932.842	7028.5
933.074	7110.5
933.307	7063.5
933.539	7190.5
933.771	7132.5
934.003	7071.5
934.236	7206.5
934.468	7120.5
934.7	7028.5
934.932	7050.5
935.164	7022.5
935.395	6960.5
935.627	6923.5
935.859	6931.5
936.091	6931.5
936.323	6927.5
936.554	6921.5
936.786	6792.5
937.017	6731.5
937.249	6790.5
937.481	6708.5
937.712	6793.5
937.943	6682.5
938.175	6767.5
938.406	6650.5
938.637	6725.5
938.869	6635.5
939.1	6654.5
939.331	6644.5
939.562	6651.5
939.793	6591.5
940.024	6618.5
940.255	6523.5
940.486	6482.5
940.717	6444.5
940.948	6382.5
941.179	6342.5
941.409	6329.5
941.64	6330.5
941.871	6375.5
942.102	6356.5
942.332	6346.5
942.563	6372.5
942.793	6349.5
943.024	6324.5
943.254	6296.5
943.484	6327.5
943.715	6305.5
943.945	6254.5
944.175	6133.5
944.405	6232.5
944.636	6197.5
944.866	6257.5
945.096	6274.5
945.326	6128.5
945.556	6205.5
945.786	6159.5
946.016	6117.5
946.245	6033.5
946.475	6009.5
946.705	5934.5
946.935	5995.5
947.164	5948.5
947.394	5874.5
947.624	5893.5
947.853	5866.5
948.083	5825.5
948.312	5776.5
948.542	5702.5
948.771	5709.5
949	5635.5
949.23	5690.5
949.459	5709.5
949.688	5779.5
949.917	5674.5
950.146	5695.5
950.375	5763.5
950.604	5619.5
950.833	5682.5
951.062	5644.5
951.291	5611.5
951.52	5589.5
951.749	5537.5
951.978	5509.5
952.206	5544.5
952.435	5485.5
952.664	5498.5
952.892	5481.5
953.121	5372.5
953.349	5423.5
953.578	5397.5
953.806	5407.5
954.035	5345.5
954.263	5344.5
954.491	5256.5
954.719	5296.5
954.948	5229.5
955.176	5139.5
955.404	5120.5
955.632	5176.5
955.86	5175.5
956.088	5096.5
956.316	5120.5
956.544	5089.5
956.772	5074.5
956.999	4955.5
957.227	5074.5
957.455	4924.5
957.683	4952.5
957.91	4900.5
958.138	4889.5
958.365	4827.5
958.593	4791.5
958.82	4740.5
959.048	4796.5
959.275	4741.5
959.502	4739.5
959.73	4721.5
959.957	4739.5
960.184	4800.5
960.411	4698.5
960.638	4728.5
960.865	4681.5
961.092	4701.5
961.319	4579.5
961.546	4685.5
961.773	4710.5
962	4654.5
962.227	4671.5
962.454	4579.5
962.68	4607.5
962.907	4628.5
963.134	4557.5
963.36	4576.5
963.587	4556.5
963.813	4471.5
964.04	4470.5
964.266	4343.5
964.493	4475.5
964.719	4431.5
964.945	4413.5
965.171	4286.5
965.398	4348.5
965.624	4342.5
965.85	4245.5
966.076	4197.5
966.302	4255.5
966.528	4213.5
966.754	4230.5
966.98	4210.5
967.206	4165.5
967.431	4122.5
967.657	4187.5
967.883	4136.5
968.109	4097.5
968.334	4075.5
968.56	4054.5
968.785	4093.5
969.011	4016.5
969.236	4050.5
969.462	4002.5
969.687	4027.5
969.912	4071.5
970.138	4065.5
970.363	3966.5
970.588	3955.5
970.813	3934.5
971.038	3891.5
971.263	3901.5
971.488	3961.5
971.713	3936.5
971.938	3875.5
972.163	3813.5
972.388	3826.5
972.613	3772.5
972.838	3783.5
973.062	3747.5
973.287	3765.5
973.512	3669.5
973.736	3659.5
973.961	3675.5
974.185	3658.5
974.41	3682.5
974.634	3576.5
974.858	3540.5
975.083	3587.5
975.307	3573.5
975.531	3534.5
975.755	3470.5
975.98	3482.5
976.204	3430.5
976.428	3404.5
976.652	3392.5
976.876	3360.5
977.1	3344.5
977.324	3345.5
977.547	3363.5
977.771	3372.5
977.995	3322.5
978.219	3292.5
978.442	3390.5
978.666	3319.5
978.89	3254.5
979.113	3304.5
979.337	3270.5
979.56	3217.5
979.783	3327.5
980.007	3187.5
980.23	3239.5
980.453	3195.5
980.677	3229.5
980.9	3176.5
981.123	3089.5
981.346	3213.5
981.569	3138.5
981.792	3149.5
982.015	3110.5
982.238	3069.5
982.461	3100.5
982.684	3056.5
982.907	2992.5
983.129	2979.5
983.352	3059.5
983.575	2979.5
983.797	2990.5
984.02	2936.5
984.242	2922.5
984.465	2881.5
984.687	2976.5
984.91	2962.5
985.132	2921.5
985.354	2928.5
985.577	2902.5
985.799	2869.5
986.021	2794.5
986.243	2809.5
986.465	2796.5
986.687	2874.5
986.909	2896.5
987.131	2800.5
987.353	2758.5
987.575	2779.5
987.797	2776.5
988.019	2687.5
988.241	2722.5
988.462	2706.5
988.684	2776.5
988.906	2780.5
989.127	2777.5
989.349	2677.5
989.57	2707.5
989.792	2724.5
990.013	2722.5
990.234	2756.5
990.456	2720.5
990.677	2686.5
990.898	2655.5
991.119	2674.5
991.341	2655.5
991.562	2583.5
991.783	2653.5
992.004	2565.5
992.225	2512.5
992.446	2584.5
992.667	2505.5
992.887	2522.5
993.108	2423.5
993.329	2550.5
993.55	2516.5
993.77	2436.5
993.991	2450.5
994.212	2476.5
994.432	2423.5
994.653	2437.5
994.873	2397.5
995.093	2304.5
995.314	2350.5
995.534	2421.5
995.754	2432.5
995.975	2435.5
996.195	2309.5
996.415	2365.5
996.635	2342.5
996.855	2349.5
997.075	2330.5
997.295	2314.5
997.515	2314.5
997.735	2349.5
997.955	2355.5
998.174	2302.5
998.394	2232.5
998.614	2346.5
998.834	2242.5
999.053	2335.5
999.273	2292.5
999.492	2331.5
999.712	2263.5
999.931	2243.5
1000.151	2274.5
1000.37	2211.5
1000.589	2299.5
1000.809	2194.5
1001.028	2299.5
1001.247	2198.5
1001.466	2114.5
1001.685	2223.5
1001.904	2210.5
1002.123	2157.5
1002.342	2149.5
1002.561	2104.5
1002.78	2143.5
1002.999	2217.5
1003.218	2110.5
1003.436	2084.5
1003.655	2145.5
1003.874	2089.5
1004.092	2070.5
1004.311	2119.5
1004.53	2061.5
1004.748	2163.5
1004.966	2071.5
1005.185	2096.5
1005.403	2100.5
1005.622	2059.5
1005.84	2134.5
1006.058	2025.5
1006.276	2057.5
1006.494	2564.5
1006.712	2053.5
1006.931	2127.5
1007.149	2009.5
1007.367	2010.5
1007.584	2080.5
1007.802	2085.5
1008.02	2044.5
1008.238	2156.5
1008.456	2138.5
1008.673	2033.5
1008.891	2163.5
1009.109	2106.5
1009.326	2156.5
1009.544	2258.5
1009.761	2211.5
1009.979	2304.5
1010.196	2340.5
1010.413	2453.5
1010.631	2541.5
1010.848	2588.5
1011.065	2602.5
1011.282	2568.5
1011.5	2488.5
1011.717	2572.5
1011.934	2535.5
1012.151	2535.5
1012.368	2519.5
1012.585	2486.5
1012.801	2517.5
1013.018	2485.5
1013.235	2458.5
1013.452	2505.5
1013.669	2508.5
1013.885	2477.5
1014.102	2568.5
1014.318	2487.5
1014.535	2486.5
1014.751	2489.5
1014.968	2490.5
1015.184	2508.5
1015.401	2406.5
1015.617	2394.5
1015.833	2380.5
1016.049	2347.5
1016.266	2297.5
1016.482	2288.5
1016.698	2238.5
1016.914	2280.5
1017.13	2230.5
1017.346	2190.5
1017.562	2259.5
1017.778	2198.5
1017.993	2145.5
1018.209	2237.5
1018.425	2206.5
1018.641	2141.5
1018.856	2106.5
1019.072	2176.5
1019.288	2210.5
1019.503	2143.5
1019.719	2067.5
1019.934	2097.5
1020.149	2152.5
1020.365	2062.5
1020.58	2013.5
1020.795	2034.5
1021.011	1954.5
1021.226	1914.5
1021.441	1927.5
1021.656	1817.5
1021.871	1751.5
1022.086	1755.5
1022.301	1722.5
1022.516	1705.5
1022.731	1723.5
1022.946	1644.5
1023.16	1606.5
1023.375	1594.5
1023.59	1572.5
1023.804	1537.5
1024.019	1597.5
1024.234	1450.5
1024.448	1496.5
1024.663	1407.5
1024.877	1416.5
1025.092	1405.5
1025.306	1413.5
1025.52	1320.5
1025.734	1373.5
1025.949	1281.5
1026.163	1229.5
1026.377	1187.5
1026.591	1227.5
1026.805	1134.5
1027.019	1120.5
1027.233	1098.5
1027.447	1025.5
1027.661	1120.5
1027.875	1067.5
1028.088	1077.5
1028.302	973.5
1028.516	958.5
1028.73	941.5
1028.943	920.5
1029.157	859.5
1029.37	814.5
1029.584	-0.5
1029.797	-2.5
1030.011	0.5
1030.224	-2.5
