Data from QEP037381__283__16-16-59-907.txt Node

Date: Fri Dec 16 16:16:59 EST 2022
User: dcclab
Spectrometer: QEP03738
Trigger mode: 4
Integration Time (sec): 1.000000E1
Scans to average: 1
Electric dark correction enabled: true
Nonlinearity correction enabled: false
Boxcar width: 0
XAxis mode: Wavelengths
Number of Pixels in Spectrum: 1044
>>>>>Begin Spectral Data<<<<<
784.041	11.88
784.3	0.88
784.558	-5.12
784.817	-6.12
785.075	109754.88
785.334	18901.88
785.592	8881.88
785.851	6077.88
786.109	4549.88
786.368	3529.88
786.626	2866.88
786.884	2356.88
787.143	2014.88
787.401	1653.88
787.659	1480.88
787.917	1268.88
788.175	1137.88
788.433	1024.88
788.691	918.88
788.949	847.88
789.207	803.88
789.465	692.88
789.723	663.88
789.98	624.88
790.238	646.88
790.496	601.88
790.753	571.88
791.011	639.88
791.268	562.88
791.526	542.88
791.783	564.88
792.041	542.88
792.298	460.88
792.556	515.88
792.813	496.88
793.07	487.88
793.327	457.88
793.584	547.88
793.841	469.88
794.099	484.88
794.356	534.88
794.613	457.88
794.869	479.88
795.126	447.88
795.383	436.88
795.64	449.88
795.897	422.88
796.153	457.88
796.41	433.88
796.667	431.88
796.923	425.88
797.18	438.88
797.436	481.88
797.693	430.88
797.949	488.88
798.206	505.88
798.462	414.88
798.718	501.88
798.974	466.88
799.231	501.88
799.487	488.88
799.743	499.88
799.999	534.88
800.255	514.88
800.511	512.88
800.767	565.88
801.023	546.88
801.279	590.88
801.534	633.88
801.79	696.88
802.046	712.88
802.302	885.88
802.557	1011.88
802.813	1234.88
803.068	1566.88
803.324	2164.88
803.579	2915.88
803.835	4060.88
804.09	5555.88
804.345	7319.88
804.601	9141.88
804.856	11003.88
805.111	12774.88
805.366	14091.88
805.621	15121.88
805.876	15665.88
806.131	16157.88
806.386	16428.88
806.641	16801.88
806.896	17083.88
807.151	17302.88
807.406	17642.88
807.661	17901.88
807.915	18166.88
808.17	18461.88
808.425	18563.88
808.679	18796.88
808.934	19001.88
809.188	19257.88
809.443	19328.88
809.697	19614.88
809.951	19764.88
810.206	19862.88
810.46	20157.88
810.714	20298.88
810.968	20498.88
811.223	20725.88
811.477	20910.88
811.731	20978.88
811.985	21121.88
812.239	21187.88
812.493	21248.88
812.747	21306.88
813	21411.88
813.254	21531.88
813.508	21583.88
813.762	21604.88
814.015	21746.88
814.269	21904.88
814.522	22067.88
814.776	22385.88
815.03	22631.88
815.283	22872.88
815.536	23260.88
815.79	23597.88
816.043	24019.88
816.296	24258.88
816.55	24530.88
816.803	24942.88
817.056	25188.88
817.309	25390.88
817.562	25588.88
817.815	25873.88
818.068	26034.88
818.321	26249.88
818.574	26585.88
818.827	26876.88
819.079	27204.88
819.332	27722.88
819.585	28083.88
819.838	28370.88
820.09	28538.88
820.343	28768.88
820.595	28836.88
820.848	29014.88
821.1	29131.88
821.353	29108.88
821.605	29111.88
821.857	29131.88
822.11	28946.88
822.362	28936.88
822.614	28912.88
822.866	28785.88
823.118	28876.88
823.37	29037.88
823.622	28995.88
823.874	29132.88
824.126	29321.88
824.378	29204.88
824.63	29279.88
824.882	29404.88
825.134	29346.88
825.385	29260.88
825.637	29121.88
825.888	29111.88
826.14	29010.88
826.392	28896.88
826.643	28771.88
826.895	28743.88
827.146	28537.88
827.397	28523.88
827.649	28575.88
827.9	28461.88
828.151	28478.88
828.402	28551.88
828.653	28733.88
828.905	28768.88
829.156	28818.88
829.407	28729.88
829.658	28779.88
829.909	29013.88
830.159	28958.88
830.41	28792.88
830.661	28634.88
830.912	28286.88
831.162	28295.88
831.413	28119.88
831.664	28371.88
831.914	28329.88
832.165	28105.88
832.415	28102.88
832.666	28151.88
832.916	28176.88
833.167	28115.88
833.417	28167.88
833.667	28069.88
833.917	27913.88
834.168	27974.88
834.418	27837.88
834.668	27754.88
834.918	27633.88
835.168	27427.88
835.418	27410.88
835.668	27221.88
835.918	27256.88
836.167	27124.88
836.417	27032.88
836.667	26944.88
836.917	27030.88
837.166	26904.88
837.416	27066.88
837.666	27035.88
837.915	26932.88
838.165	26850.88
838.414	26810.88
838.663	26671.88
838.913	26834.88
839.162	26599.88
839.411	26685.88
839.661	26825.88
839.91	26566.88
840.159	26556.88
840.408	26457.88
840.657	26494.88
840.906	26450.88
841.155	26552.88
841.404	26467.88
841.653	26570.88
841.902	26446.88
842.15	26569.88
842.399	26523.88
842.648	26462.88
842.897	26388.88
843.145	26259.88
843.394	26162.88
843.642	25960.88
843.891	25736.88
844.139	25600.88
844.388	25564.88
844.636	25374.88
844.884	25484.88
845.133	25298.88
845.381	25341.88
845.629	25296.88
845.877	25400.88
846.125	25296.88
846.373	25187.88
846.621	25202.88
846.869	25088.88
847.117	24882.88
847.365	24778.88
847.613	24631.88
847.861	24670.88
848.108	24679.88
848.356	24570.88
848.604	24420.88
848.851	24455.88
849.099	24527.88
849.346	24551.88
849.594	24572.88
849.841	24867.88
850.089	24703.88
850.336	24699.88
850.583	24830.88
850.831	24513.88
851.078	24500.88
851.325	24392.88
851.572	24665.88
851.819	24399.88
852.066	23930.88
852.313	23596.88
852.56	23388.88
852.807	23314.88
853.054	23243.88
853.301	23317.88
853.548	23250.88
853.794	23411.88
854.041	23418.88
854.288	23539.88
854.534	23727.88
854.781	23735.88
855.028	23582.88
855.274	23595.88
855.52	23477.88
855.767	23453.88
856.013	23427.88
856.26	23746.88
856.506	23180.88
856.752	23148.88
856.998	23097.88
857.244	23197.88
857.49	23289.88
857.736	23432.88
857.982	23401.88
858.228	23343.88
858.474	23083.88
858.72	22998.88
858.966	22709.88
859.212	22498.88
859.458	22206.88
859.703	22115.88
859.949	21842.88
860.195	21660.88
860.44	21603.88
860.686	21578.88
860.931	21503.88
861.177	21458.88
861.422	21264.88
861.667	21086.88
861.913	21197.88
862.158	21153.88
862.403	21270.88
862.648	21230.88
862.893	21295.88
863.138	21186.88
863.384	21198.88
863.629	21219.88
863.873	21207.88
864.118	21005.88
864.363	21010.88
864.608	20889.88
864.853	20880.88
865.098	20736.88
865.342	20622.88
865.587	20564.88
865.832	20585.88
866.076	20547.88
866.321	20435.88
866.565	20348.88
866.81	20356.88
867.054	20225.88
867.298	20191.88
867.543	20097.88
867.787	20129.88
868.031	20009.88
868.275	20056.88
868.519	20065.88
868.764	20042.88
869.008	19900.88
869.252	19929.88
869.496	19911.88
869.739	19867.88
869.983	19868.88
870.227	19822.88
870.471	19812.88
870.715	19938.88
870.958	19954.88
871.202	20067.88
871.446	20170.88
871.689	20022.88
871.933	20117.88
872.176	20050.88
872.42	20039.88
872.663	19899.88
872.906	19933.88
873.15	19775.88
873.393	19793.88
873.636	19881.88
873.879	19677.88
874.122	19459.88
874.366	19168.88
874.609	18960.88
874.852	18835.88
875.095	18790.88
875.337	18694.88
875.58	18457.88
875.823	18499.88
876.066	18486.88
876.309	18343.88
876.551	18271.88
876.794	18112.88
877.037	18169.88
877.279	17984.88
877.522	18077.88
877.764	18086.88
878.007	17989.88
878.249	17994.88
878.491	17764.88
878.734	17834.88
878.976	17738.88
879.218	17596.88
879.46	17639.88
879.702	17511.88
879.945	17352.88
880.187	17123.88
880.429	17078.88
880.671	17019.88
880.912	16953.88
881.154	16800.88
881.396	16841.88
881.638	16852.88
881.88	16820.88
882.121	16850.88
882.363	16738.88
882.605	16816.88
882.846	16775.88
883.088	16715.88
883.329	16661.88
883.571	16753.88
883.812	17006.88
884.053	17392.88
884.295	17631.88
884.536	17993.88
884.777	17813.88
885.018	17753.88
885.259	17651.88
885.5	17528.88
885.742	17624.88
885.982	17397.88
886.223	17109.88
886.464	17047.88
886.705	16918.88
886.946	16711.88
887.187	16355.88
887.428	16205.88
887.668	15930.88
887.909	15605.88
888.15	15541.88
888.39	15344.88
888.631	15257.88
888.871	15055.88
889.111	14958.88
889.352	14917.88
889.592	14819.88
889.833	14629.88
890.073	14611.88
890.313	14518.88
890.553	14356.88
890.793	14303.88
891.033	14320.88
891.273	14134.88
891.513	14159.88
891.753	14089.88
891.993	14099.88
892.233	14092.88
892.473	14188.88
892.713	14269.88
892.952	14112.88
893.192	14112.88
893.432	14100.88
893.671	14172.88
893.911	14041.88
894.15	13980.88
894.39	13841.88
894.629	13820.88
894.869	13738.88
895.108	13704.88
895.347	13697.88
895.587	13583.88
895.826	13590.88
896.065	13579.88
896.304	13547.88
896.543	13518.88
896.782	13340.88
897.021	13463.88
897.26	13430.88
897.499	13402.88
897.738	13448.88
897.977	13256.88
898.216	13146.88
898.454	13011.88
898.693	13000.88
898.932	13015.88
899.17	12896.88
899.409	12857.88
899.647	12880.88
899.886	12905.88
900.124	12913.88
900.363	12862.88
900.601	12970.88
900.839	12935.88
901.078	13023.88
901.316	13036.88
901.554	13176.88
901.792	13220.88
902.03	13160.88
902.268	13270.88
902.506	13244.88
902.744	13095.88
902.982	13081.88
903.22	12747.88
903.458	12582.88
903.695	12406.88
903.933	12256.88
904.171	12005.88
904.409	11760.88
904.646	11671.88
904.884	11314.88
905.121	11343.88
905.359	11222.88
905.596	11022.88
905.833	10989.88
906.071	10885.88
906.308	10923.88
906.545	10812.88
906.783	10772.88
907.02	10723.88
907.257	10749.88
907.494	10708.88
907.731	10650.88
907.968	10713.88
908.205	10572.88
908.442	10512.88
908.679	10376.88
908.915	10308.88
909.152	10297.88
909.389	10183.88
909.626	10114.88
909.862	10019.88
910.099	9937.88
910.335	9999.88
910.572	9881.88
910.808	9860.88
911.045	9798.88
911.281	9748.88
911.518	9840.88
911.754	9697.88
911.99	9693.88
912.226	9567.88
912.463	9362.88
912.699	9438.88
912.935	9372.88
913.171	9264.88
913.407	9126.88
913.643	9120.88
913.879	9078.88
914.114	9007.88
914.35	8919.88
914.586	8882.88
914.822	8808.88
915.057	8788.88
915.293	8583.88
915.529	8484.88
915.764	8625.88
916	8602.88
916.235	8559.88
916.471	8531.88
916.706	8453.88
916.941	8475.88
917.177	8467.88
917.412	8482.88
917.647	8401.88
917.882	8376.88
918.117	8372.88
918.352	8338.88
918.588	8307.88
918.823	8250.88
919.057	8163.88
919.292	8081.88
919.527	8123.88
919.762	7943.88
919.997	7970.88
920.232	7758.88
920.466	7806.88
920.701	7629.88
920.935	7679.88
921.17	7606.88
921.405	7523.88
921.639	7523.88
921.873	7446.88
922.108	7472.88
922.342	7439.88
922.576	7384.88
922.811	7434.88
923.045	7398.88
923.279	7388.88
923.513	7267.88
923.747	7270.88
923.981	7223.88
924.215	7112.88
924.449	7076.88
924.683	7040.88
924.917	7023.88
925.151	6926.88
925.385	6955.88
925.618	6897.88
925.852	6905.88
926.086	6787.88
926.319	6902.88
926.553	6904.88
926.786	6943.88
927.02	6907.88
927.253	6866.88
927.486	6857.88
927.72	6741.88
927.953	6827.88
928.186	6734.88
928.42	6831.88
928.653	6677.88
928.886	6677.88
929.119	6709.88
929.352	6602.88
929.585	6571.88
929.818	6504.88
930.051	6494.88
930.284	6462.88
930.516	6303.88
930.749	6306.88
930.982	6314.88
931.215	6297.88
931.447	6237.88
931.68	6191.88
931.912	6216.88
932.145	6211.88
932.377	6218.88
932.61	6296.88
932.842	6102.88
933.074	6170.88
933.307	6121.88
933.539	6235.88
933.771	6253.88
934.003	6137.88
934.236	6218.88
934.468	6224.88
934.7	6129.88
934.932	6093.88
935.164	6087.88
935.395	6077.88
935.627	6037.88
935.859	6061.88
936.091	5981.88
936.323	6004.88
936.554	6021.88
936.786	5965.88
937.017	5855.88
937.249	5918.88
937.481	5795.88
937.712	5895.88
937.943	5840.88
938.175	5792.88
938.406	5763.88
938.637	5868.88
938.869	5766.88
939.1	5789.88
939.331	5750.88
939.562	5780.88
939.793	5691.88
940.024	5752.88
940.255	5715.88
940.486	5701.88
940.717	5653.88
940.948	5590.88
941.179	5548.88
941.409	5570.88
941.64	5564.88
941.871	5563.88
942.102	5525.88
942.332	5542.88
942.563	5558.88
942.793	5514.88
943.024	5438.88
943.254	5485.88
943.484	5523.88
943.715	5554.88
943.945	5489.88
944.175	5425.88
944.405	5447.88
944.636	5371.88
944.866	5420.88
945.096	5447.88
945.326	5356.88
945.556	5339.88
945.786	5437.88
946.016	5320.88
946.245	5251.88
946.475	5218.88
946.705	5225.88
946.935	5214.88
947.164	5146.88
947.394	5118.88
947.624	5112.88
947.853	5115.88
948.083	5080.88
948.312	5035.88
948.542	4962.88
948.771	4966.88
949	4965.88
949.23	4956.88
949.459	4997.88
949.688	5027.88
949.917	4993.88
950.146	4990.88
950.375	4977.88
950.604	4893.88
950.833	4999.88
951.062	4961.88
951.291	4883.88
951.52	4892.88
951.749	4842.88
951.978	4803.88
952.206	4888.88
952.435	4784.88
952.664	4848.88
952.892	4770.88
953.121	4811.88
953.349	4753.88
953.578	4768.88
953.806	4747.88
954.035	4668.88
954.263	4648.88
954.491	4629.88
954.719	4632.88
954.948	4599.88
955.176	4583.88
955.404	4467.88
955.632	4535.88
955.86	4534.88
956.088	4478.88
956.316	4505.88
956.544	4474.88
956.772	4426.88
956.999	4368.88
957.227	4436.88
957.455	4294.88
957.683	4355.88
957.91	4285.88
958.138	4254.88
958.365	4240.88
958.593	4256.88
958.82	4129.88
959.048	4206.88
959.275	4173.88
959.502	4162.88
959.73	4118.88
959.957	4166.88
960.184	4206.88
960.411	4115.88
960.638	4183.88
960.865	4135.88
961.092	4174.88
961.319	4060.88
961.546	4187.88
961.773	4165.88
962	4076.88
962.227	4146.88
962.454	4055.88
962.68	4078.88
962.907	4070.88
963.134	3976.88
963.36	4007.88
963.587	4002.88
963.813	3943.88
964.04	4000.88
964.266	3837.88
964.493	3941.88
964.719	3928.88
964.945	3934.88
965.171	3776.88
965.398	3852.88
965.624	3846.88
965.85	3748.88
966.076	3717.88
966.302	3786.88
966.528	3726.88
966.754	3736.88
966.98	3715.88
967.206	3700.88
967.431	3640.88
967.657	3718.88
967.883	3650.88
968.109	3657.88
968.334	3607.88
968.56	3568.88
968.785	3596.88
969.011	3542.88
969.236	3609.88
969.462	3531.88
969.687	3498.88
969.912	3590.88
970.138	3602.88
970.363	3458.88
970.588	3547.88
970.813	3481.88
971.038	3458.88
971.263	3466.88
971.488	3435.88
971.713	3477.88
971.938	3439.88
972.163	3365.88
972.388	3377.88
972.613	3338.88
972.838	3353.88
973.062	3309.88
973.287	3299.88
973.512	3248.88
973.736	3266.88
973.961	3248.88
974.185	3213.88
974.41	3275.88
974.634	3165.88
974.858	3168.88
975.083	3217.88
975.307	3209.88
975.531	3136.88
975.755	3017.88
975.98	3108.88
976.204	3022.88
976.428	2989.88
976.652	3015.88
976.876	2978.88
977.1	2974.88
977.324	2945.88
977.547	3040.88
977.771	3021.88
977.995	2990.88
978.219	2905.88
978.442	3023.88
978.666	2976.88
978.89	2969.88
979.113	2916.88
979.337	2942.88
979.56	2855.88
979.783	2937.88
980.007	2858.88
980.23	2847.88
980.453	2836.88
980.677	2901.88
980.9	2812.88
981.123	2759.88
981.346	2821.88
981.569	2826.88
981.792	2849.88
982.015	2779.88
982.238	2718.88
982.461	2773.88
982.684	2713.88
982.907	2696.88
983.129	2682.88
983.352	2689.88
983.575	2668.88
983.797	2674.88
984.02	2631.88
984.242	2604.88
984.465	2611.88
984.687	2607.88
984.91	2643.88
985.132	2582.88
985.354	2613.88
985.577	2630.88
985.799	2586.88
986.021	2497.88
986.243	2523.88
986.465	2516.88
986.687	2575.88
986.909	2599.88
987.131	2491.88
987.353	2479.88
987.575	2511.88
987.797	2481.88
988.019	2403.88
988.241	2450.88
988.462	2436.88
988.684	2503.88
988.906	2505.88
989.127	2519.88
989.349	2399.88
989.57	2432.88
989.792	2440.88
990.013	2454.88
990.234	2469.88
990.456	2494.88
990.677	2434.88
990.898	2407.88
991.119	2381.88
991.341	2381.88
991.562	2355.88
991.783	2337.88
992.004	2299.88
992.225	2293.88
992.446	2344.88
992.667	2238.88
992.887	2283.88
993.108	2187.88
993.329	2328.88
993.55	2318.88
993.77	2200.88
993.991	2201.88
994.212	2228.88
994.432	2210.88
994.653	2194.88
994.873	2213.88
995.093	2075.88
995.314	2131.88
995.534	2206.88
995.754	2176.88
995.975	2211.88
996.195	2135.88
996.415	2160.88
996.635	2124.88
996.855	2129.88
997.075	2106.88
997.295	2118.88
997.515	2095.88
997.735	2138.88
997.955	2085.88
998.174	2095.88
998.394	2065.88
998.614	2123.88
998.834	2075.88
999.053	2148.88
999.273	2105.88
999.492	2147.88
999.712	2089.88
999.931	2050.88
1000.151	2055.88
1000.37	2036.88
1000.589	2057.88
1000.809	1997.88
1001.028	2123.88
1001.247	2045.88
1001.466	1932.88
1001.685	2096.88
1001.904	1990.88
1002.123	1977.88
1002.342	1992.88
1002.561	1916.88
1002.78	1964.88
1002.999	2003.88
1003.218	1946.88
1003.436	1922.88
1003.655	1947.88
1003.874	1882.88
1004.092	1917.88
1004.311	1944.88
1004.53	1904.88
1004.748	1988.88
1004.966	1899.88
1005.185	1934.88
1005.403	1933.88
1005.622	1917.88
1005.84	1977.88
1006.058	1871.88
1006.276	1939.88
1006.494	2391.88
1006.712	1887.88
1006.931	1930.88
1007.149	1889.88
1007.367	1865.88
1007.584	1944.88
1007.802	1939.88
1008.02	1907.88
1008.238	2019.88
1008.456	1994.88
1008.673	1859.88
1008.891	2023.88
1009.109	1988.88
1009.326	2081.88
1009.544	2162.88
1009.761	2077.88
1009.979	2188.88
1010.196	2187.88
1010.413	2323.88
1010.631	2435.88
1010.848	2508.88
1011.065	2520.88
1011.282	2469.88
1011.5	2392.88
1011.717	2496.88
1011.934	2398.88
1012.151	2476.88
1012.368	2403.88
1012.585	2378.88
1012.801	2436.88
1013.018	2434.88
1013.235	2379.88
1013.452	2399.88
1013.669	2450.88
1013.885	2365.88
1014.102	2454.88
1014.318	2445.88
1014.535	2361.88
1014.751	2437.88
1014.968	2412.88
1015.184	2392.88
1015.401	2335.88
1015.617	2333.88
1015.833	2249.88
1016.049	2252.88
1016.266	2241.88
1016.482	2236.88
1016.698	2153.88
1016.914	2178.88
1017.13	2140.88
1017.346	2124.88
1017.562	2179.88
1017.778	2106.88
1017.993	2104.88
1018.209	2134.88
1018.425	2093.88
1018.641	2067.88
1018.856	2062.88
1019.072	2063.88
1019.288	2151.88
1019.503	2067.88
1019.719	1991.88
1019.934	1994.88
1020.149	2057.88
1020.365	2001.88
1020.58	1908.88
1020.795	1960.88
1021.011	1875.88
1021.226	1850.88
1021.441	1860.88
1021.656	1747.88
1021.871	1668.88
1022.086	1666.88
1022.301	1669.88
1022.516	1648.88
1022.731	1637.88
1022.946	1589.88
1023.16	1583.88
1023.375	1509.88
1023.59	1507.88
1023.804	1426.88
1024.019	1526.88
1024.234	1406.88
1024.448	1409.88
1024.663	1339.88
1024.877	1346.88
1025.092	1347.88
1025.306	1352.88
1025.52	1229.88
1025.734	1299.88
1025.949	1207.88
1026.163	1157.88
1026.377	1109.88
1026.591	1138.88
1026.805	1082.88
1027.019	1067.88
1027.233	1027.88
1027.447	973.88
1027.661	1065.88
1027.875	1010.88
1028.088	1015.88
1028.302	941.88
1028.516	903.88
1028.73	898.88
1028.943	915.88
1029.157	847.88
1029.37	767.88
1029.584	-2.12
1029.797	-0.12
1030.011	1.88
1030.224	-1.12
