Data from QEP037381__313__16-21-59-911.txt Node

Date: Fri Dec 16 16:21:59 EST 2022
User: dcclab
Spectrometer: QEP03738
Trigger mode: 4
Integration Time (sec): 1.000000E1
Scans to average: 1
Electric dark correction enabled: true
Nonlinearity correction enabled: false
Boxcar width: 0
XAxis mode: Wavelengths
Number of Pixels in Spectrum: 1044
>>>>>Begin Spectral Data<<<<<
784.041	14.75
784.3	0.75
784.558	-2.25
784.817	-4.25
785.075	111428.75
785.334	19561.75
785.592	9343.75
785.851	6392.75
786.109	4841.75
786.368	3755.75
786.626	3008.75
786.884	2475.75
787.143	2087.75
787.401	1717.75
787.659	1552.75
787.917	1320.75
788.175	1198.75
788.433	1047.75
788.691	933.75
788.949	843.75
789.207	820.75
789.465	723.75
789.723	695.75
789.98	621.75
790.238	666.75
790.496	624.75
790.753	591.75
791.011	646.75
791.268	570.75
791.526	567.75
791.783	572.75
792.041	542.75
792.298	459.75
792.556	535.75
792.813	505.75
793.07	481.75
793.327	483.75
793.584	539.75
793.841	487.75
794.099	483.75
794.356	550.75
794.613	440.75
794.869	491.75
795.126	437.75
795.383	430.75
795.64	443.75
795.897	395.75
796.153	450.75
796.41	439.75
796.667	417.75
796.923	439.75
797.18	442.75
797.436	453.75
797.693	421.75
797.949	466.75
798.206	511.75
798.462	418.75
798.718	480.75
798.974	461.75
799.231	506.75
799.487	491.75
799.743	502.75
799.999	521.75
800.255	525.75
800.511	518.75
800.767	541.75
801.023	545.75
801.279	584.75
801.534	614.75
801.79	673.75
802.046	714.75
802.302	827.75
802.557	956.75
802.813	1185.75
803.068	1473.75
803.324	2052.75
803.579	2798.75
803.835	3778.75
804.09	5207.75
804.345	6824.75
804.601	8633.75
804.856	10368.75
805.111	12005.75
805.366	13326.75
805.621	14220.75
805.876	14806.75
806.131	15248.75
806.386	15560.75
806.641	15758.75
806.896	16088.75
807.151	16415.75
807.406	16677.75
807.661	17056.75
807.915	17214.75
808.17	17561.75
808.425	17769.75
808.679	17804.75
808.934	17993.75
809.188	18099.75
809.443	18467.75
809.697	18651.75
809.951	18745.75
810.206	18943.75
810.46	19097.75
810.714	19174.75
810.968	19375.75
811.223	19615.75
811.477	19743.75
811.731	19880.75
811.985	19936.75
812.239	20031.75
812.493	20170.75
812.747	20279.75
813	20265.75
813.254	20237.75
813.508	20504.75
813.762	20632.75
814.015	20676.75
814.269	20773.75
814.522	20993.75
814.776	21252.75
815.03	21463.75
815.283	21815.75
815.536	22054.75
815.79	22378.75
816.043	22736.75
816.296	22919.75
816.55	23182.75
816.803	23476.75
817.056	23924.75
817.309	24137.75
817.562	24356.75
817.815	24506.75
818.068	24673.75
818.321	24855.75
818.574	25141.75
818.827	25472.75
819.079	25752.75
819.332	26221.75
819.585	26579.75
819.838	26731.75
820.09	26790.75
820.343	27271.75
820.595	27154.75
820.848	27354.75
821.1	27552.75
821.353	27508.75
821.605	27537.75
821.857	27400.75
822.11	27359.75
822.362	27336.75
822.614	27265.75
822.866	27235.75
823.118	27356.75
823.37	27342.75
823.622	27452.75
823.874	27416.75
824.126	27674.75
824.378	27617.75
824.63	27686.75
824.882	27869.75
825.134	27813.75
825.385	27648.75
825.637	27631.75
825.888	27531.75
826.14	27443.75
826.392	27275.75
826.643	27150.75
826.895	27143.75
827.146	27013.75
827.397	26930.75
827.649	27003.75
827.9	26965.75
828.151	26942.75
828.402	27039.75
828.653	26964.75
828.905	27095.75
829.156	27284.75
829.407	27246.75
829.658	27210.75
829.909	27452.75
830.159	27255.75
830.41	27085.75
830.661	26952.75
830.912	26805.75
831.162	26648.75
831.413	26643.75
831.664	26745.75
831.914	26731.75
832.165	26567.75
832.415	26615.75
832.666	26662.75
832.916	26493.75
833.167	26543.75
833.417	26552.75
833.667	26343.75
833.917	26382.75
834.168	26394.75
834.418	26236.75
834.668	26092.75
834.918	26013.75
835.168	25952.75
835.418	25812.75
835.668	25751.75
835.918	25609.75
836.167	25592.75
836.417	25532.75
836.667	25514.75
836.917	25500.75
837.166	25495.75
837.416	25480.75
837.666	25582.75
837.915	25359.75
838.165	25426.75
838.414	25376.75
838.663	25253.75
838.913	25127.75
839.162	25204.75
839.411	25140.75
839.661	25028.75
839.91	24971.75
840.159	24934.75
840.408	24989.75
840.657	25001.75
840.906	24969.75
841.155	24991.75
841.404	24961.75
841.653	24918.75
841.902	24897.75
842.15	25113.75
842.399	24968.75
842.648	25020.75
842.897	24836.75
843.145	24573.75
843.394	24440.75
843.642	24424.75
843.891	24196.75
844.139	24204.75
844.388	23924.75
844.636	23890.75
844.884	23937.75
845.133	23867.75
845.381	23859.75
845.629	23885.75
845.877	23785.75
846.125	23851.75
846.373	23782.75
846.621	23643.75
846.869	23619.75
847.117	23366.75
847.365	23271.75
847.613	23216.75
847.861	23133.75
848.108	23196.75
848.356	23116.75
848.604	23114.75
848.851	23039.75
849.099	22977.75
849.346	23174.75
849.594	23194.75
849.841	23278.75
850.089	23313.75
850.336	23289.75
850.583	23246.75
850.831	23147.75
851.078	22973.75
851.325	23078.75
851.572	23161.75
851.819	22919.75
852.066	22440.75
852.313	22210.75
852.56	21920.75
852.807	21953.75
853.054	21928.75
853.301	21892.75
853.548	21889.75
853.794	22028.75
854.041	21942.75
854.288	22055.75
854.534	22400.75
854.781	22343.75
855.028	22208.75
855.274	22111.75
855.52	22045.75
855.767	22027.75
856.013	22046.75
856.26	22403.75
856.506	21760.75
856.752	21738.75
856.998	21756.75
857.244	21813.75
857.49	22046.75
857.736	21923.75
857.982	22007.75
858.228	21844.75
858.474	21694.75
858.72	21545.75
858.966	21370.75
859.212	21171.75
859.458	20891.75
859.703	20632.75
859.949	20542.75
860.195	20464.75
860.44	20315.75
860.686	20213.75
860.931	20279.75
861.177	20020.75
861.422	19994.75
861.667	19839.75
861.913	19914.75
862.158	19856.75
862.403	19980.75
862.648	19926.75
862.893	20008.75
863.138	20092.75
863.384	19868.75
863.629	19943.75
863.873	19966.75
864.118	19866.75
864.363	19724.75
864.608	19605.75
864.853	19673.75
865.098	19495.75
865.342	19456.75
865.587	19267.75
865.832	19370.75
866.076	19297.75
866.321	19257.75
866.565	19180.75
866.81	19159.75
867.054	19019.75
867.298	18884.75
867.543	18818.75
867.787	18941.75
868.031	18858.75
868.275	18790.75
868.519	18795.75
868.764	18762.75
869.008	18709.75
869.252	18621.75
869.496	18595.75
869.739	18570.75
869.983	18616.75
870.227	18612.75
870.471	18537.75
870.715	18638.75
870.958	18811.75
871.202	18739.75
871.446	18805.75
871.689	18780.75
871.933	18698.75
872.176	18683.75
872.42	18684.75
872.663	18751.75
872.906	18614.75
873.15	18623.75
873.393	18471.75
873.636	18698.75
873.879	18369.75
874.122	18282.75
874.366	17890.75
874.609	17756.75
874.852	17582.75
875.095	17522.75
875.337	17393.75
875.58	17317.75
875.823	17284.75
876.066	17271.75
876.309	17200.75
876.551	17084.75
876.794	16998.75
877.037	17012.75
877.279	16800.75
877.522	16799.75
877.764	16845.75
878.007	16811.75
878.249	16793.75
878.491	16783.75
878.734	16712.75
878.976	16560.75
879.218	16549.75
879.46	16572.75
879.702	16398.75
879.945	16275.75
880.187	16097.75
880.429	16023.75
880.671	15904.75
880.912	15847.75
881.154	15876.75
881.396	15738.75
881.638	15723.75
881.88	15706.75
882.121	15656.75
882.363	15683.75
882.605	15753.75
882.846	15630.75
883.088	15650.75
883.329	15623.75
883.571	15629.75
883.812	15859.75
884.053	16129.75
884.295	16498.75
884.536	16696.75
884.777	16542.75
885.018	16520.75
885.259	16318.75
885.5	16294.75
885.742	16364.75
885.982	16195.75
886.223	16065.75
886.464	15892.75
886.705	15614.75
886.946	15634.75
887.187	15206.75
887.428	15045.75
887.668	14910.75
887.909	14692.75
888.15	14400.75
888.39	14351.75
888.631	14246.75
888.871	14127.75
889.111	14075.75
889.352	13965.75
889.592	13803.75
889.833	13729.75
890.073	13687.75
890.313	13672.75
890.553	13524.75
890.793	13314.75
891.033	13387.75
891.273	13292.75
891.513	13291.75
891.753	13290.75
891.993	13226.75
892.233	13269.75
892.473	13293.75
892.713	13264.75
892.952	13214.75
893.192	13222.75
893.432	13325.75
893.671	13328.75
893.911	13170.75
894.15	13143.75
894.39	12931.75
894.629	12991.75
894.869	12877.75
895.108	12741.75
895.347	12691.75
895.587	12713.75
895.826	12660.75
896.065	12687.75
896.304	12602.75
896.543	12693.75
896.782	12516.75
897.021	12551.75
897.26	12467.75
897.499	12498.75
897.738	12480.75
897.977	12334.75
898.216	12332.75
898.454	12233.75
898.693	12078.75
898.932	12137.75
899.17	12107.75
899.409	12044.75
899.647	11911.75
899.886	11877.75
900.124	11990.75
900.363	11971.75
900.601	11996.75
900.839	12008.75
901.078	12072.75
901.316	12125.75
901.554	12152.75
901.792	12227.75
902.03	12164.75
902.268	12191.75
902.506	12197.75
902.744	12133.75
902.982	12078.75
903.22	11761.75
903.458	11688.75
903.695	11515.75
903.933	11365.75
904.171	11111.75
904.409	10903.75
904.646	10797.75
904.884	10694.75
905.121	10612.75
905.359	10494.75
905.596	10372.75
905.833	10256.75
906.071	10201.75
906.308	10254.75
906.545	10167.75
906.783	10062.75
907.02	10010.75
907.257	9982.75
907.494	9999.75
907.731	10037.75
907.968	9917.75
908.205	9863.75
908.442	9731.75
908.679	9741.75
908.915	9708.75
909.152	9585.75
909.389	9472.75
909.626	9433.75
909.862	9393.75
910.099	9329.75
910.335	9335.75
910.572	9170.75
910.808	9221.75
911.045	9171.75
911.281	9122.75
911.518	9126.75
911.754	9022.75
911.99	9036.75
912.226	8986.75
912.463	8836.75
912.699	8787.75
912.935	8736.75
913.171	8610.75
913.407	8518.75
913.643	8594.75
913.879	8470.75
914.114	8386.75
914.35	8293.75
914.586	8213.75
914.822	8152.75
915.057	8202.75
915.293	8009.75
915.529	7957.75
915.764	8089.75
916	8007.75
916.235	8006.75
916.471	7987.75
916.706	7925.75
916.941	7890.75
917.177	7895.75
917.412	7948.75
917.647	7911.75
917.882	7806.75
918.117	7901.75
918.352	7788.75
918.588	7790.75
918.823	7662.75
919.057	7601.75
919.292	7545.75
919.527	7519.75
919.762	7374.75
919.997	7389.75
920.232	7290.75
920.466	7317.75
920.701	7113.75
920.935	7116.75
921.17	7084.75
921.405	7037.75
921.639	7084.75
921.873	7005.75
922.108	7005.75
922.342	6969.75
922.576	6897.75
922.811	6900.75
923.045	6842.75
923.279	6860.75
923.513	6671.75
923.747	6792.75
923.981	6753.75
924.215	6637.75
924.449	6611.75
924.683	6593.75
924.917	6487.75
925.151	6475.75
925.385	6527.75
925.618	6502.75
925.852	6487.75
926.086	6351.75
926.319	6364.75
926.553	6432.75
926.786	6460.75
927.02	6359.75
927.253	6450.75
927.486	6380.75
927.72	6301.75
927.953	6337.75
928.186	6345.75
928.42	6352.75
928.653	6270.75
928.886	6236.75
929.119	6248.75
929.352	6160.75
929.585	6143.75
929.818	6059.75
930.051	6052.75
930.284	6074.75
930.516	5895.75
930.749	5834.75
930.982	5911.75
931.215	5903.75
931.447	5813.75
931.68	5787.75
931.912	5790.75
932.145	5769.75
932.377	5818.75
932.61	5871.75
932.842	5721.75
933.074	5791.75
933.307	5670.75
933.539	5824.75
933.771	5758.75
934.003	5691.75
934.236	5782.75
934.468	5802.75
934.7	5674.75
934.932	5698.75
935.164	5663.75
935.395	5610.75
935.627	5638.75
935.859	5654.75
936.091	5540.75
936.323	5600.75
936.554	5574.75
936.786	5473.75
937.017	5431.75
937.249	5493.75
937.481	5434.75
937.712	5470.75
937.943	5457.75
938.175	5427.75
938.406	5407.75
938.637	5466.75
938.869	5395.75
939.1	5421.75
939.331	5347.75
939.562	5389.75
939.793	5363.75
940.024	5328.75
940.255	5313.75
940.486	5233.75
940.717	5244.75
940.948	5203.75
941.179	5141.75
941.409	5138.75
941.64	5121.75
941.871	5222.75
942.102	5112.75
942.332	5140.75
942.563	5159.75
942.793	5104.75
943.024	5096.75
943.254	5109.75
943.484	5180.75
943.715	5130.75
943.945	5153.75
944.175	5021.75
944.405	4983.75
944.636	5011.75
944.866	5073.75
945.096	5043.75
945.326	4985.75
945.556	4993.75
945.786	5050.75
946.016	4959.75
946.245	4861.75
946.475	4907.75
946.705	4837.75
946.935	4883.75
947.164	4830.75
947.394	4731.75
947.624	4823.75
947.853	4798.75
948.083	4722.75
948.312	4682.75
948.542	4611.75
948.771	4613.75
949	4626.75
949.23	4665.75
949.459	4692.75
949.688	4653.75
949.917	4588.75
950.146	4626.75
950.375	4704.75
950.604	4539.75
950.833	4649.75
951.062	4564.75
951.291	4555.75
951.52	4520.75
951.749	4539.75
951.978	4484.75
952.206	4444.75
952.435	4457.75
952.664	4529.75
952.892	4468.75
953.121	4407.75
953.349	4473.75
953.578	4460.75
953.806	4367.75
954.035	4356.75
954.263	4344.75
954.491	4304.75
954.719	4345.75
954.948	4252.75
955.176	4245.75
955.404	4156.75
955.632	4258.75
955.86	4230.75
956.088	4185.75
956.316	4186.75
956.544	4193.75
956.772	4093.75
956.999	4111.75
957.227	4141.75
957.455	4014.75
957.683	4000.75
957.91	3980.75
958.138	4000.75
958.365	3947.75
958.593	3957.75
958.82	3910.75
959.048	3946.75
959.275	3882.75
959.502	3881.75
959.73	3857.75
959.957	3927.75
960.184	3898.75
960.411	3795.75
960.638	3932.75
960.865	3825.75
961.092	3888.75
961.319	3774.75
961.546	3822.75
961.773	3874.75
962	3794.75
962.227	3847.75
962.454	3837.75
962.68	3724.75
962.907	3763.75
963.134	3753.75
963.36	3737.75
963.587	3773.75
963.813	3674.75
964.04	3681.75
964.266	3552.75
964.493	3633.75
964.719	3659.75
964.945	3654.75
965.171	3479.75
965.398	3587.75
965.624	3587.75
965.85	3489.75
966.076	3482.75
966.302	3483.75
966.528	3445.75
966.754	3498.75
966.98	3457.75
967.206	3475.75
967.431	3383.75
967.657	3408.75
967.883	3409.75
968.109	3420.75
968.334	3358.75
968.56	3296.75
968.785	3360.75
969.011	3287.75
969.236	3328.75
969.462	3290.75
969.687	3316.75
969.912	3317.75
970.138	3340.75
970.363	3238.75
970.588	3232.75
970.813	3268.75
971.038	3182.75
971.263	3283.75
971.488	3222.75
971.713	3266.75
971.938	3222.75
972.163	3147.75
972.388	3183.75
972.613	3136.75
972.838	3134.75
973.062	3096.75
973.287	3120.75
973.512	3050.75
973.736	3056.75
973.961	3064.75
974.185	3037.75
974.41	3069.75
974.634	2957.75
974.858	2967.75
975.083	2997.75
975.307	2998.75
975.531	2896.75
975.755	2850.75
975.98	2881.75
976.204	2806.75
976.428	2845.75
976.652	2796.75
976.876	2814.75
977.1	2824.75
977.324	2779.75
977.547	2803.75
977.771	2795.75
977.995	2786.75
978.219	2711.75
978.442	2811.75
978.666	2767.75
978.89	2729.75
979.113	2779.75
979.337	2724.75
979.56	2686.75
979.783	2728.75
980.007	2688.75
980.23	2705.75
980.453	2619.75
980.677	2689.75
980.9	2684.75
981.123	2592.75
981.346	2663.75
981.569	2624.75
981.792	2632.75
982.015	2591.75
982.238	2547.75
982.461	2582.75
982.684	2510.75
982.907	2485.75
983.129	2483.75
983.352	2538.75
983.575	2487.75
983.797	2520.75
984.02	2453.75
984.242	2428.75
984.465	2431.75
984.687	2472.75
984.91	2475.75
985.132	2455.75
985.354	2482.75
985.577	2439.75
985.799	2452.75
986.021	2337.75
986.243	2376.75
986.465	2349.75
986.687	2399.75
986.909	2432.75
987.131	2369.75
987.353	2325.75
987.575	2363.75
987.797	2307.75
988.019	2239.75
988.241	2291.75
988.462	2261.75
988.684	2308.75
988.906	2324.75
989.127	2340.75
989.349	2212.75
989.57	2289.75
989.792	2284.75
990.013	2293.75
990.234	2307.75
990.456	2356.75
990.677	2303.75
990.898	2229.75
991.119	2245.75
991.341	2252.75
991.562	2190.75
991.783	2221.75
992.004	2147.75
992.225	2112.75
992.446	2164.75
992.667	2112.75
992.887	2171.75
993.108	2045.75
993.329	2195.75
993.55	2110.75
993.77	2046.75
993.991	2046.75
994.212	2082.75
994.432	2073.75
994.653	2076.75
994.873	2044.75
995.093	1946.75
995.314	1984.75
995.534	2050.75
995.754	2049.75
995.975	2081.75
996.195	1961.75
996.415	2019.75
996.635	1993.75
996.855	1992.75
997.075	1982.75
997.295	1980.75
997.515	1952.75
997.735	2031.75
997.955	1962.75
998.174	1989.75
998.394	1942.75
998.614	2030.75
998.834	1939.75
999.053	1995.75
999.273	1949.75
999.492	1994.75
999.712	1939.75
999.931	1909.75
1000.151	1965.75
1000.37	1911.75
1000.589	1968.75
1000.809	1861.75
1001.028	2009.75
1001.247	1916.75
1001.466	1819.75
1001.685	1920.75
1001.904	1904.75
1002.123	1859.75
1002.342	1871.75
1002.561	1820.75
1002.78	1840.75
1002.999	1895.75
1003.218	1851.75
1003.436	1817.75
1003.655	1863.75
1003.874	1783.75
1004.092	1800.75
1004.311	1843.75
1004.53	1824.75
1004.748	1877.75
1004.966	1812.75
1005.185	1836.75
1005.403	1821.75
1005.622	1796.75
1005.84	1871.75
1006.058	1781.75
1006.276	1781.75
1006.494	2291.75
1006.712	1821.75
1006.931	1868.75
1007.149	1760.75
1007.367	1761.75
1007.584	1802.75
1007.802	1845.75
1008.02	1785.75
1008.238	1883.75
1008.456	1870.75
1008.673	1743.75
1008.891	1871.75
1009.109	1851.75
1009.326	1903.75
1009.544	1989.75
1009.761	1889.75
1009.979	2019.75
1010.196	2045.75
1010.413	2134.75
1010.631	2211.75
1010.848	2283.75
1011.065	2290.75
1011.282	2229.75
1011.5	2199.75
1011.717	2293.75
1011.934	2244.75
1012.151	2262.75
1012.368	2201.75
1012.585	2199.75
1012.801	2208.75
1013.018	2177.75
1013.235	2188.75
1013.452	2180.75
1013.669	2190.75
1013.885	2180.75
1014.102	2253.75
1014.318	2197.75
1014.535	2142.75
1014.751	2202.75
1014.968	2207.75
1015.184	2176.75
1015.401	2102.75
1015.617	2130.75
1015.833	2096.75
1016.049	2069.75
1016.266	2031.75
1016.482	2030.75
1016.698	1958.75
1016.914	2008.75
1017.13	1936.75
1017.346	1941.75
1017.562	1983.75
1017.778	1917.75
1017.993	1894.75
1018.209	1936.75
1018.425	1906.75
1018.641	1872.75
1018.856	1859.75
1019.072	1898.75
1019.288	1929.75
1019.503	1852.75
1019.719	1792.75
1019.934	1792.75
1020.149	1863.75
1020.365	1819.75
1020.58	1736.75
1020.795	1781.75
1021.011	1693.75
1021.226	1690.75
1021.441	1678.75
1021.656	1610.75
1021.871	1528.75
1022.086	1541.75
1022.301	1495.75
1022.516	1469.75
1022.731	1517.75
1022.946	1445.75
1023.16	1404.75
1023.375	1396.75
1023.59	1360.75
1023.804	1314.75
1024.019	1397.75
1024.234	1275.75
1024.448	1310.75
1024.663	1209.75
1024.877	1239.75
1025.092	1259.75
1025.306	1232.75
1025.52	1133.75
1025.734	1217.75
1025.949	1136.75
1026.163	1093.75
1026.377	1039.75
1026.591	1081.75
1026.805	1008.75
1027.019	988.75
1027.233	961.75
1027.447	892.75
1027.661	997.75
1027.875	951.75
1028.088	947.75
1028.302	863.75
1028.516	846.75
1028.73	846.75
1028.943	813.75
1029.157	775.75
1029.37	712.75
1029.584	-1.25
1029.797	-3.25
1030.011	-2.25
1030.224	-2.25
