Data from QEP037381__263__16-13-39-904.txt Node

Date: Fri Dec 16 16:13:39 EST 2022
User: dcclab
Spectrometer: QEP03738
Trigger mode: 4
Integration Time (sec): 1.000000E1
Scans to average: 1
Electric dark correction enabled: true
Nonlinearity correction enabled: false
Boxcar width: 0
XAxis mode: Wavelengths
Number of Pixels in Spectrum: 1044
>>>>>Begin Spectral Data<<<<<
784.041	11.25
784.3	0.25
784.558	-3.75
784.817	-2.75
785.075	112142.25
785.334	18957.25
785.592	8803.25
785.851	6110.25
786.109	4573.25
786.368	3502.25
786.626	2913.25
786.884	2393.25
787.143	2028.25
787.401	1681.25
787.659	1527.25
787.917	1313.25
788.175	1180.25
788.433	1063.25
788.691	932.25
788.949	861.25
789.207	826.25
789.465	725.25
789.723	716.25
789.98	665.25
790.238	675.25
790.496	656.25
790.753	633.25
791.011	658.25
791.268	594.25
791.526	578.25
791.783	596.25
792.041	574.25
792.298	495.25
792.556	558.25
792.813	546.25
793.07	516.25
793.327	506.25
793.584	578.25
793.841	501.25
794.099	531.25
794.356	592.25
794.613	499.25
794.869	521.25
795.126	479.25
795.383	476.25
795.64	498.25
795.897	452.25
796.153	512.25
796.41	500.25
796.667	485.25
796.923	489.25
797.18	492.25
797.436	515.25
797.693	490.25
797.949	550.25
798.206	584.25
798.462	495.25
798.718	548.25
798.974	557.25
799.231	572.25
799.487	582.25
799.743	590.25
799.999	633.25
800.255	631.25
800.511	620.25
800.767	699.25
801.023	693.25
801.279	755.25
801.534	823.25
801.79	919.25
802.046	986.25
802.302	1222.25
802.557	1435.25
802.813	1842.25
803.068	2447.25
803.324	3441.25
803.579	4798.25
803.835	6707.25
804.09	9372.25
804.345	12298.25
804.601	15616.25
804.856	18961.25
805.111	21912.25
805.366	24240.25
805.621	25914.25
805.876	27144.25
806.131	27897.25
806.386	28562.25
806.641	29027.25
806.896	29547.25
807.151	30135.25
807.406	30537.25
807.661	31174.25
807.915	31741.25
808.17	32255.25
808.425	32678.25
808.679	32826.25
808.934	33410.25
809.188	33670.25
809.443	33971.25
809.697	34385.25
809.951	34720.25
810.206	35055.25
810.46	35365.25
810.714	35695.25
810.968	36135.25
811.223	36318.25
811.477	36632.25
811.731	37106.25
811.985	37247.25
812.239	37419.25
812.493	37598.25
812.747	37803.25
813	37952.25
813.254	38237.25
813.508	38323.25
813.762	38448.25
814.015	38754.25
814.269	38975.25
814.522	39296.25
814.776	39896.25
815.03	40279.25
815.283	41055.25
815.536	41472.25
815.79	42252.25
816.043	42879.25
816.296	43431.25
816.55	43990.25
816.803	44481.25
817.056	45063.25
817.309	45627.25
817.562	46019.25
817.815	46447.25
818.068	46862.25
818.321	47271.25
818.574	48027.25
818.827	48550.25
819.079	49281.25
819.332	49876.25
819.585	50581.25
819.838	51202.25
820.09	51658.25
820.343	51892.25
820.595	52453.25
820.848	52727.25
821.1	52905.25
821.353	53094.25
821.605	52978.25
821.857	53027.25
822.11	52661.25
822.362	52598.25
822.614	52641.25
822.866	52599.25
823.118	52605.25
823.37	52903.25
823.622	52932.25
823.874	53071.25
824.126	53236.25
824.378	53303.25
824.63	53491.25
824.882	53609.25
825.134	53551.25
825.385	53750.25
825.637	53468.25
825.888	53465.25
826.14	53510.25
826.392	53286.25
826.643	52893.25
826.895	52792.25
827.146	52555.25
827.397	52433.25
827.649	52660.25
827.9	52404.25
828.151	52655.25
828.402	52876.25
828.653	52938.25
828.905	53072.25
829.156	53116.25
829.407	53060.25
829.658	53215.25
829.909	53496.25
830.159	53283.25
830.41	52805.25
830.661	52379.25
830.912	52179.25
831.162	52040.25
831.413	52034.25
831.664	52083.25
831.914	51960.25
832.165	51939.25
832.415	51988.25
832.666	52016.25
832.916	52194.25
833.167	51975.25
833.417	51928.25
833.667	51796.25
833.917	51622.25
834.168	51410.25
834.418	51407.25
834.668	51178.25
834.918	50930.25
835.168	50826.25
835.418	50625.25
835.668	50551.25
835.918	50460.25
836.167	50375.25
836.417	50158.25
836.667	50154.25
836.917	50117.25
837.166	50068.25
837.416	49906.25
837.666	49995.25
837.915	49800.25
838.165	49911.25
838.414	49632.25
838.663	49560.25
838.913	49609.25
839.162	49337.25
839.411	49488.25
839.661	49189.25
839.91	49074.25
840.159	48894.25
840.408	49006.25
840.657	48997.25
840.906	48939.25
841.155	49048.25
841.404	48984.25
841.653	49071.25
841.902	49219.25
842.15	49152.25
842.399	49137.25
842.648	49064.25
842.897	48815.25
843.145	48444.25
843.394	48286.25
843.642	48162.25
843.891	47839.25
844.139	47823.25
844.388	47636.25
844.636	47275.25
844.884	47370.25
845.133	47271.25
845.381	47225.25
845.629	47220.25
845.877	47123.25
846.125	46842.25
846.373	47003.25
846.621	46908.25
846.869	46562.25
847.117	46336.25
847.365	46153.25
847.613	46045.25
847.861	45725.25
848.108	45890.25
848.356	45840.25
848.604	45678.25
848.851	45759.25
849.099	45736.25
849.346	45674.25
849.594	45973.25
849.841	46105.25
850.089	45957.25
850.336	46109.25
850.583	46107.25
850.831	45942.25
851.078	45800.25
851.325	45630.25
851.572	45510.25
851.819	45069.25
852.066	44504.25
852.313	43983.25
852.56	43786.25
852.807	43516.25
853.054	43355.25
853.301	43079.25
853.548	43242.25
853.794	43541.25
854.041	43683.25
854.288	43767.25
854.534	44081.25
854.781	43989.25
855.028	43773.25
855.274	43877.25
855.52	43628.25
855.767	43358.25
856.013	43344.25
856.26	43473.25
856.506	43147.25
856.752	42961.25
856.998	42963.25
857.244	43167.25
857.49	43191.25
857.736	43273.25
857.982	43222.25
858.228	43375.25
858.474	43149.25
858.72	42732.25
858.966	42469.25
859.212	42078.25
859.458	41701.25
859.703	41269.25
859.949	40883.25
860.195	40687.25
860.44	40458.25
860.686	40229.25
860.931	40181.25
861.177	39899.25
861.422	39784.25
861.667	39596.25
861.913	39725.25
862.158	39901.25
862.403	39956.25
862.648	39959.25
862.893	39943.25
863.138	39990.25
863.384	39818.25
863.629	39933.25
863.873	39732.25
864.118	39693.25
864.363	39531.25
864.608	39371.25
864.853	39249.25
865.098	39014.25
865.342	39027.25
865.587	38758.25
865.832	38644.25
866.076	38679.25
866.321	38460.25
866.565	38450.25
866.81	38091.25
867.054	38175.25
867.298	38049.25
867.543	37831.25
867.787	37785.25
868.031	37673.25
868.275	37688.25
868.519	37547.25
868.764	37523.25
869.008	37382.25
869.252	37295.25
869.496	37340.25
869.739	37108.25
869.983	37081.25
870.227	37005.25
870.471	37027.25
870.715	37188.25
870.958	37043.25
871.202	37244.25
871.446	37122.25
871.689	37210.25
871.933	37230.25
872.176	37236.25
872.42	37057.25
872.663	36996.25
872.906	36820.25
873.15	36695.25
873.393	36651.25
873.636	36541.25
873.879	36121.25
874.122	35801.25
874.366	35245.25
874.609	35212.25
874.852	34841.25
875.095	34749.25
875.337	34677.25
875.58	34518.25
875.823	34360.25
876.066	34427.25
876.309	34242.25
876.551	33854.25
876.794	33713.25
877.037	33871.25
877.279	33697.25
877.522	33850.25
877.764	33798.25
878.007	33643.25
878.249	33623.25
878.491	33645.25
878.734	33735.25
878.976	33436.25
879.218	33297.25
879.46	33159.25
879.702	32812.25
879.945	32647.25
880.187	32408.25
880.429	32292.25
880.671	32014.25
880.912	31969.25
881.154	31862.25
881.396	31864.25
881.638	31775.25
881.88	31846.25
882.121	31676.25
882.363	31531.25
882.605	31468.25
882.846	31473.25
883.088	31344.25
883.329	31147.25
883.571	31164.25
883.812	31268.25
884.053	31571.25
884.295	32009.25
884.536	32174.25
884.777	31999.25
885.018	31740.25
885.259	31723.25
885.5	31463.25
885.742	31683.25
885.982	31445.25
886.223	31171.25
886.464	31220.25
886.705	30927.25
886.946	30800.25
887.187	30377.25
887.428	30087.25
887.668	29873.25
887.909	29558.25
888.15	29209.25
888.39	29007.25
888.631	28893.25
888.871	28582.25
889.111	28422.25
889.352	28310.25
889.592	28000.25
889.833	27889.25
890.073	27679.25
890.313	27597.25
890.553	27222.25
890.793	27227.25
891.033	27117.25
891.273	26942.25
891.513	26866.25
891.753	26912.25
891.993	26726.25
892.233	26840.25
892.473	26932.25
892.713	26808.25
892.952	26845.25
893.192	26776.25
893.432	26784.25
893.671	26773.25
893.911	26462.25
894.15	26465.25
894.39	26131.25
894.629	26114.25
894.869	25916.25
895.108	25845.25
895.347	25708.25
895.587	25620.25
895.826	25569.25
896.065	25406.25
896.304	25390.25
896.543	25405.25
896.782	25288.25
897.021	25257.25
897.26	25112.25
897.499	25152.25
897.738	24960.25
897.977	24987.25
898.216	24686.25
898.454	24538.25
898.693	24191.25
898.932	24226.25
899.17	24048.25
899.409	24050.25
899.647	23999.25
899.886	23899.25
900.124	23841.25
900.363	23807.25
900.601	23934.25
900.839	23893.25
901.078	23979.25
901.316	24080.25
901.554	24003.25
901.792	24114.25
902.03	24092.25
902.268	24002.25
902.506	24001.25
902.744	23863.25
902.982	23764.25
903.22	23284.25
903.458	23068.25
903.695	22878.25
903.933	22553.25
904.171	22334.25
904.409	21904.25
904.646	21746.25
904.884	21349.25
905.121	21244.25
905.359	21153.25
905.596	20834.25
905.833	20664.25
906.071	20580.25
906.308	20532.25
906.545	20507.25
906.783	20333.25
907.02	20354.25
907.257	20358.25
907.494	20225.25
907.731	20211.25
907.968	20072.25
908.205	19940.25
908.442	19792.25
908.679	19707.25
908.915	19533.25
909.152	19408.25
909.389	19181.25
909.626	19134.25
909.862	18995.25
910.099	18958.25
910.335	18977.25
910.572	18727.25
910.808	18794.25
911.045	18576.25
911.281	18515.25
911.518	18568.25
911.754	18367.25
911.99	18273.25
912.226	18099.25
912.463	18012.25
912.699	17839.25
912.935	17729.25
913.171	17573.25
913.407	17353.25
913.643	17317.25
913.879	17238.25
914.114	16900.25
914.35	16870.25
914.586	16642.25
914.822	16473.25
915.057	16425.25
915.293	16257.25
915.529	16143.25
915.764	16187.25
916	16189.25
916.235	16147.25
916.471	16034.25
916.706	16079.25
916.941	16012.25
917.177	15974.25
917.412	16016.25
917.647	15893.25
917.882	15739.25
918.117	15882.25
918.352	15746.25
918.588	15751.25
918.823	15593.25
919.057	15502.25
919.292	15297.25
919.527	15205.25
919.762	14996.25
919.997	14910.25
920.232	14686.25
920.466	14547.25
920.701	14457.25
920.935	14433.25
921.17	14301.25
921.405	14166.25
921.639	14158.25
921.873	14146.25
922.108	14022.25
922.342	14039.25
922.576	13941.25
922.811	13820.25
923.045	13867.25
923.279	13775.25
923.513	13635.25
923.747	13641.25
923.981	13403.25
924.215	13344.25
924.449	13364.25
924.683	13154.25
924.917	13108.25
925.151	13001.25
925.385	13166.25
925.618	12975.25
925.852	12873.25
926.086	12914.25
926.319	12921.25
926.553	12870.25
926.786	12840.25
927.02	12828.25
927.253	12899.25
927.486	12798.25
927.72	12732.25
927.953	12816.25
928.186	12663.25
928.42	12630.25
928.653	12572.25
928.886	12451.25
929.119	12490.25
929.352	12413.25
929.585	12265.25
929.818	12143.25
930.051	12151.25
930.284	12021.25
930.516	11934.25
930.749	11809.25
930.982	11778.25
931.215	11699.25
931.447	11641.25
931.68	11566.25
931.912	11541.25
932.145	11533.25
932.377	11601.25
932.61	11580.25
932.842	11496.25
933.074	11446.25
933.307	11404.25
933.539	11536.25
933.771	11513.25
934.003	11428.25
934.236	11483.25
934.468	11471.25
934.7	11361.25
934.932	11401.25
935.164	11317.25
935.395	11213.25
935.627	11234.25
935.859	11227.25
936.091	11135.25
936.323	11101.25
936.554	11127.25
936.786	10996.25
937.017	10898.25
937.249	10903.25
937.481	10905.25
937.712	10906.25
937.943	10817.25
938.175	10790.25
938.406	10754.25
938.637	10745.25
938.869	10648.25
939.1	10767.25
939.331	10691.25
939.562	10664.25
939.793	10654.25
940.024	10541.25
940.255	10499.25
940.486	10442.25
940.717	10397.25
940.948	10349.25
941.179	10286.25
941.409	10225.25
941.64	10232.25
941.871	10208.25
942.102	10150.25
942.332	10191.25
942.563	10183.25
942.793	10250.25
943.024	10139.25
943.254	10085.25
943.484	10239.25
943.715	10175.25
943.945	10156.25
944.175	10130.25
944.405	9993.25
944.636	10049.25
944.866	10061.25
945.096	9957.25
945.326	9973.25
945.556	9955.25
945.786	9906.25
946.016	9799.25
946.245	9747.25
946.475	9647.25
946.705	9625.25
946.935	9592.25
947.164	9567.25
947.394	9441.25
947.624	9421.25
947.853	9427.25
948.083	9313.25
948.312	9304.25
948.542	9259.25
948.771	9117.25
949	9185.25
949.23	9222.25
949.459	9135.25
949.688	9168.25
949.917	9149.25
950.146	9114.25
950.375	9106.25
950.604	9021.25
950.833	9061.25
951.062	9103.25
951.291	8962.25
951.52	8943.25
951.749	8900.25
951.978	8878.25
952.206	8841.25
952.435	8786.25
952.664	8867.25
952.892	8787.25
953.121	8714.25
953.349	8866.25
953.578	8728.25
953.806	8582.25
954.035	8579.25
954.263	8520.25
954.491	8431.25
954.719	8540.25
954.948	8447.25
955.176	8342.25
955.404	8257.25
955.632	8324.25
955.86	8258.25
956.088	8235.25
956.316	8210.25
956.544	8208.25
956.772	8123.25
956.999	8030.25
957.227	8009.25
957.455	8036.25
957.683	7885.25
957.91	7858.25
958.138	7782.25
958.365	7770.25
958.593	7720.25
958.82	7662.25
959.048	7748.25
959.275	7645.25
959.502	7693.25
959.73	7626.25
959.957	7561.25
960.184	7633.25
960.411	7542.25
960.638	7630.25
960.865	7482.25
961.092	7515.25
961.319	7402.25
961.546	7507.25
961.773	7518.25
962	7364.25
962.227	7528.25
962.454	7399.25
962.68	7384.25
962.907	7375.25
963.134	7233.25
963.36	7292.25
963.587	7259.25
963.813	7087.25
964.04	7086.25
964.266	6969.25
964.493	7098.25
964.719	7032.25
964.945	7010.25
965.171	6846.25
965.398	6913.25
965.624	6823.25
965.85	6810.25
966.076	6760.25
966.302	6756.25
966.528	6739.25
966.754	6669.25
966.98	6672.25
967.206	6610.25
967.431	6578.25
967.657	6624.25
967.883	6575.25
968.109	6516.25
968.334	6471.25
968.56	6450.25
968.785	6379.25
969.011	6404.25
969.236	6473.25
969.462	6395.25
969.687	6370.25
969.912	6381.25
970.138	6415.25
970.363	6314.25
970.588	6296.25
970.813	6226.25
971.038	6242.25
971.263	6257.25
971.488	6166.25
971.713	6253.25
971.938	6130.25
972.163	6018.25
972.388	6078.25
972.613	6023.25
972.838	6006.25
973.062	5995.25
973.287	5929.25
973.512	5876.25
973.736	5881.25
973.961	5825.25
974.185	5784.25
974.41	5844.25
974.634	5665.25
974.858	5636.25
975.083	5701.25
975.307	5673.25
975.531	5583.25
975.755	5524.25
975.98	5509.25
976.204	5408.25
976.428	5393.25
976.652	5404.25
976.876	5330.25
977.1	5423.25
977.324	5340.25
977.547	5382.25
977.771	5328.25
977.995	5266.25
978.219	5175.25
978.442	5321.25
978.666	5220.25
978.89	5187.25
979.113	5215.25
979.337	5176.25
979.56	5122.25
979.783	5224.25
980.007	5056.25
980.23	5064.25
980.453	5055.25
980.677	5041.25
980.9	5055.25
981.123	4902.25
981.346	4955.25
981.569	4900.25
981.792	4956.25
982.015	4882.25
982.238	4869.25
982.461	4814.25
982.684	4722.25
982.907	4714.25
983.129	4696.25
983.352	4718.25
983.575	4657.25
983.797	4658.25
984.02	4560.25
984.242	4553.25
984.465	4550.25
984.687	4588.25
984.91	4539.25
985.132	4516.25
985.354	4523.25
985.577	4476.25
985.799	4436.25
986.021	4343.25
986.243	4396.25
986.465	4390.25
986.687	4399.25
986.909	4444.25
987.131	4294.25
987.353	4314.25
987.575	4321.25
987.797	4233.25
988.019	4219.25
988.241	4223.25
988.462	4199.25
988.684	4209.25
988.906	4257.25
989.127	4234.25
989.349	4124.25
989.57	4135.25
989.792	4149.25
990.013	4149.25
990.234	4160.25
990.456	4150.25
990.677	4125.25
990.898	4063.25
991.119	4065.25
991.341	4040.25
991.562	3977.25
991.783	3979.25
992.004	3895.25
992.225	3885.25
992.446	3939.25
992.667	3798.25
992.887	3872.25
993.108	3749.25
993.329	3850.25
993.55	3789.25
993.77	3740.25
993.991	3732.25
994.212	3690.25
994.432	3647.25
994.653	3652.25
994.873	3628.25
995.093	3519.25
995.314	3508.25
995.534	3626.25
995.754	3575.25
995.975	3599.25
996.195	3464.25
996.415	3541.25
996.635	3497.25
996.855	3517.25
997.075	3474.25
997.295	3471.25
997.515	3417.25
997.735	3471.25
997.955	3466.25
998.174	3439.25
998.394	3355.25
998.614	3431.25
998.834	3354.25
999.053	3458.25
999.273	3399.25
999.492	3398.25
999.712	3344.25
999.931	3352.25
1000.151	3313.25
1000.37	3259.25
1000.589	3363.25
1000.809	3251.25
1001.028	3268.25
1001.247	3274.25
1001.466	3134.25
1001.685	3235.25
1001.904	3177.25
1002.123	3152.25
1002.342	3123.25
1002.561	3035.25
1002.78	3083.25
1002.999	3124.25
1003.218	3089.25
1003.436	3041.25
1003.655	3022.25
1003.874	2977.25
1004.092	2985.25
1004.311	3044.25
1004.53	2986.25
1004.748	3031.25
1004.966	2960.25
1005.185	2963.25
1005.403	2962.25
1005.622	2946.25
1005.84	3000.25
1006.058	2875.25
1006.276	2903.25
1006.494	3364.25
1006.712	2887.25
1006.931	2960.25
1007.149	2862.25
1007.367	2832.25
1007.584	2920.25
1007.802	2906.25
1008.02	2863.25
1008.238	2970.25
1008.456	2940.25
1008.673	2846.25
1008.891	2926.25
1009.109	2871.25
1009.326	2941.25
1009.544	3058.25
1009.761	2952.25
1009.979	3070.25
1010.196	3134.25
1010.413	3205.25
1010.631	3306.25
1010.848	3387.25
1011.065	3383.25
1011.282	3312.25
1011.5	3234.25
1011.717	3359.25
1011.934	3281.25
1012.151	3284.25
1012.368	3248.25
1012.585	3215.25
1012.801	3248.25
1013.018	3242.25
1013.235	3185.25
1013.452	3165.25
1013.669	3200.25
1013.885	3205.25
1014.102	3206.25
1014.318	3195.25
1014.535	3135.25
1014.751	3132.25
1014.968	3123.25
1015.184	3175.25
1015.401	3055.25
1015.617	3096.25
1015.833	3013.25
1016.049	2976.25
1016.266	2905.25
1016.482	2961.25
1016.698	2853.25
1016.914	2857.25
1017.13	2798.25
1017.346	2826.25
1017.562	2864.25
1017.778	2775.25
1017.993	2714.25
1018.209	2779.25
1018.425	2745.25
1018.641	2679.25
1018.856	2700.25
1019.072	2728.25
1019.288	2744.25
1019.503	2722.25
1019.719	2626.25
1019.934	2614.25
1020.149	2672.25
1020.365	2579.25
1020.58	2522.25
1020.795	2591.25
1021.011	2484.25
1021.226	2450.25
1021.441	2461.25
1021.656	2344.25
1021.871	2232.25
1022.086	2214.25
1022.301	2229.25
1022.516	2193.25
1022.731	2228.25
1022.946	2096.25
1023.16	2067.25
1023.375	2031.25
1023.59	2003.25
1023.804	1977.25
1024.019	2050.25
1024.234	1922.25
1024.448	1888.25
1024.663	1822.25
1024.877	1831.25
1025.092	1777.25
1025.306	1770.25
1025.52	1694.25
1025.734	1742.25
1025.949	1630.25
1026.163	1606.25
1026.377	1531.25
1026.591	1576.25
1026.805	1462.25
1027.019	1479.25
1027.233	1420.25
1027.447	1351.25
1027.661	1426.25
1027.875	1347.25
1028.088	1371.25
1028.302	1279.25
1028.516	1238.25
1028.73	1233.25
1028.943	1218.25
1029.157	1121.25
1029.37	1062.25
1029.584	1.25
1029.797	-2.75
1030.011	-1.75
1030.224	-1.75
