Data from QEP037381__334__16-25-29-913.txt Node

Date: Fri Dec 16 16:25:29 EST 2022
User: dcclab
Spectrometer: QEP03738
Trigger mode: 4
Integration Time (sec): 1.000000E1
Scans to average: 1
Electric dark correction enabled: true
Nonlinearity correction enabled: false
Boxcar width: 0
XAxis mode: Wavelengths
Number of Pixels in Spectrum: 1044
>>>>>Begin Spectral Data<<<<<
784.041	12.75
784.3	-0.25
784.558	-5.25
784.817	-2.25
785.075	111487.75
785.334	19383.75
785.592	9157.75
785.851	6324.75
786.109	4702.75
786.368	3640.75
786.626	2971.75
786.884	2463.75
787.143	2051.75
787.401	1723.75
787.659	1528.75
787.917	1315.75
788.175	1207.75
788.433	1066.75
788.691	953.75
788.949	870.75
789.207	827.75
789.465	760.75
789.723	701.75
789.98	656.75
790.238	673.75
790.496	643.75
790.753	627.75
791.011	647.75
791.268	584.75
791.526	574.75
791.783	570.75
792.041	574.75
792.298	488.75
792.556	533.75
792.813	526.75
793.07	502.75
793.327	478.75
793.584	557.75
793.841	485.75
794.099	508.75
794.356	557.75
794.613	476.75
794.869	497.75
795.126	459.75
795.383	444.75
795.64	463.75
795.897	424.75
796.153	482.75
796.41	469.75
796.667	461.75
796.923	451.75
797.18	467.75
797.436	491.75
797.693	457.75
797.949	519.75
798.206	534.75
798.462	463.75
798.718	516.75
798.974	499.75
799.231	548.75
799.487	532.75
799.743	535.75
799.999	586.75
800.255	590.75
800.511	568.75
800.767	611.75
801.023	611.75
801.279	677.75
801.534	711.75
801.79	773.75
802.046	846.75
802.302	1010.75
802.557	1178.75
802.813	1503.75
803.068	1904.75
803.324	2677.75
803.579	3693.75
803.835	5186.75
804.09	7119.75
804.345	9353.75
804.601	11882.75
804.856	14458.75
805.111	16745.75
805.366	18608.75
805.621	19971.75
805.876	20910.75
806.131	21492.75
806.386	21961.75
806.641	22297.75
806.896	22646.75
807.151	23074.75
807.406	23525.75
807.661	23886.75
807.915	24417.75
808.17	24775.75
808.425	25002.75
808.679	25206.75
808.934	25556.75
809.188	25741.75
809.443	26073.75
809.697	26403.75
809.951	26598.75
810.206	26768.75
810.46	27135.75
810.714	27339.75
810.968	27557.75
811.223	27759.75
811.477	28067.75
811.731	28407.75
811.985	28444.75
812.239	28549.75
812.493	28651.75
812.747	28801.75
813	28845.75
813.254	29051.75
813.508	29166.75
813.762	29217.75
814.015	29345.75
814.269	29690.75
814.522	30027.75
814.776	30244.75
815.03	30728.75
815.283	31024.75
815.536	31476.75
815.79	31982.75
816.043	32458.75
816.296	32944.75
816.55	33300.75
816.803	33695.75
817.056	34199.75
817.309	34516.75
817.562	34885.75
817.815	35132.75
818.068	35475.75
818.321	35791.75
818.574	36129.75
818.827	36839.75
819.079	37108.75
819.332	37801.75
819.585	38343.75
819.838	38622.75
820.09	38929.75
820.343	39346.75
820.595	39458.75
820.848	39716.75
821.1	39840.75
821.353	39801.75
821.605	39999.75
821.857	39977.75
822.11	39708.75
822.362	39570.75
822.614	39462.75
822.866	39512.75
823.118	39479.75
823.37	39671.75
823.622	39680.75
823.874	40005.75
824.126	40098.75
824.378	40056.75
824.63	40213.75
824.882	40330.75
825.134	40171.75
825.385	40303.75
825.637	40074.75
825.888	40141.75
826.14	40005.75
826.392	39805.75
826.643	39642.75
826.895	39625.75
827.146	39489.75
827.397	39365.75
827.649	39312.75
827.9	39231.75
828.151	39302.75
828.402	39422.75
828.653	39457.75
828.905	39654.75
829.156	39639.75
829.407	39564.75
829.658	39716.75
829.909	39730.75
830.159	39780.75
830.41	39458.75
830.661	39340.75
830.912	38992.75
831.162	38948.75
831.413	38932.75
831.664	38844.75
831.914	38724.75
832.165	38706.75
832.415	38715.75
832.666	38704.75
832.916	38831.75
833.167	38738.75
833.417	38824.75
833.667	38778.75
833.917	38628.75
834.168	38600.75
834.418	38385.75
834.668	38129.75
834.918	37899.75
835.168	37878.75
835.418	37712.75
835.668	37529.75
835.918	37547.75
836.167	37440.75
836.417	37324.75
836.667	37378.75
836.917	37206.75
837.166	37194.75
837.416	37193.75
837.666	37059.75
837.915	36930.75
838.165	37069.75
838.414	37011.75
838.663	36866.75
838.913	36907.75
839.162	36679.75
839.411	36657.75
839.661	36569.75
839.91	36446.75
840.159	36364.75
840.408	36217.75
840.657	36212.75
840.906	36399.75
841.155	36341.75
841.404	36250.75
841.653	36281.75
841.902	36342.75
842.15	36426.75
842.399	36574.75
842.648	36259.75
842.897	36228.75
843.145	35868.75
843.394	35910.75
843.642	35669.75
843.891	35567.75
844.139	35067.75
844.388	35094.75
844.636	34948.75
844.884	35032.75
845.133	34876.75
845.381	34826.75
845.629	34912.75
845.877	34727.75
846.125	34670.75
846.373	34690.75
846.621	34579.75
846.869	34437.75
847.117	34076.75
847.365	34098.75
847.613	33965.75
847.861	33826.75
848.108	33868.75
848.356	33646.75
848.604	33499.75
848.851	33622.75
849.099	33632.75
849.346	33667.75
849.594	33930.75
849.841	33999.75
850.089	33965.75
850.336	34004.75
850.583	33999.75
850.831	33647.75
851.078	33710.75
851.325	33629.75
851.572	33586.75
851.819	33339.75
852.066	32686.75
852.313	32325.75
852.56	32114.75
852.807	31934.75
853.054	31820.75
853.301	31846.75
853.548	31904.75
853.794	32050.75
854.041	32049.75
854.288	32092.75
854.534	32371.75
854.781	32357.75
855.028	32170.75
855.274	32084.75
855.52	32140.75
855.767	31809.75
856.013	31866.75
856.26	32107.75
856.506	31440.75
856.752	31498.75
856.998	31435.75
857.244	31423.75
857.49	31615.75
857.736	31726.75
857.982	31869.75
858.228	31679.75
858.474	31403.75
858.72	31179.75
858.966	30999.75
859.212	30644.75
859.458	30420.75
859.703	29996.75
859.949	29793.75
860.195	29626.75
860.44	29468.75
860.686	29357.75
860.931	29275.75
861.177	29086.75
861.422	28896.75
861.667	28961.75
861.913	28928.75
862.158	28924.75
862.403	29030.75
862.648	29012.75
862.893	29001.75
863.138	28940.75
863.384	28932.75
863.629	28840.75
863.873	28902.75
864.118	28634.75
864.363	28640.75
864.608	28550.75
864.853	28471.75
865.098	28248.75
865.342	28199.75
865.587	28041.75
865.832	27896.75
866.076	27958.75
866.321	27762.75
866.565	27718.75
866.81	27546.75
867.054	27456.75
867.298	27441.75
867.543	27375.75
867.787	27344.75
868.031	27298.75
868.275	27049.75
868.519	27084.75
868.764	27060.75
869.008	26965.75
869.252	26930.75
869.496	26888.75
869.739	26768.75
869.983	26755.75
870.227	26753.75
870.471	26743.75
870.715	26795.75
870.958	26839.75
871.202	26769.75
871.446	26887.75
871.689	26773.75
871.933	26970.75
872.176	26879.75
872.42	26739.75
872.663	26660.75
872.906	26718.75
873.15	26529.75
873.393	26465.75
873.636	26363.75
873.879	26236.75
874.122	25922.75
874.366	25569.75
874.609	25362.75
874.852	25215.75
875.095	25015.75
875.337	24981.75
875.58	24858.75
875.823	24712.75
876.066	24749.75
876.309	24642.75
876.551	24349.75
876.794	24308.75
877.037	24238.75
877.279	24146.75
877.522	24200.75
877.764	24177.75
878.007	24033.75
878.249	24089.75
878.491	23993.75
878.734	24053.75
878.976	23904.75
879.218	23717.75
879.46	23657.75
879.702	23429.75
879.945	23274.75
880.187	23067.75
880.429	22958.75
880.671	22872.75
880.912	22680.75
881.154	22683.75
881.396	22526.75
881.638	22522.75
881.88	22622.75
882.121	22463.75
882.363	22338.75
882.605	22449.75
882.846	22352.75
883.088	22263.75
883.329	22200.75
883.571	22216.75
883.812	22358.75
884.053	22618.75
884.295	22917.75
884.536	23148.75
884.777	23034.75
885.018	22945.75
885.259	22826.75
885.5	22716.75
885.742	22844.75
885.982	22542.75
886.223	22432.75
886.464	22318.75
886.705	22056.75
886.946	21991.75
887.187	21623.75
887.428	21502.75
887.668	21136.75
887.909	20822.75
888.15	20623.75
888.39	20565.75
888.631	20402.75
888.871	20210.75
889.111	20058.75
889.352	19909.75
889.592	19712.75
889.833	19660.75
890.073	19408.75
890.313	19477.75
890.553	19297.75
890.793	19183.75
891.033	19077.75
891.273	18954.75
891.513	18937.75
891.753	18785.75
891.993	18750.75
892.233	18866.75
892.473	18941.75
892.713	18841.75
892.952	18777.75
893.192	18906.75
893.432	18717.75
893.671	18794.75
893.911	18727.75
894.15	18514.75
894.39	18372.75
894.629	18332.75
894.869	18274.75
895.108	18103.75
895.347	18004.75
895.587	17973.75
895.826	17858.75
896.065	17847.75
896.304	17931.75
896.543	17866.75
896.782	17668.75
897.021	17674.75
897.26	17635.75
897.499	17692.75
897.738	17528.75
897.977	17411.75
898.216	17367.75
898.454	17162.75
898.693	17118.75
898.932	16967.75
899.17	16912.75
899.409	16819.75
899.647	16749.75
899.886	16766.75
900.124	16810.75
900.363	16745.75
900.601	16804.75
900.839	16810.75
901.078	16780.75
901.316	16928.75
901.554	16816.75
901.792	17032.75
902.03	16961.75
902.268	16907.75
902.506	16992.75
902.744	16846.75
902.982	16678.75
903.22	16445.75
903.458	16227.75
903.695	16096.75
903.933	15765.75
904.171	15547.75
904.409	15314.75
904.646	15113.75
904.884	14907.75
905.121	14775.75
905.359	14685.75
905.596	14439.75
905.833	14318.75
906.071	14324.75
906.308	14234.75
906.545	14265.75
906.783	14183.75
907.02	14179.75
907.257	13991.75
907.494	14057.75
907.731	13943.75
907.968	13876.75
908.205	13778.75
908.442	13690.75
908.679	13682.75
908.915	13529.75
909.152	13402.75
909.389	13267.75
909.626	13223.75
909.862	13004.75
910.099	13103.75
910.335	13044.75
910.572	12846.75
910.808	12834.75
911.045	12830.75
911.281	12745.75
911.518	12801.75
911.754	12651.75
911.99	12625.75
912.226	12444.75
912.463	12422.75
912.699	12292.75
912.935	12215.75
913.171	12106.75
913.407	11993.75
913.643	11964.75
913.879	11814.75
914.114	11832.75
914.35	11545.75
914.586	11474.75
914.822	11350.75
915.057	11369.75
915.293	11163.75
915.529	11127.75
915.764	11202.75
916	11068.75
916.235	11108.75
916.471	11082.75
916.706	10971.75
916.941	10950.75
917.177	10915.75
917.412	10952.75
917.647	10928.75
917.882	10862.75
918.117	10887.75
918.352	10793.75
918.588	10759.75
918.823	10642.75
919.057	10593.75
919.292	10468.75
919.527	10416.75
919.762	10231.75
919.997	10168.75
920.232	9973.75
920.466	10031.75
920.701	9896.75
920.935	9836.75
921.17	9722.75
921.405	9682.75
921.639	9684.75
921.873	9621.75
922.108	9583.75
922.342	9636.75
922.576	9524.75
922.811	9449.75
923.045	9491.75
923.279	9453.75
923.513	9297.75
923.747	9350.75
923.981	9209.75
924.215	9180.75
924.449	9015.75
924.683	9021.75
924.917	8972.75
925.151	8969.75
925.385	8972.75
925.618	8869.75
925.852	8882.75
926.086	8771.75
926.319	8887.75
926.553	8781.75
926.786	8843.75
927.02	8758.75
927.253	8769.75
927.486	8765.75
927.72	8694.75
927.953	8704.75
928.186	8649.75
928.42	8686.75
928.653	8642.75
928.886	8557.75
929.119	8528.75
929.352	8444.75
929.585	8440.75
929.818	8334.75
930.051	8303.75
930.284	8191.75
930.516	8109.75
930.749	8083.75
930.982	8117.75
931.215	8029.75
931.447	7914.75
931.68	7957.75
931.912	7859.75
932.145	7844.75
932.377	7919.75
932.61	7971.75
932.842	7780.75
933.074	7814.75
933.307	7776.75
933.539	7865.75
933.771	7904.75
934.003	7837.75
934.236	7880.75
934.468	7841.75
934.7	7748.75
934.932	7802.75
935.164	7721.75
935.395	7662.75
935.627	7642.75
935.859	7694.75
936.091	7568.75
936.323	7605.75
936.554	7611.75
936.786	7536.75
937.017	7455.75
937.249	7457.75
937.481	7378.75
937.712	7440.75
937.943	7376.75
938.175	7379.75
938.406	7362.75
938.637	7415.75
938.869	7284.75
939.1	7263.75
939.331	7301.75
939.562	7292.75
939.793	7231.75
940.024	7270.75
940.255	7177.75
940.486	7095.75
940.717	7133.75
940.948	7025.75
941.179	7030.75
941.409	7035.75
941.64	6965.75
941.871	6968.75
942.102	7006.75
942.332	6951.75
942.563	7013.75
942.793	6939.75
943.024	6871.75
943.254	6961.75
943.484	6974.75
943.715	6952.75
943.945	6909.75
944.175	6861.75
944.405	6811.75
944.636	6884.75
944.866	6862.75
945.096	6855.75
945.326	6790.75
945.556	6800.75
945.786	6762.75
946.016	6724.75
946.245	6585.75
946.475	6581.75
946.705	6535.75
946.935	6496.75
947.164	6481.75
947.394	6409.75
947.624	6413.75
947.853	6378.75
948.083	6341.75
948.312	6354.75
948.542	6307.75
948.771	6241.75
949	6171.75
949.23	6264.75
949.459	6228.75
949.688	6313.75
949.917	6190.75
950.146	6191.75
950.375	6213.75
950.604	6161.75
950.833	6251.75
951.062	6253.75
951.291	6134.75
951.52	6053.75
951.749	6078.75
951.978	5961.75
952.206	6008.75
952.435	6023.75
952.664	6042.75
952.892	6076.75
953.121	5958.75
953.349	6011.75
953.578	5912.75
953.806	5828.75
954.035	5766.75
954.263	5831.75
954.491	5814.75
954.719	5761.75
954.948	5757.75
955.176	5718.75
955.404	5662.75
955.632	5675.75
955.86	5615.75
956.088	5676.75
956.316	5617.75
956.544	5574.75
956.772	5502.75
956.999	5475.75
957.227	5529.75
957.455	5414.75
957.683	5395.75
957.91	5307.75
958.138	5320.75
958.365	5297.75
958.593	5248.75
958.82	5198.75
959.048	5229.75
959.275	5220.75
959.502	5170.75
959.73	5153.75
959.957	5201.75
960.184	5177.75
960.411	5087.75
960.638	5218.75
960.865	5111.75
961.092	5165.75
961.319	5012.75
961.546	5122.75
961.773	5104.75
962	5050.75
962.227	5113.75
962.454	5069.75
962.68	5045.75
962.907	5070.75
963.134	4959.75
963.36	4951.75
963.587	4956.75
963.813	4849.75
964.04	4862.75
964.266	4752.75
964.493	4851.75
964.719	4840.75
964.945	4765.75
965.171	4668.75
965.398	4639.75
965.624	4726.75
965.85	4624.75
966.076	4640.75
966.302	4638.75
966.528	4576.75
966.754	4581.75
966.98	4556.75
967.206	4507.75
967.431	4448.75
967.657	4553.75
967.883	4521.75
968.109	4486.75
968.334	4353.75
968.56	4440.75
968.785	4428.75
969.011	4341.75
969.236	4404.75
969.462	4340.75
969.687	4413.75
969.912	4434.75
970.138	4394.75
970.363	4282.75
970.588	4251.75
970.813	4293.75
971.038	4199.75
971.263	4212.75
971.488	4252.75
971.713	4279.75
971.938	4256.75
972.163	4104.75
972.388	4137.75
972.613	4104.75
972.838	4107.75
973.062	4121.75
973.287	4048.75
973.512	4022.75
973.736	4072.75
973.961	3986.75
974.185	3963.75
974.41	3999.75
974.634	3879.75
974.858	3881.75
975.083	3909.75
975.307	3859.75
975.531	3821.75
975.755	3774.75
975.98	3762.75
976.204	3689.75
976.428	3679.75
976.652	3689.75
976.876	3652.75
977.1	3673.75
977.324	3623.75
977.547	3674.75
977.771	3660.75
977.995	3606.75
978.219	3564.75
978.442	3652.75
978.666	3590.75
978.89	3559.75
979.113	3582.75
979.337	3570.75
979.56	3492.75
979.783	3574.75
980.007	3487.75
980.23	3474.75
980.453	3466.75
980.677	3487.75
980.9	3419.75
981.123	3369.75
981.346	3459.75
981.569	3378.75
981.792	3425.75
982.015	3362.75
982.238	3303.75
982.461	3289.75
982.684	3282.75
982.907	3274.75
983.129	3255.75
983.352	3284.75
983.575	3239.75
983.797	3219.75
984.02	3145.75
984.242	3172.75
984.465	3145.75
984.687	3157.75
984.91	3174.75
985.132	3121.75
985.354	3134.75
985.577	3122.75
985.799	3102.75
986.021	2999.75
986.243	2998.75
986.465	3072.75
986.687	3073.75
986.909	3054.75
987.131	3030.75
987.353	2993.75
987.575	3056.75
987.797	2957.75
988.019	2922.75
988.241	2957.75
988.462	2873.75
988.684	2953.75
988.906	2982.75
989.127	2954.75
989.349	2867.75
989.57	2895.75
989.792	2944.75
990.013	2918.75
990.234	2902.75
990.456	2929.75
990.677	2904.75
990.898	2852.75
991.119	2832.75
991.341	2854.75
991.562	2800.75
991.783	2791.75
992.004	2729.75
992.225	2688.75
992.446	2762.75
992.667	2690.75
992.887	2730.75
993.108	2593.75
993.329	2697.75
993.55	2685.75
993.77	2599.75
993.991	2597.75
994.212	2607.75
994.432	2610.75
994.653	2615.75
994.873	2607.75
995.093	2464.75
995.314	2522.75
995.534	2560.75
995.754	2545.75
995.975	2591.75
996.195	2453.75
996.415	2523.75
996.635	2486.75
996.855	2495.75
997.075	2486.75
997.295	2496.75
997.515	2447.75
997.735	2525.75
997.955	2450.75
998.174	2430.75
998.394	2419.75
998.614	2439.75
998.834	2436.75
999.053	2478.75
999.273	2451.75
999.492	2474.75
999.712	2392.75
999.931	2366.75
1000.151	2430.75
1000.37	2388.75
1000.589	2405.75
1000.809	2363.75
1001.028	2451.75
1001.247	2361.75
1001.466	2266.75
1001.685	2359.75
1001.904	2308.75
1002.123	2289.75
1002.342	2252.75
1002.561	2221.75
1002.78	2238.75
1002.999	2288.75
1003.218	2252.75
1003.436	2213.75
1003.655	2254.75
1003.874	2184.75
1004.092	2217.75
1004.311	2212.75
1004.53	2174.75
1004.748	2269.75
1004.966	2155.75
1005.185	2226.75
1005.403	2195.75
1005.622	2155.75
1005.84	2230.75
1006.058	2121.75
1006.276	2178.75
1006.494	2650.75
1006.712	2184.75
1006.931	2210.75
1007.149	2112.75
1007.367	2118.75
1007.584	2198.75
1007.802	2218.75
1008.02	2147.75
1008.238	2251.75
1008.456	2238.75
1008.673	2091.75
1008.891	2226.75
1009.109	2160.75
1009.326	2273.75
1009.544	2348.75
1009.761	2260.75
1009.979	2346.75
1010.196	2384.75
1010.413	2499.75
1010.631	2598.75
1010.848	2625.75
1011.065	2627.75
1011.282	2582.75
1011.5	2525.75
1011.717	2627.75
1011.934	2537.75
1012.151	2591.75
1012.368	2552.75
1012.585	2524.75
1012.801	2579.75
1013.018	2545.75
1013.235	2495.75
1013.452	2535.75
1013.669	2559.75
1013.885	2523.75
1014.102	2560.75
1014.318	2536.75
1014.535	2475.75
1014.751	2528.75
1014.968	2472.75
1015.184	2509.75
1015.401	2419.75
1015.617	2397.75
1015.833	2351.75
1016.049	2326.75
1016.266	2332.75
1016.482	2300.75
1016.698	2285.75
1016.914	2284.75
1017.13	2256.75
1017.346	2200.75
1017.562	2268.75
1017.778	2220.75
1017.993	2167.75
1018.209	2236.75
1018.425	2193.75
1018.641	2157.75
1018.856	2131.75
1019.072	2154.75
1019.288	2205.75
1019.503	2156.75
1019.719	2071.75
1019.934	2081.75
1020.149	2130.75
1020.365	2084.75
1020.58	2022.75
1020.795	2071.75
1021.011	1964.75
1021.226	1926.75
1021.441	1941.75
1021.656	1849.75
1021.871	1778.75
1022.086	1766.75
1022.301	1753.75
1022.516	1704.75
1022.731	1739.75
1022.946	1656.75
1023.16	1637.75
1023.375	1610.75
1023.59	1586.75
1023.804	1559.75
1024.019	1650.75
1024.234	1467.75
1024.448	1501.75
1024.663	1420.75
1024.877	1453.75
1025.092	1441.75
1025.306	1438.75
1025.52	1317.75
1025.734	1390.75
1025.949	1325.75
1026.163	1285.75
1026.377	1190.75
1026.591	1242.75
1026.805	1162.75
1027.019	1140.75
1027.233	1098.75
1027.447	1055.75
1027.661	1144.75
1027.875	1096.75
1028.088	1067.75
1028.302	992.75
1028.516	991.75
1028.73	975.75
1028.943	957.75
1029.157	900.75
1029.37	825.75
1029.584	-0.25
1029.797	-2.25
1030.011	-0.25
1030.224	-2.25
