Data from QEP037381__337__16-25-59-913.txt Node

Date: Fri Dec 16 16:25:59 EST 2022
User: dcclab
Spectrometer: QEP03738
Trigger mode: 4
Integration Time (sec): 1.000000E1
Scans to average: 1
Electric dark correction enabled: true
Nonlinearity correction enabled: false
Boxcar width: 0
XAxis mode: Wavelengths
Number of Pixels in Spectrum: 1044
>>>>>Begin Spectral Data<<<<<
784.041	9.88
784.3	0.88
784.558	-1.12
784.817	-6.12
785.075	110987.88
785.334	19619.88
785.592	9324.88
785.851	6472.88
786.109	4834.88
786.368	3744.88
786.626	2993.88
786.884	2487.88
787.143	2115.88
787.401	1711.88
787.659	1526.88
787.917	1318.88
788.175	1175.88
788.433	1036.88
788.691	930.88
788.949	858.88
789.207	823.88
789.465	711.88
789.723	680.88
789.98	630.88
790.238	672.88
790.496	625.88
790.753	589.88
791.011	628.88
791.268	569.88
791.526	558.88
791.783	570.88
792.041	553.88
792.298	457.88
792.556	534.88
792.813	499.88
793.07	467.88
793.327	474.88
793.584	546.88
793.841	472.88
794.099	478.88
794.356	538.88
794.613	445.88
794.869	476.88
795.126	435.88
795.383	428.88
795.64	439.88
795.897	404.88
796.153	468.88
796.41	440.88
796.667	423.88
796.923	439.88
797.18	434.88
797.436	457.88
797.693	426.88
797.949	482.88
798.206	504.88
798.462	419.88
798.718	480.88
798.974	472.88
799.231	502.88
799.487	491.88
799.743	501.88
799.999	509.88
800.255	531.88
800.511	515.88
800.767	560.88
801.023	552.88
801.279	584.88
801.534	621.88
801.79	682.88
802.046	719.88
802.302	843.88
802.557	989.88
802.813	1239.88
803.068	1506.88
803.324	2121.88
803.579	2831.88
803.835	3917.88
804.09	5370.88
804.345	6990.88
804.601	8795.88
804.856	10560.88
805.111	12353.88
805.366	13570.88
805.621	14419.88
805.876	15128.88
806.131	15551.88
806.386	15877.88
806.641	16105.88
806.896	16413.88
807.151	16690.88
807.406	16861.88
807.661	17224.88
807.915	17400.88
808.17	17775.88
808.425	17904.88
808.679	18071.88
808.934	18256.88
809.188	18341.88
809.443	18689.88
809.697	18809.88
809.951	18897.88
810.206	19102.88
810.46	19278.88
810.714	19488.88
810.968	19679.88
811.223	19754.88
811.477	19951.88
811.731	20143.88
811.985	20162.88
812.239	20336.88
812.493	20350.88
812.747	20518.88
813	20425.88
813.254	20572.88
813.508	20653.88
813.762	20769.88
814.015	20865.88
814.269	21075.88
814.522	21210.88
814.776	21333.88
815.03	21604.88
815.283	21890.88
815.536	22324.88
815.79	22538.88
816.043	22995.88
816.296	23211.88
816.55	23446.88
816.803	23625.88
817.056	24072.88
817.309	24292.88
817.562	24458.88
817.815	24737.88
818.068	24778.88
818.321	25081.88
818.574	25400.88
818.827	25607.88
819.079	25944.88
819.332	26414.88
819.585	26741.88
819.838	27098.88
820.09	27181.88
820.343	27518.88
820.595	27453.88
820.848	27703.88
821.1	27786.88
821.353	27784.88
821.605	27641.88
821.857	27675.88
822.11	27508.88
822.362	27449.88
822.614	27488.88
822.866	27466.88
823.118	27452.88
823.37	27528.88
823.622	27681.88
823.874	27700.88
824.126	27842.88
824.378	27853.88
824.63	28003.88
824.882	28005.88
825.134	27904.88
825.385	27846.88
825.637	27862.88
825.888	27684.88
826.14	27739.88
826.392	27488.88
826.643	27403.88
826.895	27326.88
827.146	27117.88
827.397	27122.88
827.649	27258.88
827.9	27184.88
828.151	27184.88
828.402	27222.88
828.653	27241.88
828.905	27303.88
829.156	27474.88
829.407	27335.88
829.658	27496.88
829.909	27586.88
830.159	27594.88
830.41	27443.88
830.661	27295.88
830.912	27117.88
831.162	26967.88
831.413	26899.88
831.664	26919.88
831.914	26930.88
832.165	26724.88
832.415	26848.88
832.666	26869.88
832.916	26840.88
833.167	26904.88
833.417	26903.88
833.667	26655.88
833.917	26640.88
834.168	26723.88
834.418	26501.88
834.668	26449.88
834.918	26315.88
835.168	26206.88
835.418	26130.88
835.668	26039.88
835.918	25743.88
836.167	25803.88
836.417	25626.88
836.667	25773.88
836.917	25649.88
837.166	25699.88
837.416	25787.88
837.666	25732.88
837.915	25679.88
838.165	25590.88
838.414	25502.88
838.663	25672.88
838.913	25491.88
839.162	25442.88
839.411	25558.88
839.661	25343.88
839.91	25232.88
840.159	25335.88
840.408	25236.88
840.657	25243.88
840.906	25305.88
841.155	25356.88
841.404	25140.88
841.653	25359.88
841.902	25276.88
842.15	25367.88
842.399	25447.88
842.648	25373.88
842.897	25186.88
843.145	25031.88
843.394	24949.88
843.642	24663.88
843.891	24731.88
844.139	24408.88
844.388	24279.88
844.636	24139.88
844.884	24168.88
845.133	24143.88
845.381	24236.88
845.629	24292.88
845.877	24111.88
846.125	24086.88
846.373	24062.88
846.621	23864.88
846.869	23933.88
847.117	23823.88
847.365	23647.88
847.613	23563.88
847.861	23493.88
848.108	23365.88
848.356	23464.88
848.604	23274.88
848.851	23409.88
849.099	23454.88
849.346	23490.88
849.594	23508.88
849.841	23574.88
850.089	23572.88
850.336	23685.88
850.583	23576.88
850.831	23389.88
851.078	23336.88
851.325	23421.88
851.572	23632.88
851.819	23397.88
852.066	22876.88
852.313	22543.88
852.56	22338.88
852.807	22255.88
853.054	22151.88
853.301	22227.88
853.548	22279.88
853.794	22280.88
854.041	22401.88
854.288	22528.88
854.534	22695.88
854.781	22645.88
855.028	22605.88
855.274	22650.88
855.52	22539.88
855.767	22545.88
856.013	22542.88
856.26	22940.88
856.506	22334.88
856.752	22222.88
856.998	22291.88
857.244	22341.88
857.49	22385.88
857.736	22459.88
857.982	22375.88
858.228	22324.88
858.474	22173.88
858.72	21948.88
858.966	21758.88
859.212	21531.88
859.458	21369.88
859.703	21170.88
859.949	20847.88
860.195	20911.88
860.44	20760.88
860.686	20698.88
860.931	20616.88
861.177	20525.88
861.422	20404.88
861.667	20242.88
861.913	20177.88
862.158	20177.88
862.403	20283.88
862.648	20353.88
862.893	20385.88
863.138	20382.88
863.384	20249.88
863.629	20342.88
863.873	20231.88
864.118	20177.88
864.363	20050.88
864.608	20108.88
864.853	19859.88
865.098	19843.88
865.342	19728.88
865.587	19659.88
865.832	19735.88
866.076	19678.88
866.321	19530.88
866.565	19518.88
866.81	19379.88
867.054	19328.88
867.298	19340.88
867.543	19308.88
867.787	19216.88
868.031	19138.88
868.275	19096.88
868.519	19186.88
868.764	19065.88
869.008	19077.88
869.252	19062.88
869.496	19032.88
869.739	18905.88
869.983	19008.88
870.227	19055.88
870.471	18963.88
870.715	19144.88
870.958	19213.88
871.202	19236.88
871.446	19296.88
871.689	19343.88
871.933	19188.88
872.176	19329.88
872.42	19287.88
872.663	19146.88
872.906	19172.88
873.15	19113.88
873.393	19204.88
873.636	19181.88
873.879	19031.88
874.122	18896.88
874.366	18422.88
874.609	18391.88
874.852	18122.88
875.095	18060.88
875.337	17778.88
875.58	17776.88
875.823	17736.88
876.066	17664.88
876.309	17718.88
876.551	17494.88
876.794	17386.88
877.037	17289.88
877.279	17186.88
877.522	17145.88
877.764	17263.88
878.007	17282.88
878.249	17212.88
878.491	17157.88
878.734	17073.88
878.976	16999.88
879.218	16861.88
879.46	16838.88
879.702	16734.88
879.945	16569.88
880.187	16418.88
880.429	16329.88
880.671	16190.88
880.912	16290.88
881.154	16145.88
881.396	16114.88
881.638	16194.88
881.88	16062.88
882.121	16057.88
882.363	16020.88
882.605	16074.88
882.846	15992.88
883.088	16039.88
883.329	16057.88
883.571	16035.88
883.812	16369.88
884.053	16785.88
884.295	17191.88
884.536	17491.88
884.777	17211.88
885.018	17169.88
885.259	17102.88
885.5	16906.88
885.742	17010.88
885.982	16840.88
886.223	16584.88
886.464	16447.88
886.705	16263.88
886.946	16090.88
887.187	15818.88
887.428	15525.88
887.668	15221.88
887.909	15047.88
888.15	14793.88
888.39	14777.88
888.631	14665.88
888.871	14473.88
889.111	14365.88
889.352	14273.88
889.592	14167.88
889.833	14106.88
890.073	13958.88
890.313	13987.88
890.553	13780.88
890.793	13708.88
891.033	13650.88
891.273	13576.88
891.513	13573.88
891.753	13561.88
891.993	13535.88
892.233	13526.88
892.473	13616.88
892.713	13517.88
892.952	13561.88
893.192	13528.88
893.432	13523.88
893.671	13499.88
893.911	13359.88
894.15	13325.88
894.39	13161.88
894.629	13188.88
894.869	13134.88
895.108	13045.88
895.347	12998.88
895.587	12985.88
895.826	12962.88
896.065	12872.88
896.304	13006.88
896.543	12915.88
896.782	12780.88
897.021	12842.88
897.26	12793.88
897.499	12841.88
897.738	12774.88
897.977	12744.88
898.216	12578.88
898.454	12569.88
898.693	12382.88
898.932	12458.88
899.17	12351.88
899.409	12292.88
899.647	12267.88
899.886	12194.88
900.124	12267.88
900.363	12322.88
900.601	12361.88
900.839	12339.88
901.078	12380.88
901.316	12526.88
901.554	12549.88
901.792	12694.88
902.03	12576.88
902.268	12605.88
902.506	12648.88
902.744	12526.88
902.982	12485.88
903.22	12252.88
903.458	12089.88
903.695	11882.88
903.933	11712.88
904.171	11473.88
904.409	11279.88
904.646	11171.88
904.884	11020.88
905.121	10907.88
905.359	10738.88
905.596	10645.88
905.833	10424.88
906.071	10485.88
906.308	10506.88
906.545	10426.88
906.783	10430.88
907.02	10357.88
907.257	10183.88
907.494	10315.88
907.731	10325.88
907.968	10185.88
908.205	10111.88
908.442	9987.88
908.679	9898.88
908.915	9882.88
909.152	9852.88
909.389	9692.88
909.626	9620.88
909.862	9608.88
910.099	9499.88
910.335	9618.88
910.572	9426.88
910.808	9516.88
911.045	9418.88
911.281	9349.88
911.518	9314.88
911.754	9337.88
911.99	9245.88
912.226	9190.88
912.463	9047.88
912.699	8982.88
912.935	9015.88
913.171	8908.88
913.407	8771.88
913.643	8840.88
913.879	8661.88
914.114	8552.88
914.35	8523.88
914.586	8439.88
914.822	8349.88
915.057	8394.88
915.293	8223.88
915.529	8125.88
915.764	8247.88
916	8220.88
916.235	8181.88
916.471	8135.88
916.706	8072.88
916.941	8097.88
917.177	8063.88
917.412	8069.88
917.647	8051.88
917.882	8028.88
918.117	8064.88
918.352	7971.88
918.588	8039.88
918.823	7855.88
919.057	7795.88
919.292	7662.88
919.527	7734.88
919.762	7546.88
919.997	7614.88
920.232	7458.88
920.466	7494.88
920.701	7350.88
920.935	7265.88
921.17	7255.88
921.405	7245.88
921.639	7212.88
921.873	7171.88
922.108	7182.88
922.342	7108.88
922.576	7018.88
922.811	7039.88
923.045	7027.88
923.279	7012.88
923.513	6909.88
923.747	6977.88
923.981	6875.88
924.215	6793.88
924.449	6732.88
924.683	6701.88
924.917	6695.88
925.151	6689.88
925.385	6748.88
925.618	6704.88
925.852	6627.88
926.086	6612.88
926.319	6602.88
926.553	6648.88
926.786	6545.88
927.02	6528.88
927.253	6564.88
927.486	6585.88
927.72	6503.88
927.953	6517.88
928.186	6471.88
928.42	6430.88
928.653	6441.88
928.886	6381.88
929.119	6411.88
929.352	6329.88
929.585	6314.88
929.818	6245.88
930.051	6250.88
930.284	6220.88
930.516	6076.88
930.749	6094.88
930.982	6068.88
931.215	6059.88
931.447	5955.88
931.68	5980.88
931.912	5969.88
932.145	5932.88
932.377	5955.88
932.61	6047.88
932.842	5907.88
933.074	5896.88
933.307	5896.88
933.539	5952.88
933.771	5966.88
934.003	5892.88
934.236	5982.88
934.468	5985.88
934.7	5930.88
934.932	5914.88
935.164	5798.88
935.395	5808.88
935.627	5825.88
935.859	5795.88
936.091	5735.88
936.323	5791.88
936.554	5732.88
936.786	5660.88
937.017	5628.88
937.249	5618.88
937.481	5572.88
937.712	5634.88
937.943	5630.88
938.175	5617.88
938.406	5535.88
938.637	5647.88
938.869	5530.88
939.1	5555.88
939.331	5516.88
939.562	5572.88
939.793	5499.88
940.024	5549.88
940.255	5521.88
940.486	5455.88
940.717	5389.88
940.948	5398.88
941.179	5293.88
941.409	5346.88
941.64	5328.88
941.871	5378.88
942.102	5311.88
942.332	5320.88
942.563	5322.88
942.793	5320.88
943.024	5233.88
943.254	5271.88
943.484	5357.88
943.715	5316.88
943.945	5293.88
944.175	5226.88
944.405	5178.88
944.636	5194.88
944.866	5227.88
945.096	5247.88
945.326	5128.88
945.556	5192.88
945.786	5226.88
946.016	5180.88
946.245	5072.88
946.475	5065.88
946.705	4980.88
946.935	4956.88
947.164	5010.88
947.394	4906.88
947.624	4902.88
947.853	4939.88
948.083	4882.88
948.312	4865.88
948.542	4743.88
948.771	4758.88
949	4789.88
949.23	4788.88
949.459	4757.88
949.688	4814.88
949.917	4698.88
950.146	4778.88
950.375	4854.88
950.604	4696.88
950.833	4799.88
951.062	4736.88
951.291	4682.88
951.52	4656.88
951.749	4708.88
951.978	4629.88
952.206	4639.88
952.435	4622.88
952.664	4607.88
952.892	4615.88
953.121	4566.88
953.349	4625.88
953.578	4577.88
953.806	4576.88
954.035	4441.88
954.263	4470.88
954.491	4467.88
954.719	4477.88
954.948	4402.88
955.176	4421.88
955.404	4297.88
955.632	4368.88
955.86	4326.88
956.088	4367.88
956.316	4350.88
956.544	4344.88
956.772	4291.88
956.999	4215.88
957.227	4320.88
957.455	4197.88
957.683	4188.88
957.91	4093.88
958.138	4091.88
958.365	4115.88
958.593	4103.88
958.82	4048.88
959.048	4100.88
959.275	4042.88
959.502	3983.88
959.73	4019.88
959.957	4028.88
960.184	3996.88
960.411	3987.88
960.638	4059.88
960.865	3990.88
961.092	4048.88
961.319	3913.88
961.546	3977.88
961.773	4014.88
962	3932.88
962.227	4007.88
962.454	3923.88
962.68	3868.88
962.907	3935.88
963.134	3800.88
963.36	3861.88
963.587	3833.88
963.813	3768.88
964.04	3811.88
964.266	3672.88
964.493	3826.88
964.719	3762.88
964.945	3764.88
965.171	3621.88
965.398	3683.88
965.624	3708.88
965.85	3591.88
966.076	3593.88
966.302	3625.88
966.528	3581.88
966.754	3606.88
966.98	3547.88
967.206	3567.88
967.431	3477.88
967.657	3552.88
967.883	3549.88
968.109	3533.88
968.334	3474.88
968.56	3467.88
968.785	3448.88
969.011	3402.88
969.236	3502.88
969.462	3396.88
969.687	3424.88
969.912	3466.88
970.138	3469.88
970.363	3373.88
970.588	3346.88
970.813	3348.88
971.038	3335.88
971.263	3376.88
971.488	3378.88
971.713	3352.88
971.938	3331.88
972.163	3236.88
972.388	3264.88
972.613	3213.88
972.838	3231.88
973.062	3217.88
973.287	3181.88
973.512	3129.88
973.736	3178.88
973.961	3136.88
974.185	3115.88
974.41	3138.88
974.634	3059.88
974.858	3053.88
975.083	3067.88
975.307	3066.88
975.531	3038.88
975.755	2963.88
975.98	2985.88
976.204	2907.88
976.428	2937.88
976.652	2907.88
976.876	2887.88
977.1	2939.88
977.324	2863.88
977.547	2891.88
977.771	2903.88
977.995	2875.88
978.219	2807.88
978.442	2915.88
978.666	2866.88
978.89	2849.88
979.113	2790.88
979.337	2805.88
979.56	2798.88
979.783	2857.88
980.007	2756.88
980.23	2791.88
980.453	2750.88
980.677	2785.88
980.9	2744.88
981.123	2666.88
981.346	2781.88
981.569	2724.88
981.792	2737.88
982.015	2677.88
982.238	2655.88
982.461	2673.88
982.684	2638.88
982.907	2571.88
983.129	2514.88
983.352	2652.88
983.575	2571.88
983.797	2569.88
984.02	2543.88
984.242	2510.88
984.465	2550.88
984.687	2552.88
984.91	2570.88
985.132	2526.88
985.354	2526.88
985.577	2541.88
985.799	2502.88
986.021	2410.88
986.243	2432.88
986.465	2444.88
986.687	2499.88
986.909	2513.88
987.131	2442.88
987.353	2445.88
987.575	2412.88
987.797	2437.88
988.019	2329.88
988.241	2388.88
988.462	2333.88
988.684	2436.88
988.906	2385.88
989.127	2397.88
989.349	2275.88
989.57	2321.88
989.792	2386.88
990.013	2379.88
990.234	2405.88
990.456	2428.88
990.677	2364.88
990.898	2332.88
991.119	2320.88
991.341	2324.88
991.562	2257.88
991.783	2274.88
992.004	2233.88
992.225	2205.88
992.446	2253.88
992.667	2140.88
992.887	2246.88
993.108	2076.88
993.329	2259.88
993.55	2166.88
993.77	2136.88
993.991	2136.88
994.212	2137.88
994.432	2109.88
994.653	2192.88
994.873	2143.88
995.093	2037.88
995.314	2056.88
995.534	2157.88
995.754	2137.88
995.975	2143.88
996.195	2050.88
996.415	2081.88
996.635	2102.88
996.855	2089.88
997.075	2073.88
997.295	2066.88
997.515	2066.88
997.735	2093.88
997.955	2057.88
998.174	2039.88
998.394	2030.88
998.614	2058.88
998.834	2026.88
999.053	2084.88
999.273	2025.88
999.492	2093.88
999.712	2002.88
999.931	1958.88
1000.151	2009.88
1000.37	1973.88
1000.589	2055.88
1000.809	1936.88
1001.028	2058.88
1001.247	1993.88
1001.466	1877.88
1001.685	2000.88
1001.904	1956.88
1002.123	1930.88
1002.342	1953.88
1002.561	1850.88
1002.78	1884.88
1002.999	1962.88
1003.218	1904.88
1003.436	1877.88
1003.655	1905.88
1003.874	1849.88
1004.092	1858.88
1004.311	1913.88
1004.53	1832.88
1004.748	1933.88
1004.966	1872.88
1005.185	1956.88
1005.403	1908.88
1005.622	1886.88
1005.84	1927.88
1006.058	1833.88
1006.276	1830.88
1006.494	2364.88
1006.712	1862.88
1006.931	1916.88
1007.149	1814.88
1007.367	1869.88
1007.584	1870.88
1007.802	1915.88
1008.02	1882.88
1008.238	1979.88
1008.456	1964.88
1008.673	1862.88
1008.891	1993.88
1009.109	1970.88
1009.326	2006.88
1009.544	2109.88
1009.761	2056.88
1009.979	2172.88
1010.196	2230.88
1010.413	2353.88
1010.631	2397.88
1010.848	2510.88
1011.065	2493.88
1011.282	2462.88
1011.5	2396.88
1011.717	2520.88
1011.934	2448.88
1012.151	2443.88
1012.368	2411.88
1012.585	2351.88
1012.801	2403.88
1013.018	2400.88
1013.235	2373.88
1013.452	2396.88
1013.669	2419.88
1013.885	2377.88
1014.102	2426.88
1014.318	2387.88
1014.535	2357.88
1014.751	2420.88
1014.968	2375.88
1015.184	2404.88
1015.401	2306.88
1015.617	2315.88
1015.833	2251.88
1016.049	2250.88
1016.266	2223.88
1016.482	2170.88
1016.698	2115.88
1016.914	2154.88
1017.13	2113.88
1017.346	2104.88
1017.562	2153.88
1017.778	2077.88
1017.993	2018.88
1018.209	2093.88
1018.425	2094.88
1018.641	2069.88
1018.856	2010.88
1019.072	2043.88
1019.288	2093.88
1019.503	2022.88
1019.719	1965.88
1019.934	1968.88
1020.149	2029.88
1020.365	1964.88
1020.58	1917.88
1020.795	1924.88
1021.011	1825.88
1021.226	1814.88
1021.441	1805.88
1021.656	1700.88
1021.871	1660.88
1022.086	1611.88
1022.301	1621.88
1022.516	1600.88
1022.731	1650.88
1022.946	1559.88
1023.16	1511.88
1023.375	1464.88
1023.59	1447.88
1023.804	1406.88
1024.019	1507.88
1024.234	1343.88
1024.448	1360.88
1024.663	1309.88
1024.877	1305.88
1025.092	1327.88
1025.306	1285.88
1025.52	1194.88
1025.734	1295.88
1025.949	1178.88
1026.163	1140.88
1026.377	1096.88
1026.591	1118.88
1026.805	1047.88
1027.019	1039.88
1027.233	1018.88
1027.447	951.88
1027.661	1056.88
1027.875	971.88
1028.088	954.88
1028.302	897.88
1028.516	898.88
1028.73	872.88
1028.943	868.88
1029.157	800.88
1029.37	752.88
1029.584	1.88
1029.797	-1.12
1030.011	-1.12
1030.224	-3.12
