Data from QEP037381__270__16-14-49-904.txt Node

Date: Fri Dec 16 16:14:49 EST 2022
User: dcclab
Spectrometer: QEP03738
Trigger mode: 4
Integration Time (sec): 1.000000E1
Scans to average: 1
Electric dark correction enabled: true
Nonlinearity correction enabled: false
Boxcar width: 0
XAxis mode: Wavelengths
Number of Pixels in Spectrum: 1044
>>>>>Begin Spectral Data<<<<<
784.041	10.62
784.3	0.62
784.558	-0.38
784.817	-6.38
785.075	112629.62
785.334	19484.62
785.592	9177.62
785.851	6253.62
786.109	4762.62
786.368	3691.62
786.626	2955.62
786.884	2451.62
787.143	2074.62
787.401	1709.62
787.659	1539.62
787.917	1311.62
788.175	1213.62
788.433	1054.62
788.691	938.62
788.949	861.62
789.207	828.62
789.465	731.62
789.723	681.62
789.98	649.62
790.238	677.62
790.496	635.62
790.753	609.62
791.011	655.62
791.268	568.62
791.526	563.62
791.783	582.62
792.041	569.62
792.298	475.62
792.556	525.62
792.813	512.62
793.07	495.62
793.327	482.62
793.584	573.62
793.841	472.62
794.099	500.62
794.356	556.62
794.613	452.62
794.869	510.62
795.126	464.62
795.383	451.62
795.64	458.62
795.897	403.62
796.153	475.62
796.41	459.62
796.667	457.62
796.923	464.62
797.18	462.62
797.436	490.62
797.693	437.62
797.949	497.62
798.206	549.62
798.462	471.62
798.718	500.62
798.974	474.62
799.231	546.62
799.487	530.62
799.743	535.62
799.999	583.62
800.255	567.62
800.511	560.62
800.767	611.62
801.023	593.62
801.279	642.62
801.534	682.62
801.79	749.62
802.046	812.62
802.302	998.62
802.557	1149.62
802.813	1448.62
803.068	1851.62
803.324	2530.62
803.579	3523.62
803.835	4888.62
804.09	6705.62
804.345	8783.62
804.601	11176.62
804.856	13475.62
805.111	15601.62
805.366	17249.62
805.621	18346.62
805.876	19274.62
806.131	19949.62
806.386	20291.62
806.641	20620.62
806.896	20929.62
807.151	21443.62
807.406	21785.62
807.661	22171.62
807.915	22544.62
808.17	22925.62
808.425	23111.62
808.679	23371.62
808.934	23639.62
809.188	23923.62
809.443	24176.62
809.697	24439.62
809.951	24630.62
810.206	24684.62
810.46	24957.62
810.714	25143.62
810.968	25456.62
811.223	25792.62
811.477	25911.62
811.731	26186.62
811.985	26180.62
812.239	26243.62
812.493	26534.62
812.747	26656.62
813	26638.62
813.254	26952.62
813.508	26862.62
813.762	27173.62
814.015	27181.62
814.269	27394.62
814.522	27647.62
814.776	27858.62
815.03	28240.62
815.283	28679.62
815.536	29178.62
815.79	29686.62
816.043	30154.62
816.296	30299.62
816.55	30834.62
816.803	31100.62
817.056	31545.62
817.309	31807.62
817.562	32204.62
817.815	32585.62
818.068	32854.62
818.321	33113.62
818.574	33560.62
818.827	33881.62
819.079	34312.62
819.332	34993.62
819.585	35360.62
819.838	35786.62
820.09	35893.62
820.343	36201.62
820.595	36322.62
820.848	36638.62
821.1	36752.62
821.353	36874.62
821.605	36825.62
821.857	36685.62
822.11	36591.62
822.362	36546.62
822.614	36591.62
822.866	36468.62
823.118	36519.62
823.37	36605.62
823.622	36752.62
823.874	36889.62
824.126	37033.62
824.378	37110.62
824.63	37096.62
824.882	37214.62
825.134	37165.62
825.385	37034.62
825.637	36932.62
825.888	36834.62
826.14	36917.62
826.392	36846.62
826.643	36601.62
826.895	36453.62
827.146	36456.62
827.397	36385.62
827.649	36421.62
827.9	36315.62
828.151	36322.62
828.402	36445.62
828.653	36468.62
828.905	36593.62
829.156	36708.62
829.407	36594.62
829.658	36779.62
829.909	36777.62
830.159	36752.62
830.41	36597.62
830.661	36361.62
830.912	36111.62
831.162	36092.62
831.413	35970.62
831.664	35889.62
831.914	35806.62
832.165	35796.62
832.415	35946.62
832.666	35862.62
832.916	35925.62
833.167	35794.62
833.417	35831.62
833.667	35862.62
833.917	35729.62
834.168	35703.62
834.418	35494.62
834.668	35510.62
834.918	35175.62
835.168	35123.62
835.418	34895.62
835.668	34872.62
835.918	34774.62
836.167	34691.62
836.417	34675.62
836.667	34343.62
836.917	34550.62
837.166	34464.62
837.416	34404.62
837.666	34564.62
837.915	34368.62
838.165	34299.62
838.414	34227.62
838.663	34310.62
838.913	34262.62
839.162	34231.62
839.411	34127.62
839.661	34052.62
839.91	33878.62
840.159	33785.62
840.408	33883.62
840.657	33773.62
840.906	33656.62
841.155	33667.62
841.404	33738.62
841.653	33813.62
841.902	33863.62
842.15	33775.62
842.399	33809.62
842.648	33766.62
842.897	33658.62
843.145	33467.62
843.394	33223.62
843.642	33137.62
843.891	32954.62
844.139	32822.62
844.388	32692.62
844.636	32625.62
844.884	32416.62
845.133	32388.62
845.381	32424.62
845.629	32371.62
845.877	32340.62
846.125	32315.62
846.373	32247.62
846.621	32164.62
846.869	32108.62
847.117	31836.62
847.365	31612.62
847.613	31628.62
847.861	31489.62
848.108	31498.62
848.356	31374.62
848.604	31303.62
848.851	31343.62
849.099	31244.62
849.346	31411.62
849.594	31650.62
849.841	31787.62
850.089	31609.62
850.336	31739.62
850.583	31694.62
850.831	31478.62
851.078	31399.62
851.325	31303.62
851.572	31369.62
851.819	31238.62
852.066	30606.62
852.313	30224.62
852.56	29976.62
852.807	29821.62
853.054	29769.62
853.301	29632.62
853.548	29804.62
853.794	29887.62
854.041	29970.62
854.288	30112.62
854.534	30357.62
854.781	30217.62
855.028	30061.62
855.274	30171.62
855.52	29912.62
855.767	29838.62
856.013	29853.62
856.26	30132.62
856.506	29673.62
856.752	29651.62
856.998	29460.62
857.244	29651.62
857.49	29751.62
857.736	29775.62
857.982	29936.62
858.228	29716.62
858.474	29484.62
858.72	29362.62
858.966	29078.62
859.212	28843.62
859.458	28421.62
859.703	28228.62
859.949	27876.62
860.195	27772.62
860.44	27697.62
860.686	27510.62
860.931	27586.62
861.177	27290.62
861.422	27103.62
861.667	27142.62
861.913	27115.62
862.158	27133.62
862.403	27301.62
862.648	27288.62
862.893	27282.62
863.138	27154.62
863.384	27219.62
863.629	27079.62
863.873	27150.62
864.118	26983.62
864.363	26923.62
864.608	26733.62
864.853	26778.62
865.098	26627.62
865.342	26466.62
865.587	26333.62
865.832	26351.62
866.076	26306.62
866.321	26128.62
866.565	26067.62
866.81	25867.62
867.054	25955.62
867.298	25808.62
867.543	25681.62
867.787	25733.62
868.031	25645.62
868.275	25659.62
868.519	25517.62
868.764	25462.62
869.008	25303.62
869.252	25474.62
869.496	25368.62
869.739	25230.62
869.983	25323.62
870.227	25188.62
870.471	25180.62
870.715	25267.62
870.958	25451.62
871.202	25423.62
871.446	25405.62
871.689	25444.62
871.933	25367.62
872.176	25383.62
872.42	25300.62
872.663	25325.62
872.906	25237.62
873.15	25050.62
873.393	25133.62
873.636	25009.62
873.879	24910.62
874.122	24508.62
874.366	24228.62
874.609	23982.62
874.852	23919.62
875.095	23697.62
875.337	23666.62
875.58	23425.62
875.823	23370.62
876.066	23315.62
876.309	23280.62
876.551	23053.62
876.794	22923.62
877.037	23073.62
877.279	22899.62
877.522	22843.62
877.764	22842.62
878.007	22754.62
878.249	22758.62
878.491	22663.62
878.734	22695.62
878.976	22638.62
879.218	22382.62
879.46	22349.62
879.702	22287.62
879.945	21997.62
880.187	21811.62
880.429	21736.62
880.671	21496.62
880.912	21503.62
881.154	21464.62
881.396	21411.62
881.638	21321.62
881.88	21397.62
882.121	21274.62
882.363	21338.62
882.605	21247.62
882.846	21255.62
883.088	21215.62
883.329	21090.62
883.571	21166.62
883.812	21212.62
884.053	21570.62
884.295	21937.62
884.536	22136.62
884.777	21950.62
885.018	21785.62
885.259	21741.62
885.5	21585.62
885.742	21816.62
885.982	21578.62
886.223	21416.62
886.464	21164.62
886.705	20992.62
886.946	20811.62
887.187	20458.62
887.428	20233.62
887.668	20021.62
887.909	19813.62
888.15	19535.62
888.39	19462.62
888.631	19273.62
888.871	19079.62
889.111	18960.62
889.352	18902.62
889.592	18687.62
889.833	18453.62
890.073	18443.62
890.313	18422.62
890.553	18230.62
890.793	18196.62
891.033	18062.62
891.273	17902.62
891.513	17822.62
891.753	17810.62
891.993	17787.62
892.233	17826.62
892.473	18028.62
892.713	17868.62
892.952	17922.62
893.192	17940.62
893.432	17804.62
893.671	17859.62
893.911	17746.62
894.15	17711.62
894.39	17491.62
894.629	17383.62
894.869	17335.62
895.108	17213.62
895.347	17115.62
895.587	17060.62
895.826	16971.62
896.065	16973.62
896.304	16951.62
896.543	17033.62
896.782	16876.62
897.021	16815.62
897.26	16818.62
897.499	16752.62
897.738	16726.62
897.977	16616.62
898.216	16439.62
898.454	16328.62
898.693	16159.62
898.932	16253.62
899.17	16075.62
899.409	16032.62
899.647	15987.62
899.886	15907.62
900.124	15972.62
900.363	15936.62
900.601	15943.62
900.839	15980.62
901.078	15885.62
901.316	16083.62
901.554	16147.62
901.792	16206.62
902.03	16222.62
902.268	16234.62
902.506	16097.62
902.744	16121.62
902.982	15995.62
903.22	15730.62
903.458	15433.62
903.695	15207.62
903.933	15142.62
904.171	14876.62
904.409	14624.62
904.646	14433.62
904.884	14205.62
905.121	14163.62
905.359	14005.62
905.596	13850.62
905.833	13579.62
906.071	13613.62
906.308	13602.62
906.545	13579.62
906.783	13387.62
907.02	13409.62
907.257	13363.62
907.494	13327.62
907.731	13298.62
907.968	13174.62
908.205	13153.62
908.442	12984.62
908.679	13005.62
908.915	12833.62
909.152	12783.62
909.389	12620.62
909.626	12518.62
909.862	12505.62
910.099	12416.62
910.335	12443.62
910.572	12329.62
910.808	12300.62
911.045	12240.62
911.281	12129.62
911.518	12132.62
911.754	11909.62
911.99	12043.62
912.226	11920.62
912.463	11774.62
912.699	11675.62
912.935	11570.62
913.171	11480.62
913.407	11389.62
913.643	11376.62
913.879	11251.62
914.114	11062.62
914.35	10956.62
914.586	10881.62
914.822	10767.62
915.057	10802.62
915.293	10651.62
915.529	10632.62
915.764	10698.62
916	10585.62
916.235	10554.62
916.471	10537.62
916.706	10445.62
916.941	10494.62
917.177	10453.62
917.412	10423.62
917.647	10365.62
917.882	10327.62
918.117	10336.62
918.352	10325.62
918.588	10277.62
918.823	10143.62
919.057	10139.62
919.292	9885.62
919.527	9991.62
919.762	9801.62
919.997	9727.62
920.232	9591.62
920.466	9533.62
920.701	9396.62
920.935	9382.62
921.17	9278.62
921.405	9234.62
921.639	9246.62
921.873	9168.62
922.108	9197.62
922.342	9072.62
922.576	9024.62
922.811	9053.62
923.045	9038.62
923.279	9014.62
923.513	8810.62
923.747	8878.62
923.981	8743.62
924.215	8724.62
924.449	8648.62
924.683	8602.62
924.917	8594.62
925.151	8496.62
925.385	8521.62
925.618	8506.62
925.852	8426.62
926.086	8374.62
926.319	8407.62
926.553	8359.62
926.786	8401.62
927.02	8420.62
927.253	8382.62
927.486	8326.62
927.72	8230.62
927.953	8338.62
928.186	8263.62
928.42	8217.62
928.653	8218.62
928.886	8118.62
929.119	8132.62
929.352	8103.62
929.585	8026.62
929.818	7892.62
930.051	7902.62
930.284	7856.62
930.516	7724.62
930.749	7678.62
930.982	7725.62
931.215	7653.62
931.447	7573.62
931.68	7590.62
931.912	7486.62
932.145	7472.62
932.377	7514.62
932.61	7614.62
932.842	7459.62
933.074	7521.62
933.307	7395.62
933.539	7477.62
933.771	7487.62
934.003	7395.62
934.236	7503.62
934.468	7495.62
934.7	7425.62
934.932	7421.62
935.164	7333.62
935.395	7367.62
935.627	7330.62
935.859	7335.62
936.091	7194.62
936.323	7293.62
936.554	7239.62
936.786	7158.62
937.017	7078.62
937.249	7160.62
937.481	7030.62
937.712	7089.62
937.943	7048.62
938.175	6994.62
938.406	7005.62
938.637	7051.62
938.869	6938.62
939.1	6982.62
939.331	6896.62
939.562	6852.62
939.793	6900.62
940.024	6854.62
940.255	6814.62
940.486	6790.62
940.717	6748.62
940.948	6724.62
941.179	6681.62
941.409	6660.62
941.64	6627.62
941.871	6622.62
942.102	6636.62
942.332	6647.62
942.563	6655.62
942.793	6598.62
943.024	6523.62
943.254	6627.62
943.484	6633.62
943.715	6606.62
943.945	6563.62
944.175	6489.62
944.405	6471.62
944.636	6489.62
944.866	6497.62
945.096	6529.62
945.326	6441.62
945.556	6536.62
945.786	6411.62
946.016	6348.62
946.245	6232.62
946.475	6257.62
946.705	6222.62
946.935	6218.62
947.164	6201.62
947.394	6098.62
947.624	6131.62
947.853	6074.62
948.083	6041.62
948.312	5985.62
948.542	5914.62
948.771	5969.62
949	5978.62
949.23	5947.62
949.459	5916.62
949.688	5985.62
949.917	5914.62
950.146	5939.62
950.375	5948.62
950.604	5884.62
950.833	5896.62
951.062	5908.62
951.291	5790.62
951.52	5761.62
951.749	5805.62
951.978	5700.62
952.206	5728.62
952.435	5716.62
952.664	5653.62
952.892	5716.62
953.121	5663.62
953.349	5675.62
953.578	5606.62
953.806	5592.62
954.035	5487.62
954.263	5511.62
954.491	5439.62
954.719	5478.62
954.948	5379.62
955.176	5404.62
955.404	5312.62
955.632	5374.62
955.86	5392.62
956.088	5316.62
956.316	5347.62
956.544	5299.62
956.772	5224.62
956.999	5209.62
957.227	5246.62
957.455	5084.62
957.683	5098.62
957.91	5059.62
958.138	5053.62
958.365	5009.62
958.593	5023.62
958.82	4944.62
959.048	4984.62
959.275	4923.62
959.502	4970.62
959.73	4895.62
959.957	4953.62
960.184	4947.62
960.411	4863.62
960.638	4930.62
960.865	4850.62
961.092	4902.62
961.319	4739.62
961.546	4882.62
961.773	4848.62
962	4817.62
962.227	4812.62
962.454	4847.62
962.68	4771.62
962.907	4764.62
963.134	4738.62
963.36	4715.62
963.587	4669.62
963.813	4596.62
964.04	4633.62
964.266	4534.62
964.493	4612.62
964.719	4550.62
964.945	4542.62
965.171	4450.62
965.398	4465.62
965.624	4454.62
965.85	4369.62
966.076	4392.62
966.302	4380.62
966.528	4345.62
966.754	4362.62
966.98	4379.62
967.206	4322.62
967.431	4244.62
967.657	4334.62
967.883	4260.62
968.109	4304.62
968.334	4164.62
968.56	4223.62
968.785	4213.62
969.011	4153.62
969.236	4178.62
969.462	4073.62
969.687	4131.62
969.912	4146.62
970.138	4205.62
970.363	4113.62
970.588	4158.62
970.813	4068.62
971.038	4035.62
971.263	4053.62
971.488	4037.62
971.713	4093.62
971.938	4022.62
972.163	3903.62
972.388	3971.62
972.613	3923.62
972.838	3902.62
973.062	3893.62
973.287	3881.62
973.512	3813.62
973.736	3844.62
973.961	3783.62
974.185	3749.62
974.41	3782.62
974.634	3698.62
974.858	3718.62
975.083	3713.62
975.307	3722.62
975.531	3584.62
975.755	3545.62
975.98	3585.62
976.204	3507.62
976.428	3510.62
976.652	3511.62
976.876	3481.62
977.1	3478.62
977.324	3459.62
977.547	3493.62
977.771	3501.62
977.995	3462.62
978.219	3392.62
978.442	3480.62
978.666	3386.62
978.89	3409.62
979.113	3387.62
979.337	3381.62
979.56	3330.62
979.783	3420.62
980.007	3290.62
980.23	3345.62
980.453	3290.62
980.677	3293.62
980.9	3302.62
981.123	3177.62
981.346	3302.62
981.569	3229.62
981.792	3296.62
982.015	3213.62
982.238	3173.62
982.461	3143.62
982.684	3138.62
982.907	3080.62
983.129	3045.62
983.352	3138.62
983.575	3089.62
983.797	3039.62
984.02	2975.62
984.242	3063.62
984.465	2994.62
984.687	3008.62
984.91	3030.62
985.132	2992.62
985.354	3016.62
985.577	2952.62
985.799	2899.62
986.021	2857.62
986.243	2914.62
986.465	2859.62
986.687	2933.62
986.909	2940.62
987.131	2877.62
987.353	2814.62
987.575	2857.62
987.797	2863.62
988.019	2760.62
988.241	2818.62
988.462	2762.62
988.684	2832.62
988.906	2839.62
989.127	2866.62
989.349	2773.62
989.57	2755.62
989.792	2813.62
990.013	2795.62
990.234	2738.62
990.456	2839.62
990.677	2765.62
990.898	2762.62
991.119	2720.62
991.341	2692.62
991.562	2662.62
991.783	2679.62
992.004	2604.62
992.225	2574.62
992.446	2647.62
992.667	2556.62
992.887	2599.62
993.108	2527.62
993.329	2607.62
993.55	2539.62
993.77	2494.62
993.991	2483.62
994.212	2479.62
994.432	2458.62
994.653	2493.62
994.873	2488.62
995.093	2380.62
995.314	2398.62
995.534	2453.62
995.754	2490.62
995.975	2466.62
996.195	2387.62
996.415	2411.62
996.635	2407.62
996.855	2395.62
997.075	2349.62
997.295	2357.62
997.515	2362.62
997.735	2405.62
997.955	2342.62
998.174	2365.62
998.394	2308.62
998.614	2366.62
998.834	2326.62
999.053	2395.62
999.273	2320.62
999.492	2423.62
999.712	2352.62
999.931	2276.62
1000.151	2334.62
1000.37	2294.62
1000.589	2313.62
1000.809	2276.62
1001.028	2363.62
1001.247	2270.62
1001.466	2187.62
1001.685	2274.62
1001.904	2223.62
1002.123	2227.62
1002.342	2189.62
1002.561	2119.62
1002.78	2166.62
1002.999	2221.62
1003.218	2192.62
1003.436	2136.62
1003.655	2138.62
1003.874	2128.62
1004.092	2092.62
1004.311	2153.62
1004.53	2060.62
1004.748	2182.62
1004.966	2048.62
1005.185	2120.62
1005.403	2100.62
1005.622	2089.62
1005.84	2150.62
1006.058	2060.62
1006.276	2067.62
1006.494	2604.62
1006.712	2076.62
1006.931	2164.62
1007.149	2061.62
1007.367	2046.62
1007.584	2112.62
1007.802	2115.62
1008.02	2065.62
1008.238	2172.62
1008.456	2179.62
1008.673	2036.62
1008.891	2167.62
1009.109	2157.62
1009.326	2152.62
1009.544	2276.62
1009.761	2192.62
1009.979	2279.62
1010.196	2334.62
1010.413	2457.62
1010.631	2522.62
1010.848	2561.62
1011.065	2591.62
1011.282	2549.62
1011.5	2519.62
1011.717	2618.62
1011.934	2553.62
1012.151	2549.62
1012.368	2535.62
1012.585	2456.62
1012.801	2532.62
1013.018	2490.62
1013.235	2440.62
1013.452	2482.62
1013.669	2513.62
1013.885	2478.62
1014.102	2517.62
1014.318	2514.62
1014.535	2457.62
1014.751	2490.62
1014.968	2458.62
1015.184	2481.62
1015.401	2391.62
1015.617	2391.62
1015.833	2337.62
1016.049	2354.62
1016.266	2308.62
1016.482	2312.62
1016.698	2226.62
1016.914	2260.62
1017.13	2194.62
1017.346	2186.62
1017.562	2238.62
1017.778	2179.62
1017.993	2146.62
1018.209	2190.62
1018.425	2182.62
1018.641	2113.62
1018.856	2110.62
1019.072	2141.62
1019.288	2176.62
1019.503	2152.62
1019.719	2032.62
1019.934	2040.62
1020.149	2089.62
1020.365	2039.62
1020.58	1980.62
1020.795	2020.62
1021.011	1932.62
1021.226	1896.62
1021.441	1932.62
1021.656	1816.62
1021.871	1743.62
1022.086	1733.62
1022.301	1729.62
1022.516	1693.62
1022.731	1704.62
1022.946	1638.62
1023.16	1583.62
1023.375	1573.62
1023.59	1558.62
1023.804	1524.62
1024.019	1595.62
1024.234	1437.62
1024.448	1489.62
1024.663	1408.62
1024.877	1391.62
1025.092	1409.62
1025.306	1410.62
1025.52	1269.62
1025.734	1339.62
1025.949	1262.62
1026.163	1244.62
1026.377	1160.62
1026.591	1210.62
1026.805	1151.62
1027.019	1125.62
1027.233	1080.62
1027.447	1014.62
1027.661	1146.62
1027.875	1064.62
1028.088	1048.62
1028.302	971.62
1028.516	949.62
1028.73	932.62
1028.943	915.62
1029.157	859.62
1029.37	811.62
1029.584	-1.38
1029.797	-2.38
1030.011	-2.38
1030.224	1.62
