Data from QEP037381__343__16-26-59-914.txt Node

Date: Fri Dec 16 16:26:59 EST 2022
User: dcclab
Spectrometer: QEP03738
Trigger mode: 4
Integration Time (sec): 1.000000E1
Scans to average: 1
Electric dark correction enabled: true
Nonlinearity correction enabled: false
Boxcar width: 0
XAxis mode: Wavelengths
Number of Pixels in Spectrum: 1044
>>>>>Begin Spectral Data<<<<<
784.041	14.88
784.3	2.88
784.558	-5.12
784.817	-1.12
785.075	110814.88
785.334	19264.88
785.592	9022.88
785.851	6234.88
786.109	4669.88
786.368	3669.88
786.626	2930.88
786.884	2434.88
787.143	2060.88
787.401	1684.88
787.659	1506.88
787.917	1315.88
788.175	1190.88
788.433	1033.88
788.691	933.88
788.949	876.88
789.207	819.88
789.465	745.88
789.723	701.88
789.98	644.88
790.238	674.88
790.496	632.88
790.753	611.88
791.011	678.88
791.268	592.88
791.526	567.88
791.783	591.88
792.041	556.88
792.298	480.88
792.556	546.88
792.813	524.88
793.07	489.88
793.327	498.88
793.584	582.88
793.841	498.88
794.099	512.88
794.356	579.88
794.613	468.88
794.869	509.88
795.126	464.88
795.383	464.88
795.64	488.88
795.897	437.88
796.153	469.88
796.41	472.88
796.667	461.88
796.923	467.88
797.18	471.88
797.436	506.88
797.693	458.88
797.949	503.88
798.206	554.88
798.462	474.88
798.718	523.88
798.974	497.88
799.231	551.88
799.487	550.88
799.743	553.88
799.999	579.88
800.255	591.88
800.511	594.88
800.767	636.88
801.023	640.88
801.279	669.88
801.534	737.88
801.79	807.88
802.046	857.88
802.302	1055.88
802.557	1216.88
802.813	1547.88
803.068	1991.88
803.324	2769.88
803.579	3841.88
803.835	5392.88
804.09	7503.88
804.345	9901.88
804.601	12516.88
804.856	15256.88
805.111	17536.88
805.366	19391.88
805.621	20729.88
805.876	21554.88
806.131	22326.88
806.386	22744.88
806.641	23077.88
806.896	23630.88
807.151	23938.88
807.406	24377.88
807.661	24760.88
807.915	25307.88
808.17	25705.88
808.425	25964.88
808.679	26262.88
808.934	26522.88
809.188	26822.88
809.443	27142.88
809.697	27347.88
809.951	27596.88
810.206	27818.88
810.46	28046.88
810.714	28324.88
810.968	28680.88
811.223	28809.88
811.477	29076.88
811.731	29320.88
811.985	29499.88
812.239	29647.88
812.493	29848.88
812.747	29984.88
813	30107.88
813.254	30301.88
813.508	30356.88
813.762	30418.88
814.015	30535.88
814.269	30829.88
814.522	31276.88
814.776	31561.88
815.03	31984.88
815.283	32421.88
815.536	32981.88
815.79	33455.88
816.043	34015.88
816.296	34339.88
816.55	34772.88
816.803	35165.88
817.056	35705.88
817.309	36048.88
817.562	36374.88
817.815	36776.88
818.068	37057.88
818.321	37435.88
818.574	37920.88
818.827	38430.88
819.079	38823.88
819.332	39531.88
819.585	39855.88
819.838	40545.88
820.09	40699.88
820.343	40963.88
820.595	41254.88
820.848	41625.88
821.1	41673.88
821.353	41698.88
821.605	41770.88
821.857	41876.88
822.11	41525.88
822.362	41571.88
822.614	41507.88
822.866	41295.88
823.118	41484.88
823.37	41731.88
823.622	41750.88
823.874	41830.88
824.126	41925.88
824.378	42086.88
824.63	42281.88
824.882	42204.88
825.134	42160.88
825.385	42181.88
825.637	42226.88
825.888	41976.88
826.14	42034.88
826.392	41867.88
826.643	41719.88
826.895	41753.88
827.146	41470.88
827.397	41330.88
827.649	41455.88
827.9	41297.88
828.151	41486.88
828.402	41597.88
828.653	41636.88
828.905	41684.88
829.156	41874.88
829.407	41829.88
829.658	42001.88
829.909	41945.88
830.159	41841.88
830.41	41600.88
830.661	41503.88
830.912	41151.88
831.162	41092.88
831.413	41031.88
831.664	41101.88
831.914	41120.88
832.165	41000.88
832.415	41074.88
832.666	40988.88
832.916	41007.88
833.167	40962.88
833.417	41122.88
833.667	40775.88
833.917	40662.88
834.168	40767.88
834.418	40541.88
834.668	40598.88
834.918	40151.88
835.168	40122.88
835.418	40074.88
835.668	39860.88
835.918	39731.88
836.167	39679.88
836.417	39531.88
836.667	39560.88
836.917	39542.88
837.166	39472.88
837.416	39489.88
837.666	39460.88
837.915	39307.88
838.165	39329.88
838.414	39149.88
838.663	39209.88
838.913	39081.88
839.162	39081.88
839.411	39018.88
839.661	38881.88
839.91	38793.88
840.159	38781.88
840.408	38781.88
840.657	38782.88
840.906	38911.88
841.155	38772.88
841.404	38750.88
841.653	38806.88
841.902	38812.88
842.15	38895.88
842.399	38873.88
842.648	38775.88
842.897	38708.88
843.145	38296.88
843.394	38329.88
843.642	37909.88
843.891	37990.88
844.139	37785.88
844.388	37502.88
844.636	37511.88
844.884	37369.88
845.133	37182.88
845.381	37448.88
845.629	37276.88
845.877	37296.88
846.125	37299.88
846.373	37255.88
846.621	37039.88
846.869	36907.88
847.117	36736.88
847.365	36481.88
847.613	36376.88
847.861	36320.88
848.108	36262.88
848.356	36267.88
848.604	36033.88
848.851	36075.88
849.099	36237.88
849.346	36342.88
849.594	36438.88
849.841	36555.88
850.089	36504.88
850.336	36729.88
850.583	36586.88
850.831	36492.88
851.078	36120.88
851.325	36220.88
851.572	36171.88
851.819	35935.88
852.066	35373.88
852.313	34866.88
852.56	34678.88
852.807	34545.88
853.054	34424.88
853.301	34294.88
853.548	34409.88
853.794	34675.88
854.041	34728.88
854.288	34866.88
854.534	35157.88
854.781	35061.88
855.028	34957.88
855.274	34893.88
855.52	34714.88
855.767	34474.88
856.013	34525.88
856.26	34711.88
856.506	34120.88
856.752	34083.88
856.998	34222.88
857.244	34254.88
857.49	34508.88
857.736	34506.88
857.982	34544.88
858.228	34378.88
858.474	34344.88
858.72	33944.88
858.966	33830.88
859.212	33387.88
859.458	33032.88
859.703	32816.88
859.949	32433.88
860.195	32366.88
860.44	32046.88
860.686	32015.88
860.931	32027.88
861.177	31778.88
861.422	31692.88
861.667	31619.88
861.913	31597.88
862.158	31716.88
862.403	31684.88
862.648	31798.88
862.893	31798.88
863.138	31778.88
863.384	31667.88
863.629	31612.88
863.873	31660.88
864.118	31506.88
864.363	31478.88
864.608	31222.88
864.853	31113.88
865.098	30864.88
865.342	30945.88
865.587	30775.88
865.832	30838.88
866.076	30731.88
866.321	30550.88
866.565	30605.88
866.81	30454.88
867.054	30209.88
867.298	30328.88
867.543	30352.88
867.787	30201.88
868.031	30064.88
868.275	30023.88
868.519	29984.88
868.764	29873.88
869.008	29853.88
869.252	29817.88
869.496	29600.88
869.739	29657.88
869.983	29630.88
870.227	29607.88
870.471	29482.88
870.715	29662.88
870.958	29705.88
871.202	29660.88
871.446	29763.88
871.689	29607.88
871.933	29627.88
872.176	29717.88
872.42	29707.88
872.663	29494.88
872.906	29526.88
873.15	29443.88
873.393	29175.88
873.636	29220.88
873.879	28826.88
874.122	28652.88
874.366	28289.88
874.609	28155.88
874.852	27943.88
875.095	27900.88
875.337	27734.88
875.58	27539.88
875.823	27432.88
876.066	27483.88
876.309	27423.88
876.551	27057.88
876.794	27126.88
877.037	26985.88
877.279	26848.88
877.522	26826.88
877.764	26988.88
878.007	26886.88
878.249	26755.88
878.491	26778.88
878.734	26768.88
878.976	26654.88
879.218	26353.88
879.46	26401.88
879.702	26195.88
879.945	25996.88
880.187	25766.88
880.429	25584.88
880.671	25542.88
880.912	25558.88
881.154	25344.88
881.396	25319.88
881.638	25414.88
881.88	25333.88
882.121	25201.88
882.363	25263.88
882.605	25161.88
882.846	25059.88
883.088	24979.88
883.329	24985.88
883.571	24942.88
883.812	25040.88
884.053	25273.88
884.295	25615.88
884.536	25752.88
884.777	25617.88
885.018	25608.88
885.259	25372.88
885.5	25271.88
885.742	25438.88
885.982	25230.88
886.223	25060.88
886.464	24933.88
886.705	24729.88
886.946	24458.88
887.187	24175.88
887.428	24077.88
887.668	23759.88
887.909	23496.88
888.15	23292.88
888.39	23157.88
888.631	23033.88
888.871	22869.88
889.111	22672.88
889.352	22587.88
889.592	22314.88
889.833	22090.88
890.073	22001.88
890.313	21999.88
890.553	21720.88
890.793	21724.88
891.033	21598.88
891.273	21437.88
891.513	21384.88
891.753	21398.88
891.993	21223.88
892.233	21309.88
892.473	21378.88
892.713	21473.88
892.952	21380.88
893.192	21434.88
893.432	21278.88
893.671	21237.88
893.911	21147.88
894.15	20981.88
894.39	20835.88
894.629	20691.88
894.869	20668.88
895.108	20437.88
895.347	20388.88
895.587	20358.88
895.826	20333.88
896.065	20256.88
896.304	20299.88
896.543	20144.88
896.782	20068.88
897.021	20165.88
897.26	20028.88
897.499	20042.88
897.738	19988.88
897.977	19829.88
898.216	19709.88
898.454	19444.88
898.693	19277.88
898.932	19290.88
899.17	19166.88
899.409	19186.88
899.647	19105.88
899.886	18956.88
900.124	19135.88
900.363	19106.88
900.601	19099.88
900.839	19147.88
901.078	19160.88
901.316	19192.88
901.554	19203.88
901.792	19257.88
902.03	19284.88
902.268	19292.88
902.506	19191.88
902.744	19050.88
902.982	18920.88
903.22	18697.88
903.458	18366.88
903.695	18231.88
903.933	18011.88
904.171	17763.88
904.409	17466.88
904.646	17352.88
904.884	16929.88
905.121	16886.88
905.359	16674.88
905.596	16550.88
905.833	16308.88
906.071	16315.88
906.308	16164.88
906.545	16217.88
906.783	16095.88
907.02	16158.88
907.257	15991.88
907.494	15993.88
907.731	15938.88
907.968	15883.88
908.205	15788.88
908.442	15675.88
908.679	15524.88
908.915	15481.88
909.152	15334.88
909.389	15120.88
909.626	15056.88
909.862	14939.88
910.099	14903.88
910.335	14820.88
910.572	14820.88
910.808	14757.88
911.045	14691.88
911.281	14663.88
911.518	14648.88
911.754	14505.88
911.99	14493.88
912.226	14226.88
912.463	14137.88
912.699	14041.88
912.935	13880.88
913.171	13946.88
913.407	13785.88
913.643	13683.88
913.879	13540.88
914.114	13435.88
914.35	13255.88
914.586	13095.88
914.822	12951.88
915.057	12947.88
915.293	12789.88
915.529	12668.88
915.764	12793.88
916	12767.88
916.235	12618.88
916.471	12705.88
916.706	12587.88
916.941	12528.88
917.177	12562.88
917.412	12564.88
917.647	12557.88
917.882	12480.88
918.117	12476.88
918.352	12393.88
918.588	12469.88
918.823	12273.88
919.057	12215.88
919.292	11979.88
919.527	11966.88
919.762	11765.88
919.997	11712.88
920.232	11515.88
920.466	11503.88
920.701	11271.88
920.935	11282.88
921.17	11193.88
921.405	11074.88
921.639	11181.88
921.873	11058.88
922.108	11036.88
922.342	11036.88
922.576	10939.88
922.811	10892.88
923.045	10928.88
923.279	10837.88
923.513	10659.88
923.747	10646.88
923.981	10608.88
924.215	10425.88
924.449	10423.88
924.683	10390.88
924.917	10324.88
925.151	10314.88
925.385	10316.88
925.618	10205.88
925.852	10193.88
926.086	10070.88
926.319	10124.88
926.553	10112.88
926.786	10138.88
927.02	10130.88
927.253	10021.88
927.486	10045.88
927.72	9988.88
927.953	10073.88
928.186	10028.88
928.42	9898.88
928.653	9900.88
928.886	9833.88
929.119	9758.88
929.352	9702.88
929.585	9647.88
929.818	9595.88
930.051	9561.88
930.284	9413.88
930.516	9275.88
930.749	9261.88
930.982	9281.88
931.215	9221.88
931.447	9102.88
931.68	9094.88
931.912	9077.88
932.145	9000.88
932.377	9064.88
932.61	9269.88
932.842	8962.88
933.074	9033.88
933.307	9036.88
933.539	9062.88
933.771	9055.88
934.003	8994.88
934.236	8965.88
934.468	9030.88
934.7	8947.88
934.932	8949.88
935.164	8902.88
935.395	8859.88
935.627	8872.88
935.859	8841.88
936.091	8669.88
936.323	8818.88
936.554	8729.88
936.786	8674.88
937.017	8558.88
937.249	8553.88
937.481	8526.88
937.712	8569.88
937.943	8458.88
938.175	8436.88
938.406	8475.88
938.637	8424.88
938.869	8301.88
939.1	8448.88
939.331	8314.88
939.562	8363.88
939.793	8315.88
940.024	8324.88
940.255	8287.88
940.486	8206.88
940.717	8113.88
940.948	8134.88
941.179	8067.88
941.409	8040.88
941.64	8041.88
941.871	8060.88
942.102	8041.88
942.332	7989.88
942.563	8057.88
942.793	7943.88
943.024	7980.88
943.254	8022.88
943.484	8065.88
943.715	7999.88
943.945	7936.88
944.175	7892.88
944.405	7904.88
944.636	7851.88
944.866	7937.88
945.096	7900.88
945.326	7811.88
945.556	7847.88
945.786	7872.88
946.016	7715.88
946.245	7530.88
946.475	7608.88
946.705	7555.88
946.935	7549.88
947.164	7536.88
947.394	7397.88
947.624	7406.88
947.853	7445.88
948.083	7312.88
948.312	7254.88
948.542	7240.88
948.771	7195.88
949	7202.88
949.23	7196.88
949.459	7217.88
949.688	7296.88
949.917	7198.88
950.146	7170.88
950.375	7177.88
950.604	7087.88
950.833	7169.88
951.062	7101.88
951.291	7031.88
951.52	7045.88
951.749	6994.88
951.978	6945.88
952.206	6937.88
952.435	6944.88
952.664	6947.88
952.892	6888.88
953.121	6801.88
953.349	6836.88
953.578	6839.88
953.806	6772.88
954.035	6737.88
954.263	6772.88
954.491	6662.88
954.719	6633.88
954.948	6607.88
955.176	6524.88
955.404	6501.88
955.632	6525.88
955.86	6466.88
956.088	6457.88
956.316	6460.88
956.544	6421.88
956.772	6347.88
956.999	6280.88
957.227	6330.88
957.455	6317.88
957.683	6317.88
957.91	6172.88
958.138	6148.88
958.365	6076.88
958.593	6071.88
958.82	6019.88
959.048	6028.88
959.275	6030.88
959.502	5973.88
959.73	5957.88
959.957	5964.88
960.184	6015.88
960.411	5890.88
960.638	5964.88
960.865	5907.88
961.092	5931.88
961.319	5793.88
961.546	5924.88
961.773	5912.88
962	5870.88
962.227	5914.88
962.454	5772.88
962.68	5843.88
962.907	5750.88
963.134	5707.88
963.36	5721.88
963.587	5691.88
963.813	5591.88
964.04	5594.88
964.266	5536.88
964.493	5606.88
964.719	5562.88
964.945	5512.88
965.171	5409.88
965.398	5420.88
965.624	5387.88
965.85	5313.88
966.076	5311.88
966.302	5313.88
966.528	5268.88
966.754	5295.88
966.98	5262.88
967.206	5188.88
967.431	5154.88
967.657	5214.88
967.883	5190.88
968.109	5126.88
968.334	5075.88
968.56	5058.88
968.785	5027.88
969.011	5043.88
969.236	5084.88
969.462	4965.88
969.687	5035.88
969.912	5046.88
970.138	5044.88
970.363	4988.88
970.588	4947.88
970.813	4971.88
971.038	4829.88
971.263	4897.88
971.488	4914.88
971.713	4920.88
971.938	4827.88
972.163	4724.88
972.388	4777.88
972.613	4746.88
972.838	4771.88
973.062	4697.88
973.287	4668.88
973.512	4587.88
973.736	4615.88
973.961	4575.88
974.185	4577.88
974.41	4549.88
974.634	4473.88
974.858	4499.88
975.083	4479.88
975.307	4449.88
975.531	4383.88
975.755	4319.88
975.98	4338.88
976.204	4265.88
976.428	4251.88
976.652	4225.88
976.876	4205.88
977.1	4224.88
977.324	4139.88
977.547	4209.88
977.771	4190.88
977.995	4161.88
978.219	4095.88
978.442	4180.88
978.666	4116.88
978.89	4095.88
979.113	4064.88
979.337	4105.88
979.56	4055.88
979.783	4109.88
980.007	4032.88
980.23	4018.88
980.453	3950.88
980.677	3979.88
980.9	3958.88
981.123	3852.88
981.346	3900.88
981.569	3883.88
981.792	3945.88
982.015	3864.88
982.238	3827.88
982.461	3813.88
982.684	3748.88
982.907	3731.88
983.129	3743.88
983.352	3769.88
983.575	3742.88
983.797	3696.88
984.02	3659.88
984.242	3629.88
984.465	3586.88
984.687	3630.88
984.91	3642.88
985.132	3590.88
985.354	3618.88
985.577	3549.88
985.799	3504.88
986.021	3436.88
986.243	3456.88
986.465	3457.88
986.687	3534.88
986.909	3543.88
987.131	3448.88
987.353	3441.88
987.575	3441.88
987.797	3405.88
988.019	3340.88
988.241	3378.88
988.462	3278.88
988.684	3362.88
988.906	3394.88
989.127	3481.88
989.349	3285.88
989.57	3272.88
989.792	3304.88
990.013	3323.88
990.234	3278.88
990.456	3324.88
990.677	3323.88
990.898	3249.88
991.119	3185.88
991.341	3301.88
991.562	3162.88
991.783	3202.88
992.004	3134.88
992.225	3087.88
992.446	3158.88
992.667	3026.88
992.887	3098.88
993.108	2989.88
993.329	3128.88
993.55	3064.88
993.77	2954.88
993.991	2974.88
994.212	2982.88
994.432	2911.88
994.653	2961.88
994.873	2951.88
995.093	2823.88
995.314	2842.88
995.534	2922.88
995.754	2858.88
995.975	2921.88
996.195	2804.88
996.415	2860.88
996.635	2829.88
996.855	2890.88
997.075	2818.88
997.295	2820.88
997.515	2771.88
997.735	2799.88
997.955	2780.88
998.174	2790.88
998.394	2750.88
998.614	2792.88
998.834	2732.88
999.053	2794.88
999.273	2760.88
999.492	2791.88
999.712	2736.88
999.931	2680.88
1000.151	2759.88
1000.37	2704.88
1000.589	2700.88
1000.809	2606.88
1001.028	2694.88
1001.247	2645.88
1001.466	2559.88
1001.685	2665.88
1001.904	2586.88
1002.123	2577.88
1002.342	2562.88
1002.561	2491.88
1002.78	2559.88
1002.999	2577.88
1003.218	2530.88
1003.436	2455.88
1003.655	2527.88
1003.874	2457.88
1004.092	2469.88
1004.311	2514.88
1004.53	2462.88
1004.748	2510.88
1004.966	2410.88
1005.185	2496.88
1005.403	2448.88
1005.622	2428.88
1005.84	2473.88
1006.058	2386.88
1006.276	2425.88
1006.494	2861.88
1006.712	2424.88
1006.931	2480.88
1007.149	2381.88
1007.367	2379.88
1007.584	2430.88
1007.802	2438.88
1008.02	2398.88
1008.238	2497.88
1008.456	2492.88
1008.673	2348.88
1008.891	2440.88
1009.109	2411.88
1009.326	2458.88
1009.544	2551.88
1009.761	2473.88
1009.979	2578.88
1010.196	2640.88
1010.413	2754.88
1010.631	2833.88
1010.848	2873.88
1011.065	2866.88
1011.282	2815.88
1011.5	2760.88
1011.717	2882.88
1011.934	2805.88
1012.151	2819.88
1012.368	2795.88
1012.585	2731.88
1012.801	2758.88
1013.018	2739.88
1013.235	2716.88
1013.452	2741.88
1013.669	2775.88
1013.885	2731.88
1014.102	2817.88
1014.318	2741.88
1014.535	2705.88
1014.751	2699.88
1014.968	2713.88
1015.184	2731.88
1015.401	2647.88
1015.617	2607.88
1015.833	2568.88
1016.049	2585.88
1016.266	2521.88
1016.482	2550.88
1016.698	2471.88
1016.914	2467.88
1017.13	2426.88
1017.346	2439.88
1017.562	2470.88
1017.778	2409.88
1017.993	2374.88
1018.209	2449.88
1018.425	2376.88
1018.641	2341.88
1018.856	2326.88
1019.072	2374.88
1019.288	2401.88
1019.503	2392.88
1019.719	2289.88
1019.934	2272.88
1020.149	2309.88
1020.365	2271.88
1020.58	2213.88
1020.795	2273.88
1021.011	2150.88
1021.226	2124.88
1021.441	2099.88
1021.656	2004.88
1021.871	1953.88
1022.086	1942.88
1022.301	1914.88
1022.516	1910.88
1022.731	1946.88
1022.946	1851.88
1023.16	1801.88
1023.375	1790.88
1023.59	1756.88
1023.804	1732.88
1024.019	1798.88
1024.234	1620.88
1024.448	1667.88
1024.663	1576.88
1024.877	1563.88
1025.092	1583.88
1025.306	1579.88
1025.52	1454.88
1025.734	1540.88
1025.949	1431.88
1026.163	1392.88
1026.377	1322.88
1026.591	1356.88
1026.805	1297.88
1027.019	1243.88
1027.233	1209.88
1027.447	1162.88
1027.661	1271.88
1027.875	1195.88
1028.088	1190.88
1028.302	1099.88
1028.516	1071.88
1028.73	1069.88
1028.943	1050.88
1029.157	959.88
1029.37	919.88
1029.584	-1.12
1029.797	-4.12
1030.011	-1.12
1030.224	-5.12
