Data from QEP037381__284__16-17-09-906.txt Node

Date: Fri Dec 16 16:17:09 EST 2022
User: dcclab
Spectrometer: QEP03738
Trigger mode: 4
Integration Time (sec): 1.000000E1
Scans to average: 1
Electric dark correction enabled: true
Nonlinearity correction enabled: false
Boxcar width: 0
XAxis mode: Wavelengths
Number of Pixels in Spectrum: 1044
>>>>>Begin Spectral Data<<<<<
784.041	15.75
784.3	-2.25
784.558	0.75
784.817	-2.25
785.075	107541.75
785.334	18879.75
785.592	8892.75
785.851	6162.75
786.109	4608.75
786.368	3556.75
786.626	2856.75
786.884	2422.75
787.143	2031.75
787.401	1683.75
787.659	1489.75
787.917	1303.75
788.175	1167.75
788.433	1022.75
788.691	911.75
788.949	849.75
789.207	837.75
789.465	712.75
789.723	675.75
789.98	616.75
790.238	678.75
790.496	636.75
790.753	590.75
791.011	641.75
791.268	574.75
791.526	546.75
791.783	573.75
792.041	552.75
792.298	476.75
792.556	522.75
792.813	501.75
793.07	497.75
793.327	484.75
793.584	550.75
793.841	479.75
794.099	489.75
794.356	554.75
794.613	459.75
794.869	488.75
795.126	474.75
795.383	441.75
795.64	468.75
795.897	415.75
796.153	465.75
796.41	455.75
796.667	444.75
796.923	456.75
797.18	477.75
797.436	481.75
797.693	446.75
797.949	497.75
798.206	525.75
798.462	456.75
798.718	520.75
798.974	496.75
799.231	524.75
799.487	527.75
799.743	529.75
799.999	554.75
800.255	555.75
800.511	544.75
800.767	596.75
801.023	606.75
801.279	642.75
801.534	677.75
801.79	759.75
802.046	825.75
802.302	965.75
802.557	1127.75
802.813	1411.75
803.068	1800.75
803.324	2487.75
803.579	3418.75
803.835	4803.75
804.09	6544.75
804.345	8616.75
804.601	10978.75
804.856	13237.75
805.111	15429.75
805.366	17021.75
805.621	18217.75
805.876	19136.75
806.131	19699.75
806.386	20141.75
806.641	20353.75
806.896	20787.75
807.151	21085.75
807.406	21421.75
807.661	21777.75
807.915	22256.75
808.17	22556.75
808.425	22795.75
808.679	22984.75
808.934	23384.75
809.188	23482.75
809.443	23780.75
809.697	24079.75
809.951	24171.75
810.206	24488.75
810.46	24580.75
810.714	24887.75
810.968	25222.75
811.223	25270.75
811.477	25559.75
811.731	25714.75
811.985	25777.75
812.239	25924.75
812.493	26133.75
812.747	26261.75
813	26222.75
813.254	26417.75
813.508	26581.75
813.762	26712.75
814.015	26913.75
814.269	27007.75
814.522	27342.75
814.776	27620.75
815.03	27808.75
815.283	28391.75
815.536	28813.75
815.79	29273.75
816.043	29817.75
816.296	30108.75
816.55	30494.75
816.803	30695.75
817.056	31303.75
817.309	31584.75
817.562	31817.75
817.815	32285.75
818.068	32433.75
818.321	32670.75
818.574	33027.75
818.827	33493.75
819.079	33891.75
819.332	34469.75
819.585	34898.75
819.838	35291.75
820.09	35511.75
820.343	35947.75
820.595	35983.75
820.848	36258.75
821.1	36396.75
821.353	36471.75
821.605	36417.75
821.857	36399.75
822.11	36251.75
822.362	36162.75
822.614	36036.75
822.866	36130.75
823.118	36119.75
823.37	36284.75
823.622	36449.75
823.874	36460.75
824.126	36635.75
824.378	36469.75
824.63	36684.75
824.882	36834.75
825.134	36686.75
825.385	36707.75
825.637	36653.75
825.888	36587.75
826.14	36587.75
826.392	36323.75
826.643	36333.75
826.895	35971.75
827.146	35998.75
827.397	35949.75
827.649	36143.75
827.9	35852.75
828.151	35920.75
828.402	36194.75
828.653	36145.75
828.905	36269.75
829.156	36353.75
829.407	36216.75
829.658	36351.75
829.909	36560.75
830.159	36488.75
830.41	36337.75
830.661	36058.75
830.912	35904.75
831.162	35693.75
831.413	35772.75
831.664	35673.75
831.914	35509.75
832.165	35562.75
832.415	35586.75
832.666	35662.75
832.916	35728.75
833.167	35541.75
833.417	35755.75
833.667	35455.75
833.917	35431.75
834.168	35288.75
834.418	35287.75
834.668	35176.75
834.918	34929.75
835.168	34869.75
835.418	34673.75
835.668	34523.75
835.918	34608.75
836.167	34623.75
836.417	34428.75
836.667	34442.75
836.917	34385.75
837.166	34247.75
837.416	34386.75
837.666	34297.75
837.915	34288.75
838.165	34233.75
838.414	34036.75
838.663	34013.75
838.913	34042.75
839.162	33867.75
839.411	33894.75
839.661	33791.75
839.91	33712.75
840.159	33602.75
840.408	33666.75
840.657	33646.75
840.906	33588.75
841.155	33732.75
841.404	33666.75
841.653	33715.75
841.902	33735.75
842.15	33837.75
842.399	33871.75
842.648	33761.75
842.897	33621.75
843.145	33388.75
843.394	33196.75
843.642	33093.75
843.891	32904.75
844.139	32770.75
844.388	32558.75
844.636	32448.75
844.884	32548.75
845.133	32440.75
845.381	32474.75
845.629	32466.75
845.877	32391.75
846.125	32385.75
846.373	32284.75
846.621	32109.75
846.869	32029.75
847.117	32053.75
847.365	31593.75
847.613	31578.75
847.861	31508.75
848.108	31589.75
848.356	31408.75
848.604	31317.75
848.851	31367.75
849.099	31375.75
849.346	31505.75
849.594	31579.75
849.841	31738.75
850.089	31712.75
850.336	31782.75
850.583	31741.75
850.831	31586.75
851.078	31505.75
851.325	31417.75
851.572	31486.75
851.819	31236.75
852.066	30753.75
852.313	30327.75
852.56	30061.75
852.807	30101.75
853.054	29951.75
853.301	29942.75
853.548	29932.75
853.794	30106.75
854.041	30146.75
854.288	30344.75
854.534	30509.75
854.781	30538.75
855.028	30376.75
855.274	30372.75
855.52	30211.75
855.767	29955.75
856.013	30052.75
856.26	30421.75
856.506	29690.75
856.752	29710.75
856.998	29804.75
857.244	29786.75
857.49	30100.75
857.736	30018.75
857.982	29985.75
858.228	30081.75
858.474	29796.75
858.72	29548.75
858.966	29325.75
859.212	29000.75
859.458	28759.75
859.703	28446.75
859.949	28233.75
860.195	28091.75
860.44	27909.75
860.686	27838.75
860.931	27869.75
861.177	27568.75
861.422	27528.75
861.667	27535.75
861.913	27526.75
862.158	27569.75
862.403	27530.75
862.648	27614.75
862.893	27610.75
863.138	27654.75
863.384	27522.75
863.629	27560.75
863.873	27532.75
864.118	27458.75
864.363	27207.75
864.608	27300.75
864.853	27175.75
865.098	26971.75
865.342	26883.75
865.587	26729.75
865.832	26830.75
866.076	26730.75
866.321	26640.75
866.565	26626.75
866.81	26549.75
867.054	26468.75
867.298	26241.75
867.543	26248.75
867.787	26202.75
868.031	26066.75
868.275	25999.75
868.519	26047.75
868.764	26035.75
869.008	25973.75
869.252	25871.75
869.496	25789.75
869.739	25769.75
869.983	25765.75
870.227	25801.75
870.471	25747.75
870.715	25772.75
870.958	25869.75
871.202	25979.75
871.446	25975.75
871.689	25993.75
871.933	26004.75
872.176	25974.75
872.42	25968.75
872.663	25788.75
872.906	25886.75
873.15	25709.75
873.393	25575.75
873.636	25652.75
873.879	25172.75
874.122	25040.75
874.366	24790.75
874.609	24570.75
874.852	24387.75
875.095	24258.75
875.337	24161.75
875.58	24117.75
875.823	23931.75
876.066	23922.75
876.309	23894.75
876.551	23711.75
876.794	23569.75
877.037	23619.75
877.279	23405.75
877.522	23502.75
877.764	23532.75
878.007	23459.75
878.249	23400.75
878.491	23385.75
878.734	23419.75
878.976	23256.75
879.218	23111.75
879.46	23130.75
879.702	23002.75
879.945	22746.75
880.187	22588.75
880.429	22464.75
880.671	22264.75
880.912	22248.75
881.154	22252.75
881.396	22014.75
881.638	22191.75
881.88	22065.75
882.121	21937.75
882.363	22090.75
882.605	21935.75
882.846	21829.75
883.088	21901.75
883.329	21982.75
883.571	21849.75
883.812	21998.75
884.053	22376.75
884.295	22767.75
884.536	22853.75
884.777	22663.75
885.018	22584.75
885.259	22459.75
885.5	22463.75
885.742	22524.75
885.982	22218.75
886.223	22181.75
886.464	21988.75
886.705	21863.75
886.946	21676.75
887.187	21229.75
887.428	21205.75
887.668	20849.75
887.909	20614.75
888.15	20464.75
888.39	20240.75
888.631	20158.75
888.871	20069.75
889.111	19815.75
889.352	19812.75
889.592	19637.75
889.833	19397.75
890.073	19309.75
890.313	19297.75
890.553	18975.75
890.793	18971.75
891.033	18963.75
891.273	18831.75
891.513	18744.75
891.753	18742.75
891.993	18737.75
892.233	18764.75
892.473	18781.75
892.713	18684.75
892.952	18688.75
893.192	18769.75
893.432	18729.75
893.671	18701.75
893.911	18509.75
894.15	18497.75
894.39	18336.75
894.629	18223.75
894.869	18174.75
895.108	18083.75
895.347	17976.75
895.587	17939.75
895.826	17820.75
896.065	17881.75
896.304	17857.75
896.543	17778.75
896.782	17628.75
897.021	17646.75
897.26	17621.75
897.499	17591.75
897.738	17677.75
897.977	17504.75
898.216	17328.75
898.454	17207.75
898.693	17065.75
898.932	17043.75
899.17	16923.75
899.409	16853.75
899.647	16824.75
899.886	16815.75
900.124	16770.75
900.363	16782.75
900.601	16884.75
900.839	16884.75
901.078	16947.75
901.316	16990.75
901.554	16960.75
901.792	17087.75
902.03	17025.75
902.268	17116.75
902.506	17109.75
902.744	16937.75
902.982	16812.75
903.22	16571.75
903.458	16315.75
903.695	16118.75
903.933	15969.75
904.171	15624.75
904.409	15429.75
904.646	15365.75
904.884	15024.75
905.121	14970.75
905.359	14805.75
905.596	14593.75
905.833	14481.75
906.071	14394.75
906.308	14377.75
906.545	14402.75
906.783	14272.75
907.02	14312.75
907.257	14188.75
907.494	14209.75
907.731	14153.75
907.968	14148.75
908.205	13974.75
908.442	13881.75
908.679	13789.75
908.915	13717.75
909.152	13614.75
909.389	13454.75
909.626	13374.75
909.862	13261.75
910.099	13180.75
910.335	13321.75
910.572	13066.75
910.808	13074.75
911.045	13108.75
911.281	12947.75
911.518	12968.75
911.754	12909.75
911.99	12830.75
912.226	12748.75
912.463	12631.75
912.699	12481.75
912.935	12448.75
913.171	12310.75
913.407	12222.75
913.643	12199.75
913.879	12077.75
914.114	12014.75
914.35	11802.75
914.586	11715.75
914.822	11668.75
915.057	11626.75
915.293	11410.75
915.529	11371.75
915.764	11459.75
916	11401.75
916.235	11338.75
916.471	11323.75
916.706	11212.75
916.941	11265.75
917.177	11186.75
917.412	11209.75
917.647	11195.75
917.882	11173.75
918.117	11142.75
918.352	11018.75
918.588	11080.75
918.823	10946.75
919.057	10828.75
919.292	10720.75
919.527	10763.75
919.762	10549.75
919.997	10499.75
920.232	10348.75
920.466	10328.75
920.701	10129.75
920.935	10060.75
921.17	10056.75
921.405	10024.75
921.639	9946.75
921.873	9904.75
922.108	9963.75
922.342	9837.75
922.576	9779.75
922.811	9683.75
923.045	9733.75
923.279	9756.75
923.513	9558.75
923.747	9598.75
923.981	9584.75
924.215	9415.75
924.449	9336.75
924.683	9291.75
924.917	9270.75
925.151	9153.75
925.385	9321.75
925.618	9150.75
925.852	9140.75
926.086	9093.75
926.319	9114.75
926.553	9047.75
926.786	9103.75
927.02	9139.75
927.253	9031.75
927.486	9090.75
927.72	8979.75
927.953	9053.75
928.186	8876.75
928.42	8924.75
928.653	8836.75
928.886	8739.75
929.119	8833.75
929.352	8766.75
929.585	8656.75
929.818	8622.75
930.051	8555.75
930.284	8514.75
930.516	8422.75
930.749	8269.75
930.982	8350.75
931.215	8337.75
931.447	8209.75
931.68	8162.75
931.912	8104.75
932.145	8210.75
932.377	8131.75
932.61	8266.75
932.842	8141.75
933.074	8198.75
933.307	8114.75
933.539	8214.75
933.771	8174.75
934.003	8101.75
934.236	8154.75
934.468	8100.75
934.7	8043.75
934.932	8082.75
935.164	8016.75
935.395	7947.75
935.627	7924.75
935.859	7928.75
936.091	7803.75
936.323	7888.75
936.554	7811.75
936.786	7773.75
937.017	7680.75
937.249	7751.75
937.481	7685.75
937.712	7713.75
937.943	7678.75
938.175	7618.75
938.406	7640.75
938.637	7678.75
938.869	7560.75
939.1	7634.75
939.331	7534.75
939.562	7544.75
939.793	7549.75
940.024	7472.75
940.255	7488.75
940.486	7377.75
940.717	7334.75
940.948	7298.75
941.179	7231.75
941.409	7242.75
941.64	7224.75
941.871	7243.75
942.102	7236.75
942.332	7272.75
942.563	7212.75
942.793	7225.75
943.024	7190.75
943.254	7196.75
943.484	7237.75
943.715	7226.75
943.945	7227.75
944.175	7150.75
944.405	7129.75
944.636	7200.75
944.866	7172.75
945.096	7157.75
945.326	7058.75
945.556	7051.75
945.786	7022.75
946.016	6971.75
946.245	6870.75
946.475	6892.75
946.705	6891.75
946.935	6826.75
947.164	6797.75
947.394	6686.75
947.624	6692.75
947.853	6704.75
948.083	6661.75
948.312	6595.75
948.542	6541.75
948.771	6515.75
949	6524.75
949.23	6487.75
949.459	6517.75
949.688	6585.75
949.917	6451.75
950.146	6483.75
950.375	6523.75
950.604	6392.75
950.833	6528.75
951.062	6492.75
951.291	6424.75
951.52	6392.75
951.749	6417.75
951.978	6327.75
952.206	6331.75
952.435	6261.75
952.664	6322.75
952.892	6237.75
953.121	6245.75
953.349	6195.75
953.578	6204.75
953.806	6178.75
954.035	6095.75
954.263	6074.75
954.491	6014.75
954.719	6067.75
954.948	5978.75
955.176	5983.75
955.404	5870.75
955.632	5918.75
955.86	5866.75
956.088	5816.75
956.316	5838.75
956.544	5844.75
956.772	5753.75
956.999	5761.75
957.227	5787.75
957.455	5634.75
957.683	5672.75
957.91	5576.75
958.138	5543.75
958.365	5603.75
958.593	5514.75
958.82	5448.75
959.048	5513.75
959.275	5443.75
959.502	5452.75
959.73	5400.75
959.957	5391.75
960.184	5427.75
960.411	5323.75
960.638	5410.75
960.865	5406.75
961.092	5363.75
961.319	5325.75
961.546	5369.75
961.773	5353.75
962	5307.75
962.227	5373.75
962.454	5302.75
962.68	5295.75
962.907	5261.75
963.134	5168.75
963.36	5176.75
963.587	5179.75
963.813	5079.75
964.04	5080.75
964.266	5006.75
964.493	5069.75
964.719	5080.75
964.945	5000.75
965.171	4893.75
965.398	4934.75
965.624	4912.75
965.85	4866.75
966.076	4794.75
966.302	4895.75
966.528	4781.75
966.754	4798.75
966.98	4814.75
967.206	4746.75
967.431	4696.75
967.657	4753.75
967.883	4720.75
968.109	4691.75
968.334	4640.75
968.56	4637.75
968.785	4621.75
969.011	4575.75
969.236	4650.75
969.462	4606.75
969.687	4530.75
969.912	4606.75
970.138	4581.75
970.363	4531.75
970.588	4504.75
970.813	4490.75
971.038	4482.75
971.263	4469.75
971.488	4471.75
971.713	4462.75
971.938	4449.75
972.163	4315.75
972.388	4383.75
972.613	4288.75
972.838	4300.75
973.062	4295.75
973.287	4237.75
973.512	4170.75
973.736	4274.75
973.961	4175.75
974.185	4165.75
974.41	4204.75
974.634	4088.75
974.858	4039.75
975.083	4065.75
975.307	4134.75
975.531	3999.75
975.755	3953.75
975.98	3968.75
976.204	3918.75
976.428	3850.75
976.652	3869.75
976.876	3862.75
977.1	3857.75
977.324	3861.75
977.547	3858.75
977.771	3840.75
977.995	3822.75
978.219	3710.75
978.442	3845.75
978.666	3758.75
978.89	3750.75
979.113	3761.75
979.337	3727.75
979.56	3706.75
979.783	3789.75
980.007	3627.75
980.23	3723.75
980.453	3621.75
980.677	3665.75
980.9	3647.75
981.123	3526.75
981.346	3590.75
981.569	3565.75
981.792	3573.75
982.015	3551.75
982.238	3485.75
982.461	3479.75
982.684	3435.75
982.907	3439.75
983.129	3401.75
983.352	3418.75
983.575	3421.75
983.797	3391.75
984.02	3323.75
984.242	3329.75
984.465	3313.75
984.687	3340.75
984.91	3332.75
985.132	3267.75
985.354	3323.75
985.577	3288.75
985.799	3215.75
986.021	3159.75
986.243	3207.75
986.465	3202.75
986.687	3208.75
986.909	3251.75
987.131	3193.75
987.353	3144.75
987.575	3171.75
987.797	3120.75
988.019	3047.75
988.241	3116.75
988.462	3089.75
988.684	3090.75
988.906	3162.75
989.127	3151.75
989.349	3039.75
989.57	3039.75
989.792	3085.75
990.013	3059.75
990.234	3100.75
990.456	3115.75
990.677	3049.75
990.898	2966.75
991.119	2977.75
991.341	3016.75
991.562	2934.75
991.783	2953.75
992.004	2891.75
992.225	2817.75
992.446	2838.75
992.667	2817.75
992.887	2838.75
993.108	2739.75
993.329	2864.75
993.55	2799.75
993.77	2721.75
993.991	2705.75
994.212	2750.75
994.432	2727.75
994.653	2755.75
994.873	2724.75
995.093	2567.75
995.314	2634.75
995.534	2679.75
995.754	2687.75
995.975	2705.75
996.195	2612.75
996.415	2634.75
996.635	2616.75
996.855	2599.75
997.075	2585.75
997.295	2606.75
997.515	2630.75
997.735	2652.75
997.955	2587.75
998.174	2558.75
998.394	2523.75
998.614	2587.75
998.834	2538.75
999.053	2586.75
999.273	2541.75
999.492	2608.75
999.712	2518.75
999.931	2474.75
1000.151	2540.75
1000.37	2483.75
1000.589	2508.75
1000.809	2425.75
1001.028	2543.75
1001.247	2476.75
1001.466	2345.75
1001.685	2479.75
1001.904	2421.75
1002.123	2390.75
1002.342	2410.75
1002.561	2319.75
1002.78	2364.75
1002.999	2403.75
1003.218	2339.75
1003.436	2338.75
1003.655	2379.75
1003.874	2257.75
1004.092	2311.75
1004.311	2323.75
1004.53	2279.75
1004.748	2356.75
1004.966	2252.75
1005.185	2325.75
1005.403	2311.75
1005.622	2267.75
1005.84	2332.75
1006.058	2234.75
1006.276	2244.75
1006.494	2738.75
1006.712	2279.75
1006.931	2323.75
1007.149	2207.75
1007.367	2225.75
1007.584	2271.75
1007.802	2301.75
1008.02	2238.75
1008.238	2324.75
1008.456	2351.75
1008.673	2224.75
1008.891	2327.75
1009.109	2289.75
1009.326	2308.75
1009.544	2446.75
1009.761	2345.75
1009.979	2466.75
1010.196	2508.75
1010.413	2622.75
1010.631	2665.75
1010.848	2725.75
1011.065	2783.75
1011.282	2696.75
1011.5	2649.75
1011.717	2774.75
1011.934	2658.75
1012.151	2664.75
1012.368	2696.75
1012.585	2614.75
1012.801	2692.75
1013.018	2614.75
1013.235	2554.75
1013.452	2595.75
1013.669	2644.75
1013.885	2638.75
1014.102	2664.75
1014.318	2619.75
1014.535	2609.75
1014.751	2586.75
1014.968	2593.75
1015.184	2598.75
1015.401	2506.75
1015.617	2523.75
1015.833	2434.75
1016.049	2461.75
1016.266	2408.75
1016.482	2436.75
1016.698	2351.75
1016.914	2394.75
1017.13	2307.75
1017.346	2278.75
1017.562	2398.75
1017.778	2283.75
1017.993	2271.75
1018.209	2304.75
1018.425	2276.75
1018.641	2238.75
1018.856	2209.75
1019.072	2217.75
1019.288	2269.75
1019.503	2217.75
1019.719	2142.75
1019.934	2140.75
1020.149	2194.75
1020.365	2135.75
1020.58	2088.75
1020.795	2105.75
1021.011	2048.75
1021.226	1968.75
1021.441	1980.75
1021.656	1886.75
1021.871	1844.75
1022.086	1803.75
1022.301	1792.75
1022.516	1758.75
1022.731	1829.75
1022.946	1748.75
1023.16	1697.75
1023.375	1684.75
1023.59	1650.75
1023.804	1595.75
1024.019	1683.75
1024.234	1524.75
1024.448	1574.75
1024.663	1487.75
1024.877	1488.75
1025.092	1484.75
1025.306	1487.75
1025.52	1349.75
1025.734	1436.75
1025.949	1366.75
1026.163	1312.75
1026.377	1241.75
1026.591	1263.75
1026.805	1200.75
1027.019	1231.75
1027.233	1154.75
1027.447	1092.75
1027.661	1189.75
1027.875	1123.75
1028.088	1105.75
1028.302	1045.75
1028.516	1044.75
1028.73	990.75
1028.943	1000.75
1029.157	920.75
1029.37	866.75
1029.584	-2.25
1029.797	-2.25
1030.011	-3.25
1030.224	-4.25
