Data from QEP037381__306__16-20-49-910.txt Node

Date: Fri Dec 16 16:20:49 EST 2022
User: dcclab
Spectrometer: QEP03738
Trigger mode: 4
Integration Time (sec): 1.000000E1
Scans to average: 1
Electric dark correction enabled: true
Nonlinearity correction enabled: false
Boxcar width: 0
XAxis mode: Wavelengths
Number of Pixels in Spectrum: 1044
>>>>>Begin Spectral Data<<<<<
784.041	13.38
784.3	0.38
784.558	-2.62
784.817	-5.62
785.075	110151.38
785.334	19474.38
785.592	9209.38
785.851	6386.38
786.109	4780.38
786.368	3765.38
786.626	3003.38
786.884	2482.38
787.143	2090.38
787.401	1712.38
787.659	1560.38
787.917	1302.38
788.175	1226.38
788.433	1057.38
788.691	934.38
788.949	887.38
789.207	828.38
789.465	720.38
789.723	693.38
789.98	642.38
790.238	667.38
790.496	627.38
790.753	589.38
791.011	628.38
791.268	566.38
791.526	551.38
791.783	571.38
792.041	552.38
792.298	470.38
792.556	531.38
792.813	505.38
793.07	488.38
793.327	469.38
793.584	548.38
793.841	454.38
794.099	486.38
794.356	537.38
794.613	437.38
794.869	476.38
795.126	446.38
795.383	420.38
795.64	455.38
795.897	408.38
796.153	468.38
796.41	446.38
796.667	432.38
796.923	439.38
797.18	446.38
797.436	458.38
797.693	430.38
797.949	467.38
798.206	510.38
798.462	430.38
798.718	489.38
798.974	467.38
799.231	502.38
799.487	501.38
799.743	493.38
799.999	530.38
800.255	522.38
800.511	517.38
800.767	559.38
801.023	552.38
801.279	582.38
801.534	630.38
801.79	685.38
802.046	693.38
802.302	865.38
802.557	966.38
802.813	1206.38
803.068	1521.38
803.324	2066.38
803.579	2874.38
803.835	3902.38
804.09	5394.38
804.345	6963.38
804.601	8795.38
804.856	10667.38
805.111	12278.38
805.366	13531.38
805.621	14437.38
805.876	15081.38
806.131	15484.38
806.386	15855.38
806.641	16133.38
806.896	16351.38
807.151	16640.38
807.406	16820.38
807.661	17193.38
807.915	17537.38
808.17	17738.38
808.425	17953.38
808.679	18075.38
808.934	18378.38
809.188	18483.38
809.443	18578.38
809.697	18848.38
809.951	18985.38
810.206	19166.38
810.46	19399.38
810.714	19581.38
810.968	19852.38
811.223	19839.38
811.477	20012.38
811.731	20247.38
811.985	20244.38
812.239	20446.38
812.493	20322.38
812.747	20518.38
813	20566.38
813.254	20713.38
813.508	20803.38
813.762	20858.38
814.015	20893.38
814.269	21028.38
814.522	21222.38
814.776	21464.38
815.03	21866.38
815.283	21995.38
815.536	22396.38
815.79	22865.38
816.043	23121.38
816.296	23296.38
816.55	23656.38
816.803	23889.38
817.056	24131.38
817.309	24411.38
817.562	24733.38
817.815	24911.38
818.068	25164.38
818.321	25256.38
818.574	25631.38
818.827	25923.38
819.079	26255.38
819.332	26586.38
819.585	26961.38
819.838	27312.38
820.09	27387.38
820.343	27680.38
820.595	27661.38
820.848	28056.38
821.1	28137.38
821.353	28067.38
821.605	28051.38
821.857	28048.38
822.11	27907.38
822.362	27887.38
822.614	27775.38
822.866	27928.38
823.118	27715.38
823.37	28003.38
823.622	28119.38
823.874	28033.38
824.126	28288.38
824.378	28164.38
824.63	28254.38
824.882	28329.38
825.134	28337.38
825.385	28201.38
825.637	28231.38
825.888	28153.38
826.14	28056.38
826.392	27839.38
826.643	27876.38
826.895	27626.38
827.146	27585.38
827.397	27592.38
827.649	27710.38
827.9	27474.38
828.151	27457.38
828.402	27641.38
828.653	27698.38
828.905	27745.38
829.156	27806.38
829.407	27663.38
829.658	27784.38
829.909	27905.38
830.159	27960.38
830.41	27723.38
830.661	27543.38
830.912	27413.38
831.162	27190.38
831.413	27167.38
831.664	27266.38
831.914	27242.38
832.165	27146.38
832.415	27098.38
832.666	27078.38
832.916	27197.38
833.167	27159.38
833.417	27136.38
833.667	27035.38
833.917	26955.38
834.168	26977.38
834.418	26750.38
834.668	26680.38
834.918	26642.38
835.168	26376.38
835.418	26393.38
835.668	26196.38
835.918	26154.38
836.167	26001.38
836.417	26031.38
836.667	25985.38
836.917	25996.38
837.166	25899.38
837.416	25996.38
837.666	25967.38
837.915	25923.38
838.165	25918.38
838.414	25721.38
838.663	25792.38
838.913	25863.38
839.162	25711.38
839.411	25759.38
839.661	25508.38
839.91	25499.38
840.159	25501.38
840.408	25510.38
840.657	25463.38
840.906	25459.38
841.155	25522.38
841.404	25475.38
841.653	25343.38
841.902	25546.38
842.15	25579.38
842.399	25561.38
842.648	25513.38
842.897	25400.38
843.145	25157.38
843.394	25102.38
843.642	24863.38
843.891	24806.38
844.139	24606.38
844.388	24529.38
844.636	24378.38
844.884	24455.38
845.133	24446.38
845.381	24277.38
845.629	24399.38
845.877	24411.38
846.125	24249.38
846.373	24227.38
846.621	24147.38
846.869	24106.38
847.117	23897.38
847.365	23807.38
847.613	23767.38
847.861	23679.38
848.108	23642.38
848.356	23570.38
848.604	23503.38
848.851	23592.38
849.099	23465.38
849.346	23552.38
849.594	23674.38
849.841	23696.38
850.089	23737.38
850.336	23725.38
850.583	23670.38
850.831	23496.38
851.078	23545.38
851.325	23480.38
851.572	23615.38
851.819	23383.38
852.066	22868.38
852.313	22630.38
852.56	22400.38
852.807	22490.38
853.054	22260.38
853.301	22307.38
853.548	22297.38
853.794	22419.38
854.041	22486.38
854.288	22526.38
854.534	22598.38
854.781	22680.38
855.028	22558.38
855.274	22588.38
855.52	22386.38
855.767	22355.38
856.013	22336.38
856.26	22633.38
856.506	22257.38
856.752	22087.38
856.998	22279.38
857.244	22204.38
857.49	22373.38
857.736	22389.38
857.982	22311.38
858.228	22292.38
858.474	22039.38
858.72	21911.38
858.966	21674.38
859.212	21511.38
859.458	21258.38
859.703	20976.38
859.949	20830.38
860.195	20785.38
860.44	20598.38
860.686	20388.38
860.931	20591.38
861.177	20458.38
861.422	20309.38
861.667	20160.38
861.913	20143.38
862.158	20144.38
862.403	20232.38
862.648	20273.38
862.893	20274.38
863.138	20173.38
863.384	20075.38
863.629	20116.38
863.873	20177.38
864.118	20075.38
864.363	20012.38
864.608	19932.38
864.853	19884.38
865.098	19772.38
865.342	19674.38
865.587	19483.38
865.832	19444.38
866.076	19563.38
866.321	19427.38
866.565	19418.38
866.81	19251.38
867.054	19297.38
867.298	19106.38
867.543	19089.38
867.787	19166.38
868.031	19051.38
868.275	19005.38
868.519	18986.38
868.764	18921.38
869.008	18898.38
869.252	18922.38
869.496	18779.38
869.739	18832.38
869.983	18955.38
870.227	18734.38
870.471	18901.38
870.715	18918.38
870.958	18925.38
871.202	18981.38
871.446	18945.38
871.689	18996.38
871.933	19012.38
872.176	18970.38
872.42	18874.38
872.663	18740.38
872.906	18810.38
873.15	18888.38
873.393	18793.38
873.636	18859.38
873.879	18606.38
874.122	18336.38
874.366	18100.38
874.609	17894.38
874.852	17689.38
875.095	17654.38
875.337	17617.38
875.58	17466.38
875.823	17430.38
876.066	17368.38
876.309	17275.38
876.551	17230.38
876.794	16984.38
877.037	17135.38
877.279	17016.38
877.522	17022.38
877.764	17019.38
878.007	16902.38
878.249	16907.38
878.491	16804.38
878.734	16884.38
878.976	16759.38
879.218	16650.38
879.46	16525.38
879.702	16483.38
879.945	16357.38
880.187	16159.38
880.429	16058.38
880.671	15998.38
880.912	15957.38
881.154	16008.38
881.396	15798.38
881.638	15886.38
881.88	15873.38
882.121	15801.38
882.363	15792.38
882.605	15740.38
882.846	15728.38
883.088	15780.38
883.329	15737.38
883.571	15820.38
883.812	15902.38
884.053	16299.38
884.295	16547.38
884.536	16854.38
884.777	16741.38
885.018	16658.38
885.259	16507.38
885.5	16384.38
885.742	16516.38
885.982	16210.38
886.223	16108.38
886.464	16030.38
886.705	15764.38
886.946	15679.38
887.187	15238.38
887.428	15171.38
887.668	14948.38
887.909	14631.38
888.15	14462.38
888.39	14460.38
888.631	14341.38
888.871	14137.38
889.111	14080.38
889.352	14008.38
889.592	13906.38
889.833	13690.38
890.073	13654.38
890.313	13654.38
890.553	13497.38
890.793	13434.38
891.033	13387.38
891.273	13280.38
891.513	13245.38
891.753	13271.38
891.993	13179.38
892.233	13181.38
892.473	13226.38
892.713	13273.38
892.952	13188.38
893.192	13289.38
893.432	13145.38
893.671	13254.38
893.911	13141.38
894.15	13074.38
894.39	12993.38
894.629	12928.38
894.869	12856.38
895.108	12709.38
895.347	12698.38
895.587	12636.38
895.826	12621.38
896.065	12664.38
896.304	12647.38
896.543	12640.38
896.782	12432.38
897.021	12493.38
897.26	12501.38
897.499	12497.38
897.738	12443.38
897.977	12319.38
898.216	12286.38
898.454	12123.38
898.693	12083.38
898.932	12092.38
899.17	12039.38
899.409	11942.38
899.647	11947.38
899.886	11911.38
900.124	11898.38
900.363	11918.38
900.601	12038.38
900.839	12041.38
901.078	12099.38
901.316	12166.38
901.554	12217.38
901.792	12187.38
902.03	12236.38
902.268	12244.38
902.506	12237.38
902.744	12068.38
902.982	12017.38
903.22	11828.38
903.458	11636.38
903.695	11554.38
903.933	11268.38
904.171	11097.38
904.409	10885.38
904.646	10803.38
904.884	10562.38
905.121	10507.38
905.359	10388.38
905.596	10302.38
905.833	10151.38
906.071	10096.38
906.308	10148.38
906.545	10016.38
906.783	9987.38
907.02	10001.38
907.257	9936.38
907.494	9947.38
907.731	9945.38
907.968	9934.38
908.205	9790.38
908.442	9695.38
908.679	9631.38
908.915	9578.38
909.152	9512.38
909.389	9390.38
909.626	9397.38
909.862	9282.38
910.099	9228.38
910.335	9258.38
910.572	9063.38
910.808	9075.38
911.045	9095.38
911.281	9022.38
911.518	9096.38
911.754	8950.38
911.99	8848.38
912.226	8865.38
912.463	8752.38
912.699	8673.38
912.935	8650.38
913.171	8595.38
913.407	8442.38
913.643	8461.38
913.879	8427.38
914.114	8287.38
914.35	8208.38
914.586	8160.38
914.822	7984.38
915.057	8087.38
915.293	7908.38
915.529	7928.38
915.764	7980.38
916	7866.38
916.235	7871.38
916.471	7899.38
916.706	7708.38
916.941	7762.38
917.177	7768.38
917.412	7751.38
917.647	7752.38
917.882	7735.38
918.117	7757.38
918.352	7748.38
918.588	7751.38
918.823	7562.38
919.057	7556.38
919.292	7335.38
919.527	7467.38
919.762	7298.38
919.997	7275.38
920.232	7171.38
920.466	7103.38
920.701	7005.38
920.935	7031.38
921.17	6948.38
921.405	6931.38
921.639	6885.38
921.873	6882.38
922.108	6832.38
922.342	6846.38
922.576	6745.38
922.811	6739.38
923.045	6809.38
923.279	6779.38
923.513	6610.38
923.747	6689.38
923.981	6616.38
924.215	6560.38
924.449	6485.38
924.683	6434.38
924.917	6448.38
925.151	6391.38
925.385	6411.38
925.618	6350.38
925.852	6404.38
926.086	6279.38
926.319	6312.38
926.553	6339.38
926.786	6297.38
927.02	6313.38
927.253	6328.38
927.486	6284.38
927.72	6240.38
927.953	6256.38
928.186	6242.38
928.42	6229.38
928.653	6138.38
928.886	6080.38
929.119	6126.38
929.352	6055.38
929.585	6009.38
929.818	5962.38
930.051	5991.38
930.284	5898.38
930.516	5826.38
930.749	5790.38
930.982	5760.38
931.215	5783.38
931.447	5706.38
931.68	5704.38
931.912	5717.38
932.145	5681.38
932.377	5682.38
932.61	5784.38
932.842	5580.38
933.074	5649.38
933.307	5605.38
933.539	5678.38
933.771	5693.38
934.003	5581.38
934.236	5683.38
934.468	5691.38
934.7	5597.38
934.932	5624.38
935.164	5561.38
935.395	5525.38
935.627	5514.38
935.859	5496.38
936.091	5473.38
936.323	5497.38
936.554	5484.38
936.786	5447.38
937.017	5398.38
937.249	5387.38
937.481	5341.38
937.712	5404.38
937.943	5347.38
938.175	5324.38
938.406	5328.38
938.637	5359.38
938.869	5283.38
939.1	5271.38
939.331	5233.38
939.562	5285.38
939.793	5177.38
940.024	5244.38
940.255	5276.38
940.486	5170.38
940.717	5139.38
940.948	5165.38
941.179	5053.38
941.409	5148.38
941.64	5031.38
941.871	5075.38
942.102	5021.38
942.332	5046.38
942.563	5078.38
942.793	5059.38
943.024	4998.38
943.254	4999.38
943.484	5054.38
943.715	5084.38
943.945	5069.38
944.175	4946.38
944.405	4975.38
944.636	4989.38
944.866	4987.38
945.096	4985.38
945.326	4945.38
945.556	4922.38
945.786	4933.38
946.016	4861.38
946.245	4844.38
946.475	4754.38
946.705	4796.38
946.935	4739.38
947.164	4740.38
947.394	4668.38
947.624	4657.38
947.853	4732.38
948.083	4584.38
948.312	4623.38
948.542	4558.38
948.771	4555.38
949	4554.38
949.23	4596.38
949.459	4568.38
949.688	4596.38
949.917	4517.38
950.146	4512.38
950.375	4557.38
950.604	4470.38
950.833	4557.38
951.062	4551.38
951.291	4480.38
951.52	4422.38
951.749	4470.38
951.978	4364.38
952.206	4425.38
952.435	4391.38
952.664	4411.38
952.892	4416.38
953.121	4364.38
953.349	4361.38
953.578	4355.38
953.806	4261.38
954.035	4270.38
954.263	4246.38
954.491	4205.38
954.719	4206.38
954.948	4166.38
955.176	4165.38
955.404	4089.38
955.632	4138.38
955.86	4157.38
956.088	4119.38
956.316	4114.38
956.544	4100.38
956.772	4013.38
956.999	4003.38
957.227	4083.38
957.455	3955.38
957.683	3975.38
957.91	3961.38
958.138	3923.38
958.365	3882.38
958.593	3873.38
958.82	3796.38
959.048	3877.38
959.275	3855.38
959.502	3797.38
959.73	3773.38
959.957	3801.38
960.184	3802.38
960.411	3769.38
960.638	3854.38
960.865	3779.38
961.092	3782.38
961.319	3692.38
961.546	3764.38
961.773	3784.38
962	3747.38
962.227	3745.38
962.454	3711.38
962.68	3699.38
962.907	3717.38
963.134	3673.38
963.36	3653.38
963.587	3663.38
963.813	3593.38
964.04	3603.38
964.266	3501.38
964.493	3612.38
964.719	3555.38
964.945	3566.38
965.171	3413.38
965.398	3451.38
965.624	3450.38
965.85	3412.38
966.076	3443.38
966.302	3436.38
966.528	3376.38
966.754	3452.38
966.98	3410.38
967.206	3417.38
967.431	3336.38
967.657	3345.38
967.883	3319.38
968.109	3357.38
968.334	3248.38
968.56	3293.38
968.785	3273.38
969.011	3225.38
969.236	3299.38
969.462	3199.38
969.687	3247.38
969.912	3262.38
970.138	3245.38
970.363	3216.38
970.588	3216.38
970.813	3181.38
971.038	3158.38
971.263	3177.38
971.488	3166.38
971.713	3175.38
971.938	3163.38
972.163	3050.38
972.388	3104.38
972.613	3044.38
972.838	3060.38
973.062	3052.38
973.287	3039.38
973.512	2975.38
973.736	3050.38
973.961	2988.38
974.185	2929.38
974.41	3007.38
974.634	2882.38
974.858	2906.38
975.083	2901.38
975.307	2908.38
975.531	2884.38
975.755	2805.38
975.98	2802.38
976.204	2757.38
976.428	2748.38
976.652	2745.38
976.876	2675.38
977.1	2773.38
977.324	2689.38
977.547	2775.38
977.771	2767.38
977.995	2728.38
978.219	2708.38
978.442	2802.38
978.666	2682.38
978.89	2672.38
979.113	2693.38
979.337	2654.38
979.56	2615.38
979.783	2719.38
980.007	2602.38
980.23	2663.38
980.453	2607.38
980.677	2615.38
980.9	2626.38
981.123	2479.38
981.346	2617.38
981.569	2579.38
981.792	2582.38
982.015	2555.38
982.238	2486.38
982.461	2521.38
982.684	2457.38
982.907	2458.38
983.129	2440.38
983.352	2483.38
983.575	2459.38
983.797	2500.38
984.02	2409.38
984.242	2433.38
984.465	2430.38
984.687	2444.38
984.91	2408.38
985.132	2402.38
985.354	2386.38
985.577	2395.38
985.799	2388.38
986.021	2275.38
986.243	2310.38
986.465	2326.38
986.687	2356.38
986.909	2403.38
987.131	2315.38
987.353	2271.38
987.575	2298.38
987.797	2301.38
988.019	2228.38
988.241	2275.38
988.462	2199.38
988.684	2282.38
988.906	2338.38
989.127	2324.38
989.349	2206.38
989.57	2220.38
989.792	2259.38
990.013	2252.38
990.234	2250.38
990.456	2274.38
990.677	2241.38
990.898	2200.38
991.119	2183.38
991.341	2246.38
991.562	2130.38
991.783	2221.38
992.004	2141.38
992.225	2082.38
992.446	2148.38
992.667	2092.38
992.887	2105.38
993.108	2007.38
993.329	2138.38
993.55	2096.38
993.77	2009.38
993.991	2022.38
994.212	2038.38
994.432	2049.38
994.653	2010.38
994.873	2041.38
995.093	1926.38
995.314	1972.38
995.534	2043.38
995.754	2051.38
995.975	2028.38
996.195	1936.38
996.415	1967.38
996.635	1966.38
996.855	1982.38
997.075	1966.38
997.295	1961.38
997.515	1929.38
997.735	1979.38
997.955	1944.38
998.174	1950.38
998.394	1913.38
998.614	1955.38
998.834	1946.38
999.053	1969.38
999.273	1955.38
999.492	1996.38
999.712	1929.38
999.931	1901.38
1000.151	1926.38
1000.37	1912.38
1000.589	1923.38
1000.809	1851.38
1001.028	1985.38
1001.247	1898.38
1001.466	1802.38
1001.685	1963.38
1001.904	1852.38
1002.123	1832.38
1002.342	1833.38
1002.561	1772.38
1002.78	1804.38
1002.999	1854.38
1003.218	1811.38
1003.436	1788.38
1003.655	1820.38
1003.874	1750.38
1004.092	1796.38
1004.311	1845.38
1004.53	1794.38
1004.748	1840.38
1004.966	1764.38
1005.185	1827.38
1005.403	1763.38
1005.622	1780.38
1005.84	1863.38
1006.058	1738.38
1006.276	1763.38
1006.494	2321.38
1006.712	1785.38
1006.931	1836.38
1007.149	1740.38
1007.367	1743.38
1007.584	1764.38
1007.802	1837.38
1008.02	1797.38
1008.238	1861.38
1008.456	1882.38
1008.673	1739.38
1008.891	1855.38
1009.109	1834.38
1009.326	1900.38
1009.544	1992.38
1009.761	1944.38
1009.979	2036.38
1010.196	2073.38
1010.413	2210.38
1010.631	2284.38
1010.848	2320.38
1011.065	2315.38
1011.282	2280.38
1011.5	2198.38
1011.717	2325.38
1011.934	2275.38
1012.151	2274.38
1012.368	2251.38
1012.585	2225.38
1012.801	2248.38
1013.018	2237.38
1013.235	2200.38
1013.452	2223.38
1013.669	2260.38
1013.885	2240.38
1014.102	2264.38
1014.318	2228.38
1014.535	2222.38
1014.751	2220.38
1014.968	2235.38
1015.184	2254.38
1015.401	2138.38
1015.617	2179.38
1015.833	2118.38
1016.049	2101.38
1016.266	2060.38
1016.482	2071.38
1016.698	1991.38
1016.914	2038.38
1017.13	1964.38
1017.346	1973.38
1017.562	2040.38
1017.778	1936.38
1017.993	1917.38
1018.209	1968.38
1018.425	1958.38
1018.641	1913.38
1018.856	1908.38
1019.072	1916.38
1019.288	1967.38
1019.503	1895.38
1019.719	1854.38
1019.934	1848.38
1020.149	1889.38
1020.365	1838.38
1020.58	1795.38
1020.795	1810.38
1021.011	1738.38
1021.226	1688.38
1021.441	1723.38
1021.656	1628.38
1021.871	1556.38
1022.086	1539.38
1022.301	1533.38
1022.516	1518.38
1022.731	1552.38
1022.946	1440.38
1023.16	1431.38
1023.375	1418.38
1023.59	1369.38
1023.804	1333.38
1024.019	1417.38
1024.234	1291.38
1024.448	1333.38
1024.663	1233.38
1024.877	1238.38
1025.092	1250.38
1025.306	1256.38
1025.52	1156.38
1025.734	1214.38
1025.949	1132.38
1026.163	1099.38
1026.377	1082.38
1026.591	1100.38
1026.805	991.38
1027.019	1011.38
1027.233	982.38
1027.447	913.38
1027.661	992.38
1027.875	944.38
1028.088	953.38
1028.302	879.38
1028.516	848.38
1028.73	858.38
1028.943	813.38
1029.157	779.38
1029.37	745.38
1029.584	-2.62
1029.797	1.38
1030.011	-2.62
1030.224	-1.62
