Data from QEP037381__266__16-14-09-904.txt Node

Date: Fri Dec 16 16:14:09 EST 2022
User: dcclab
Spectrometer: QEP03738
Trigger mode: 4
Integration Time (sec): 1.000000E1
Scans to average: 1
Electric dark correction enabled: true
Nonlinearity correction enabled: false
Boxcar width: 0
XAxis mode: Wavelengths
Number of Pixels in Spectrum: 1044
>>>>>Begin Spectral Data<<<<<
784.041	9.75
784.3	-0.25
784.558	-1.25
784.817	-2.25
785.075	112478.75
785.334	19504.75
785.592	9106.75
785.851	6319.75
786.109	4741.75
786.368	3666.75
786.626	2968.75
786.884	2458.75
787.143	2039.75
787.401	1699.75
787.659	1529.75
787.917	1296.75
788.175	1216.75
788.433	1066.75
788.691	938.75
788.949	862.75
789.207	834.75
789.465	710.75
789.723	684.75
789.98	633.75
790.238	661.75
790.496	621.75
790.753	600.75
791.011	656.75
791.268	552.75
791.526	551.75
791.783	570.75
792.041	555.75
792.298	465.75
792.556	527.75
792.813	507.75
793.07	477.75
793.327	467.75
793.584	553.75
793.841	455.75
794.099	491.75
794.356	558.75
794.613	441.75
794.869	478.75
795.126	440.75
795.383	440.75
795.64	435.75
795.897	420.75
796.153	460.75
796.41	446.75
796.667	434.75
796.923	446.75
797.18	436.75
797.436	470.75
797.693	416.75
797.949	481.75
798.206	508.75
798.462	436.75
798.718	474.75
798.974	479.75
799.231	505.75
799.487	519.75
799.743	511.75
799.999	530.75
800.255	533.75
800.511	523.75
800.767	579.75
801.023	562.75
801.279	607.75
801.534	651.75
801.79	719.75
802.046	754.75
802.302	896.75
802.557	1025.75
802.813	1282.75
803.068	1592.75
803.324	2204.75
803.579	3056.75
803.835	4221.75
804.09	5752.75
804.345	7488.75
804.601	9434.75
804.856	11440.75
805.111	13292.75
805.366	14713.75
805.621	15665.75
805.876	16433.75
806.131	16901.75
806.386	17280.75
806.641	17512.75
806.896	17881.75
807.151	18163.75
807.406	18316.75
807.661	18735.75
807.915	19086.75
808.17	19376.75
808.425	19502.75
808.679	19733.75
808.934	20003.75
809.188	20186.75
809.443	20433.75
809.697	20692.75
809.951	20834.75
810.206	20856.75
810.46	21205.75
810.714	21282.75
810.968	21515.75
811.223	21627.75
811.477	21964.75
811.731	21975.75
811.985	22109.75
812.239	22178.75
812.493	22395.75
812.747	22452.75
813	22405.75
813.254	22606.75
813.508	22690.75
813.762	22853.75
814.015	22866.75
814.269	23046.75
814.522	23318.75
814.776	23601.75
815.03	23738.75
815.283	24137.75
815.536	24582.75
815.79	24889.75
816.043	25347.75
816.296	25704.75
816.55	25951.75
816.803	26207.75
817.056	26573.75
817.309	26755.75
817.562	27049.75
817.815	27319.75
818.068	27427.75
818.321	27726.75
818.574	28004.75
818.827	28375.75
819.079	28740.75
819.332	29345.75
819.585	29481.75
819.838	30041.75
820.09	30086.75
820.343	30344.75
820.595	30417.75
820.848	30716.75
821.1	30743.75
821.353	30910.75
821.605	30741.75
821.857	30856.75
822.11	30643.75
822.362	30583.75
822.614	30557.75
822.866	30633.75
823.118	30562.75
823.37	30676.75
823.622	30704.75
823.874	30864.75
824.126	30905.75
824.378	30936.75
824.63	30987.75
824.882	31212.75
825.134	31066.75
825.385	31037.75
825.637	30976.75
825.888	30870.75
826.14	30793.75
826.392	30760.75
826.643	30678.75
826.895	30557.75
827.146	30378.75
827.397	30300.75
827.649	30400.75
827.9	30201.75
828.151	30296.75
828.402	30401.75
828.653	30572.75
828.905	30639.75
829.156	30737.75
829.407	30546.75
829.658	30636.75
829.909	30709.75
830.159	30730.75
830.41	30582.75
830.661	30406.75
830.912	30150.75
831.162	30135.75
831.413	29977.75
831.664	30109.75
831.914	30059.75
832.165	29874.75
832.415	30021.75
832.666	29943.75
832.916	29990.75
833.167	30040.75
833.417	29969.75
833.667	29850.75
833.917	29742.75
834.168	29776.75
834.418	29666.75
834.668	29482.75
834.918	29344.75
835.168	29246.75
835.418	29100.75
835.668	29000.75
835.918	28977.75
836.167	28861.75
836.417	28774.75
836.667	28723.75
836.917	28744.75
837.166	28708.75
837.416	28769.75
837.666	28765.75
837.915	28705.75
838.165	28835.75
838.414	28696.75
838.663	28517.75
838.913	28559.75
839.162	28535.75
839.411	28415.75
839.661	28224.75
839.91	28236.75
840.159	28217.75
840.408	28070.75
840.657	28251.75
840.906	28155.75
841.155	28261.75
841.404	28247.75
841.653	28190.75
841.902	28274.75
842.15	28289.75
842.399	28422.75
842.648	28174.75
842.897	28219.75
843.145	28016.75
843.394	27806.75
843.642	27710.75
843.891	27519.75
844.139	27335.75
844.388	27250.75
844.636	27109.75
844.884	27065.75
845.133	27071.75
845.381	27040.75
845.629	27175.75
845.877	27000.75
846.125	27047.75
846.373	26986.75
846.621	26824.75
846.869	26782.75
847.117	26580.75
847.365	26517.75
847.613	26272.75
847.861	26271.75
848.108	26254.75
848.356	26086.75
848.604	26107.75
848.851	26171.75
849.099	26227.75
849.346	26287.75
849.594	26358.75
849.841	26563.75
850.089	26444.75
850.336	26509.75
850.583	26562.75
850.831	26302.75
851.078	26134.75
851.325	26177.75
851.572	26407.75
851.819	26041.75
852.066	25569.75
852.313	25239.75
852.56	25036.75
852.807	24935.75
853.054	24926.75
853.301	24820.75
853.548	24883.75
853.794	25025.75
854.041	25066.75
854.288	25142.75
854.534	25362.75
854.781	25345.75
855.028	25283.75
855.274	25149.75
855.52	25026.75
855.767	24967.75
856.013	24977.75
856.26	25403.75
856.506	24740.75
856.752	24802.75
856.998	24838.75
857.244	24843.75
857.49	24948.75
857.736	24911.75
857.982	24965.75
858.228	24845.75
858.474	24643.75
858.72	24464.75
858.966	24326.75
859.212	24139.75
859.458	23848.75
859.703	23665.75
859.949	23315.75
860.195	23219.75
860.44	23196.75
860.686	23050.75
860.931	22987.75
861.177	22912.75
861.422	22760.75
861.667	22671.75
861.913	22731.75
862.158	22644.75
862.403	22791.75
862.648	22827.75
862.893	22863.75
863.138	22710.75
863.384	22740.75
863.629	22784.75
863.873	22678.75
864.118	22565.75
864.363	22499.75
864.608	22515.75
864.853	22442.75
865.098	22323.75
865.342	22142.75
865.587	22020.75
865.832	22067.75
866.076	22006.75
866.321	21983.75
866.565	21926.75
866.81	21800.75
867.054	21819.75
867.298	21661.75
867.543	21534.75
867.787	21693.75
868.031	21562.75
868.275	21559.75
868.519	21588.75
868.764	21513.75
869.008	21448.75
869.252	21402.75
869.496	21317.75
869.739	21280.75
869.983	21335.75
870.227	21303.75
870.471	21184.75
870.715	21249.75
870.958	21468.75
871.202	21388.75
871.446	21491.75
871.689	21534.75
871.933	21553.75
872.176	21527.75
872.42	21427.75
872.663	21319.75
872.906	21311.75
873.15	21241.75
873.393	21147.75
873.636	21179.75
873.879	20946.75
874.122	20824.75
874.366	20465.75
874.609	20271.75
874.852	20178.75
875.095	20152.75
875.337	20001.75
875.58	19881.75
875.823	19840.75
876.066	19835.75
876.309	19706.75
876.551	19592.75
876.794	19554.75
877.037	19479.75
877.279	19380.75
877.522	19384.75
877.764	19419.75
878.007	19256.75
878.249	19382.75
878.491	19248.75
878.734	19194.75
878.976	19196.75
879.218	19028.75
879.46	18907.75
879.702	18798.75
879.945	18637.75
880.187	18468.75
880.429	18474.75
880.671	18365.75
880.912	18225.75
881.154	18201.75
881.396	18187.75
881.638	18108.75
881.88	18114.75
882.121	18153.75
882.363	18040.75
882.605	17984.75
882.846	17960.75
883.088	17953.75
883.329	18019.75
883.571	18051.75
883.812	18123.75
884.053	18559.75
884.295	18868.75
884.536	18997.75
884.777	18896.75
885.018	18874.75
885.259	18774.75
885.5	18571.75
885.742	18717.75
885.982	18495.75
886.223	18303.75
886.464	18179.75
886.705	17985.75
886.946	17852.75
887.187	17509.75
887.428	17427.75
887.668	17136.75
887.909	16820.75
888.15	16678.75
888.39	16614.75
888.631	16471.75
888.871	16313.75
889.111	16201.75
889.352	16177.75
889.592	15998.75
889.833	15793.75
890.073	15735.75
890.313	15714.75
890.553	15535.75
890.793	15468.75
891.033	15462.75
891.273	15335.75
891.513	15349.75
891.753	15356.75
891.993	15232.75
892.233	15297.75
892.473	15401.75
892.713	15289.75
892.952	15283.75
893.192	15280.75
893.432	15224.75
893.671	15416.75
893.911	15233.75
894.15	15119.75
894.39	14974.75
894.629	14961.75
894.869	14865.75
895.108	14796.75
895.347	14698.75
895.587	14708.75
895.826	14642.75
896.065	14639.75
896.304	14674.75
896.543	14550.75
896.782	14561.75
897.021	14518.75
897.26	14431.75
897.499	14470.75
897.738	14422.75
897.977	14391.75
898.216	14186.75
898.454	14094.75
898.693	14115.75
898.932	14025.75
899.17	13958.75
899.409	13929.75
899.647	13931.75
899.886	13850.75
900.124	13910.75
900.363	13900.75
900.601	13917.75
900.839	13949.75
901.078	14058.75
901.316	14064.75
901.554	14110.75
901.792	14257.75
902.03	14205.75
902.268	14172.75
902.506	14171.75
902.744	14055.75
902.982	14060.75
903.22	13706.75
903.458	13513.75
903.695	13323.75
903.933	13203.75
904.171	12889.75
904.409	12778.75
904.646	12535.75
904.884	12395.75
905.121	12296.75
905.359	12117.75
905.596	12049.75
905.833	11861.75
906.071	11789.75
906.308	11791.75
906.545	11709.75
906.783	11660.75
907.02	11688.75
907.257	11641.75
907.494	11578.75
907.731	11628.75
907.968	11541.75
908.205	11376.75
908.442	11339.75
908.679	11271.75
908.915	11174.75
909.152	11064.75
909.389	10958.75
909.626	10905.75
909.862	10883.75
910.099	10897.75
910.335	10786.75
910.572	10698.75
910.808	10668.75
911.045	10671.75
911.281	10558.75
911.518	10609.75
911.754	10477.75
911.99	10442.75
912.226	10359.75
912.463	10268.75
912.699	10191.75
912.935	10153.75
913.171	10102.75
913.407	9931.75
913.643	9947.75
913.879	9894.75
914.114	9712.75
914.35	9608.75
914.586	9542.75
914.822	9537.75
915.057	9564.75
915.293	9354.75
915.529	9341.75
915.764	9356.75
916	9227.75
916.235	9285.75
916.471	9234.75
916.706	9159.75
916.941	9185.75
917.177	9195.75
917.412	9129.75
917.647	9160.75
917.882	9145.75
918.117	9111.75
918.352	9045.75
918.588	9064.75
918.823	8885.75
919.057	8877.75
919.292	8702.75
919.527	8792.75
919.762	8569.75
919.997	8557.75
920.232	8442.75
920.466	8463.75
920.701	8241.75
920.935	8264.75
921.17	8198.75
921.405	8208.75
921.639	8202.75
921.873	8149.75
922.108	8144.75
922.342	8039.75
922.576	8028.75
922.811	7947.75
923.045	8042.75
923.279	7966.75
923.513	7799.75
923.747	7872.75
923.981	7791.75
924.215	7785.75
924.449	7684.75
924.683	7586.75
924.917	7605.75
925.151	7578.75
925.385	7572.75
925.618	7512.75
925.852	7513.75
926.086	7486.75
926.319	7520.75
926.553	7470.75
926.786	7433.75
927.02	7434.75
927.253	7508.75
927.486	7474.75
927.72	7350.75
927.953	7372.75
928.186	7352.75
928.42	7383.75
928.653	7274.75
928.886	7237.75
929.119	7239.75
929.352	7186.75
929.585	7154.75
929.818	7042.75
930.051	7035.75
930.284	7007.75
930.516	6821.75
930.749	6879.75
930.982	6858.75
931.215	6776.75
931.447	6777.75
931.68	6762.75
931.912	6705.75
932.145	6718.75
932.377	6690.75
932.61	6858.75
932.842	6594.75
933.074	6628.75
933.307	6614.75
933.539	6763.75
933.771	6695.75
934.003	6633.75
934.236	6749.75
934.468	6780.75
934.7	6618.75
934.932	6596.75
935.164	6596.75
935.395	6566.75
935.627	6588.75
935.859	6543.75
936.091	6477.75
936.323	6508.75
936.554	6529.75
936.786	6414.75
937.017	6340.75
937.249	6451.75
937.481	6272.75
937.712	6384.75
937.943	6348.75
938.175	6303.75
938.406	6315.75
938.637	6361.75
938.869	6232.75
939.1	6287.75
939.331	6245.75
939.562	6263.75
939.793	6226.75
940.024	6175.75
940.255	6197.75
940.486	6136.75
940.717	6129.75
940.948	6033.75
941.179	5996.75
941.409	6005.75
941.64	5962.75
941.871	5939.75
942.102	5982.75
942.332	5970.75
942.563	6043.75
942.793	6011.75
943.024	5921.75
943.254	6018.75
943.484	5969.75
943.715	5972.75
943.945	5961.75
944.175	5901.75
944.405	5865.75
944.636	5855.75
944.866	5889.75
945.096	5943.75
945.326	5802.75
945.556	5860.75
945.786	5817.75
946.016	5821.75
946.245	5727.75
946.475	5694.75
946.705	5611.75
946.935	5603.75
947.164	5605.75
947.394	5552.75
947.624	5598.75
947.853	5558.75
948.083	5488.75
948.312	5404.75
948.542	5359.75
948.771	5424.75
949	5334.75
949.23	5386.75
949.459	5391.75
949.688	5477.75
949.917	5383.75
950.146	5340.75
950.375	5409.75
950.604	5327.75
950.833	5397.75
951.062	5389.75
951.291	5318.75
951.52	5239.75
951.749	5242.75
951.978	5218.75
952.206	5184.75
952.435	5182.75
952.664	5238.75
952.892	5209.75
953.121	5183.75
953.349	5130.75
953.578	5140.75
953.806	5080.75
954.035	5009.75
954.263	5084.75
954.491	5031.75
954.719	5009.75
954.948	4936.75
955.176	4914.75
955.404	4811.75
955.632	4916.75
955.86	4933.75
956.088	4865.75
956.316	4820.75
956.544	4836.75
956.772	4807.75
956.999	4757.75
957.227	4792.75
957.455	4699.75
957.683	4695.75
957.91	4659.75
958.138	4676.75
958.365	4569.75
958.593	4555.75
958.82	4511.75
959.048	4624.75
959.275	4527.75
959.502	4517.75
959.73	4470.75
959.957	4497.75
960.184	4523.75
960.411	4449.75
960.638	4547.75
960.865	4453.75
961.092	4481.75
961.319	4380.75
961.546	4426.75
961.773	4463.75
962	4438.75
962.227	4447.75
962.454	4405.75
962.68	4382.75
962.907	4386.75
963.134	4334.75
963.36	4328.75
963.587	4335.75
963.813	4253.75
964.04	4271.75
964.266	4131.75
964.493	4232.75
964.719	4189.75
964.945	4232.75
965.171	4069.75
965.398	4133.75
965.624	4116.75
965.85	4060.75
966.076	4055.75
966.302	4031.75
966.528	4005.75
966.754	4014.75
966.98	4009.75
967.206	3946.75
967.431	3941.75
967.657	3985.75
967.883	3957.75
968.109	3882.75
968.334	3889.75
968.56	3858.75
968.785	3884.75
969.011	3853.75
969.236	3886.75
969.462	3813.75
969.687	3819.75
969.912	3870.75
970.138	3875.75
970.363	3726.75
970.588	3810.75
970.813	3742.75
971.038	3753.75
971.263	3716.75
971.488	3723.75
971.713	3769.75
971.938	3735.75
972.163	3594.75
972.388	3609.75
972.613	3603.75
972.838	3656.75
973.062	3565.75
973.287	3589.75
973.512	3496.75
973.736	3547.75
973.961	3533.75
974.185	3505.75
974.41	3528.75
974.634	3445.75
974.858	3462.75
975.083	3458.75
975.307	3448.75
975.531	3361.75
975.755	3315.75
975.98	3347.75
976.204	3224.75
976.428	3246.75
976.652	3263.75
976.876	3207.75
977.1	3269.75
977.324	3194.75
977.547	3241.75
977.771	3212.75
977.995	3203.75
978.219	3152.75
978.442	3224.75
978.666	3180.75
978.89	3177.75
979.113	3170.75
979.337	3165.75
979.56	3119.75
979.783	3202.75
980.007	3079.75
980.23	3076.75
980.453	3001.75
980.677	3112.75
980.9	3077.75
981.123	2990.75
981.346	3096.75
981.569	3029.75
981.792	3053.75
982.015	2980.75
982.238	2995.75
982.461	2971.75
982.684	2890.75
982.907	2864.75
983.129	2876.75
983.352	2875.75
983.575	2869.75
983.797	2868.75
984.02	2855.75
984.242	2836.75
984.465	2797.75
984.687	2794.75
984.91	2832.75
985.132	2774.75
985.354	2766.75
985.577	2782.75
985.799	2776.75
986.021	2658.75
986.243	2737.75
986.465	2691.75
986.687	2748.75
986.909	2785.75
987.131	2696.75
987.353	2640.75
987.575	2649.75
987.797	2658.75
988.019	2577.75
988.241	2634.75
988.462	2594.75
988.684	2649.75
988.906	2662.75
989.127	2694.75
989.349	2543.75
989.57	2587.75
989.792	2642.75
990.013	2660.75
990.234	2587.75
990.456	2599.75
990.677	2626.75
990.898	2556.75
991.119	2542.75
991.341	2589.75
991.562	2477.75
991.783	2527.75
992.004	2478.75
992.225	2435.75
992.446	2476.75
992.667	2388.75
992.887	2458.75
993.108	2358.75
993.329	2462.75
993.55	2418.75
993.77	2351.75
993.991	2389.75
994.212	2347.75
994.432	2353.75
994.653	2368.75
994.873	2345.75
995.093	2236.75
995.314	2279.75
995.534	2325.75
995.754	2340.75
995.975	2360.75
996.195	2257.75
996.415	2283.75
996.635	2269.75
996.855	2293.75
997.075	2234.75
997.295	2249.75
997.515	2244.75
997.735	2286.75
997.955	2230.75
998.174	2209.75
998.394	2220.75
998.614	2252.75
998.834	2213.75
999.053	2223.75
999.273	2227.75
999.492	2259.75
999.712	2194.75
999.931	2154.75
1000.151	2226.75
1000.37	2168.75
1000.589	2215.75
1000.809	2118.75
1001.028	2236.75
1001.247	2143.75
1001.466	2055.75
1001.685	2189.75
1001.904	2097.75
1002.123	2073.75
1002.342	2098.75
1002.561	2016.75
1002.78	2065.75
1002.999	2115.75
1003.218	2078.75
1003.436	2004.75
1003.655	2074.75
1003.874	2000.75
1004.092	2048.75
1004.311	2081.75
1004.53	2020.75
1004.748	2058.75
1004.966	2009.75
1005.185	2046.75
1005.403	2018.75
1005.622	2004.75
1005.84	2085.75
1006.058	1971.75
1006.276	1985.75
1006.494	2509.75
1006.712	1985.75
1006.931	2073.75
1007.149	1984.75
1007.367	1968.75
1007.584	2017.75
1007.802	2052.75
1008.02	1965.75
1008.238	2104.75
1008.456	2105.75
1008.673	1972.75
1008.891	2081.75
1009.109	2054.75
1009.326	2128.75
1009.544	2205.75
1009.761	2118.75
1009.979	2250.75
1010.196	2291.75
1010.413	2420.75
1010.631	2483.75
1010.848	2559.75
1011.065	2575.75
1011.282	2516.75
1011.5	2460.75
1011.717	2552.75
1011.934	2522.75
1012.151	2536.75
1012.368	2502.75
1012.585	2475.75
1012.801	2473.75
1013.018	2493.75
1013.235	2468.75
1013.452	2471.75
1013.669	2496.75
1013.885	2478.75
1014.102	2542.75
1014.318	2493.75
1014.535	2458.75
1014.751	2464.75
1014.968	2462.75
1015.184	2456.75
1015.401	2378.75
1015.617	2362.75
1015.833	2334.75
1016.049	2308.75
1016.266	2281.75
1016.482	2287.75
1016.698	2219.75
1016.914	2249.75
1017.13	2211.75
1017.346	2200.75
1017.562	2240.75
1017.778	2142.75
1017.993	2146.75
1018.209	2192.75
1018.425	2189.75
1018.641	2129.75
1018.856	2103.75
1019.072	2169.75
1019.288	2216.75
1019.503	2159.75
1019.719	2069.75
1019.934	2036.75
1020.149	2123.75
1020.365	2063.75
1020.58	1980.75
1020.795	2024.75
1021.011	1921.75
1021.226	1913.75
1021.441	1912.75
1021.656	1828.75
1021.871	1714.75
1022.086	1733.75
1022.301	1723.75
1022.516	1700.75
1022.731	1700.75
1022.946	1625.75
1023.16	1606.75
1023.375	1582.75
1023.59	1552.75
1023.804	1491.75
1024.019	1586.75
1024.234	1416.75
1024.448	1488.75
1024.663	1394.75
1024.877	1377.75
1025.092	1386.75
1025.306	1369.75
1025.52	1275.75
1025.734	1338.75
1025.949	1252.75
1026.163	1207.75
1026.377	1134.75
1026.591	1189.75
1026.805	1125.75
1027.019	1097.75
1027.233	1076.75
1027.447	1011.75
1027.661	1092.75
1027.875	1052.75
1028.088	1027.75
1028.302	968.75
1028.516	936.75
1028.73	934.75
1028.943	943.75
1029.157	852.75
1029.37	808.75
1029.584	-2.25
1029.797	-1.25
1030.011	-1.25
1030.224	-1.25
