Data from QEP037381__256__16-12-29-903.txt Node

Date: Fri Dec 16 16:12:29 EST 2022
User: dcclab
Spectrometer: QEP03738
Trigger mode: 4
Integration Time (sec): 1.000000E1
Scans to average: 1
Electric dark correction enabled: true
Nonlinearity correction enabled: false
Boxcar width: 0
XAxis mode: Wavelengths
Number of Pixels in Spectrum: 1044
>>>>>Begin Spectral Data<<<<<
784.041	11.75
784.3	-3.25
784.558	-1.25
784.817	-3.25
785.075	112397.75
785.334	19213.75
785.592	8992.75
785.851	6163.75
786.109	4601.75
786.368	3559.75
786.626	2886.75
786.884	2404.75
787.143	1990.75
787.401	1651.75
787.659	1491.75
787.917	1289.75
788.175	1181.75
788.433	1021.75
788.691	929.75
788.949	864.75
789.207	810.75
789.465	716.75
789.723	684.75
789.98	624.75
790.238	666.75
790.496	627.75
790.753	606.75
791.011	666.75
791.268	579.75
791.526	573.75
791.783	578.75
792.041	546.75
792.298	469.75
792.556	532.75
792.813	521.75
793.07	504.75
793.327	490.75
793.584	539.75
793.841	481.75
794.099	510.75
794.356	558.75
794.613	469.75
794.869	517.75
795.126	464.75
795.383	448.75
795.64	452.75
795.897	416.75
796.153	483.75
796.41	479.75
796.667	464.75
796.923	452.75
797.18	464.75
797.436	489.75
797.693	458.75
797.949	505.75
798.206	547.75
798.462	449.75
798.718	503.75
798.974	487.75
799.231	562.75
799.487	522.75
799.743	546.75
799.999	572.75
800.255	564.75
800.511	563.75
800.767	615.75
801.023	605.75
801.279	674.75
801.534	697.75
801.79	788.75
802.046	828.75
802.302	1010.75
802.557	1164.75
802.813	1514.75
803.068	1882.75
803.324	2650.75
803.579	3684.75
803.835	5089.75
804.09	6983.75
804.345	9189.75
804.601	11724.75
804.856	14137.75
805.111	16300.75
805.366	18014.75
805.621	19315.75
805.876	20268.75
806.131	20758.75
806.386	21195.75
806.641	21628.75
806.896	21932.75
807.151	22444.75
807.406	22667.75
807.661	23218.75
807.915	23638.75
808.17	23988.75
808.425	24324.75
808.679	24372.75
808.934	24798.75
809.188	24996.75
809.443	25152.75
809.697	25492.75
809.951	25684.75
810.206	25942.75
810.46	26146.75
810.714	26433.75
810.968	26686.75
811.223	26917.75
811.477	27130.75
811.731	27430.75
811.985	27384.75
812.239	27616.75
812.493	27836.75
812.747	27884.75
813	27781.75
813.254	28008.75
813.508	28197.75
813.762	28334.75
814.015	28455.75
814.269	28633.75
814.522	29028.75
814.776	29236.75
815.03	29665.75
815.283	30020.75
815.536	30487.75
815.79	31073.75
816.043	31640.75
816.296	31878.75
816.55	32232.75
816.803	32678.75
817.056	32992.75
817.309	33288.75
817.562	33802.75
817.815	34060.75
818.068	34397.75
818.321	34693.75
818.574	35032.75
818.827	35483.75
819.079	35866.75
819.332	36636.75
819.585	36894.75
819.838	37462.75
820.09	37602.75
820.343	37957.75
820.595	38147.75
820.848	38349.75
821.1	38485.75
821.353	38524.75
821.605	38436.75
821.857	38570.75
822.11	38458.75
822.362	38214.75
822.614	38176.75
822.866	38237.75
823.118	38160.75
823.37	38426.75
823.622	38413.75
823.874	38398.75
824.126	38661.75
824.378	38830.75
824.63	38798.75
824.882	38959.75
825.134	38883.75
825.385	38947.75
825.637	38727.75
825.888	38886.75
826.14	38712.75
826.392	38609.75
826.643	38411.75
826.895	38139.75
827.146	38115.75
827.397	37901.75
827.649	37979.75
827.9	38001.75
828.151	37930.75
828.402	38228.75
828.653	38184.75
828.905	38304.75
829.156	38478.75
829.407	38474.75
829.658	38373.75
829.909	38548.75
830.159	38484.75
830.41	38448.75
830.661	38008.75
830.912	37838.75
831.162	37756.75
831.413	37612.75
831.664	37461.75
831.914	37559.75
832.165	37596.75
832.415	37594.75
832.666	37541.75
832.916	37568.75
833.167	37583.75
833.417	37630.75
833.667	37405.75
833.917	37389.75
834.168	37155.75
834.418	37177.75
834.668	37066.75
834.918	36757.75
835.168	36589.75
835.418	36535.75
835.668	36366.75
835.918	36369.75
836.167	36167.75
836.417	36054.75
836.667	36159.75
836.917	35975.75
837.166	35953.75
837.416	36037.75
837.666	36048.75
837.915	35998.75
838.165	35936.75
838.414	35729.75
838.663	35744.75
838.913	35724.75
839.162	35663.75
839.411	35644.75
839.661	35472.75
839.91	35410.75
840.159	35285.75
840.408	35233.75
840.657	35266.75
840.906	35204.75
841.155	35376.75
841.404	35361.75
841.653	35313.75
841.902	35306.75
842.15	35391.75
842.399	35303.75
842.648	35281.75
842.897	35218.75
843.145	34922.75
843.394	34851.75
843.642	34528.75
843.891	34452.75
844.139	34253.75
844.388	34037.75
844.636	33985.75
844.884	33859.75
845.133	33889.75
845.381	33897.75
845.629	33874.75
845.877	33835.75
846.125	33782.75
846.373	33643.75
846.621	33640.75
846.869	33462.75
847.117	33428.75
847.365	33125.75
847.613	33048.75
847.861	32898.75
848.108	32834.75
848.356	32728.75
848.604	32689.75
848.851	32703.75
849.099	32754.75
849.346	32758.75
849.594	32916.75
849.841	33172.75
850.089	33112.75
850.336	33005.75
850.583	33032.75
850.831	32959.75
851.078	32702.75
851.325	32837.75
851.572	32760.75
851.819	32451.75
852.066	31912.75
852.313	31517.75
852.56	31469.75
852.807	31259.75
853.054	31114.75
853.301	30981.75
853.548	31065.75
853.794	31298.75
854.041	31165.75
854.288	31390.75
854.534	31621.75
854.781	31477.75
855.028	31394.75
855.274	31372.75
855.52	31334.75
855.767	31113.75
856.013	31100.75
856.26	31356.75
856.506	30694.75
856.752	30707.75
856.998	30771.75
857.244	30906.75
857.49	30945.75
857.736	31064.75
857.982	31068.75
858.228	30941.75
858.474	30835.75
858.72	30560.75
858.966	30154.75
859.212	29976.75
859.458	29740.75
859.703	29367.75
859.949	29236.75
860.195	29030.75
860.44	28805.75
860.686	28774.75
860.931	28634.75
861.177	28496.75
861.422	28490.75
861.667	28323.75
861.913	28359.75
862.158	28342.75
862.403	28417.75
862.648	28568.75
862.893	28453.75
863.138	28387.75
863.384	28273.75
863.629	28377.75
863.873	28257.75
864.118	28281.75
864.363	28071.75
864.608	28065.75
864.853	27812.75
865.098	27785.75
865.342	27561.75
865.587	27526.75
865.832	27565.75
866.076	27397.75
866.321	27427.75
866.565	27355.75
866.81	27149.75
867.054	27081.75
867.298	27037.75
867.543	26915.75
867.787	26892.75
868.031	26699.75
868.275	26722.75
868.519	26699.75
868.764	26776.75
869.008	26481.75
869.252	26591.75
869.496	26487.75
869.739	26402.75
869.983	26376.75
870.227	26372.75
870.471	26460.75
870.715	26457.75
870.958	26452.75
871.202	26518.75
871.446	26606.75
871.689	26698.75
871.933	26605.75
872.176	26446.75
872.42	26474.75
872.663	26286.75
872.906	26333.75
873.15	26192.75
873.393	26084.75
873.636	26158.75
873.879	25849.75
874.122	25644.75
874.366	25262.75
874.609	25170.75
874.852	24974.75
875.095	24714.75
875.337	24661.75
875.58	24591.75
875.823	24501.75
876.066	24380.75
876.309	24359.75
876.551	24195.75
876.794	24105.75
877.037	24116.75
877.279	23900.75
877.522	23914.75
877.764	23883.75
878.007	23863.75
878.249	23827.75
878.491	23693.75
878.734	23769.75
878.976	23670.75
879.218	23510.75
879.46	23508.75
879.702	23209.75
879.945	23214.75
880.187	22866.75
880.429	22831.75
880.671	22617.75
880.912	22522.75
881.154	22540.75
881.396	22394.75
881.638	22449.75
881.88	22419.75
882.121	22349.75
882.363	22363.75
882.605	22269.75
882.846	22322.75
883.088	22280.75
883.329	22142.75
883.571	22211.75
883.812	22290.75
884.053	22607.75
884.295	22928.75
884.536	23209.75
884.777	23039.75
885.018	22955.75
885.259	22874.75
885.5	22657.75
885.742	22809.75
885.982	22548.75
886.223	22478.75
886.464	22236.75
886.705	22163.75
886.946	21940.75
887.187	21584.75
887.428	21310.75
887.668	21073.75
887.909	20783.75
888.15	20650.75
888.39	20528.75
888.631	20291.75
888.871	20199.75
889.111	20019.75
889.352	19965.75
889.592	19705.75
889.833	19651.75
890.073	19510.75
890.313	19352.75
890.553	19140.75
890.793	19092.75
891.033	19062.75
891.273	18903.75
891.513	18930.75
891.753	18837.75
891.993	18788.75
892.233	18889.75
892.473	18903.75
892.713	18915.75
892.952	18859.75
893.192	18910.75
893.432	18864.75
893.671	18816.75
893.911	18657.75
894.15	18580.75
894.39	18377.75
894.629	18347.75
894.869	18307.75
895.108	18090.75
895.347	18097.75
895.587	18061.75
895.826	17982.75
896.065	17912.75
896.304	17967.75
896.543	17877.75
896.782	17771.75
897.021	17815.75
897.26	17688.75
897.499	17726.75
897.738	17787.75
897.977	17526.75
898.216	17469.75
898.454	17311.75
898.693	17093.75
898.932	17230.75
899.17	16963.75
899.409	16948.75
899.647	16911.75
899.886	16890.75
900.124	16952.75
900.363	16944.75
900.601	16967.75
900.839	16927.75
901.078	17003.75
901.316	17082.75
901.554	17133.75
901.792	17149.75
902.03	17122.75
902.268	17159.75
902.506	17175.75
902.744	16958.75
902.982	16863.75
903.22	16702.75
903.458	16463.75
903.695	16167.75
903.933	15945.75
904.171	15677.75
904.409	15502.75
904.646	15226.75
904.884	15165.75
905.121	14968.75
905.359	14772.75
905.596	14663.75
905.833	14536.75
906.071	14482.75
906.308	14460.75
906.545	14346.75
906.783	14357.75
907.02	14301.75
907.257	14105.75
907.494	14222.75
907.731	14200.75
907.968	14094.75
908.205	13985.75
908.442	13899.75
908.679	13869.75
908.915	13688.75
909.152	13589.75
909.389	13402.75
909.626	13325.75
909.862	13337.75
910.099	13218.75
910.335	13215.75
910.572	13055.75
910.808	13076.75
911.045	13047.75
911.281	13014.75
911.518	12932.75
911.754	12857.75
911.99	12771.75
912.226	12686.75
912.463	12552.75
912.699	12458.75
912.935	12429.75
913.171	12328.75
913.407	12166.75
913.643	12160.75
913.879	11980.75
914.114	11862.75
914.35	11760.75
914.586	11708.75
914.822	11615.75
915.057	11554.75
915.293	11346.75
915.529	11301.75
915.764	11360.75
916	11333.75
916.235	11302.75
916.471	11279.75
916.706	11140.75
916.941	11187.75
917.177	11192.75
917.412	11178.75
917.647	11112.75
917.882	11064.75
918.117	11115.75
918.352	11043.75
918.588	11034.75
918.823	10886.75
919.057	10780.75
919.292	10688.75
919.527	10656.75
919.762	10487.75
919.997	10406.75
920.232	10280.75
920.466	10219.75
920.701	10015.75
920.935	10042.75
921.17	9953.75
921.405	9972.75
921.639	9965.75
921.873	9881.75
922.108	9802.75
922.342	9771.75
922.576	9754.75
922.811	9652.75
923.045	9617.75
923.279	9624.75
923.513	9546.75
923.747	9540.75
923.981	9492.75
924.215	9392.75
924.449	9313.75
924.683	9236.75
924.917	9136.75
925.151	9098.75
925.385	9177.75
925.618	9143.75
925.852	9105.75
926.086	9015.75
926.319	9025.75
926.553	9000.75
926.786	8972.75
927.02	9011.75
927.253	9027.75
927.486	8985.75
927.72	8957.75
927.953	8942.75
928.186	8882.75
928.42	8833.75
928.653	8777.75
928.886	8740.75
929.119	8727.75
929.352	8663.75
929.585	8546.75
929.818	8538.75
930.051	8483.75
930.284	8418.75
930.516	8283.75
930.749	8286.75
930.982	8236.75
931.215	8208.75
931.447	8127.75
931.68	8115.75
931.912	8114.75
932.145	8106.75
932.377	8080.75
932.61	8254.75
932.842	8027.75
933.074	8097.75
933.307	8047.75
933.539	8059.75
933.771	7999.75
934.003	7923.75
934.236	8148.75
934.468	8056.75
934.7	7970.75
934.932	7990.75
935.164	7909.75
935.395	7891.75
935.627	7865.75
935.859	7874.75
936.091	7768.75
936.323	7801.75
936.554	7777.75
936.786	7720.75
937.017	7669.75
937.249	7664.75
937.481	7587.75
937.712	7670.75
937.943	7581.75
938.175	7538.75
938.406	7597.75
938.637	7591.75
938.869	7453.75
939.1	7546.75
939.331	7445.75
939.562	7448.75
939.793	7458.75
940.024	7500.75
940.255	7391.75
940.486	7301.75
940.717	7285.75
940.948	7235.75
941.179	7180.75
941.409	7204.75
941.64	7202.75
941.871	7211.75
942.102	7138.75
942.332	7155.75
942.563	7213.75
942.793	7164.75
943.024	7086.75
943.254	7160.75
943.484	7208.75
943.715	7176.75
943.945	7086.75
944.175	7036.75
944.405	7062.75
944.636	7001.75
944.866	7069.75
945.096	7006.75
945.326	6920.75
945.556	7008.75
945.786	7001.75
946.016	6925.75
946.245	6760.75
946.475	6810.75
946.705	6722.75
946.935	6730.75
947.164	6785.75
947.394	6613.75
947.624	6617.75
947.853	6587.75
948.083	6545.75
948.312	6521.75
948.542	6482.75
948.771	6427.75
949	6416.75
949.23	6412.75
949.459	6421.75
949.688	6463.75
949.917	6486.75
950.146	6410.75
950.375	6422.75
950.604	6307.75
950.833	6412.75
951.062	6372.75
951.291	6334.75
951.52	6264.75
951.749	6283.75
951.978	6232.75
952.206	6216.75
952.435	6210.75
952.664	6245.75
952.892	6175.75
953.121	6159.75
953.349	6149.75
953.578	6075.75
953.806	5984.75
954.035	5988.75
954.263	6016.75
954.491	5922.75
954.719	5974.75
954.948	5957.75
955.176	5878.75
955.404	5788.75
955.632	5815.75
955.86	5824.75
956.088	5731.75
956.316	5778.75
956.544	5778.75
956.772	5685.75
956.999	5637.75
957.227	5667.75
957.455	5577.75
957.683	5547.75
957.91	5464.75
958.138	5472.75
958.365	5497.75
958.593	5439.75
958.82	5368.75
959.048	5456.75
959.275	5413.75
959.502	5384.75
959.73	5307.75
959.957	5362.75
960.184	5342.75
960.411	5263.75
960.638	5364.75
960.865	5314.75
961.092	5344.75
961.319	5193.75
961.546	5333.75
961.773	5324.75
962	5230.75
962.227	5305.75
962.454	5185.75
962.68	5226.75
962.907	5192.75
963.134	5125.75
963.36	5099.75
963.587	5109.75
963.813	5000.75
964.04	5061.75
964.266	4978.75
964.493	5025.75
964.719	4932.75
964.945	4996.75
965.171	4863.75
965.398	4914.75
965.624	4929.75
965.85	4795.75
966.076	4776.75
966.302	4774.75
966.528	4714.75
966.754	4765.75
966.98	4731.75
967.206	4729.75
967.431	4581.75
967.657	4687.75
967.883	4658.75
968.109	4644.75
968.334	4590.75
968.56	4537.75
968.785	4583.75
969.011	4492.75
969.236	4584.75
969.462	4524.75
969.687	4500.75
969.912	4545.75
970.138	4480.75
970.363	4462.75
970.588	4430.75
970.813	4418.75
971.038	4353.75
971.263	4386.75
971.488	4379.75
971.713	4406.75
971.938	4376.75
972.163	4246.75
972.388	4296.75
972.613	4234.75
972.838	4288.75
973.062	4260.75
973.287	4178.75
973.512	4141.75
973.736	4193.75
973.961	4161.75
974.185	4096.75
974.41	4066.75
974.634	4003.75
974.858	4010.75
975.083	4032.75
975.307	4017.75
975.531	3955.75
975.755	3898.75
975.98	3923.75
976.204	3818.75
976.428	3781.75
976.652	3789.75
976.876	3769.75
977.1	3804.75
977.324	3733.75
977.547	3804.75
977.771	3799.75
977.995	3752.75
978.219	3717.75
978.442	3773.75
978.666	3764.75
978.89	3724.75
979.113	3708.75
979.337	3691.75
979.56	3613.75
979.783	3755.75
980.007	3626.75
980.23	3608.75
980.453	3571.75
980.677	3607.75
980.9	3572.75
981.123	3467.75
981.346	3562.75
981.569	3558.75
981.792	3542.75
982.015	3515.75
982.238	3427.75
982.461	3437.75
982.684	3412.75
982.907	3331.75
983.129	3368.75
983.352	3412.75
983.575	3310.75
983.797	3320.75
984.02	3274.75
984.242	3308.75
984.465	3233.75
984.687	3263.75
984.91	3338.75
985.132	3259.75
985.354	3273.75
985.577	3238.75
985.799	3213.75
986.021	3113.75
986.243	3129.75
986.465	3152.75
986.687	3190.75
986.909	3208.75
987.131	3102.75
987.353	3077.75
987.575	3133.75
987.797	3130.75
988.019	3026.75
988.241	3059.75
988.462	3047.75
988.684	3091.75
988.906	3068.75
989.127	3095.75
989.349	2977.75
989.57	3005.75
989.792	3025.75
990.013	3028.75
990.234	3000.75
990.456	3057.75
990.677	2993.75
990.898	2949.75
991.119	2911.75
991.341	2952.75
991.562	2885.75
991.783	2911.75
992.004	2830.75
992.225	2789.75
992.446	2855.75
992.667	2760.75
992.887	2864.75
993.108	2686.75
993.329	2826.75
993.55	2749.75
993.77	2685.75
993.991	2690.75
994.212	2705.75
994.432	2706.75
994.653	2698.75
994.873	2675.75
995.093	2557.75
995.314	2551.75
995.534	2623.75
995.754	2648.75
995.975	2667.75
996.195	2570.75
996.415	2612.75
996.635	2592.75
996.855	2578.75
997.075	2585.75
997.295	2533.75
997.515	2540.75
997.735	2600.75
997.955	2547.75
998.174	2555.75
998.394	2539.75
998.614	2563.75
998.834	2502.75
999.053	2577.75
999.273	2494.75
999.492	2600.75
999.712	2487.75
999.931	2446.75
1000.151	2473.75
1000.37	2416.75
1000.589	2486.75
1000.809	2380.75
1001.028	2524.75
1001.247	2442.75
1001.466	2327.75
1001.685	2440.75
1001.904	2393.75
1002.123	2368.75
1002.342	2368.75
1002.561	2299.75
1002.78	2327.75
1002.999	2408.75
1003.218	2301.75
1003.436	2289.75
1003.655	2316.75
1003.874	2233.75
1004.092	2285.75
1004.311	2305.75
1004.53	2283.75
1004.748	2335.75
1004.966	2215.75
1005.185	2291.75
1005.403	2255.75
1005.622	2275.75
1005.84	2319.75
1006.058	2195.75
1006.276	2241.75
1006.494	2714.75
1006.712	2218.75
1006.931	2294.75
1007.149	2179.75
1007.367	2185.75
1007.584	2234.75
1007.802	2268.75
1008.02	2188.75
1008.238	2321.75
1008.456	2314.75
1008.673	2179.75
1008.891	2289.75
1009.109	2254.75
1009.326	2306.75
1009.544	2437.75
1009.761	2345.75
1009.979	2448.75
1010.196	2452.75
1010.413	2610.75
1010.631	2671.75
1010.848	2730.75
1011.065	2778.75
1011.282	2714.75
1011.5	2659.75
1011.717	2732.75
1011.934	2700.75
1012.151	2744.75
1012.368	2675.75
1012.585	2598.75
1012.801	2670.75
1013.018	2656.75
1013.235	2623.75
1013.452	2657.75
1013.669	2599.75
1013.885	2619.75
1014.102	2677.75
1014.318	2622.75
1014.535	2596.75
1014.751	2652.75
1014.968	2628.75
1015.184	2606.75
1015.401	2508.75
1015.617	2522.75
1015.833	2523.75
1016.049	2466.75
1016.266	2459.75
1016.482	2437.75
1016.698	2332.75
1016.914	2382.75
1017.13	2322.75
1017.346	2328.75
1017.562	2374.75
1017.778	2335.75
1017.993	2266.75
1018.209	2335.75
1018.425	2286.75
1018.641	2262.75
1018.856	2253.75
1019.072	2259.75
1019.288	2272.75
1019.503	2269.75
1019.719	2195.75
1019.934	2175.75
1020.149	2231.75
1020.365	2161.75
1020.58	2110.75
1020.795	2169.75
1021.011	2066.75
1021.226	2014.75
1021.441	2003.75
1021.656	1929.75
1021.871	1834.75
1022.086	1861.75
1022.301	1806.75
1022.516	1809.75
1022.731	1823.75
1022.946	1746.75
1023.16	1740.75
1023.375	1678.75
1023.59	1629.75
1023.804	1607.75
1024.019	1675.75
1024.234	1550.75
1024.448	1578.75
1024.663	1508.75
1024.877	1489.75
1025.092	1503.75
1025.306	1481.75
1025.52	1359.75
1025.734	1441.75
1025.949	1354.75
1026.163	1314.75
1026.377	1239.75
1026.591	1307.75
1026.805	1172.75
1027.019	1193.75
1027.233	1161.75
1027.447	1058.75
1027.661	1176.75
1027.875	1146.75
1028.088	1109.75
1028.302	1061.75
1028.516	1016.75
1028.73	999.75
1028.943	964.75
1029.157	926.75
1029.37	875.75
1029.584	0.75
1029.797	-3.25
1030.011	-1.25
1030.224	-0.25
