Data from QEP037381__316__16-22-29-911.txt Node

Date: Fri Dec 16 16:22:29 EST 2022
User: dcclab
Spectrometer: QEP03738
Trigger mode: 4
Integration Time (sec): 1.000000E1
Scans to average: 1
Electric dark correction enabled: true
Nonlinearity correction enabled: false
Boxcar width: 0
XAxis mode: Wavelengths
Number of Pixels in Spectrum: 1044
>>>>>Begin Spectral Data<<<<<
784.041	13.12
784.3	1.12
784.558	-1.88
784.817	-3.88
785.075	112344.12
785.334	19318.12
785.592	9054.12
785.851	6230.12
786.109	4665.12
786.368	3616.12
786.626	2913.12
786.884	2411.12
787.143	2038.12
787.401	1679.12
787.659	1530.12
787.917	1316.12
788.175	1168.12
788.433	1031.12
788.691	945.12
788.949	866.12
789.207	810.12
789.465	718.12
789.723	688.12
789.98	628.12
790.238	671.12
790.496	613.12
790.753	597.12
791.011	652.12
791.268	570.12
791.526	549.12
791.783	567.12
792.041	544.12
792.298	461.12
792.556	524.12
792.813	490.12
793.07	479.12
793.327	468.12
793.584	540.12
793.841	470.12
794.099	487.12
794.356	532.12
794.613	449.12
794.869	493.12
795.126	445.12
795.383	432.12
795.64	454.12
795.897	400.12
796.153	455.12
796.41	440.12
796.667	434.12
796.923	437.12
797.18	419.12
797.436	488.12
797.693	431.12
797.949	484.12
798.206	504.12
798.462	417.12
798.718	488.12
798.974	459.12
799.231	501.12
799.487	488.12
799.743	498.12
799.999	522.12
800.255	532.12
800.511	511.12
800.767	564.12
801.023	541.12
801.279	582.12
801.534	627.12
801.79	673.12
802.046	708.12
802.302	878.12
802.557	967.12
802.813	1224.12
803.068	1512.12
803.324	2117.12
803.579	2872.12
803.835	3918.12
804.09	5374.12
804.345	7055.12
804.601	8902.12
804.856	10668.12
805.111	12371.12
805.366	13704.12
805.621	14605.12
805.876	15213.12
806.131	15654.12
806.386	15997.12
806.641	16206.12
806.896	16447.12
807.151	16857.12
807.406	17046.12
807.661	17357.12
807.915	17593.12
808.17	17959.12
808.425	18225.12
808.679	18287.12
808.934	18485.12
809.188	18591.12
809.443	18828.12
809.697	19062.12
809.951	19230.12
810.206	19391.12
810.46	19622.12
810.714	19743.12
810.968	19900.12
811.223	19982.12
811.477	20262.12
811.731	20493.12
811.985	20465.12
812.239	20517.12
812.493	20617.12
812.747	20746.12
813	20830.12
813.254	20839.12
813.508	21011.12
813.762	21079.12
814.015	21160.12
814.269	21399.12
814.522	21311.12
814.776	21727.12
815.03	21901.12
815.283	22173.12
815.536	22599.12
815.79	23008.12
816.043	23363.12
816.296	23504.12
816.55	23926.12
816.803	24057.12
817.056	24448.12
817.309	24598.12
817.562	24862.12
817.815	25071.12
818.068	25318.12
818.321	25649.12
818.574	25797.12
818.827	26140.12
819.079	26411.12
819.332	26943.12
819.585	27252.12
819.838	27660.12
820.09	27624.12
820.343	27878.12
820.595	28040.12
820.848	28197.12
821.1	28226.12
821.353	28393.12
821.605	28321.12
821.857	28184.12
822.11	28124.12
822.362	28068.12
822.614	28039.12
822.866	28023.12
823.118	27988.12
823.37	28034.12
823.622	28235.12
823.874	28329.12
824.126	28471.12
824.378	28336.12
824.63	28476.12
824.882	28575.12
825.134	28443.12
825.385	28425.12
825.637	28319.12
825.888	28305.12
826.14	28254.12
826.392	28216.12
826.643	27879.12
826.895	27815.12
827.146	27795.12
827.397	27716.12
827.649	27841.12
827.9	27751.12
828.151	27659.12
828.402	27760.12
828.653	27905.12
828.905	27836.12
829.156	27998.12
829.407	28045.12
829.658	28057.12
829.909	28070.12
830.159	28114.12
830.41	27934.12
830.661	27806.12
830.912	27500.12
831.162	27493.12
831.413	27532.12
831.664	27548.12
831.914	27375.12
832.165	27335.12
832.415	27445.12
832.666	27328.12
832.916	27455.12
833.167	27349.12
833.417	27322.12
833.667	27129.12
833.917	27198.12
834.168	27119.12
834.418	26957.12
834.668	26898.12
834.918	26719.12
835.168	26691.12
835.418	26522.12
835.668	26388.12
835.918	26395.12
836.167	26413.12
836.417	26169.12
836.667	26221.12
836.917	26326.12
837.166	26260.12
837.416	26267.12
837.666	26213.12
837.915	26189.12
838.165	26075.12
838.414	26087.12
838.663	26057.12
838.913	25997.12
839.162	25923.12
839.411	25952.12
839.661	25790.12
839.91	25755.12
840.159	25640.12
840.408	25633.12
840.657	25776.12
840.906	25705.12
841.155	25724.12
841.404	25553.12
841.653	25714.12
841.902	25652.12
842.15	25775.12
842.399	25722.12
842.648	25757.12
842.897	25682.12
843.145	25588.12
843.394	25314.12
843.642	25225.12
843.891	25066.12
844.139	24799.12
844.388	24784.12
844.636	24712.12
844.884	24670.12
845.133	24528.12
845.381	24584.12
845.629	24623.12
845.877	24598.12
846.125	24557.12
846.373	24502.12
846.621	24494.12
846.869	24381.12
847.117	24118.12
847.365	24107.12
847.613	24001.12
847.861	23852.12
848.108	23841.12
848.356	23820.12
848.604	23747.12
848.851	23663.12
849.099	23789.12
849.346	23858.12
849.594	23908.12
849.841	24069.12
850.089	23935.12
850.336	24060.12
850.583	23938.12
850.831	23890.12
851.078	23769.12
851.325	23707.12
851.572	23906.12
851.819	23609.12
852.066	23279.12
852.313	22825.12
852.56	22627.12
852.807	22582.12
853.054	22521.12
853.301	22551.12
853.548	22561.12
853.794	22648.12
854.041	22723.12
854.288	22819.12
854.534	23055.12
854.781	22961.12
855.028	22940.12
855.274	22960.12
855.52	22820.12
855.767	22671.12
856.013	22839.12
856.26	23028.12
856.506	22466.12
856.752	22433.12
856.998	22368.12
857.244	22459.12
857.49	22620.12
857.736	22597.12
857.982	22690.12
858.228	22494.12
858.474	22316.12
858.72	22145.12
858.966	22075.12
859.212	21791.12
859.458	21543.12
859.703	21392.12
859.949	21097.12
860.195	21032.12
860.44	20929.12
860.686	20929.12
860.931	20887.12
861.177	20643.12
861.422	20495.12
861.667	20456.12
861.913	20410.12
862.158	20488.12
862.403	20535.12
862.648	20551.12
862.893	20471.12
863.138	20583.12
863.384	20537.12
863.629	20370.12
863.873	20459.12
864.118	20285.12
864.363	20194.12
864.608	20178.12
864.853	20100.12
865.098	19999.12
865.342	20039.12
865.587	19879.12
865.832	19786.12
866.076	19769.12
866.321	19673.12
866.565	19818.12
866.81	19545.12
867.054	19547.12
867.298	19525.12
867.543	19516.12
867.787	19494.12
868.031	19407.12
868.275	19240.12
868.519	19235.12
868.764	19352.12
869.008	19242.12
869.252	19209.12
869.496	19219.12
869.739	19132.12
869.983	19228.12
870.227	19126.12
870.471	19086.12
870.715	19269.12
870.958	19319.12
871.202	19305.12
871.446	19371.12
871.689	19364.12
871.933	19312.12
872.176	19223.12
872.42	19227.12
872.663	19226.12
872.906	19187.12
873.15	19225.12
873.393	19120.12
873.636	19169.12
873.879	18943.12
874.122	18738.12
874.366	18463.12
874.609	18319.12
874.852	18238.12
875.095	18109.12
875.337	17911.12
875.58	17828.12
875.823	17747.12
876.066	17794.12
876.309	17713.12
876.551	17477.12
876.794	17381.12
877.037	17387.12
877.279	17337.12
877.522	17356.12
877.764	17307.12
878.007	17314.12
878.249	17263.12
878.491	17155.12
878.734	17148.12
878.976	17192.12
879.218	16987.12
879.46	16935.12
879.702	16725.12
879.945	16658.12
880.187	16529.12
880.429	16388.12
880.671	16191.12
880.912	16224.12
881.154	16262.12
881.396	16042.12
881.638	16177.12
881.88	16125.12
882.121	16071.12
882.363	16142.12
882.605	16134.12
882.846	16016.12
883.088	16030.12
883.329	16036.12
883.571	16087.12
883.812	16261.12
884.053	16589.12
884.295	16995.12
884.536	17204.12
884.777	17088.12
885.018	16935.12
885.259	16846.12
885.5	16748.12
885.742	16875.12
885.982	16638.12
886.223	16444.12
886.464	16325.12
886.705	16112.12
886.946	15939.12
887.187	15638.12
887.428	15512.12
887.668	15219.12
887.909	15124.12
888.15	14832.12
888.39	14687.12
888.631	14586.12
888.871	14535.12
889.111	14447.12
889.352	14339.12
889.592	14173.12
889.833	14066.12
890.073	13983.12
890.313	13998.12
890.553	13713.12
890.793	13731.12
891.033	13647.12
891.273	13599.12
891.513	13564.12
891.753	13510.12
891.993	13428.12
892.233	13541.12
892.473	13560.12
892.713	13534.12
892.952	13597.12
893.192	13527.12
893.432	13479.12
893.671	13541.12
893.911	13458.12
894.15	13407.12
894.39	13260.12
894.629	13259.12
894.869	13153.12
895.108	13031.12
895.347	12934.12
895.587	12994.12
895.826	12915.12
896.065	12907.12
896.304	12933.12
896.543	12870.12
896.782	12755.12
897.021	12848.12
897.26	12763.12
897.499	12741.12
897.738	12797.12
897.977	12679.12
898.216	12547.12
898.454	12451.12
898.693	12325.12
898.932	12356.12
899.17	12265.12
899.409	12179.12
899.647	12235.12
899.886	12120.12
900.124	12232.12
900.363	12180.12
900.601	12239.12
900.839	12284.12
901.078	12299.12
901.316	12394.12
901.554	12381.12
901.792	12544.12
902.03	12501.12
902.268	12573.12
902.506	12468.12
902.744	12364.12
902.982	12237.12
903.22	12072.12
903.458	11927.12
903.695	11729.12
903.933	11511.12
904.171	11370.12
904.409	11235.12
904.646	11043.12
904.884	10885.12
905.121	10784.12
905.359	10644.12
905.596	10549.12
905.833	10385.12
906.071	10362.12
906.308	10378.12
906.545	10398.12
906.783	10277.12
907.02	10228.12
907.257	10202.12
907.494	10160.12
907.731	10116.12
907.968	10073.12
908.205	9948.12
908.442	9903.12
908.679	9903.12
908.915	9772.12
909.152	9786.12
909.389	9590.12
909.626	9595.12
909.862	9484.12
910.099	9414.12
910.335	9423.12
910.572	9297.12
910.808	9327.12
911.045	9303.12
911.281	9224.12
911.518	9256.12
911.754	9139.12
911.99	9149.12
912.226	9051.12
912.463	9015.12
912.699	8912.12
912.935	8836.12
913.171	8827.12
913.407	8719.12
913.643	8691.12
913.879	8540.12
914.114	8502.12
914.35	8383.12
914.586	8357.12
914.822	8176.12
915.057	8303.12
915.293	8141.12
915.529	8062.12
915.764	8128.12
916	8094.12
916.235	8086.12
916.471	8059.12
916.706	7995.12
916.941	7947.12
917.177	7977.12
917.412	8006.12
917.647	7973.12
917.882	7840.12
918.117	7941.12
918.352	7826.12
918.588	7879.12
918.823	7798.12
919.057	7713.12
919.292	7632.12
919.527	7659.12
919.762	7473.12
919.997	7428.12
920.232	7312.12
920.466	7367.12
920.701	7143.12
920.935	7209.12
921.17	7095.12
921.405	7071.12
921.639	7116.12
921.873	6987.12
922.108	7064.12
922.342	7038.12
922.576	6908.12
922.811	6956.12
923.045	6977.12
923.279	6921.12
923.513	6753.12
923.747	6847.12
923.981	6710.12
924.215	6722.12
924.449	6634.12
924.683	6552.12
924.917	6583.12
925.151	6569.12
925.385	6562.12
925.618	6555.12
925.852	6501.12
926.086	6469.12
926.319	6455.12
926.553	6410.12
926.786	6452.12
927.02	6443.12
927.253	6474.12
927.486	6464.12
927.72	6406.12
927.953	6428.12
928.186	6284.12
928.42	6347.12
928.653	6275.12
928.886	6279.12
929.119	6243.12
929.352	6213.12
929.585	6148.12
929.818	6154.12
930.051	6138.12
930.284	6048.12
930.516	6004.12
930.749	5903.12
930.982	5971.12
931.215	5945.12
931.447	5823.12
931.68	5852.12
931.912	5747.12
932.145	5800.12
932.377	5781.12
932.61	5926.12
932.842	5763.12
933.074	5807.12
933.307	5779.12
933.539	5817.12
933.771	5828.12
934.003	5771.12
934.236	5835.12
934.468	5819.12
934.7	5703.12
934.932	5770.12
935.164	5650.12
935.395	5681.12
935.627	5641.12
935.859	5711.12
936.091	5580.12
936.323	5650.12
936.554	5646.12
936.786	5579.12
937.017	5435.12
937.249	5520.12
937.481	5490.12
937.712	5490.12
937.943	5476.12
938.175	5446.12
938.406	5461.12
938.637	5434.12
938.869	5387.12
939.1	5452.12
939.331	5313.12
939.562	5391.12
939.793	5389.12
940.024	5391.12
940.255	5323.12
940.486	5285.12
940.717	5247.12
940.948	5193.12
941.179	5163.12
941.409	5183.12
941.64	5158.12
941.871	5180.12
942.102	5139.12
942.332	5190.12
942.563	5191.12
942.793	5174.12
943.024	5073.12
943.254	5170.12
943.484	5140.12
943.715	5197.12
943.945	5172.12
944.175	5049.12
944.405	5031.12
944.636	5029.12
944.866	5065.12
945.096	5017.12
945.326	4998.12
945.556	5034.12
945.786	5081.12
946.016	4990.12
946.245	4872.12
946.475	4873.12
946.705	4851.12
946.935	4844.12
947.164	4852.12
947.394	4800.12
947.624	4779.12
947.853	4788.12
948.083	4732.12
948.312	4706.12
948.542	4607.12
948.771	4635.12
949	4632.12
949.23	4613.12
949.459	4668.12
949.688	4697.12
949.917	4598.12
950.146	4652.12
950.375	4686.12
950.604	4556.12
950.833	4687.12
951.062	4640.12
951.291	4567.12
951.52	4552.12
951.749	4551.12
951.978	4494.12
952.206	4458.12
952.435	4443.12
952.664	4435.12
952.892	4509.12
953.121	4432.12
953.349	4459.12
953.578	4420.12
953.806	4356.12
954.035	4335.12
954.263	4321.12
954.491	4292.12
954.719	4386.12
954.948	4297.12
955.176	4256.12
955.404	4172.12
955.632	4171.12
955.86	4185.12
956.088	4157.12
956.316	4148.12
956.544	4209.12
956.772	4135.12
956.999	4072.12
957.227	4159.12
957.455	4012.12
957.683	4086.12
957.91	3995.12
958.138	3959.12
958.365	3962.12
958.593	3923.12
958.82	3870.12
959.048	3983.12
959.275	3914.12
959.502	3899.12
959.73	3856.12
959.957	3875.12
960.184	3926.12
960.411	3782.12
960.638	3889.12
960.865	3855.12
961.092	3886.12
961.319	3782.12
961.546	3856.12
961.773	3841.12
962	3801.12
962.227	3841.12
962.454	3783.12
962.68	3761.12
962.907	3805.12
963.134	3731.12
963.36	3727.12
963.587	3703.12
963.813	3618.12
964.04	3671.12
964.266	3554.12
964.493	3664.12
964.719	3649.12
964.945	3596.12
965.171	3464.12
965.398	3563.12
965.624	3583.12
965.85	3465.12
966.076	3468.12
966.302	3507.12
966.528	3480.12
966.754	3497.12
966.98	3442.12
967.206	3481.12
967.431	3360.12
967.657	3457.12
967.883	3413.12
968.109	3415.12
968.334	3323.12
968.56	3325.12
968.785	3334.12
969.011	3275.12
969.236	3355.12
969.462	3301.12
969.687	3273.12
969.912	3325.12
970.138	3324.12
970.363	3258.12
970.588	3269.12
970.813	3220.12
971.038	3170.12
971.263	3212.12
971.488	3208.12
971.713	3261.12
971.938	3208.12
972.163	3098.12
972.388	3156.12
972.613	3113.12
972.838	3101.12
973.062	3104.12
973.287	3143.12
973.512	3031.12
973.736	3073.12
973.961	3024.12
974.185	3013.12
974.41	3049.12
974.634	2955.12
974.858	2935.12
975.083	2977.12
975.307	2990.12
975.531	2934.12
975.755	2849.12
975.98	2835.12
976.204	2776.12
976.428	2798.12
976.652	2796.12
976.876	2769.12
977.1	2771.12
977.324	2731.12
977.547	2804.12
977.771	2805.12
977.995	2748.12
978.219	2715.12
978.442	2814.12
978.666	2765.12
978.89	2726.12
979.113	2709.12
979.337	2701.12
979.56	2674.12
979.783	2768.12
980.007	2628.12
980.23	2678.12
980.453	2637.12
980.677	2636.12
980.9	2663.12
981.123	2553.12
981.346	2673.12
981.569	2622.12
981.792	2647.12
982.015	2573.12
982.238	2570.12
982.461	2556.12
982.684	2535.12
982.907	2450.12
983.129	2495.12
983.352	2549.12
983.575	2484.12
983.797	2486.12
984.02	2450.12
984.242	2425.12
984.465	2434.12
984.687	2468.12
984.91	2485.12
985.132	2442.12
985.354	2434.12
985.577	2419.12
985.799	2395.12
986.021	2307.12
986.243	2342.12
986.465	2331.12
986.687	2400.12
986.909	2403.12
987.131	2355.12
987.353	2343.12
987.575	2351.12
987.797	2296.12
988.019	2226.12
988.241	2300.12
988.462	2262.12
988.684	2269.12
988.906	2337.12
989.127	2345.12
989.349	2236.12
989.57	2273.12
989.792	2306.12
990.013	2315.12
990.234	2285.12
990.456	2331.12
990.677	2295.12
990.898	2222.12
991.119	2247.12
991.341	2273.12
991.562	2188.12
991.783	2219.12
992.004	2152.12
992.225	2139.12
992.446	2180.12
992.667	2062.12
992.887	2149.12
993.108	2041.12
993.329	2159.12
993.55	2136.12
993.77	2054.12
993.991	2047.12
994.212	2086.12
994.432	2048.12
994.653	2059.12
994.873	2050.12
995.093	1961.12
995.314	1996.12
995.534	2056.12
995.754	2070.12
995.975	2082.12
996.195	1977.12
996.415	1984.12
996.635	1997.12
996.855	2029.12
997.075	1983.12
997.295	1972.12
997.515	1954.12
997.735	2022.12
997.955	1969.12
998.174	1967.12
998.394	1927.12
998.614	1970.12
998.834	1921.12
999.053	2005.12
999.273	1953.12
999.492	2007.12
999.712	1925.12
999.931	1904.12
1000.151	1979.12
1000.37	1947.12
1000.589	1974.12
1000.809	1867.12
1001.028	1987.12
1001.247	1906.12
1001.466	1810.12
1001.685	1966.12
1001.904	1907.12
1002.123	1862.12
1002.342	1860.12
1002.561	1807.12
1002.78	1838.12
1002.999	1905.12
1003.218	1847.12
1003.436	1811.12
1003.655	1850.12
1003.874	1794.12
1004.092	1832.12
1004.311	1842.12
1004.53	1806.12
1004.748	1902.12
1004.966	1793.12
1005.185	1839.12
1005.403	1848.12
1005.622	1810.12
1005.84	1848.12
1006.058	1793.12
1006.276	1809.12
1006.494	2272.12
1006.712	1809.12
1006.931	1864.12
1007.149	1769.12
1007.367	1775.12
1007.584	1846.12
1007.802	1843.12
1008.02	1790.12
1008.238	1908.12
1008.456	1914.12
1008.673	1781.12
1008.891	1892.12
1009.109	1861.12
1009.326	1912.12
1009.544	2021.12
1009.761	1938.12
1009.979	2059.12
1010.196	2092.12
1010.413	2243.12
1010.631	2286.12
1010.848	2318.12
1011.065	2362.12
1011.282	2280.12
1011.5	2242.12
1011.717	2376.12
1011.934	2296.12
1012.151	2286.12
1012.368	2294.12
1012.585	2223.12
1012.801	2308.12
1013.018	2267.12
1013.235	2226.12
1013.452	2264.12
1013.669	2279.12
1013.885	2263.12
1014.102	2305.12
1014.318	2276.12
1014.535	2237.12
1014.751	2256.12
1014.968	2251.12
1015.184	2281.12
1015.401	2173.12
1015.617	2212.12
1015.833	2118.12
1016.049	2136.12
1016.266	2094.12
1016.482	2090.12
1016.698	2005.12
1016.914	2078.12
1017.13	2007.12
1017.346	1987.12
1017.562	2076.12
1017.778	1967.12
1017.993	1953.12
1018.209	2019.12
1018.425	2019.12
1018.641	1947.12
1018.856	1929.12
1019.072	1935.12
1019.288	2005.12
1019.503	1930.12
1019.719	1875.12
1019.934	1868.12
1020.149	1923.12
1020.365	1870.12
1020.58	1835.12
1020.795	1835.12
1021.011	1762.12
1021.226	1733.12
1021.441	1733.12
1021.656	1644.12
1021.871	1570.12
1022.086	1554.12
1022.301	1536.12
1022.516	1564.12
1022.731	1584.12
1022.946	1473.12
1023.16	1464.12
1023.375	1438.12
1023.59	1382.12
1023.804	1341.12
1024.019	1422.12
1024.234	1294.12
1024.448	1346.12
1024.663	1265.12
1024.877	1233.12
1025.092	1267.12
1025.306	1258.12
1025.52	1155.12
1025.734	1228.12
1025.949	1164.12
1026.163	1118.12
1026.377	1076.12
1026.591	1102.12
1026.805	1024.12
1027.019	1033.12
1027.233	964.12
1027.447	923.12
1027.661	1015.12
1027.875	964.12
1028.088	954.12
1028.302	879.12
1028.516	874.12
1028.73	869.12
1028.943	841.12
1029.157	769.12
1029.37	737.12
1029.584	-2.88
1029.797	-2.88
1030.011	-1.88
1030.224	-0.88
