Data from QEP037381__345__16-27-19-919.txt Node

Date: Fri Dec 16 16:27:19 EST 2022
User: dcclab
Spectrometer: QEP03738
Trigger mode: 4
Integration Time (sec): 1.000000E1
Scans to average: 1
Electric dark correction enabled: true
Nonlinearity correction enabled: false
Boxcar width: 0
XAxis mode: Wavelengths
Number of Pixels in Spectrum: 1044
>>>>>Begin Spectral Data<<<<<
784.041	11
784.3	-2
784.558	-2
784.817	-4
785.075	112947
785.334	19625
785.592	9357
785.851	6459
786.109	4887
786.368	3813
786.626	3048
786.884	2513
787.143	2129
787.401	1743
787.659	1577
787.917	1361
788.175	1210
788.433	1031
788.691	944
788.949	863
789.207	816
789.465	725
789.723	702
789.98	642
790.238	658
790.496	626
790.753	590
791.011	641
791.268	571
791.526	555
791.783	557
792.041	550
792.298	472
792.556	527
792.813	505
793.07	489
793.327	463
793.584	552
793.841	468
794.099	478
794.356	545
794.613	460
794.869	488
795.126	449
795.383	436
795.64	458
795.897	394
796.153	458
796.41	442
796.667	448
796.923	446
797.18	443
797.436	471
797.693	440
797.949	492
798.206	522
798.462	436
798.718	485
798.974	464
799.231	514
799.487	496
799.743	504
799.999	535
800.255	525
800.511	531
800.767	562
801.023	554
801.279	593
801.534	628
801.79	707
802.046	723
802.302	890
802.557	1001
802.813	1274
803.068	1559
803.324	2158
803.579	2915
803.835	4043
804.09	5624
804.345	7261
804.601	9169
804.856	11100
805.111	12882
805.366	14106
805.621	15203
805.876	15939
806.131	16288
806.386	16638
806.641	16913
806.896	17286
807.151	17441
807.406	17795
807.661	18098
807.915	18350
808.17	18667
808.425	18909
808.679	19113
808.934	19194
809.188	19527
809.443	19677
809.697	19918
809.951	19916
810.206	20165
810.46	20193
810.714	20410
810.968	20805
811.223	20837
811.477	21036
811.731	21255
811.985	21336
812.239	21280
812.493	21503
812.747	21542
813	21648
813.254	21752
813.508	21872
813.762	21897
814.015	22057
814.269	22166
814.522	22415
814.776	22579
815.03	22928
815.283	23163
815.536	23576
815.79	23839
816.043	24277
816.296	24599
816.55	24848
816.803	25069
817.056	25490
817.309	25648
817.562	25890
817.815	26192
818.068	26437
818.321	26612
818.574	26909
818.827	27156
819.079	27591
819.332	28003
819.585	28337
819.838	28833
820.09	28720
820.343	29050
820.595	29053
820.848	29398
821.1	29563
821.353	29493
821.605	29430
821.857	29389
822.11	29240
822.362	29264
822.614	29268
822.866	29176
823.118	29185
823.37	29447
823.622	29434
823.874	29468
824.126	29512
824.378	29614
824.63	29684
824.882	29753
825.134	29842
825.385	29662
825.637	29480
825.888	29541
826.14	29447
826.392	29274
826.643	29250
826.895	29046
827.146	29013
827.397	28873
827.649	28927
827.9	28833
828.151	28799
828.402	28923
828.653	29113
828.905	29129
829.156	29225
829.407	29045
829.658	29254
829.909	29312
830.159	29265
830.41	29156
830.661	28876
830.912	28688
831.162	28727
831.413	28578
831.664	28693
831.914	28636
832.165	28642
832.415	28557
832.666	28617
832.916	28599
833.167	28464
833.417	28449
833.667	28340
833.917	28359
834.168	28271
834.418	28303
834.668	28110
834.918	27885
835.168	27929
835.418	27776
835.668	27720
835.918	27514
836.167	27513
836.417	27303
836.667	27370
836.917	27319
837.166	27329
837.416	27455
837.666	27459
837.915	27421
838.165	27264
838.414	27145
838.663	27115
838.913	27235
839.162	27054
839.411	27095
839.661	26985
839.91	26882
840.159	26771
840.408	26803
840.657	26776
840.906	26805
841.155	26915
841.404	26786
841.653	26834
841.902	26865
842.15	26877
842.399	26891
842.648	26813
842.897	26702
843.145	26576
843.394	26462
843.642	26217
843.891	26200
844.139	26018
844.388	25944
844.636	25731
844.884	25705
845.133	25691
845.381	25721
845.629	25749
845.877	25713
846.125	25630
846.373	25554
846.621	25328
846.869	25441
847.117	25227
847.365	25071
847.613	24978
847.861	24968
848.108	24871
848.356	24830
848.604	24754
848.851	24968
849.099	24826
849.346	24882
849.594	25043
849.841	25119
850.089	25054
850.336	25054
850.583	24984
850.831	24905
851.078	24704
851.325	24718
851.572	24752
851.819	24653
852.066	24201
852.313	23840
852.56	23584
852.807	23612
853.054	23585
853.301	23439
853.548	23431
853.794	23674
854.041	23643
854.288	23745
854.534	23998
854.781	23979
855.028	23836
855.274	23903
855.52	23779
855.767	23679
856.013	23694
856.26	24006
856.506	23432
856.752	23442
856.998	23432
857.244	23386
857.49	23537
857.736	23625
857.982	23656
858.228	23550
858.474	23270
858.72	23227
858.966	22940
859.212	22858
859.458	22642
859.703	22457
859.949	22087
860.195	21888
860.44	21797
860.686	21794
860.931	21797
861.177	21569
861.422	21325
861.667	21456
861.913	21399
862.158	21430
862.403	21394
862.648	21403
862.893	21502
863.138	21435
863.384	21463
863.629	21354
863.873	21441
864.118	21311
864.363	21130
864.608	21232
864.853	21114
865.098	20948
865.342	20892
865.587	20694
865.832	20779
866.076	20674
866.321	20675
866.565	20600
866.81	20419
867.054	20537
867.298	20414
867.543	20270
867.787	20252
868.031	20252
868.275	20193
868.519	20129
868.764	20130
869.008	20032
869.252	20051
869.496	19996
869.739	19938
869.983	19990
870.227	20005
870.471	19942
870.715	20167
870.958	20204
871.202	20157
871.446	20243
871.689	20201
871.933	20125
872.176	20220
872.42	20061
872.663	20001
872.906	20025
873.15	20058
873.393	19992
873.636	19943
873.879	19806
874.122	19623
874.366	19224
874.609	19080
874.852	18938
875.095	18805
875.337	18709
875.58	18552
875.823	18522
876.066	18485
876.309	18510
876.551	18228
876.794	18264
877.037	18267
877.279	18088
877.522	18169
877.764	18157
878.007	18033
878.249	18053
878.491	17904
878.734	18052
878.976	17913
879.218	17771
879.46	17661
879.702	17647
879.945	17386
880.187	17353
880.429	17142
880.671	17058
880.912	17082
881.154	16971
881.396	16917
881.638	16993
881.88	16873
882.121	16848
882.363	16765
882.605	16895
882.846	16870
883.088	16777
883.329	16777
883.571	16781
883.812	17001
884.053	17345
884.295	17721
884.536	17945
884.777	17726
885.018	17657
885.259	17558
885.5	17353
885.742	17536
885.982	17280
886.223	17193
886.464	17081
886.705	16844
886.946	16632
887.187	16379
887.428	16133
887.668	15985
887.909	15683
888.15	15535
888.39	15435
888.631	15292
888.871	15192
889.111	14998
889.352	14933
889.592	14769
889.833	14731
890.073	14632
890.313	14613
890.553	14374
890.793	14352
891.033	14265
891.273	14206
891.513	14212
891.753	14276
891.993	14090
892.233	14157
892.473	14195
892.713	14195
892.952	14167
893.192	14159
893.432	14139
893.671	14227
893.911	14086
894.15	14024
894.39	13869
894.629	13757
894.869	13787
895.108	13788
895.347	13593
895.587	13604
895.826	13557
896.065	13580
896.304	13534
896.543	13513
896.782	13403
897.021	13449
897.26	13434
897.499	13464
897.738	13347
897.977	13244
898.216	13136
898.454	13041
898.693	12897
898.932	12933
899.17	12902
899.409	12799
899.647	12823
899.886	12798
900.124	12828
900.363	12730
900.601	12846
900.839	12849
901.078	12835
901.316	12908
901.554	12987
901.792	13094
902.03	13045
902.268	13037
902.506	13012
902.744	12882
902.982	12835
903.22	12585
903.458	12469
903.695	12310
903.933	12078
904.171	11862
904.409	11636
904.646	11525
904.884	11406
905.121	11292
905.359	11206
905.596	11081
905.833	10926
906.071	10889
906.308	10901
906.545	10899
906.783	10703
907.02	10706
907.257	10683
907.494	10712
907.731	10584
907.968	10582
908.205	10436
908.442	10357
908.679	10336
908.915	10337
909.152	10198
909.389	10104
909.626	10068
909.862	9925
910.099	9974
910.335	9967
910.572	9822
910.808	9825
911.045	9725
911.281	9747
911.518	9748
911.754	9623
911.99	9579
912.226	9476
912.463	9388
912.699	9382
912.935	9306
913.171	9236
913.407	9085
913.643	9125
913.879	8995
914.114	8889
914.35	8777
914.586	8769
914.822	8684
915.057	8663
915.293	8527
915.529	8399
915.764	8504
916	8567
916.235	8499
916.471	8467
916.706	8384
916.941	8398
917.177	8355
917.412	8415
917.647	8366
917.882	8317
918.117	8378
918.352	8326
918.588	8246
918.823	8127
919.057	8116
919.292	7994
919.527	8062
919.762	7880
919.997	7831
920.232	7700
920.466	7681
920.701	7556
920.935	7552
921.17	7483
921.405	7436
921.639	7478
921.873	7385
922.108	7427
922.342	7326
922.576	7318
922.811	7282
923.045	7289
923.279	7301
923.513	7076
923.747	7142
923.981	7153
924.215	7013
924.449	7023
924.683	6991
924.917	6869
925.151	6905
925.385	6928
925.618	6859
925.852	6762
926.086	6791
926.319	6810
926.553	6792
926.786	6837
927.02	6738
927.253	6762
927.486	6728
927.72	6662
927.953	6686
928.186	6675
928.42	6730
928.653	6599
928.886	6642
929.119	6606
929.352	6581
929.585	6519
929.818	6419
930.051	6413
930.284	6392
930.516	6268
930.749	6222
930.982	6244
931.215	6235
931.447	6142
931.68	6111
931.912	6108
932.145	6103
932.377	6094
932.61	6217
932.842	6021
933.074	6098
933.307	6018
933.539	6136
933.771	6098
934.003	6111
934.236	6128
934.468	6098
934.7	6013
934.932	6005
935.164	5992
935.395	5912
935.627	5944
935.859	5945
936.091	5891
936.323	5875
936.554	5917
936.786	5856
937.017	5747
937.249	5809
937.481	5744
937.712	5753
937.943	5722
938.175	5728
938.406	5727
938.637	5744
938.869	5614
939.1	5665
939.331	5632
939.562	5633
939.793	5669
940.024	5612
940.255	5566
940.486	5582
940.717	5502
940.948	5531
941.179	5423
941.409	5436
941.64	5453
941.871	5425
942.102	5406
942.332	5434
942.563	5471
942.793	5452
943.024	5378
943.254	5447
943.484	5421
943.715	5442
943.945	5372
944.175	5345
944.405	5313
944.636	5679
944.866	6653
945.096	5594
945.326	5271
945.556	5273
945.786	5303
946.016	5238
946.245	5202
946.475	5141
946.705	5058
946.935	5140
947.164	5101
947.394	5014
947.624	4978
947.853	5028
948.083	4984
948.312	4979
948.542	4890
948.771	4890
949	4849
949.23	4864
949.459	4916
949.688	4930
949.917	4867
950.146	4892
950.375	4949
950.604	4824
950.833	4894
951.062	4891
951.291	4780
951.52	4735
951.749	4824
951.978	4710
952.206	4719
952.435	4697
952.664	4732
952.892	4685
953.121	4694
953.349	4661
953.578	4712
953.806	4624
954.035	4555
954.263	4558
954.491	4511
954.719	4548
954.948	4528
955.176	4436
955.404	4336
955.632	4437
955.86	4384
956.088	4397
956.316	4412
956.544	4368
956.772	4348
956.999	4246
957.227	4371
957.455	4225
957.683	4281
957.91	4238
958.138	4169
958.365	4165
958.593	4174
958.82	4055
959.048	4144
959.275	4103
959.502	4092
959.73	4059
959.957	4059
960.184	4077
960.411	4028
960.638	4127
960.865	4022
961.092	4044
961.319	3920
961.546	4016
961.773	4091
962	3982
962.227	4047
962.454	3994
962.68	3953
962.907	4009
963.134	3890
963.36	3875
963.587	3929
963.813	3799
964.04	3857
964.266	3760
964.493	3877
964.719	3820
964.945	3773
965.171	3702
965.398	3735
965.624	3771
965.85	3647
966.076	3632
966.302	3695
966.528	3629
966.754	3636
966.98	3662
967.206	3619
967.431	3530
967.657	3615
967.883	3583
968.109	3584
968.334	3488
968.56	3509
968.785	3471
969.011	3471
969.236	3516
969.462	3430
969.687	3447
969.912	3473
970.138	3522
970.363	3416
970.588	3432
970.813	3391
971.038	3360
971.263	3417
971.488	3379
971.713	3393
971.938	3378
972.163	3269
972.388	3290
972.613	3239
972.838	3293
973.062	3238
973.287	3236
973.512	3188
973.736	3236
973.961	3151
974.185	3163
974.41	3170
974.634	3092
974.858	3094
975.083	3132
975.307	3121
975.531	3039
975.755	2999
975.98	2981
976.204	2928
976.428	2927
976.652	2913
976.876	2921
977.1	2956
977.324	2887
977.547	2965
977.771	2930
977.995	2876
978.219	2831
978.442	2970
978.666	2920
978.89	2872
979.113	2871
979.337	2854
979.56	2822
979.783	2940
980.007	2788
980.23	2771
980.453	2767
980.677	2788
980.9	2750
981.123	2676
981.346	2765
981.569	2764
981.792	2723
982.015	2696
982.238	2662
982.461	2703
982.684	2623
982.907	2625
983.129	2597
983.352	2654
983.575	2631
983.797	2590
984.02	2580
984.242	2572
984.465	2554
984.687	2579
984.91	2565
985.132	2554
985.354	2567
985.577	2489
985.799	2502
986.021	2399
986.243	2436
986.465	2475
986.687	2489
986.909	2568
987.131	2440
987.353	2430
987.575	2468
987.797	2385
988.019	2364
988.241	2404
988.462	2315
988.684	2412
988.906	2403
989.127	2443
989.349	2325
989.57	2351
989.792	2405
990.013	2422
990.234	2379
990.456	2421
990.677	2343
990.898	2325
991.119	2332
991.341	2350
991.562	2250
991.783	2274
992.004	2234
992.225	2227
992.446	2277
992.667	2177
992.887	2281
993.108	2132
993.329	2284
993.55	2212
993.77	2150
993.991	2139
994.212	2144
994.432	2149
994.653	2125
994.873	2148
995.093	2032
995.314	2076
995.534	2140
995.754	2165
995.975	2166
996.195	2039
996.415	2065
996.635	2080
996.855	2096
997.075	2080
997.295	2035
997.515	2039
997.735	2079
997.955	2041
998.174	2065
998.394	1975
998.614	2061
998.834	1998
999.053	2087
999.273	2035
999.492	2098
999.712	2018
999.931	1967
1000.151	2024
1000.37	1999
1000.589	2040
1000.809	1933
1001.028	2048
1001.247	1977
1001.466	1871
1001.685	2011
1001.904	1958
1002.123	1905
1002.342	1915
1002.561	1867
1002.78	1913
1002.999	1931
1003.218	1886
1003.436	1872
1003.655	1906
1003.874	1864
1004.092	1880
1004.311	1891
1004.53	1851
1004.748	1926
1004.966	1852
1005.185	1917
1005.403	1885
1005.622	1849
1005.84	1927
1006.058	1803
1006.276	1861
1006.494	2358
1006.712	1832
1006.931	1908
1007.149	1820
1007.367	1821
1007.584	1873
1007.802	1907
1008.02	1832
1008.238	1961
1008.456	1946
1008.673	1842
1008.891	1923
1009.109	1927
1009.326	1982
1009.544	2088
1009.761	2006
1009.979	2119
1010.196	2106
1010.413	2257
1010.631	2336
1010.848	2402
1011.065	2352
1011.282	2360
1011.5	2295
1011.717	2373
1011.934	2327
1012.151	2358
1012.368	2353
1012.585	2252
1012.801	2325
1013.018	2292
1013.235	2224
1013.452	2285
1013.669	2306
1013.885	2255
1014.102	2304
1014.318	2281
1014.535	2274
1014.751	2295
1014.968	2280
1015.184	2273
1015.401	2190
1015.617	2194
1015.833	2176
1016.049	2145
1016.266	2135
1016.482	2124
1016.698	2025
1016.914	2092
1017.13	2025
1017.346	1998
1017.562	2046
1017.778	2007
1017.993	1956
1018.209	2067
1018.425	1972
1018.641	1965
1018.856	1946
1019.072	1970
1019.288	2018
1019.503	1984
1019.719	1888
1019.934	1903
1020.149	1983
1020.365	1886
1020.58	1792
1020.795	1851
1021.011	1748
1021.226	1754
1021.441	1741
1021.656	1667
1021.871	1597
1022.086	1560
1022.301	1577
1022.516	1538
1022.731	1601
1022.946	1521
1023.16	1480
1023.375	1453
1023.59	1430
1023.804	1382
1024.019	1461
1024.234	1315
1024.448	1343
1024.663	1278
1024.877	1289
1025.092	1304
1025.306	1306
1025.52	1158
1025.734	1259
1025.949	1156
1026.163	1119
1026.377	1075
1026.591	1110
1026.805	1035
1027.019	1032
1027.233	1005
1027.447	923
1027.661	1018
1027.875	949
1028.088	944
1028.302	893
1028.516	892
1028.73	880
1028.943	861
1029.157	797
1029.37	758
1029.584	-2
1029.797	1
1030.011	-1
1030.224	-1
