Data from QEP037381__323__16-23-39-912.txt Node

Date: Fri Dec 16 16:23:39 EST 2022
User: dcclab
Spectrometer: QEP03738
Trigger mode: 4
Integration Time (sec): 1.000000E1
Scans to average: 1
Electric dark correction enabled: true
Nonlinearity correction enabled: false
Boxcar width: 0
XAxis mode: Wavelengths
Number of Pixels in Spectrum: 1044
>>>>>Begin Spectral Data<<<<<
784.041	13.75
784.3	-2.25
784.558	-1.25
784.817	-2.25
785.075	110090.75
785.334	19183.75
785.592	9037.75
785.851	6182.75
786.109	4719.75
786.368	3666.75
786.626	2928.75
786.884	2458.75
787.143	2070.75
787.401	1694.75
787.659	1536.75
787.917	1339.75
788.175	1202.75
788.433	1055.75
788.691	941.75
788.949	852.75
789.207	832.75
789.465	699.75
789.723	708.75
789.98	633.75
790.238	653.75
790.496	640.75
790.753	597.75
791.011	644.75
791.268	573.75
791.526	557.75
791.783	577.75
792.041	554.75
792.298	471.75
792.556	517.75
792.813	497.75
793.07	487.75
793.327	468.75
793.584	562.75
793.841	480.75
794.099	486.75
794.356	548.75
794.613	463.75
794.869	480.75
795.126	449.75
795.383	438.75
795.64	472.75
795.897	407.75
796.153	465.75
796.41	466.75
796.667	437.75
796.923	437.75
797.18	448.75
797.436	488.75
797.693	433.75
797.949	478.75
798.206	506.75
798.462	431.75
798.718	489.75
798.974	472.75
799.231	491.75
799.487	511.75
799.743	499.75
799.999	537.75
800.255	526.75
800.511	528.75
800.767	562.75
801.023	561.75
801.279	598.75
801.534	659.75
801.79	699.75
802.046	743.75
802.302	886.75
802.557	1020.75
802.813	1290.75
803.068	1609.75
803.324	2233.75
803.579	3051.75
803.835	4203.75
804.09	5728.75
804.345	7526.75
804.601	9564.75
804.856	11501.75
805.111	13296.75
805.366	14585.75
805.621	15696.75
805.876	16313.75
806.131	16831.75
806.386	17069.75
806.641	17434.75
806.896	17620.75
807.151	18102.75
807.406	18269.75
807.661	18534.75
807.915	18944.75
808.17	19267.75
808.425	19340.75
808.679	19682.75
808.934	19825.75
809.188	19946.75
809.443	20309.75
809.697	20525.75
809.951	20682.75
810.206	20777.75
810.46	20981.75
810.714	21135.75
810.968	21429.75
811.223	21449.75
811.477	21772.75
811.731	22034.75
811.985	21863.75
812.239	22064.75
812.493	22118.75
812.747	22230.75
813	22341.75
813.254	22474.75
813.508	22529.75
813.762	22730.75
814.015	22708.75
814.269	22921.75
814.522	23248.75
814.776	23421.75
815.03	23628.75
815.283	23913.75
815.536	24406.75
815.79	24740.75
816.043	25061.75
816.296	25394.75
816.55	25660.75
816.803	25946.75
817.056	26340.75
817.309	26723.75
817.562	26846.75
817.815	27094.75
818.068	27177.75
818.321	27590.75
818.574	27932.75
818.827	28219.75
819.079	28473.75
819.332	29099.75
819.585	29367.75
819.838	29670.75
820.09	29831.75
820.343	30087.75
820.595	30182.75
820.848	30478.75
821.1	30517.75
821.353	30591.75
821.605	30484.75
821.857	30543.75
822.11	30483.75
822.362	30267.75
822.614	30382.75
822.866	30329.75
823.118	30318.75
823.37	30408.75
823.622	30668.75
823.874	30530.75
824.126	30757.75
824.378	30710.75
824.63	30819.75
824.882	30944.75
825.134	30860.75
825.385	30700.75
825.637	30769.75
825.888	30548.75
826.14	30485.75
826.392	30566.75
826.643	30278.75
826.895	30187.75
827.146	30147.75
827.397	30069.75
827.649	30123.75
827.9	29971.75
828.151	30170.75
828.402	30094.75
828.653	30070.75
828.905	30333.75
829.156	30355.75
829.407	30313.75
829.658	30423.75
829.909	30472.75
830.159	30338.75
830.41	30298.75
830.661	30191.75
830.912	29824.75
831.162	29779.75
831.413	29746.75
831.664	29861.75
831.914	29743.75
832.165	29702.75
832.415	29620.75
832.666	29562.75
832.916	29688.75
833.167	29584.75
833.417	29784.75
833.667	29522.75
833.917	29430.75
834.168	29397.75
834.418	29258.75
834.668	29309.75
834.918	29075.75
835.168	28922.75
835.418	28868.75
835.668	28778.75
835.918	28623.75
836.167	28566.75
836.417	28462.75
836.667	28425.75
836.917	28373.75
837.166	28352.75
837.416	28477.75
837.666	28431.75
837.915	28343.75
838.165	28393.75
838.414	28234.75
838.663	28205.75
838.913	28213.75
839.162	28098.75
839.411	28058.75
839.661	28037.75
839.91	27909.75
840.159	27851.75
840.408	27894.75
840.657	27936.75
840.906	27867.75
841.155	27923.75
841.404	27804.75
841.653	27972.75
841.902	28036.75
842.15	27887.75
842.399	27983.75
842.648	27970.75
842.897	27823.75
843.145	27684.75
843.394	27515.75
843.642	27266.75
843.891	27238.75
844.139	27109.75
844.388	26905.75
844.636	26774.75
844.884	26836.75
845.133	26754.75
845.381	26754.75
845.629	26807.75
845.877	26677.75
846.125	26719.75
846.373	26541.75
846.621	26485.75
846.869	26446.75
847.117	26328.75
847.365	26102.75
847.613	26080.75
847.861	25965.75
848.108	25994.75
848.356	25921.75
848.604	25777.75
848.851	25816.75
849.099	25811.75
849.346	25991.75
849.594	25973.75
849.841	26080.75
850.089	26082.75
850.336	26023.75
850.583	26062.75
850.831	25846.75
851.078	25779.75
851.325	25852.75
851.572	25892.75
851.819	25753.75
852.066	25231.75
852.313	24984.75
852.56	24702.75
852.807	24578.75
853.054	24475.75
853.301	24437.75
853.548	24558.75
853.794	24680.75
854.041	24726.75
854.288	24790.75
854.534	25047.75
854.781	24944.75
855.028	24954.75
855.274	24858.75
855.52	24697.75
855.767	24672.75
856.013	24755.75
856.26	24882.75
856.506	24363.75
856.752	24395.75
856.998	24392.75
857.244	24485.75
857.49	24553.75
857.736	24734.75
857.982	24527.75
858.228	24544.75
858.474	24354.75
858.72	24208.75
858.966	23907.75
859.212	23710.75
859.458	23487.75
859.703	23326.75
859.949	23071.75
860.195	22970.75
860.44	22875.75
860.686	22732.75
860.931	22624.75
861.177	22497.75
861.422	22553.75
861.667	22479.75
861.913	22293.75
862.158	22382.75
862.403	22475.75
862.648	22472.75
862.893	22533.75
863.138	22556.75
863.384	22397.75
863.629	22384.75
863.873	22318.75
864.118	22218.75
864.363	22141.75
864.608	22136.75
864.853	22034.75
865.098	21849.75
865.342	21788.75
865.587	21750.75
865.832	21597.75
866.076	21681.75
866.321	21553.75
866.565	21480.75
866.81	21489.75
867.054	21377.75
867.298	21243.75
867.543	21239.75
867.787	21280.75
868.031	21236.75
868.275	21145.75
868.519	21111.75
868.764	21142.75
869.008	21009.75
869.252	21088.75
869.496	20950.75
869.739	20972.75
869.983	21024.75
870.227	20905.75
870.471	20812.75
870.715	20948.75
870.958	21065.75
871.202	21017.75
871.446	21119.75
871.689	21266.75
871.933	21101.75
872.176	21090.75
872.42	21049.75
872.663	21093.75
872.906	21012.75
873.15	21007.75
873.393	20887.75
873.636	20817.75
873.879	20656.75
874.122	20533.75
874.366	20180.75
874.609	19967.75
874.852	19848.75
875.095	19756.75
875.337	19600.75
875.58	19543.75
875.823	19539.75
876.066	19452.75
876.309	19462.75
876.551	19212.75
876.794	19083.75
877.037	19180.75
877.279	18960.75
877.522	19039.75
877.764	19059.75
878.007	18834.75
878.249	18986.75
878.491	18879.75
878.734	18916.75
878.976	18857.75
879.218	18671.75
879.46	18641.75
879.702	18503.75
879.945	18385.75
880.187	18101.75
880.429	18107.75
880.671	17953.75
880.912	17895.75
881.154	17863.75
881.396	17850.75
881.638	17765.75
881.88	17677.75
882.121	17779.75
882.363	17821.75
882.605	17751.75
882.846	17759.75
883.088	17634.75
883.329	17576.75
883.571	17653.75
883.812	17829.75
884.053	18211.75
884.295	18460.75
884.536	18657.75
884.777	18601.75
885.018	18466.75
885.259	18408.75
885.5	18282.75
885.742	18426.75
885.982	18177.75
886.223	17976.75
886.464	17895.75
886.705	17619.75
886.946	17503.75
887.187	17255.75
887.428	17194.75
887.668	16855.75
887.909	16519.75
888.15	16378.75
888.39	16288.75
888.631	16134.75
888.871	15988.75
889.111	15938.75
889.352	15791.75
889.592	15651.75
889.833	15546.75
890.073	15373.75
890.313	15489.75
890.553	15252.75
890.793	15193.75
891.033	15100.75
891.273	15074.75
891.513	15070.75
891.753	15072.75
891.993	14942.75
892.233	14952.75
892.473	15121.75
892.713	15010.75
892.952	15033.75
893.192	15003.75
893.432	14990.75
893.671	15022.75
893.911	14844.75
894.15	14790.75
894.39	14751.75
894.629	14609.75
894.869	14494.75
895.108	14518.75
895.347	14377.75
895.587	14285.75
895.826	14235.75
896.065	14331.75
896.304	14292.75
896.543	14289.75
896.782	14217.75
897.021	14257.75
897.26	14101.75
897.499	14213.75
897.738	14198.75
897.977	14024.75
898.216	13889.75
898.454	13863.75
898.693	13740.75
898.932	13729.75
899.17	13707.75
899.409	13626.75
899.647	13624.75
899.886	13562.75
900.124	13525.75
900.363	13561.75
900.601	13750.75
900.839	13653.75
901.078	13663.75
901.316	13689.75
901.554	13801.75
901.792	13954.75
902.03	13835.75
902.268	13891.75
902.506	13881.75
902.744	13680.75
902.982	13673.75
903.22	13456.75
903.458	13237.75
903.695	13094.75
903.933	12828.75
904.171	12619.75
904.409	12442.75
904.646	12284.75
904.884	12043.75
905.121	12029.75
905.359	11832.75
905.596	11726.75
905.833	11640.75
906.071	11548.75
906.308	11563.75
906.545	11538.75
906.783	11423.75
907.02	11379.75
907.257	11299.75
907.494	11306.75
907.731	11349.75
907.968	11244.75
908.205	11191.75
908.442	11128.75
908.679	10959.75
908.915	10980.75
909.152	10825.75
909.389	10723.75
909.626	10714.75
909.862	10590.75
910.099	10622.75
910.335	10547.75
910.572	10414.75
910.808	10531.75
911.045	10384.75
911.281	10303.75
911.518	10402.75
911.754	10269.75
911.99	10269.75
912.226	10097.75
912.463	10087.75
912.699	9997.75
912.935	9946.75
913.171	9885.75
913.407	9759.75
913.643	9739.75
913.879	9576.75
914.114	9549.75
914.35	9452.75
914.586	9326.75
914.822	9263.75
915.057	9251.75
915.293	9101.75
915.529	9038.75
915.764	9143.75
916	9073.75
916.235	9035.75
916.471	9026.75
916.706	8945.75
916.941	8933.75
917.177	8961.75
917.412	8948.75
917.647	8940.75
917.882	8879.75
918.117	8890.75
918.352	8848.75
918.588	8859.75
918.823	8742.75
919.057	8712.75
919.292	8539.75
919.527	8602.75
919.762	8346.75
919.997	8344.75
920.232	8266.75
920.466	8167.75
920.701	8063.75
920.935	8105.75
921.17	8023.75
921.405	7913.75
921.639	8033.75
921.873	7903.75
922.108	7942.75
922.342	7902.75
922.576	7802.75
922.811	7755.75
923.045	7803.75
923.279	7771.75
923.513	7567.75
923.747	7695.75
923.981	7567.75
924.215	7531.75
924.449	7515.75
924.683	7392.75
924.917	7385.75
925.151	7391.75
925.385	7404.75
925.618	7399.75
925.852	7408.75
926.086	7281.75
926.319	7341.75
926.553	7250.75
926.786	7283.75
927.02	7239.75
927.253	7265.75
927.486	7246.75
927.72	7191.75
927.953	7285.75
928.186	7150.75
928.42	7173.75
928.653	7075.75
928.886	7072.75
929.119	7075.75
929.352	7006.75
929.585	6969.75
929.818	6889.75
930.051	6859.75
930.284	6902.75
930.516	6679.75
930.749	6706.75
930.982	6687.75
931.215	6684.75
931.447	6587.75
931.68	6525.75
931.912	6554.75
932.145	6578.75
932.377	6574.75
932.61	6682.75
932.842	6427.75
933.074	6530.75
933.307	6496.75
933.539	6565.75
933.771	6569.75
934.003	6480.75
934.236	6526.75
934.468	6589.75
934.7	6492.75
934.932	6523.75
935.164	6391.75
935.395	6392.75
935.627	6429.75
935.859	6422.75
936.091	6354.75
936.323	6338.75
936.554	6323.75
936.786	6305.75
937.017	6180.75
937.249	6260.75
937.481	6143.75
937.712	6263.75
937.943	6160.75
938.175	6130.75
938.406	6158.75
938.637	6186.75
938.869	6145.75
939.1	6109.75
939.331	6060.75
939.562	6123.75
939.793	6065.75
940.024	6038.75
940.255	6069.75
940.486	5967.75
940.717	5901.75
940.948	5894.75
941.179	5835.75
941.409	5879.75
941.64	5913.75
941.871	5856.75
942.102	5815.75
942.332	5827.75
942.563	5936.75
942.793	5871.75
943.024	5770.75
943.254	5811.75
943.484	5810.75
943.715	5790.75
943.945	5841.75
944.175	5717.75
944.405	5660.75
944.636	5684.75
944.866	5762.75
945.096	5727.75
945.326	5689.75
945.556	5694.75
945.786	5686.75
946.016	5603.75
946.245	5544.75
946.475	5594.75
946.705	5558.75
946.935	5518.75
947.164	5507.75
947.394	5412.75
947.624	5423.75
947.853	5408.75
948.083	5376.75
948.312	5346.75
948.542	5301.75
948.771	5260.75
949	5237.75
949.23	5248.75
949.459	5298.75
949.688	5342.75
949.917	5205.75
950.146	5251.75
950.375	5312.75
950.604	5179.75
950.833	5250.75
951.062	5262.75
951.291	5185.75
951.52	5113.75
951.749	5148.75
951.978	5145.75
952.206	5061.75
952.435	5117.75
952.664	5105.75
952.892	5048.75
953.121	5020.75
953.349	5057.75
953.578	5022.75
953.806	5014.75
954.035	4899.75
954.263	4923.75
954.491	4883.75
954.719	4918.75
954.948	4828.75
955.176	4838.75
955.404	4711.75
955.632	4828.75
955.86	4794.75
956.088	4787.75
956.316	4766.75
956.544	4759.75
956.772	4673.75
956.999	4644.75
957.227	4751.75
957.455	4556.75
957.683	4596.75
957.91	4542.75
958.138	4561.75
958.365	4513.75
958.593	4465.75
958.82	4456.75
959.048	4503.75
959.275	4463.75
959.502	4442.75
959.73	4445.75
959.957	4430.75
960.184	4411.75
960.411	4391.75
960.638	4449.75
960.865	4405.75
961.092	4414.75
961.319	4293.75
961.546	4367.75
961.773	4375.75
962	4297.75
962.227	4389.75
962.454	4331.75
962.68	4289.75
962.907	4307.75
963.134	4238.75
963.36	4232.75
963.587	4221.75
963.813	4124.75
964.04	4176.75
964.266	4095.75
964.493	4155.75
964.719	4103.75
964.945	4102.75
965.171	3960.75
965.398	4048.75
965.624	4042.75
965.85	3941.75
966.076	3965.75
966.302	3971.75
966.528	3942.75
966.754	3947.75
966.98	3926.75
967.206	3884.75
967.431	3809.75
967.657	3901.75
967.883	3882.75
968.109	3873.75
968.334	3810.75
968.56	3784.75
968.785	3803.75
969.011	3743.75
969.236	3794.75
969.462	3741.75
969.687	3741.75
969.912	3758.75
970.138	3789.75
970.363	3685.75
970.588	3697.75
970.813	3660.75
971.038	3676.75
971.263	3643.75
971.488	3681.75
971.713	3674.75
971.938	3624.75
972.163	3568.75
972.388	3555.75
972.613	3542.75
972.838	3537.75
973.062	3540.75
973.287	3525.75
973.512	3408.75
973.736	3494.75
973.961	3399.75
974.185	3447.75
974.41	3460.75
974.634	3340.75
974.858	3331.75
975.083	3400.75
975.307	3389.75
975.531	3323.75
975.755	3269.75
975.98	3237.75
976.204	3166.75
976.428	3195.75
976.652	3186.75
976.876	3124.75
977.1	3185.75
977.324	3154.75
977.547	3206.75
977.771	3207.75
977.995	3147.75
978.219	3066.75
978.442	3168.75
978.666	3108.75
978.89	3094.75
979.113	3093.75
979.337	3104.75
979.56	3028.75
979.783	3124.75
980.007	2986.75
980.23	3001.75
980.453	3001.75
980.677	3021.75
980.9	3034.75
981.123	2909.75
981.346	3011.75
981.569	2950.75
981.792	2988.75
982.015	2906.75
982.238	2906.75
982.461	2914.75
982.684	2888.75
982.907	2808.75
983.129	2828.75
983.352	2870.75
983.575	2839.75
983.797	2819.75
984.02	2756.75
984.242	2741.75
984.465	2755.75
984.687	2782.75
984.91	2778.75
985.132	2719.75
985.354	2798.75
985.577	2714.75
985.799	2711.75
986.021	2626.75
986.243	2674.75
986.465	2657.75
986.687	2718.75
986.909	2721.75
987.131	2627.75
987.353	2595.75
987.575	2648.75
987.797	2627.75
988.019	2517.75
988.241	2599.75
988.462	2545.75
988.684	2615.75
988.906	2647.75
989.127	2638.75
989.349	2493.75
989.57	2530.75
989.792	2595.75
990.013	2603.75
990.234	2554.75
990.456	2620.75
990.677	2565.75
990.898	2491.75
991.119	2505.75
991.341	2508.75
991.562	2463.75
991.783	2491.75
992.004	2433.75
992.225	2386.75
992.446	2466.75
992.667	2366.75
992.887	2430.75
993.108	2327.75
993.329	2419.75
993.55	2415.75
993.77	2270.75
993.991	2300.75
994.212	2313.75
994.432	2336.75
994.653	2306.75
994.873	2317.75
995.093	2195.75
995.314	2224.75
995.534	2310.75
995.754	2294.75
995.975	2312.75
996.195	2186.75
996.415	2223.75
996.635	2210.75
996.855	2231.75
997.075	2185.75
997.295	2217.75
997.515	2169.75
997.735	2212.75
997.955	2217.75
998.174	2185.75
998.394	2182.75
998.614	2193.75
998.834	2129.75
999.053	2209.75
999.273	2174.75
999.492	2243.75
999.712	2159.75
999.931	2126.75
1000.151	2153.75
1000.37	2144.75
1000.589	2190.75
1000.809	2072.75
1001.028	2219.75
1001.247	2130.75
1001.466	2011.75
1001.685	2162.75
1001.904	2087.75
1002.123	2058.75
1002.342	2074.75
1002.561	2013.75
1002.78	2036.75
1002.999	2086.75
1003.218	2049.75
1003.436	2002.75
1003.655	2042.75
1003.874	1985.75
1004.092	1999.75
1004.311	2012.75
1004.53	1974.75
1004.748	2051.75
1004.966	1978.75
1005.185	2016.75
1005.403	2031.75
1005.622	1962.75
1005.84	2034.75
1006.058	1936.75
1006.276	1951.75
1006.494	2463.75
1006.712	1988.75
1006.931	2026.75
1007.149	1928.75
1007.367	1941.75
1007.584	1985.75
1007.802	2010.75
1008.02	1968.75
1008.238	2047.75
1008.456	2047.75
1008.673	1942.75
1008.891	2063.75
1009.109	2038.75
1009.326	2082.75
1009.544	2176.75
1009.761	2104.75
1009.979	2255.75
1010.196	2227.75
1010.413	2350.75
1010.631	2426.75
1010.848	2498.75
1011.065	2500.75
1011.282	2435.75
1011.5	2376.75
1011.717	2467.75
1011.934	2422.75
1012.151	2470.75
1012.368	2432.75
1012.585	2355.75
1012.801	2448.75
1013.018	2407.75
1013.235	2348.75
1013.452	2369.75
1013.669	2408.75
1013.885	2420.75
1014.102	2441.75
1014.318	2391.75
1014.535	2346.75
1014.751	2402.75
1014.968	2385.75
1015.184	2389.75
1015.401	2309.75
1015.617	2332.75
1015.833	2236.75
1016.049	2285.75
1016.266	2234.75
1016.482	2207.75
1016.698	2129.75
1016.914	2177.75
1017.13	2134.75
1017.346	2106.75
1017.562	2155.75
1017.778	2096.75
1017.993	2077.75
1018.209	2109.75
1018.425	2088.75
1018.641	2064.75
1018.856	2059.75
1019.072	2070.75
1019.288	2156.75
1019.503	2088.75
1019.719	2000.75
1019.934	2003.75
1020.149	2078.75
1020.365	1985.75
1020.58	1954.75
1020.795	1968.75
1021.011	1903.75
1021.226	1849.75
1021.441	1854.75
1021.656	1760.75
1021.871	1690.75
1022.086	1685.75
1022.301	1635.75
1022.516	1627.75
1022.731	1691.75
1022.946	1605.75
1023.16	1577.75
1023.375	1532.75
1023.59	1524.75
1023.804	1467.75
1024.019	1524.75
1024.234	1412.75
1024.448	1440.75
1024.663	1333.75
1024.877	1337.75
1025.092	1361.75
1025.306	1346.75
1025.52	1272.75
1025.734	1356.75
1025.949	1243.75
1026.163	1179.75
1026.377	1135.75
1026.591	1168.75
1026.805	1090.75
1027.019	1069.75
1027.233	1050.75
1027.447	991.75
1027.661	1080.75
1027.875	1021.75
1028.088	1040.75
1028.302	945.75
1028.516	931.75
1028.73	931.75
1028.943	905.75
1029.157	827.75
1029.37	786.75
1029.584	-2.25
1029.797	-0.25
1030.011	-4.25
1030.224	-1.25
