Data from QEP037381__312__16-21-49-910.txt Node

Date: Fri Dec 16 16:21:49 EST 2022
User: dcclab
Spectrometer: QEP03738
Trigger mode: 4
Integration Time (sec): 1.000000E1
Scans to average: 1
Electric dark correction enabled: true
Nonlinearity correction enabled: false
Boxcar width: 0
XAxis mode: Wavelengths
Number of Pixels in Spectrum: 1044
>>>>>Begin Spectral Data<<<<<
784.041	6.75
784.3	0.75
784.558	-1.25
784.817	-4.25
785.075	112856.75
785.334	19903.75
785.592	9413.75
785.851	6461.75
786.109	4859.75
786.368	3827.75
786.626	3040.75
786.884	2564.75
787.143	2116.75
787.401	1754.75
787.659	1558.75
787.917	1350.75
788.175	1224.75
788.433	1068.75
788.691	967.75
788.949	892.75
789.207	843.75
789.465	710.75
789.723	686.75
789.98	651.75
790.238	658.75
790.496	614.75
790.753	609.75
791.011	628.75
791.268	577.75
791.526	558.75
791.783	585.75
792.041	534.75
792.298	465.75
792.556	520.75
792.813	521.75
793.07	493.75
793.327	467.75
793.584	553.75
793.841	453.75
794.099	485.75
794.356	539.75
794.613	443.75
794.869	491.75
795.126	451.75
795.383	431.75
795.64	453.75
795.897	408.75
796.153	458.75
796.41	444.75
796.667	433.75
796.923	433.75
797.18	439.75
797.436	459.75
797.693	424.75
797.949	488.75
798.206	504.75
798.462	425.75
798.718	483.75
798.974	452.75
799.231	499.75
799.487	501.75
799.743	506.75
799.999	534.75
800.255	513.75
800.511	503.75
800.767	555.75
801.023	547.75
801.279	579.75
801.534	629.75
801.79	686.75
802.046	708.75
802.302	835.75
802.557	973.75
802.813	1208.75
803.068	1496.75
803.324	2095.75
803.579	2853.75
803.835	3940.75
804.09	5366.75
804.345	7019.75
804.601	8883.75
804.856	10705.75
805.111	12316.75
805.366	13547.75
805.621	14480.75
805.876	15191.75
806.131	15585.75
806.386	15950.75
806.641	16166.75
806.896	16533.75
807.151	16797.75
807.406	17064.75
807.661	17361.75
807.915	17683.75
808.17	17886.75
808.425	18042.75
808.679	18235.75
808.934	18448.75
809.188	18529.75
809.443	18820.75
809.697	19005.75
809.951	19162.75
810.206	19196.75
810.46	19571.75
810.714	19741.75
810.968	19840.75
811.223	20076.75
811.477	20219.75
811.731	20299.75
811.985	20499.75
812.239	20492.75
812.493	20586.75
812.747	20595.75
813	20697.75
813.254	20833.75
813.508	20933.75
813.762	20902.75
814.015	21062.75
814.269	21293.75
814.522	21395.75
814.776	21641.75
815.03	21910.75
815.283	22235.75
815.536	22538.75
815.79	22924.75
816.043	23270.75
816.296	23598.75
816.55	23738.75
816.803	24065.75
817.056	24348.75
817.309	24549.75
817.562	24708.75
817.815	25084.75
818.068	25208.75
818.321	25451.75
818.574	25836.75
818.827	26072.75
819.079	26369.75
819.332	26830.75
819.585	27220.75
819.838	27465.75
820.09	27634.75
820.343	27746.75
820.595	27875.75
820.848	27962.75
821.1	28202.75
821.353	28239.75
821.605	28173.75
821.857	28213.75
822.11	28026.75
822.362	27821.75
822.614	27914.75
822.866	27945.75
823.118	27902.75
823.37	27992.75
823.622	28090.75
823.874	28217.75
824.126	28349.75
824.378	28215.75
824.63	28299.75
824.882	28466.75
825.134	28447.75
825.385	28352.75
825.637	28245.75
825.888	28172.75
826.14	28141.75
826.392	27997.75
826.643	27800.75
826.895	27798.75
827.146	27577.75
827.397	27432.75
827.649	27592.75
827.9	27589.75
828.151	27548.75
828.402	27551.75
828.653	27796.75
828.905	27780.75
829.156	27789.75
829.407	27783.75
829.658	27863.75
829.909	27965.75
830.159	27935.75
830.41	27813.75
830.661	27716.75
830.912	27422.75
831.162	27331.75
831.413	27309.75
831.664	27339.75
831.914	27329.75
832.165	27256.75
832.415	27158.75
832.666	27167.75
832.916	27363.75
833.167	27154.75
833.417	27271.75
833.667	27127.75
833.917	26978.75
834.168	26915.75
834.418	26891.75
834.668	26783.75
834.918	26592.75
835.168	26587.75
835.418	26292.75
835.668	26335.75
835.918	26217.75
836.167	26143.75
836.417	26159.75
836.667	26132.75
836.917	26005.75
837.166	26057.75
837.416	26083.75
837.666	26045.75
837.915	26015.75
838.165	25929.75
838.414	25891.75
838.663	25793.75
838.913	25863.75
839.162	25664.75
839.411	25836.75
839.661	25607.75
839.91	25562.75
840.159	25509.75
840.408	25507.75
840.657	25594.75
840.906	25622.75
841.155	25520.75
841.404	25439.75
841.653	25542.75
841.902	25593.75
842.15	25606.75
842.399	25527.75
842.648	25534.75
842.897	25468.75
843.145	25306.75
843.394	25228.75
843.642	24961.75
843.891	24806.75
844.139	24784.75
844.388	24624.75
844.636	24475.75
844.884	24425.75
845.133	24533.75
845.381	24430.75
845.629	24487.75
845.877	24346.75
846.125	24389.75
846.373	24305.75
846.621	24169.75
846.869	24139.75
847.117	23986.75
847.365	23931.75
847.613	23762.75
847.861	23612.75
848.108	23659.75
848.356	23664.75
848.604	23454.75
848.851	23547.75
849.099	23493.75
849.346	23673.75
849.594	23712.75
849.841	23803.75
850.089	23881.75
850.336	23836.75
850.583	23711.75
850.831	23637.75
851.078	23539.75
851.325	23576.75
851.572	23680.75
851.819	23450.75
852.066	23015.75
852.313	22668.75
852.56	22625.75
852.807	22425.75
853.054	22286.75
853.301	22261.75
853.548	22327.75
853.794	22495.75
854.041	22519.75
854.288	22557.75
854.534	22872.75
854.781	22803.75
855.028	22728.75
855.274	22757.75
855.52	22507.75
855.767	22472.75
856.013	22436.75
856.26	22740.75
856.506	22197.75
856.752	22223.75
856.998	22262.75
857.244	22379.75
857.49	22395.75
857.736	22431.75
857.982	22479.75
858.228	22328.75
858.474	22128.75
858.72	22004.75
858.966	21766.75
859.212	21628.75
859.458	21446.75
859.703	21082.75
859.949	21042.75
860.195	20800.75
860.44	20804.75
860.686	20775.75
860.931	20685.75
861.177	20538.75
861.422	20466.75
861.667	20326.75
861.913	20375.75
862.158	20274.75
862.403	20446.75
862.648	20395.75
862.893	20449.75
863.138	20344.75
863.384	20249.75
863.629	20307.75
863.873	20294.75
864.118	20256.75
864.363	20045.75
864.608	19938.75
864.853	20074.75
865.098	19896.75
865.342	19719.75
865.587	19776.75
865.832	19680.75
866.076	19706.75
866.321	19507.75
866.565	19615.75
866.81	19450.75
867.054	19310.75
867.298	19298.75
867.543	19281.75
867.787	19306.75
868.031	19276.75
868.275	19175.75
868.519	19095.75
868.764	19030.75
869.008	19085.75
869.252	19055.75
869.496	18991.75
869.739	18946.75
869.983	19007.75
870.227	19010.75
870.471	18901.75
870.715	19023.75
870.958	19094.75
871.202	19162.75
871.446	19196.75
871.689	19245.75
871.933	19190.75
872.176	19161.75
872.42	18957.75
872.663	18991.75
872.906	18978.75
873.15	18969.75
873.393	18927.75
873.636	18977.75
873.879	18856.75
874.122	18615.75
874.366	18272.75
874.609	18187.75
874.852	17966.75
875.095	17835.75
875.337	17672.75
875.58	17639.75
875.823	17578.75
876.066	17636.75
876.309	17507.75
876.551	17350.75
876.794	17289.75
877.037	17350.75
877.279	17164.75
877.522	17188.75
877.764	17257.75
878.007	17097.75
878.249	17026.75
878.491	16992.75
878.734	17038.75
878.976	16989.75
879.218	16847.75
879.46	16788.75
879.702	16676.75
879.945	16512.75
880.187	16333.75
880.429	16259.75
880.671	16131.75
880.912	16099.75
881.154	16082.75
881.396	15942.75
881.638	16001.75
881.88	16039.75
882.121	16010.75
882.363	15987.75
882.605	16036.75
882.846	15939.75
883.088	15981.75
883.329	15918.75
883.571	15968.75
883.812	16188.75
884.053	16437.75
884.295	16746.75
884.536	17011.75
884.777	16995.75
885.018	16796.75
885.259	16722.75
885.5	16631.75
885.742	16641.75
885.982	16453.75
886.223	16170.75
886.464	16200.75
886.705	15979.75
886.946	15760.75
887.187	15494.75
887.428	15370.75
887.668	15116.75
887.909	14892.75
888.15	14664.75
888.39	14660.75
888.631	14557.75
888.871	14430.75
889.111	14259.75
889.352	14185.75
889.592	14112.75
889.833	13934.75
890.073	13916.75
890.313	13859.75
890.553	13588.75
890.793	13578.75
891.033	13572.75
891.273	13410.75
891.513	13445.75
891.753	13435.75
891.993	13374.75
892.233	13461.75
892.473	13490.75
892.713	13410.75
892.952	13376.75
893.192	13453.75
893.432	13401.75
893.671	13461.75
893.911	13254.75
894.15	13245.75
894.39	13122.75
894.629	13090.75
894.869	13059.75
895.108	12984.75
895.347	12853.75
895.587	12929.75
895.826	12832.75
896.065	12749.75
896.304	12878.75
896.543	12845.75
896.782	12656.75
897.021	12773.75
897.26	12620.75
897.499	12594.75
897.738	12619.75
897.977	12561.75
898.216	12420.75
898.454	12372.75
898.693	12257.75
898.932	12228.75
899.17	12194.75
899.409	12147.75
899.647	12256.75
899.886	12185.75
900.124	12118.75
900.363	12141.75
900.601	12241.75
900.839	12161.75
901.078	12208.75
901.316	12370.75
901.554	12366.75
901.792	12425.75
902.03	12483.75
902.268	12522.75
902.506	12452.75
902.744	12385.75
902.982	12244.75
903.22	11996.75
903.458	11861.75
903.695	11624.75
903.933	11453.75
904.171	11267.75
904.409	11093.75
904.646	10949.75
904.884	10763.75
905.121	10711.75
905.359	10632.75
905.596	10439.75
905.833	10309.75
906.071	10336.75
906.308	10313.75
906.545	10222.75
906.783	10144.75
907.02	10199.75
907.257	10084.75
907.494	10037.75
907.731	10088.75
907.968	10068.75
908.205	9981.75
908.442	9897.75
908.679	9801.75
908.915	9762.75
909.152	9654.75
909.389	9515.75
909.626	9481.75
909.862	9408.75
910.099	9378.75
910.335	9456.75
910.572	9319.75
910.808	9263.75
911.045	9259.75
911.281	9198.75
911.518	9266.75
911.754	9165.75
911.99	9066.75
912.226	9012.75
912.463	8907.75
912.699	8831.75
912.935	8809.75
913.171	8721.75
913.407	8600.75
913.643	8592.75
913.879	8537.75
914.114	8452.75
914.35	8348.75
914.586	8289.75
914.822	8221.75
915.057	8289.75
915.293	8026.75
915.529	8076.75
915.764	8112.75
916	8091.75
916.235	8022.75
916.471	8045.75
916.706	7959.75
916.941	7966.75
917.177	7942.75
917.412	7962.75
917.647	7952.75
917.882	7870.75
918.117	7911.75
918.352	7824.75
918.588	7839.75
918.823	7686.75
919.057	7670.75
919.292	7547.75
919.527	7634.75
919.762	7424.75
919.997	7429.75
920.232	7306.75
920.466	7269.75
920.701	7113.75
920.935	7230.75
921.17	7109.75
921.405	7031.75
921.639	7100.75
921.873	7030.75
922.108	6977.75
922.342	6995.75
922.576	6925.75
922.811	6956.75
923.045	6904.75
923.279	6877.75
923.513	6771.75
923.747	6783.75
923.981	6734.75
924.215	6666.75
924.449	6620.75
924.683	6575.75
924.917	6587.75
925.151	6529.75
925.385	6576.75
925.618	6506.75
925.852	6425.75
926.086	6413.75
926.319	6403.75
926.553	6398.75
926.786	6406.75
927.02	6449.75
927.253	6446.75
927.486	6387.75
927.72	6349.75
927.953	6425.75
928.186	6308.75
928.42	6334.75
928.653	6261.75
928.886	6233.75
929.119	6275.75
929.352	6182.75
929.585	6198.75
929.818	6138.75
930.051	6059.75
930.284	6040.75
930.516	5928.75
930.749	5908.75
930.982	5963.75
931.215	5877.75
931.447	5804.75
931.68	5812.75
931.912	5747.75
932.145	5777.75
932.377	5900.75
932.61	5909.75
932.842	5754.75
933.074	5771.75
933.307	5739.75
933.539	5820.75
933.771	5804.75
934.003	5756.75
934.236	5783.75
934.468	5790.75
934.7	5763.75
934.932	5784.75
935.164	5629.75
935.395	5699.75
935.627	5665.75
935.859	5651.75
936.091	5578.75
936.323	5593.75
936.554	5649.75
936.786	5585.75
937.017	5497.75
937.249	5559.75
937.481	5420.75
937.712	5480.75
937.943	5459.75
938.175	5434.75
938.406	5414.75
938.637	5439.75
938.869	5398.75
939.1	5423.75
939.331	5352.75
939.562	5388.75
939.793	5337.75
940.024	5316.75
940.255	5353.75
940.486	5308.75
940.717	5233.75
940.948	5168.75
941.179	5138.75
941.409	5205.75
941.64	5098.75
941.871	5167.75
942.102	5161.75
942.332	5110.75
942.563	5179.75
942.793	5132.75
943.024	5083.75
943.254	5110.75
943.484	5166.75
943.715	5193.75
943.945	5115.75
944.175	5056.75
944.405	4998.75
944.636	5035.75
944.866	5094.75
945.096	5113.75
945.326	4972.75
945.556	5079.75
945.786	5028.75
946.016	4905.75
946.245	4893.75
946.475	4896.75
946.705	4869.75
946.935	4893.75
947.164	4831.75
947.394	4790.75
947.624	4755.75
947.853	4799.75
948.083	4759.75
948.312	4714.75
948.542	4680.75
948.771	4658.75
949	4663.75
949.23	4657.75
949.459	4647.75
949.688	4651.75
949.917	4595.75
950.146	4627.75
950.375	4711.75
950.604	4587.75
950.833	4655.75
951.062	4613.75
951.291	4558.75
951.52	4518.75
951.749	4529.75
951.978	4522.75
952.206	4437.75
952.435	4451.75
952.664	4523.75
952.892	4461.75
953.121	4487.75
953.349	4429.75
953.578	4426.75
953.806	4369.75
954.035	4336.75
954.263	4371.75
954.491	4295.75
954.719	4295.75
954.948	4276.75
955.176	4243.75
955.404	4157.75
955.632	4211.75
955.86	4252.75
956.088	4188.75
956.316	4208.75
956.544	4179.75
956.772	4103.75
956.999	4102.75
957.227	4121.75
957.455	4037.75
957.683	4090.75
957.91	3994.75
958.138	4013.75
958.365	3985.75
958.593	3971.75
958.82	3882.75
959.048	3974.75
959.275	3921.75
959.502	3906.75
959.73	3838.75
959.957	3936.75
960.184	3896.75
960.411	3859.75
960.638	3911.75
960.865	3820.75
961.092	3868.75
961.319	3728.75
961.546	3849.75
961.773	3876.75
962	3824.75
962.227	3856.75
962.454	3778.75
962.68	3762.75
962.907	3803.75
963.134	3711.75
963.36	3730.75
963.587	3735.75
963.813	3644.75
964.04	3684.75
964.266	3592.75
964.493	3671.75
964.719	3596.75
964.945	3595.75
965.171	3527.75
965.398	3545.75
965.624	3562.75
965.85	3473.75
966.076	3456.75
966.302	3488.75
966.528	3485.75
966.754	3475.75
966.98	3502.75
967.206	3437.75
967.431	3366.75
967.657	3450.75
967.883	3411.75
968.109	3423.75
968.334	3334.75
968.56	3334.75
968.785	3342.75
969.011	3291.75
969.236	3316.75
969.462	3321.75
969.687	3301.75
969.912	3343.75
970.138	3346.75
970.363	3251.75
970.588	3228.75
970.813	3229.75
971.038	3213.75
971.263	3246.75
971.488	3219.75
971.713	3304.75
971.938	3242.75
972.163	3134.75
972.388	3154.75
972.613	3098.75
972.838	3117.75
973.062	3071.75
973.287	3074.75
973.512	3030.75
973.736	3064.75
973.961	3032.75
974.185	3022.75
974.41	3053.75
974.634	2935.75
974.858	2934.75
975.083	2990.75
975.307	2964.75
975.531	2901.75
975.755	2882.75
975.98	2900.75
976.204	2800.75
976.428	2825.75
976.652	2822.75
976.876	2800.75
977.1	2798.75
977.324	2774.75
977.547	2808.75
977.771	2784.75
977.995	2795.75
978.219	2727.75
978.442	2834.75
978.666	2773.75
978.89	2726.75
979.113	2731.75
979.337	2711.75
979.56	2689.75
979.783	2792.75
980.007	2640.75
980.23	2726.75
980.453	2639.75
980.677	2662.75
980.9	2653.75
981.123	2534.75
981.346	2669.75
981.569	2607.75
981.792	2646.75
982.015	2580.75
982.238	2496.75
982.461	2533.75
982.684	2509.75
982.907	2511.75
983.129	2499.75
983.352	2496.75
983.575	2465.75
983.797	2491.75
984.02	2476.75
984.242	2401.75
984.465	2452.75
984.687	2471.75
984.91	2453.75
985.132	2457.75
985.354	2487.75
985.577	2421.75
985.799	2395.75
986.021	2305.75
986.243	2363.75
986.465	2346.75
986.687	2379.75
986.909	2400.75
987.131	2370.75
987.353	2306.75
987.575	2320.75
987.797	2305.75
988.019	2235.75
988.241	2303.75
988.462	2264.75
988.684	2314.75
988.906	2349.75
989.127	2383.75
989.349	2226.75
989.57	2246.75
989.792	2274.75
990.013	2291.75
990.234	2293.75
990.456	2310.75
990.677	2295.75
990.898	2227.75
991.119	2203.75
991.341	2221.75
991.562	2178.75
991.783	2208.75
992.004	2162.75
992.225	2102.75
992.446	2184.75
992.667	2072.75
992.887	2141.75
993.108	2070.75
993.329	2181.75
993.55	2119.75
993.77	2067.75
993.991	2072.75
994.212	2059.75
994.432	2061.75
994.653	2077.75
994.873	2081.75
995.093	1952.75
995.314	1994.75
995.534	2038.75
995.754	2079.75
995.975	2084.75
996.195	1954.75
996.415	2015.75
996.635	2010.75
996.855	2043.75
997.075	2013.75
997.295	1966.75
997.515	1963.75
997.735	2013.75
997.955	1958.75
998.174	1977.75
998.394	1942.75
998.614	2010.75
998.834	1938.75
999.053	2006.75
999.273	1957.75
999.492	2033.75
999.712	1942.75
999.931	1905.75
1000.151	1936.75
1000.37	1893.75
1000.589	1959.75
1000.809	1849.75
1001.028	1978.75
1001.247	1921.75
1001.466	1781.75
1001.685	1927.75
1001.904	1878.75
1002.123	1841.75
1002.342	1884.75
1002.561	1792.75
1002.78	1819.75
1002.999	1895.75
1003.218	1843.75
1003.436	1778.75
1003.655	1858.75
1003.874	1792.75
1004.092	1809.75
1004.311	1843.75
1004.53	1814.75
1004.748	1858.75
1004.966	1777.75
1005.185	1845.75
1005.403	1829.75
1005.622	1819.75
1005.84	1859.75
1006.058	1750.75
1006.276	1808.75
1006.494	2289.75
1006.712	1804.75
1006.931	1856.75
1007.149	1754.75
1007.367	1772.75
1007.584	1805.75
1007.802	1855.75
1008.02	1801.75
1008.238	1905.75
1008.456	1878.75
1008.673	1761.75
1008.891	1883.75
1009.109	1877.75
1009.326	1945.75
1009.544	2031.75
1009.761	1941.75
1009.979	2013.75
1010.196	2037.75
1010.413	2173.75
1010.631	2267.75
1010.848	2315.75
1011.065	2296.75
1011.282	2270.75
1011.5	2229.75
1011.717	2325.75
1011.934	2216.75
1012.151	2283.75
1012.368	2233.75
1012.585	2176.75
1012.801	2257.75
1013.018	2219.75
1013.235	2203.75
1013.452	2229.75
1013.669	2212.75
1013.885	2202.75
1014.102	2252.75
1014.318	2231.75
1014.535	2186.75
1014.751	2209.75
1014.968	2235.75
1015.184	2261.75
1015.401	2118.75
1015.617	2166.75
1015.833	2111.75
1016.049	2077.75
1016.266	2048.75
1016.482	2056.75
1016.698	1998.75
1016.914	2059.75
1017.13	1989.75
1017.346	1962.75
1017.562	2024.75
1017.778	1955.75
1017.993	1943.75
1018.209	1953.75
1018.425	1958.75
1018.641	1887.75
1018.856	1846.75
1019.072	1905.75
1019.288	1953.75
1019.503	1909.75
1019.719	1840.75
1019.934	1842.75
1020.149	1944.75
1020.365	1841.75
1020.58	1797.75
1020.795	1840.75
1021.011	1745.75
1021.226	1697.75
1021.441	1716.75
1021.656	1627.75
1021.871	1572.75
1022.086	1547.75
1022.301	1535.75
1022.516	1501.75
1022.731	1560.75
1022.946	1465.75
1023.16	1436.75
1023.375	1425.75
1023.59	1404.75
1023.804	1326.75
1024.019	1438.75
1024.234	1312.75
1024.448	1339.75
1024.663	1237.75
1024.877	1250.75
1025.092	1249.75
1025.306	1253.75
1025.52	1158.75
1025.734	1236.75
1025.949	1129.75
1026.163	1117.75
1026.377	1048.75
1026.591	1082.75
1026.805	1017.75
1027.019	1001.75
1027.233	967.75
1027.447	922.75
1027.661	1021.75
1027.875	938.75
1028.088	967.75
1028.302	878.75
1028.516	851.75
1028.73	861.75
1028.943	842.75
1029.157	780.75
1029.37	734.75
1029.584	1.75
1029.797	1.75
1030.011	-2.25
1030.224	-3.25
