Data from QEP037381__305__16-20-39-909.txt Node

Date: Fri Dec 16 16:20:39 EST 2022
User: dcclab
Spectrometer: QEP03738
Trigger mode: 4
Integration Time (sec): 1.000000E1
Scans to average: 1
Electric dark correction enabled: true
Nonlinearity correction enabled: false
Boxcar width: 0
XAxis mode: Wavelengths
Number of Pixels in Spectrum: 1044
>>>>>Begin Spectral Data<<<<<
784.041	13.12
784.3	-0.88
784.558	-2.88
784.817	-4.88
785.075	113728.12
785.334	19378.12
785.592	9041.12
785.851	6174.12
786.109	4659.12
786.368	3601.12
786.626	2905.12
786.884	2433.12
787.143	2052.12
787.401	1665.12
787.659	1505.12
787.917	1318.12
788.175	1182.12
788.433	1041.12
788.691	927.12
788.949	854.12
789.207	827.12
789.465	724.12
789.723	674.12
789.98	642.12
790.238	677.12
790.496	609.12
790.753	581.12
791.011	641.12
791.268	576.12
791.526	567.12
791.783	573.12
792.041	569.12
792.298	471.12
792.556	530.12
792.813	509.12
793.07	502.12
793.327	475.12
793.584	540.12
793.841	469.12
794.099	492.12
794.356	555.12
794.613	447.12
794.869	486.12
795.126	454.12
795.383	444.12
795.64	454.12
795.897	409.12
796.153	472.12
796.41	447.12
796.667	441.12
796.923	442.12
797.18	441.12
797.436	475.12
797.693	438.12
797.949	500.12
798.206	519.12
798.462	432.12
798.718	498.12
798.974	465.12
799.231	517.12
799.487	506.12
799.743	517.12
799.999	553.12
800.255	530.12
800.511	539.12
800.767	575.12
801.023	580.12
801.279	619.12
801.534	669.12
801.79	734.12
802.046	777.12
802.302	920.12
802.557	1079.12
802.813	1322.12
803.068	1685.12
803.324	2347.12
803.579	3225.12
803.835	4465.12
804.09	6158.12
804.345	8034.12
804.601	10168.12
804.856	12247.12
805.111	14225.12
805.366	15641.12
805.621	16699.12
805.876	17388.12
806.131	18010.12
806.386	18282.12
806.641	18661.12
806.896	18900.12
807.151	19260.12
807.406	19616.12
807.661	19908.12
807.915	20246.12
808.17	20649.12
808.425	20869.12
808.679	21102.12
808.934	21296.12
809.188	21406.12
809.443	21608.12
809.697	22036.12
809.951	22022.12
810.206	22377.12
810.46	22396.12
810.714	22767.12
810.968	22887.12
811.223	23024.12
811.477	23211.12
811.731	23564.12
811.985	23468.12
812.239	23641.12
812.493	23814.12
812.747	23761.12
813	23940.12
813.254	23975.12
813.508	24146.12
813.762	24168.12
814.015	24414.12
814.269	24642.12
814.522	24840.12
814.776	25068.12
815.03	25360.12
815.283	25721.12
815.536	26086.12
815.79	26620.12
816.043	26893.12
816.296	27316.12
816.55	27632.12
816.803	27902.12
817.056	28268.12
817.309	28521.12
817.562	28853.12
817.815	29118.12
818.068	29229.12
818.321	29546.12
818.574	29927.12
818.827	30282.12
819.079	30680.12
819.332	31189.12
819.585	31701.12
819.838	31932.12
820.09	32153.12
820.343	32448.12
820.595	32402.12
820.848	32797.12
821.1	32898.12
821.353	32847.12
821.605	32906.12
821.857	32850.12
822.11	32622.12
822.362	32581.12
822.614	32617.12
822.866	32617.12
823.118	32619.12
823.37	32749.12
823.622	32817.12
823.874	32916.12
824.126	32888.12
824.378	33021.12
824.63	33151.12
824.882	33246.12
825.134	33064.12
825.385	33158.12
825.637	33021.12
825.888	32886.12
826.14	32907.12
826.392	32868.12
826.643	32579.12
826.895	32529.12
827.146	32399.12
827.397	32278.12
827.649	32401.12
827.9	32375.12
828.151	32328.12
828.402	32482.12
828.653	32441.12
828.905	32577.12
829.156	32548.12
829.407	32423.12
829.658	32552.12
829.909	32713.12
830.159	32662.12
830.41	32560.12
830.661	32376.12
830.912	32189.12
831.162	32102.12
831.413	31961.12
831.664	32009.12
831.914	32020.12
832.165	31923.12
832.415	31835.12
832.666	31958.12
832.916	31953.12
833.167	31975.12
833.417	31851.12
833.667	31948.12
833.917	31629.12
834.168	31555.12
834.418	31458.12
834.668	31446.12
834.918	31171.12
835.168	31251.12
835.418	30925.12
835.668	30938.12
835.918	30817.12
836.167	30759.12
836.417	30708.12
836.667	30637.12
836.917	30583.12
837.166	30476.12
837.416	30666.12
837.666	30573.12
837.915	30489.12
838.165	30433.12
838.414	30478.12
838.663	30399.12
838.913	30432.12
839.162	30402.12
839.411	30304.12
839.661	29987.12
839.91	30051.12
840.159	30009.12
840.408	29968.12
840.657	29926.12
840.906	29956.12
841.155	29968.12
841.404	29944.12
841.653	29987.12
841.902	29925.12
842.15	30142.12
842.399	30091.12
842.648	30137.12
842.897	29876.12
843.145	29745.12
843.394	29525.12
843.642	29340.12
843.891	29290.12
844.139	29182.12
844.388	28942.12
844.636	28808.12
844.884	28832.12
845.133	28779.12
845.381	28747.12
845.629	28884.12
845.877	28708.12
846.125	28815.12
846.373	28568.12
846.621	28483.12
846.869	28494.12
847.117	28201.12
847.365	28012.12
847.613	27993.12
847.861	28000.12
848.108	27986.12
848.356	27779.12
848.604	27807.12
848.851	27781.12
849.099	27844.12
849.346	27871.12
849.594	28030.12
849.841	28207.12
850.089	28103.12
850.336	28028.12
850.583	28013.12
850.831	27923.12
851.078	27797.12
851.325	27849.12
851.572	27866.12
851.819	27621.12
852.066	27108.12
852.313	26839.12
852.56	26608.12
852.807	26501.12
853.054	26374.12
853.301	26210.12
853.548	26358.12
853.794	26408.12
854.041	26626.12
854.288	26689.12
854.534	26842.12
854.781	26830.12
855.028	26729.12
855.274	26811.12
855.52	26535.12
855.767	26454.12
856.013	26469.12
856.26	26793.12
856.506	26148.12
856.752	26167.12
856.998	26190.12
857.244	26260.12
857.49	26307.12
857.736	26380.12
857.982	26434.12
858.228	26332.12
858.474	26142.12
858.72	25956.12
858.966	25703.12
859.212	25617.12
859.458	25226.12
859.703	24907.12
859.949	24724.12
860.195	24635.12
860.44	24507.12
860.686	24442.12
860.931	24412.12
861.177	24178.12
861.422	24156.12
861.667	24004.12
861.913	24012.12
862.158	24169.12
862.403	24183.12
862.648	24097.12
862.893	24107.12
863.138	24128.12
863.384	23998.12
863.629	24089.12
863.873	24043.12
864.118	23920.12
864.363	23752.12
864.608	23754.12
864.853	23699.12
865.098	23490.12
865.342	23410.12
865.587	23389.12
865.832	23274.12
866.076	23201.12
866.321	23227.12
866.565	23136.12
866.81	22929.12
867.054	22851.12
867.298	22966.12
867.543	22771.12
867.787	22717.12
868.031	22738.12
868.275	22676.12
868.519	22609.12
868.764	22654.12
869.008	22473.12
869.252	22595.12
869.496	22404.12
869.739	22463.12
869.983	22394.12
870.227	22366.12
870.471	22432.12
870.715	22474.12
870.958	22486.12
871.202	22496.12
871.446	22582.12
871.689	22505.12
871.933	22620.12
872.176	22512.12
872.42	22425.12
872.663	22368.12
872.906	22418.12
873.15	22243.12
873.393	22251.12
873.636	22208.12
873.879	22034.12
874.122	21882.12
874.366	21462.12
874.609	21310.12
874.852	21140.12
875.095	21014.12
875.337	20973.12
875.58	20700.12
875.823	20768.12
876.066	20739.12
876.309	20608.12
876.551	20395.12
876.794	20468.12
877.037	20468.12
877.279	20254.12
877.522	20223.12
877.764	20328.12
878.007	20190.12
878.249	20212.12
878.491	20170.12
878.734	20188.12
878.976	20123.12
879.218	19951.12
879.46	19798.12
879.702	19788.12
879.945	19605.12
880.187	19433.12
880.429	19326.12
880.671	19193.12
880.912	19088.12
881.154	19025.12
881.396	18989.12
881.638	18996.12
881.88	18957.12
882.121	18927.12
882.363	18974.12
882.605	18992.12
882.846	18871.12
883.088	18802.12
883.329	18814.12
883.571	18799.12
883.812	18937.12
884.053	19283.12
884.295	19644.12
884.536	19834.12
884.777	19673.12
885.018	19503.12
885.259	19492.12
885.5	19300.12
885.742	19473.12
885.982	19239.12
886.223	19140.12
886.464	18931.12
886.705	18746.12
886.946	18583.12
887.187	18329.12
887.428	18142.12
887.668	17832.12
887.909	17589.12
888.15	17451.12
888.39	17409.12
888.631	17324.12
888.871	17136.12
889.111	16997.12
889.352	16881.12
889.592	16706.12
889.833	16549.12
890.073	16483.12
890.313	16367.12
890.553	16204.12
890.793	16138.12
891.033	16155.12
891.273	16008.12
891.513	15966.12
891.753	15870.12
891.993	15961.12
892.233	15936.12
892.473	16077.12
892.713	16049.12
892.952	15989.12
893.192	15976.12
893.432	15874.12
893.671	15939.12
893.911	15851.12
894.15	15755.12
894.39	15586.12
894.629	15546.12
894.869	15585.12
895.108	15343.12
895.347	15343.12
895.587	15228.12
895.826	15214.12
896.065	15159.12
896.304	15185.12
896.543	15240.12
896.782	15037.12
897.021	15033.12
897.26	14999.12
897.499	14958.12
897.738	14930.12
897.977	14843.12
898.216	14749.12
898.454	14616.12
898.693	14505.12
898.932	14498.12
899.17	14440.12
899.409	14330.12
899.647	14362.12
899.886	14200.12
900.124	14311.12
900.363	14279.12
900.601	14388.12
900.839	14344.12
901.078	14430.12
901.316	14405.12
901.554	14506.12
901.792	14579.12
902.03	14517.12
902.268	14624.12
902.506	14532.12
902.744	14380.12
902.982	14377.12
903.22	14172.12
903.458	13886.12
903.695	13642.12
903.933	13568.12
904.171	13293.12
904.409	13150.12
904.646	12982.12
904.884	12732.12
905.121	12652.12
905.359	12492.12
905.596	12456.12
905.833	12318.12
906.071	12186.12
906.308	12261.12
906.545	12165.12
906.783	12044.12
907.02	12078.12
907.257	11996.12
907.494	12022.12
907.731	11954.12
907.968	11929.12
908.205	11856.12
908.442	11811.12
908.679	11741.12
908.915	11605.12
909.152	11533.12
909.389	11388.12
909.626	11276.12
909.862	11184.12
910.099	11184.12
910.335	11226.12
910.572	11061.12
910.808	11064.12
911.045	11002.12
911.281	11018.12
911.518	11013.12
911.754	10905.12
911.99	10789.12
912.226	10753.12
912.463	10612.12
912.699	10523.12
912.935	10487.12
913.171	10367.12
913.407	10268.12
913.643	10253.12
913.879	10220.12
914.114	10030.12
914.35	9953.12
914.586	9887.12
914.822	9681.12
915.057	9798.12
915.293	9599.12
915.529	9539.12
915.764	9638.12
916	9545.12
916.235	9620.12
916.471	9550.12
916.706	9443.12
916.941	9448.12
917.177	9435.12
917.412	9468.12
917.647	9488.12
917.882	9349.12
918.117	9404.12
918.352	9376.12
918.588	9343.12
918.823	9212.12
919.057	9185.12
919.292	9006.12
919.527	8997.12
919.762	8891.12
919.997	8789.12
920.232	8677.12
920.466	8642.12
920.701	8530.12
920.935	8567.12
921.17	8475.12
921.405	8335.12
921.639	8385.12
921.873	8347.12
922.108	8314.12
922.342	8303.12
922.576	8192.12
922.811	8197.12
923.045	8216.12
923.279	8216.12
923.513	8013.12
923.747	8086.12
923.981	7989.12
924.215	7951.12
924.449	7958.12
924.683	7856.12
924.917	7787.12
925.151	7735.12
925.385	7784.12
925.618	7760.12
925.852	7729.12
926.086	7653.12
926.319	7633.12
926.553	7695.12
926.786	7694.12
927.02	7667.12
927.253	7684.12
927.486	7611.12
927.72	7559.12
927.953	7603.12
928.186	7567.12
928.42	7524.12
928.653	7496.12
928.886	7515.12
929.119	7436.12
929.352	7320.12
929.585	7337.12
929.818	7257.12
930.051	7290.12
930.284	7192.12
930.516	6994.12
930.749	7052.12
930.982	7091.12
931.215	6968.12
931.447	6957.12
931.68	6887.12
931.912	6907.12
932.145	6844.12
932.377	6845.12
932.61	7008.12
932.842	6812.12
933.074	6857.12
933.307	6776.12
933.539	6934.12
933.771	6876.12
934.003	6884.12
934.236	6908.12
934.468	6888.12
934.7	6754.12
934.932	6791.12
935.164	6697.12
935.395	6738.12
935.627	6707.12
935.859	6727.12
936.091	6617.12
936.323	6653.12
936.554	6633.12
936.786	6588.12
937.017	6452.12
937.249	6520.12
937.481	6479.12
937.712	6541.12
937.943	6458.12
938.175	6460.12
938.406	6409.12
938.637	6472.12
938.869	6330.12
939.1	6461.12
939.331	6333.12
939.562	6398.12
939.793	6313.12
940.024	6367.12
940.255	6320.12
940.486	6259.12
940.717	6235.12
940.948	6185.12
941.179	6155.12
941.409	6139.12
941.64	6101.12
941.871	6122.12
942.102	6058.12
942.332	6115.12
942.563	6201.12
942.793	6104.12
943.024	6015.12
943.254	6095.12
943.484	6163.12
943.715	6136.12
943.945	6076.12
944.175	6000.12
944.405	5964.12
944.636	5974.12
944.866	6014.12
945.096	6074.12
945.326	5939.12
945.556	5985.12
945.786	5939.12
946.016	5900.12
946.245	5842.12
946.475	5776.12
946.705	5759.12
946.935	5730.12
947.164	5748.12
947.394	5663.12
947.624	5694.12
947.853	5618.12
948.083	5639.12
948.312	5554.12
948.542	5526.12
948.771	5540.12
949	5468.12
949.23	5499.12
949.459	5563.12
949.688	5592.12
949.917	5470.12
950.146	5445.12
950.375	5495.12
950.604	5445.12
950.833	5468.12
951.062	5512.12
951.291	5399.12
951.52	5354.12
951.749	5350.12
951.978	5310.12
952.206	5261.12
952.435	5290.12
952.664	5313.12
952.892	5323.12
953.121	5281.12
953.349	5314.12
953.578	5297.12
953.806	5188.12
954.035	5148.12
954.263	5184.12
954.491	5097.12
954.719	5145.12
954.948	5036.12
955.176	5079.12
955.404	5011.12
955.632	5006.12
955.86	4990.12
956.088	4941.12
956.316	4927.12
956.544	4980.12
956.772	4904.12
956.999	4823.12
957.227	4908.12
957.455	4808.12
957.683	4772.12
957.91	4739.12
958.138	4713.12
958.365	4690.12
958.593	4677.12
958.82	4611.12
959.048	4650.12
959.275	4630.12
959.502	4627.12
959.73	4579.12
959.957	4608.12
960.184	4548.12
960.411	4550.12
960.638	4595.12
960.865	4564.12
961.092	4597.12
961.319	4442.12
961.546	4557.12
961.773	4584.12
962	4522.12
962.227	4542.12
962.454	4486.12
962.68	4406.12
962.907	4457.12
963.134	4395.12
963.36	4366.12
963.587	4374.12
963.813	4344.12
964.04	4322.12
964.266	4227.12
964.493	4305.12
964.719	4238.12
964.945	4229.12
965.171	4124.12
965.398	4219.12
965.624	4191.12
965.85	4104.12
966.076	4108.12
966.302	4124.12
966.528	4063.12
966.754	4056.12
966.98	4071.12
967.206	4081.12
967.431	3943.12
967.657	4053.12
967.883	4009.12
968.109	4007.12
968.334	3948.12
968.56	3903.12
968.785	3936.12
969.011	3886.12
969.236	3938.12
969.462	3843.12
969.687	3855.12
969.912	3907.12
970.138	3940.12
970.363	3853.12
970.588	3845.12
970.813	3850.12
971.038	3767.12
971.263	3841.12
971.488	3784.12
971.713	3778.12
971.938	3809.12
972.163	3670.12
972.388	3697.12
972.613	3664.12
972.838	3664.12
973.062	3679.12
973.287	3640.12
973.512	3575.12
973.736	3592.12
973.961	3572.12
974.185	3544.12
974.41	3588.12
974.634	3492.12
974.858	3498.12
975.083	3457.12
975.307	3477.12
975.531	3434.12
975.755	3363.12
975.98	3360.12
976.204	3326.12
976.428	3309.12
976.652	3259.12
976.876	3273.12
977.1	3278.12
977.324	3260.12
977.547	3291.12
977.771	3256.12
977.995	3244.12
978.219	3203.12
978.442	3320.12
978.666	3229.12
978.89	3229.12
979.113	3185.12
979.337	3189.12
979.56	3142.12
979.783	3230.12
980.007	3098.12
980.23	3161.12
980.453	3089.12
980.677	3134.12
980.9	3113.12
981.123	2983.12
981.346	3083.12
981.569	3077.12
981.792	3093.12
982.015	3041.12
982.238	3005.12
982.461	3009.12
982.684	2957.12
982.907	2967.12
983.129	2903.12
983.352	2953.12
983.575	2895.12
983.797	2913.12
984.02	2837.12
984.242	2822.12
984.465	2837.12
984.687	2829.12
984.91	2835.12
985.132	2854.12
985.354	2854.12
985.577	2784.12
985.799	2816.12
986.021	2716.12
986.243	2732.12
986.465	2709.12
986.687	2780.12
986.909	2838.12
987.131	2748.12
987.353	2678.12
987.575	2742.12
987.797	2703.12
988.019	2676.12
988.241	2679.12
988.462	2610.12
988.684	2703.12
988.906	2698.12
989.127	2708.12
989.349	2596.12
989.57	2649.12
989.792	2662.12
990.013	2652.12
990.234	2648.12
990.456	2676.12
990.677	2637.12
990.898	2575.12
991.119	2603.12
991.341	2576.12
991.562	2511.12
991.783	2552.12
992.004	2480.12
992.225	2461.12
992.446	2532.12
992.667	2413.12
992.887	2479.12
993.108	2371.12
993.329	2502.12
993.55	2434.12
993.77	2386.12
993.991	2369.12
994.212	2400.12
994.432	2350.12
994.653	2389.12
994.873	2370.12
995.093	2262.12
995.314	2292.12
995.534	2337.12
995.754	2347.12
995.975	2345.12
996.195	2267.12
996.415	2282.12
996.635	2282.12
996.855	2261.12
997.075	2288.12
997.295	2244.12
997.515	2218.12
997.735	2290.12
997.955	2261.12
998.174	2221.12
998.394	2212.12
998.614	2266.12
998.834	2192.12
999.053	2297.12
999.273	2213.12
999.492	2285.12
999.712	2185.12
999.931	2160.12
1000.151	2210.12
1000.37	2166.12
1000.589	2230.12
1000.809	2146.12
1001.028	2249.12
1001.247	2169.12
1001.466	2039.12
1001.685	2207.12
1001.904	2146.12
1002.123	2126.12
1002.342	2089.12
1002.561	2073.12
1002.78	2093.12
1002.999	2122.12
1003.218	2071.12
1003.436	2073.12
1003.655	2106.12
1003.874	2013.12
1004.092	2061.12
1004.311	2060.12
1004.53	2020.12
1004.748	2058.12
1004.966	2013.12
1005.185	2065.12
1005.403	2046.12
1005.622	2026.12
1005.84	2106.12
1006.058	2003.12
1006.276	2023.12
1006.494	2490.12
1006.712	1994.12
1006.931	2067.12
1007.149	1969.12
1007.367	1986.12
1007.584	2014.12
1007.802	2046.12
1008.02	1990.12
1008.238	2092.12
1008.456	2078.12
1008.673	1969.12
1008.891	2070.12
1009.109	2040.12
1009.326	2110.12
1009.544	2173.12
1009.761	2138.12
1009.979	2205.12
1010.196	2230.12
1010.413	2351.12
1010.631	2431.12
1010.848	2457.12
1011.065	2464.12
1011.282	2444.12
1011.5	2413.12
1011.717	2502.12
1011.934	2438.12
1012.151	2439.12
1012.368	2417.12
1012.585	2355.12
1012.801	2393.12
1013.018	2403.12
1013.235	2348.12
1013.452	2363.12
1013.669	2361.12
1013.885	2359.12
1014.102	2433.12
1014.318	2403.12
1014.535	2363.12
1014.751	2359.12
1014.968	2343.12
1015.184	2350.12
1015.401	2275.12
1015.617	2284.12
1015.833	2244.12
1016.049	2222.12
1016.266	2177.12
1016.482	2191.12
1016.698	2102.12
1016.914	2177.12
1017.13	2095.12
1017.346	2096.12
1017.562	2126.12
1017.778	2085.12
1017.993	2041.12
1018.209	2078.12
1018.425	2063.12
1018.641	2022.12
1018.856	2014.12
1019.072	2047.12
1019.288	2075.12
1019.503	2018.12
1019.719	1957.12
1019.934	1964.12
1020.149	2035.12
1020.365	1916.12
1020.58	1880.12
1020.795	1940.12
1021.011	1846.12
1021.226	1776.12
1021.441	1817.12
1021.656	1732.12
1021.871	1654.12
1022.086	1660.12
1022.301	1632.12
1022.516	1633.12
1022.731	1630.12
1022.946	1581.12
1023.16	1536.12
1023.375	1507.12
1023.59	1479.12
1023.804	1441.12
1024.019	1531.12
1024.234	1377.12
1024.448	1433.12
1024.663	1322.12
1024.877	1341.12
1025.092	1329.12
1025.306	1326.12
1025.52	1229.12
1025.734	1307.12
1025.949	1238.12
1026.163	1195.12
1026.377	1118.12
1026.591	1192.12
1026.805	1103.12
1027.019	1098.12
1027.233	1022.12
1027.447	986.12
1027.661	1072.12
1027.875	1031.12
1028.088	1017.12
1028.302	940.12
1028.516	913.12
1028.73	907.12
1028.943	882.12
1029.157	823.12
1029.37	802.12
1029.584	-0.88
1029.797	-1.88
1030.011	-0.88
1030.224	-0.88
