Data from QEP037381__290__16-18-09-907.txt Node

Date: Fri Dec 16 16:18:09 EST 2022
User: dcclab
Spectrometer: QEP03738
Trigger mode: 4
Integration Time (sec): 1.000000E1
Scans to average: 1
Electric dark correction enabled: true
Nonlinearity correction enabled: false
Boxcar width: 0
XAxis mode: Wavelengths
Number of Pixels in Spectrum: 1044
>>>>>Begin Spectral Data<<<<<
784.041	12.75
784.3	0.75
784.558	-4.25
784.817	-1.25
785.075	108201.75
785.334	18940.75
785.592	9045.75
785.851	6268.75
786.109	4720.75
786.368	3677.75
786.626	2980.75
786.884	2457.75
787.143	2089.75
787.401	1746.75
787.659	1557.75
787.917	1317.75
788.175	1215.75
788.433	1060.75
788.691	943.75
788.949	879.75
789.207	831.75
789.465	735.75
789.723	700.75
789.98	638.75
790.238	682.75
790.496	610.75
790.753	609.75
791.011	650.75
791.268	581.75
791.526	567.75
791.783	591.75
792.041	589.75
792.298	483.75
792.556	534.75
792.813	525.75
793.07	505.75
793.327	498.75
793.584	565.75
793.841	493.75
794.099	522.75
794.356	570.75
794.613	467.75
794.869	505.75
795.126	474.75
795.383	467.75
795.64	473.75
795.897	445.75
796.153	485.75
796.41	470.75
796.667	470.75
796.923	477.75
797.18	473.75
797.436	501.75
797.693	470.75
797.949	518.75
798.206	556.75
798.462	461.75
798.718	543.75
798.974	521.75
799.231	544.75
799.487	546.75
799.743	556.75
799.999	602.75
800.255	596.75
800.511	574.75
800.767	652.75
801.023	643.75
801.279	695.75
801.534	737.75
801.79	816.75
802.046	880.75
802.302	1053.75
802.557	1240.75
802.813	1627.75
803.068	2048.75
803.324	2911.75
803.579	3965.75
803.835	5609.75
804.09	7652.75
804.345	10104.75
804.601	12799.75
804.856	15642.75
805.111	18019.75
805.366	20024.75
805.621	21452.75
805.876	22325.75
806.131	23065.75
806.386	23648.75
806.641	24050.75
806.896	24527.75
807.151	24897.75
807.406	25274.75
807.661	25726.75
807.915	26220.75
808.17	26649.75
808.425	26893.75
808.679	27225.75
808.934	27628.75
809.188	27798.75
809.443	28090.75
809.697	28511.75
809.951	28724.75
810.206	28883.75
810.46	29283.75
810.714	29462.75
810.968	29751.75
811.223	30015.75
811.477	30333.75
811.731	30341.75
811.985	30697.75
812.239	30863.75
812.493	31010.75
812.747	31267.75
813	31314.75
813.254	31435.75
813.508	31610.75
813.762	31659.75
814.015	31843.75
814.269	32174.75
814.522	32501.75
814.776	32925.75
815.03	33320.75
815.283	33713.75
815.536	34303.75
815.79	34882.75
816.043	35344.75
816.296	35793.75
816.55	36257.75
816.803	36675.75
817.056	37332.75
817.309	37544.75
817.562	37975.75
817.815	38391.75
818.068	38598.75
818.321	39109.75
818.574	39506.75
818.827	40083.75
819.079	40464.75
819.332	41204.75
819.585	41672.75
819.838	42134.75
820.09	42657.75
820.343	42899.75
820.595	42935.75
820.848	43259.75
821.1	43488.75
821.353	43571.75
821.605	43578.75
821.857	43627.75
822.11	43421.75
822.362	43467.75
822.614	43112.75
822.866	43347.75
823.118	43408.75
823.37	43492.75
823.622	43510.75
823.874	43583.75
824.126	43888.75
824.378	43731.75
824.63	44179.75
824.882	44120.75
825.134	44153.75
825.385	44118.75
825.637	44112.75
825.888	43943.75
826.14	43986.75
826.392	43923.75
826.643	43597.75
826.895	43441.75
827.146	43376.75
827.397	43192.75
827.649	43158.75
827.9	43202.75
828.151	43182.75
828.402	43214.75
828.653	43504.75
828.905	43644.75
829.156	43848.75
829.407	43657.75
829.658	43663.75
829.909	43927.75
830.159	43758.75
830.41	43533.75
830.661	43306.75
830.912	43067.75
831.162	42992.75
831.413	42708.75
831.664	42915.75
831.914	42789.75
832.165	42710.75
832.415	42601.75
832.666	42752.75
832.916	42836.75
833.167	42900.75
833.417	42867.75
833.667	42596.75
833.917	42521.75
834.168	42389.75
834.418	42362.75
834.668	42105.75
834.918	41861.75
835.168	42033.75
835.418	41579.75
835.668	41627.75
835.918	41393.75
836.167	41406.75
836.417	41223.75
836.667	41321.75
836.917	41119.75
837.166	41188.75
837.416	41156.75
837.666	41215.75
837.915	41064.75
838.165	41013.75
838.414	40947.75
838.663	40710.75
838.913	40787.75
839.162	40684.75
839.411	40764.75
839.661	40499.75
839.91	40465.75
840.159	40363.75
840.408	40335.75
840.657	40391.75
840.906	40383.75
841.155	40342.75
841.404	40292.75
841.653	40485.75
841.902	40532.75
842.15	40390.75
842.399	40482.75
842.648	40330.75
842.897	40308.75
843.145	39998.75
843.394	39859.75
843.642	39739.75
843.891	39447.75
844.139	39314.75
844.388	39046.75
844.636	38946.75
844.884	38823.75
845.133	38899.75
845.381	38769.75
845.629	38834.75
845.877	38806.75
846.125	38632.75
846.373	38674.75
846.621	38543.75
846.869	38475.75
847.117	38296.75
847.365	37986.75
847.613	37833.75
847.861	37741.75
848.108	37760.75
848.356	37673.75
848.604	37538.75
848.851	37640.75
849.099	37581.75
849.346	37670.75
849.594	37891.75
849.841	38099.75
850.089	38050.75
850.336	38169.75
850.583	38045.75
850.831	37701.75
851.078	37725.75
851.325	37556.75
851.572	37662.75
851.819	37231.75
852.066	36785.75
852.313	36301.75
852.56	36003.75
852.807	35852.75
853.054	35744.75
853.301	35631.75
853.548	35709.75
853.794	35804.75
854.041	36064.75
854.288	36149.75
854.534	36267.75
854.781	36374.75
855.028	36221.75
855.274	36247.75
855.52	35993.75
855.767	35798.75
856.013	35700.75
856.26	36029.75
856.506	35618.75
856.752	35404.75
856.998	35503.75
857.244	35720.75
857.49	35778.75
857.736	35952.75
857.982	35773.75
858.228	35772.75
858.474	35481.75
858.72	35249.75
858.966	34954.75
859.212	34668.75
859.458	34332.75
859.703	34002.75
859.949	33579.75
860.195	33614.75
860.44	33276.75
860.686	33096.75
860.931	33167.75
861.177	32902.75
861.422	32832.75
861.667	32841.75
861.913	32683.75
862.158	32892.75
862.403	33030.75
862.648	33029.75
862.893	33059.75
863.138	32964.75
863.384	32829.75
863.629	32977.75
863.873	32854.75
864.118	32718.75
864.363	32526.75
864.608	32493.75
864.853	32347.75
865.098	32009.75
865.342	32018.75
865.587	31999.75
865.832	31887.75
866.076	31811.75
866.321	31742.75
866.565	31624.75
866.81	31505.75
867.054	31376.75
867.298	31357.75
867.543	31145.75
867.787	31133.75
868.031	31136.75
868.275	31039.75
868.519	30956.75
868.764	30882.75
869.008	30798.75
869.252	30829.75
869.496	30642.75
869.739	30596.75
869.983	30578.75
870.227	30466.75
870.471	30543.75
870.715	30467.75
870.958	30695.75
871.202	30674.75
871.446	30890.75
871.689	30863.75
871.933	30641.75
872.176	30650.75
872.42	30711.75
872.663	30586.75
872.906	30422.75
873.15	30243.75
873.393	30262.75
873.636	29980.75
873.879	29690.75
874.122	29482.75
874.366	29225.75
874.609	28973.75
874.852	28843.75
875.095	28874.75
875.337	28634.75
875.58	28428.75
875.823	28488.75
876.066	28287.75
876.309	28283.75
876.551	28033.75
876.794	27890.75
877.037	27891.75
877.279	27826.75
877.522	27762.75
877.764	27862.75
878.007	27731.75
878.249	27823.75
878.491	27707.75
878.734	27595.75
878.976	27559.75
879.218	27399.75
879.46	27228.75
879.702	27131.75
879.945	26884.75
880.187	26539.75
880.429	26583.75
880.671	26509.75
880.912	26203.75
881.154	26261.75
881.396	26192.75
881.638	26229.75
881.88	26259.75
882.121	25994.75
882.363	25998.75
882.605	26000.75
882.846	25825.75
883.088	25714.75
883.329	25736.75
883.571	25657.75
883.812	25572.75
884.053	26040.75
884.295	26290.75
884.536	26481.75
884.777	26289.75
885.018	26273.75
885.259	26236.75
885.5	25922.75
885.742	26140.75
885.982	25939.75
886.223	25721.75
886.464	25598.75
886.705	25443.75
886.946	25398.75
887.187	24907.75
887.428	24803.75
887.668	24429.75
887.909	24235.75
888.15	23989.75
888.39	23960.75
888.631	23705.75
888.871	23421.75
889.111	23404.75
889.352	23176.75
889.592	23098.75
889.833	22894.75
890.073	22758.75
890.313	22706.75
890.553	22436.75
890.793	22433.75
891.033	22193.75
891.273	22076.75
891.513	22066.75
891.753	22046.75
891.993	22079.75
892.233	22006.75
892.473	22014.75
892.713	22135.75
892.952	22018.75
893.192	21970.75
893.432	21871.75
893.671	21972.75
893.911	21707.75
894.15	21694.75
894.39	21506.75
894.629	21434.75
894.869	21297.75
895.108	21239.75
895.347	21050.75
895.587	20987.75
895.826	20863.75
896.065	20879.75
896.304	20902.75
896.543	20813.75
896.782	20717.75
897.021	20743.75
897.26	20646.75
897.499	20647.75
897.738	20563.75
897.977	20362.75
898.216	20308.75
898.454	20105.75
898.693	19918.75
898.932	19969.75
899.17	19689.75
899.409	19659.75
899.647	19570.75
899.886	19578.75
900.124	19645.75
900.363	19695.75
900.601	19658.75
900.839	19668.75
901.078	19690.75
901.316	19710.75
901.554	19783.75
901.792	19745.75
902.03	19883.75
902.268	19620.75
902.506	19709.75
902.744	19573.75
902.982	19446.75
903.22	19150.75
903.458	18957.75
903.695	18689.75
903.933	18514.75
904.171	18210.75
904.409	17977.75
904.646	17783.75
904.884	17472.75
905.121	17429.75
905.359	17160.75
905.596	17053.75
905.833	16827.75
906.071	16839.75
906.308	16698.75
906.545	16735.75
906.783	16620.75
907.02	16580.75
907.257	16502.75
907.494	16414.75
907.731	16392.75
907.968	16468.75
908.205	16267.75
908.442	16045.75
908.679	16012.75
908.915	15843.75
909.152	15792.75
909.389	15590.75
909.626	15530.75
909.862	15420.75
910.099	15396.75
910.335	15397.75
910.572	15193.75
910.808	15180.75
911.045	15122.75
911.281	15068.75
911.518	15046.75
911.754	14909.75
911.99	14871.75
912.226	14788.75
912.463	14614.75
912.699	14506.75
912.935	14357.75
913.171	14308.75
913.407	14106.75
913.643	14117.75
913.879	14039.75
914.114	13777.75
914.35	13707.75
914.586	13515.75
914.822	13416.75
915.057	13359.75
915.293	13187.75
915.529	13129.75
915.764	13194.75
916	13100.75
916.235	13086.75
916.471	13057.75
916.706	12944.75
916.941	13007.75
917.177	12987.75
917.412	12918.75
917.647	12955.75
917.882	12833.75
918.117	12935.75
918.352	12748.75
918.588	12818.75
918.823	12604.75
919.057	12546.75
919.292	12357.75
919.527	12315.75
919.762	12163.75
919.997	12017.75
920.232	11903.75
920.466	11776.75
920.701	11599.75
920.935	11690.75
921.17	11566.75
921.405	11498.75
921.639	11487.75
921.873	11380.75
922.108	11415.75
922.342	11369.75
922.576	11198.75
922.811	11197.75
923.045	11180.75
923.279	11221.75
923.513	11029.75
923.747	11084.75
923.981	10957.75
924.215	10828.75
924.449	10868.75
924.683	10695.75
924.917	10592.75
925.151	10580.75
925.385	10613.75
925.618	10536.75
925.852	10508.75
926.086	10369.75
926.319	10428.75
926.553	10437.75
926.786	10388.75
927.02	10370.75
927.253	10404.75
927.486	10365.75
927.72	10237.75
927.953	10254.75
928.186	10289.75
928.42	10299.75
928.653	10155.75
928.886	10082.75
929.119	10070.75
929.352	10053.75
929.585	9943.75
929.818	9802.75
930.051	9819.75
930.284	9812.75
930.516	9585.75
930.749	9544.75
930.982	9484.75
931.215	9452.75
931.447	9400.75
931.68	9369.75
931.912	9304.75
932.145	9332.75
932.377	9302.75
932.61	9468.75
932.842	9227.75
933.074	9338.75
933.307	9256.75
933.539	9365.75
933.771	9312.75
934.003	9204.75
934.236	9275.75
934.468	9290.75
934.7	9171.75
934.932	9131.75
935.164	9161.75
935.395	9094.75
935.627	9071.75
935.859	9070.75
936.091	8938.75
936.323	8963.75
936.554	8974.75
936.786	8857.75
937.017	8837.75
937.249	8857.75
937.481	8675.75
937.712	8789.75
937.943	8742.75
938.175	8800.75
938.406	8644.75
938.637	8770.75
938.869	8615.75
939.1	8619.75
939.331	8553.75
939.562	8597.75
939.793	8581.75
940.024	8574.75
940.255	8515.75
940.486	8429.75
940.717	8415.75
940.948	8297.75
941.179	8262.75
941.409	8290.75
941.64	8300.75
941.871	8260.75
942.102	8187.75
942.332	8248.75
942.563	8299.75
942.793	8219.75
943.024	8182.75
943.254	8249.75
943.484	8226.75
943.715	8250.75
943.945	8144.75
944.175	8119.75
944.405	8093.75
944.636	8080.75
944.866	8146.75
945.096	8052.75
945.326	8006.75
945.556	8025.75
945.786	7968.75
946.016	7888.75
946.245	7866.75
946.475	7813.75
946.705	7776.75
946.935	7717.75
947.164	7656.75
947.394	7625.75
947.624	7636.75
947.853	7572.75
948.083	7534.75
948.312	7453.75
948.542	7381.75
948.771	7402.75
949	7323.75
949.23	7324.75
949.459	7389.75
949.688	7403.75
949.917	7365.75
950.146	7336.75
950.375	7382.75
950.604	7297.75
950.833	7307.75
951.062	7292.75
951.291	7284.75
951.52	7175.75
951.749	7228.75
951.978	7138.75
952.206	7140.75
952.435	7061.75
952.664	7097.75
952.892	7104.75
953.121	7016.75
953.349	7085.75
953.578	7010.75
953.806	6933.75
954.035	6844.75
954.263	6866.75
954.491	6810.75
954.719	6860.75
954.948	6734.75
955.176	6728.75
955.404	6637.75
955.632	6699.75
955.86	6649.75
956.088	6646.75
956.316	6613.75
956.544	6534.75
956.772	6476.75
956.999	6482.75
957.227	6561.75
957.455	6425.75
957.683	6392.75
957.91	6319.75
958.138	6272.75
958.365	6294.75
958.593	6233.75
958.82	6157.75
959.048	6167.75
959.275	6159.75
959.502	6112.75
959.73	6093.75
959.957	6149.75
960.184	6116.75
960.411	6082.75
960.638	6097.75
960.865	6045.75
961.092	6062.75
961.319	5978.75
961.546	6045.75
961.773	6035.75
962	6022.75
962.227	6013.75
962.454	5925.75
962.68	5908.75
962.907	5908.75
963.134	5837.75
963.36	5854.75
963.587	5834.75
963.813	5700.75
964.04	5708.75
964.266	5688.75
964.493	5733.75
964.719	5652.75
964.945	5603.75
965.171	5519.75
965.398	5600.75
965.624	5511.75
965.85	5425.75
966.076	5401.75
966.302	5466.75
966.528	5373.75
966.754	5372.75
966.98	5328.75
967.206	5334.75
967.431	5251.75
967.657	5338.75
967.883	5332.75
968.109	5309.75
968.334	5193.75
968.56	5161.75
968.785	5175.75
969.011	5118.75
969.236	5217.75
969.462	5123.75
969.687	5085.75
969.912	5149.75
970.138	5120.75
970.363	5033.75
970.588	5046.75
970.813	4989.75
971.038	4989.75
971.263	4955.75
971.488	4974.75
971.713	4959.75
971.938	4921.75
972.163	4852.75
972.388	4903.75
972.613	4868.75
972.838	4807.75
973.062	4811.75
973.287	4800.75
973.512	4686.75
973.736	4746.75
973.961	4698.75
974.185	4614.75
974.41	4664.75
974.634	4519.75
974.858	4562.75
975.083	4572.75
975.307	4535.75
975.531	4498.75
975.755	4376.75
975.98	4384.75
976.204	4332.75
976.428	4317.75
976.652	4326.75
976.876	4299.75
977.1	4295.75
977.324	4266.75
977.547	4303.75
977.771	4262.75
977.995	4213.75
978.219	4151.75
978.442	4278.75
978.666	4225.75
978.89	4217.75
979.113	4169.75
979.337	4149.75
979.56	4133.75
979.783	4258.75
980.007	4074.75
980.23	4112.75
980.453	4029.75
980.677	4070.75
980.9	4042.75
981.123	3930.75
981.346	4018.75
981.569	3967.75
981.792	3994.75
982.015	3926.75
982.238	3871.75
982.461	3879.75
982.684	3817.75
982.907	3808.75
983.129	3796.75
983.352	3812.75
983.575	3781.75
983.797	3777.75
984.02	3697.75
984.242	3672.75
984.465	3705.75
984.687	3675.75
984.91	3694.75
985.132	3623.75
985.354	3646.75
985.577	3622.75
985.799	3592.75
986.021	3496.75
986.243	3521.75
986.465	3554.75
986.687	3555.75
986.909	3624.75
987.131	3488.75
987.353	3456.75
987.575	3504.75
987.797	3460.75
988.019	3401.75
988.241	3408.75
988.462	3369.75
988.684	3429.75
988.906	3438.75
989.127	3443.75
989.349	3370.75
989.57	3362.75
989.792	3398.75
990.013	3405.75
990.234	3393.75
990.456	3355.75
990.677	3361.75
990.898	3274.75
991.119	3253.75
991.341	3276.75
991.562	3244.75
991.783	3262.75
992.004	3171.75
992.225	3143.75
992.446	3146.75
992.667	3049.75
992.887	3149.75
993.108	3057.75
993.329	3151.75
993.55	3085.75
993.77	2994.75
993.991	2986.75
994.212	3020.75
994.432	3023.75
994.653	2977.75
994.873	2951.75
995.093	2846.75
995.314	2915.75
995.534	2933.75
995.754	2934.75
995.975	2987.75
996.195	2836.75
996.415	2875.75
996.635	2837.75
996.855	2882.75
997.075	2834.75
997.295	2857.75
997.515	2799.75
997.735	2873.75
997.955	2851.75
998.174	2792.75
998.394	2754.75
998.614	2861.75
998.834	2746.75
999.053	2810.75
999.273	2776.75
999.492	2801.75
999.712	2750.75
999.931	2719.75
1000.151	2758.75
1000.37	2703.75
1000.589	2746.75
1000.809	2657.75
1001.028	2760.75
1001.247	2677.75
1001.466	2579.75
1001.685	2720.75
1001.904	2610.75
1002.123	2586.75
1002.342	2560.75
1002.561	2546.75
1002.78	2548.75
1002.999	2580.75
1003.218	2552.75
1003.436	2500.75
1003.655	2545.75
1003.874	2480.75
1004.092	2464.75
1004.311	2492.75
1004.53	2460.75
1004.748	2534.75
1004.966	2444.75
1005.185	2524.75
1005.403	2466.75
1005.622	2452.75
1005.84	2539.75
1006.058	2402.75
1006.276	2439.75
1006.494	2915.75
1006.712	2417.75
1006.931	2464.75
1007.149	2403.75
1007.367	2389.75
1007.584	2421.75
1007.802	2473.75
1008.02	2365.75
1008.238	2484.75
1008.456	2481.75
1008.673	2343.75
1008.891	2463.75
1009.109	2442.75
1009.326	2435.75
1009.544	2559.75
1009.761	2501.75
1009.979	2592.75
1010.196	2602.75
1010.413	2709.75
1010.631	2740.75
1010.848	2776.75
1011.065	2823.75
1011.282	2725.75
1011.5	2654.75
1011.717	2817.75
1011.934	2730.75
1012.151	2759.75
1012.368	2734.75
1012.585	2705.75
1012.801	2685.75
1013.018	2698.75
1013.235	2673.75
1013.452	2698.75
1013.669	2701.75
1013.885	2644.75
1014.102	2717.75
1014.318	2664.75
1014.535	2654.75
1014.751	2642.75
1014.968	2609.75
1015.184	2621.75
1015.401	2569.75
1015.617	2601.75
1015.833	2487.75
1016.049	2511.75
1016.266	2465.75
1016.482	2459.75
1016.698	2415.75
1016.914	2473.75
1017.13	2391.75
1017.346	2357.75
1017.562	2440.75
1017.778	2348.75
1017.993	2312.75
1018.209	2374.75
1018.425	2343.75
1018.641	2308.75
1018.856	2258.75
1019.072	2311.75
1019.288	2370.75
1019.503	2301.75
1019.719	2229.75
1019.934	2212.75
1020.149	2307.75
1020.365	2204.75
1020.58	2163.75
1020.795	2197.75
1021.011	2127.75
1021.226	2104.75
1021.441	2074.75
1021.656	1994.75
1021.871	1909.75
1022.086	1913.75
1022.301	1880.75
1022.516	1883.75
1022.731	1844.75
1022.946	1785.75
1023.16	1775.75
1023.375	1750.75
1023.59	1723.75
1023.804	1654.75
1024.019	1757.75
1024.234	1651.75
1024.448	1624.75
1024.663	1556.75
1024.877	1560.75
1025.092	1573.75
1025.306	1544.75
1025.52	1438.75
1025.734	1507.75
1025.949	1406.75
1026.163	1381.75
1026.377	1303.75
1026.591	1361.75
1026.805	1254.75
1027.019	1251.75
1027.233	1198.75
1027.447	1164.75
1027.661	1262.75
1027.875	1181.75
1028.088	1178.75
1028.302	1091.75
1028.516	1071.75
1028.73	1074.75
1028.943	1021.75
1029.157	961.75
1029.37	900.75
1029.584	-2.25
1029.797	-2.25
1030.011	-3.25
1030.224	-0.25
