Data from QEP037381__275__16-15-39-906.txt Node

Date: Fri Dec 16 16:15:39 EST 2022
User: dcclab
Spectrometer: QEP03738
Trigger mode: 4
Integration Time (sec): 1.000000E1
Scans to average: 1
Electric dark correction enabled: true
Nonlinearity correction enabled: false
Boxcar width: 0
XAxis mode: Wavelengths
Number of Pixels in Spectrum: 1044
>>>>>Begin Spectral Data<<<<<
784.041	15.12
784.3	2.12
784.558	-1.88
784.817	-7.88
785.075	106748.12
785.334	18952.12
785.592	8993.12
785.851	6178.12
786.109	4630.12
786.368	3630.12
786.626	2915.12
786.884	2412.12
787.143	1996.12
787.401	1661.12
787.659	1524.12
787.917	1303.12
788.175	1168.12
788.433	1043.12
788.691	930.12
788.949	893.12
789.207	817.12
789.465	723.12
789.723	700.12
789.98	629.12
790.238	684.12
790.496	641.12
790.753	617.12
791.011	649.12
791.268	577.12
791.526	571.12
791.783	584.12
792.041	583.12
792.298	474.12
792.556	533.12
792.813	531.12
793.07	500.12
793.327	492.12
793.584	571.12
793.841	493.12
794.099	504.12
794.356	573.12
794.613	465.12
794.869	510.12
795.126	472.12
795.383	451.12
795.64	468.12
795.897	437.12
796.153	490.12
796.41	480.12
796.667	457.12
796.923	466.12
797.18	467.12
797.436	501.12
797.693	473.12
797.949	518.12
798.206	544.12
798.462	466.12
798.718	534.12
798.974	517.12
799.231	560.12
799.487	542.12
799.743	567.12
799.999	582.12
800.255	591.12
800.511	580.12
800.767	642.12
801.023	630.12
801.279	683.12
801.534	727.12
801.79	806.12
802.046	860.12
802.302	1040.12
802.557	1224.12
802.813	1566.12
803.068	2029.12
803.324	2777.12
803.579	3831.12
803.835	5373.12
804.09	7440.12
804.345	9761.12
804.601	12479.12
804.856	15124.12
805.111	17575.12
805.366	19490.12
805.621	20894.12
805.876	21914.12
806.131	22479.12
806.386	23092.12
806.641	23501.12
806.896	23995.12
807.151	24430.12
807.406	24796.12
807.661	25197.12
807.915	25652.12
808.17	26156.12
808.425	26387.12
808.679	26626.12
808.934	27036.12
809.188	27316.12
809.443	27654.12
809.697	27940.12
809.951	28051.12
810.206	28417.12
810.46	28627.12
810.714	28909.12
810.968	29199.12
811.223	29405.12
811.477	29682.12
811.731	29840.12
811.985	30091.12
812.239	30072.12
812.493	30417.12
812.747	30463.12
813	30588.12
813.254	30788.12
813.508	30906.12
813.762	31092.12
814.015	31184.12
814.269	31432.12
814.522	31882.12
814.776	32072.12
815.03	32621.12
815.283	33030.12
815.536	33576.12
815.79	34145.12
816.043	34701.12
816.296	35115.12
816.55	35574.12
816.803	35965.12
817.056	36511.12
817.309	36828.12
817.562	37072.12
817.815	37540.12
818.068	37884.12
818.321	38222.12
818.574	38704.12
818.827	39208.12
819.079	39682.12
819.332	40417.12
819.585	40851.12
819.838	41413.12
820.09	41721.12
820.343	42028.12
820.595	42266.12
820.848	42416.12
821.1	42557.12
821.353	42692.12
821.605	42630.12
821.857	42653.12
822.11	42559.12
822.362	42461.12
822.614	42299.12
822.866	42388.12
823.118	42406.12
823.37	42388.12
823.622	42616.12
823.874	42743.12
824.126	42942.12
824.378	42891.12
824.63	43130.12
824.882	43270.12
825.134	43158.12
825.385	43081.12
825.637	43263.12
825.888	43003.12
826.14	42864.12
826.392	42721.12
826.643	42491.12
826.895	42446.12
827.146	42240.12
827.397	42120.12
827.649	42078.12
827.9	42077.12
828.151	42183.12
828.402	42319.12
828.653	42369.12
828.905	42543.12
829.156	42714.12
829.407	42560.12
829.658	42622.12
829.909	42682.12
830.159	42718.12
830.41	42291.12
830.661	42153.12
830.912	41920.12
831.162	41775.12
831.413	41734.12
831.664	41789.12
831.914	41552.12
832.165	41652.12
832.415	41550.12
832.666	41785.12
832.916	41664.12
833.167	41603.12
833.417	41682.12
833.667	41399.12
833.917	41317.12
834.168	41244.12
834.418	41098.12
834.668	41037.12
834.918	40836.12
835.168	40636.12
835.418	40518.12
835.668	40336.12
835.918	40351.12
836.167	40325.12
836.417	40100.12
836.667	40033.12
836.917	39910.12
837.166	39993.12
837.416	40006.12
837.666	40076.12
837.915	40033.12
838.165	39813.12
838.414	39842.12
838.663	39622.12
838.913	39670.12
839.162	39434.12
839.411	39475.12
839.661	39304.12
839.91	39125.12
840.159	39074.12
840.408	38977.12
840.657	39081.12
840.906	39071.12
841.155	39101.12
841.404	39103.12
841.653	39190.12
841.902	39146.12
842.15	39156.12
842.399	39120.12
842.648	39037.12
842.897	38979.12
843.145	38790.12
843.394	38539.12
843.642	38360.12
843.891	38256.12
844.139	38051.12
844.388	37832.12
844.636	37627.12
844.884	37704.12
845.133	37439.12
845.381	37383.12
845.629	37575.12
845.877	37464.12
846.125	37550.12
846.373	37279.12
846.621	37357.12
846.869	37180.12
847.117	36993.12
847.365	36736.12
847.613	36563.12
847.861	36345.12
848.108	36526.12
848.356	36279.12
848.604	36148.12
848.851	36232.12
849.099	36252.12
849.346	36295.12
849.594	36659.12
849.841	36699.12
850.089	36743.12
850.336	36719.12
850.583	36727.12
850.831	36583.12
851.078	36349.12
851.325	36211.12
851.572	36331.12
851.819	35988.12
852.066	35355.12
852.313	34971.12
852.56	34713.12
852.807	34694.12
853.054	34476.12
853.301	34259.12
853.548	34371.12
853.794	34610.12
854.041	34602.12
854.288	34842.12
854.534	35166.12
854.781	34910.12
855.028	34852.12
855.274	34862.12
855.52	34609.12
855.767	34485.12
856.013	34547.12
856.26	34670.12
856.506	34063.12
856.752	34087.12
856.998	34170.12
857.244	34307.12
857.49	34356.12
857.736	34491.12
857.982	34512.12
858.228	34257.12
858.474	34106.12
858.72	33817.12
858.966	33560.12
859.212	33290.12
859.458	32945.12
859.703	32653.12
859.949	32477.12
860.195	32133.12
860.44	32077.12
860.686	31923.12
860.931	31843.12
861.177	31578.12
861.422	31527.12
861.667	31433.12
861.913	31429.12
862.158	31549.12
862.403	31537.12
862.648	31793.12
862.893	31728.12
863.138	31590.12
863.384	31446.12
863.629	31511.12
863.873	31523.12
864.118	31369.12
864.363	31132.12
864.608	31278.12
864.853	30989.12
865.098	30957.12
865.342	30756.12
865.587	30693.12
865.832	30684.12
866.076	30594.12
866.321	30379.12
866.565	30399.12
866.81	30209.12
867.054	29994.12
867.298	30130.12
867.543	29891.12
867.787	29900.12
868.031	29832.12
868.275	29827.12
868.519	29744.12
868.764	29597.12
869.008	29621.12
869.252	29499.12
869.496	29555.12
869.739	29350.12
869.983	29329.12
870.227	29286.12
870.471	29227.12
870.715	29327.12
870.958	29462.12
871.202	29496.12
871.446	29554.12
871.689	29416.12
871.933	29448.12
872.176	29462.12
872.42	29301.12
872.663	29269.12
872.906	29208.12
873.15	29088.12
873.393	28872.12
873.636	28904.12
873.879	28506.12
874.122	28428.12
874.366	28034.12
874.609	27769.12
874.852	27633.12
875.095	27500.12
875.337	27284.12
875.58	27262.12
875.823	27338.12
876.066	27038.12
876.309	27054.12
876.551	26791.12
876.794	26699.12
877.037	26673.12
877.279	26649.12
877.522	26536.12
877.764	26673.12
878.007	26601.12
878.249	26624.12
878.491	26533.12
878.734	26447.12
878.976	26421.12
879.218	26153.12
879.46	26104.12
879.702	25997.12
879.945	25689.12
880.187	25574.12
880.429	25470.12
880.671	25211.12
880.912	25173.12
881.154	25226.12
881.396	24986.12
881.638	25130.12
881.88	25057.12
882.121	24921.12
882.363	24970.12
882.605	24874.12
882.846	24742.12
883.088	24712.12
883.329	24554.12
883.571	24596.12
883.812	24714.12
884.053	24858.12
884.295	25303.12
884.536	25320.12
884.777	25301.12
885.018	25160.12
885.259	25091.12
885.5	24996.12
885.742	25239.12
885.982	24873.12
886.223	24669.12
886.464	24626.12
886.705	24375.12
886.946	24336.12
887.187	23891.12
887.428	23903.12
887.668	23551.12
887.909	23238.12
888.15	22930.12
888.39	22761.12
888.631	22759.12
888.871	22514.12
889.111	22496.12
889.352	22272.12
889.592	22114.12
889.833	21879.12
890.073	21847.12
890.313	21743.12
890.553	21493.12
890.793	21507.12
891.033	21262.12
891.273	21213.12
891.513	21083.12
891.753	21087.12
891.993	21133.12
892.233	21112.12
892.473	21224.12
892.713	21118.12
892.952	21087.12
893.192	21130.12
893.432	20989.12
893.671	20988.12
893.911	20926.12
894.15	20861.12
894.39	20664.12
894.629	20510.12
894.869	20441.12
895.108	20237.12
895.347	20326.12
895.587	20085.12
895.826	20071.12
896.065	20074.12
896.304	20019.12
896.543	19930.12
896.782	19992.12
897.021	19789.12
897.26	19900.12
897.499	19800.12
897.738	19735.12
897.977	19507.12
898.216	19391.12
898.454	19343.12
898.693	19139.12
898.932	19024.12
899.17	19039.12
899.409	18856.12
899.647	18893.12
899.886	18784.12
900.124	18801.12
900.363	18826.12
900.601	18863.12
900.839	18847.12
901.078	18932.12
901.316	18990.12
901.554	18898.12
901.792	19062.12
902.03	19045.12
902.268	18912.12
902.506	19036.12
902.744	18821.12
902.982	18802.12
903.22	18436.12
903.458	18209.12
903.695	18081.12
903.933	17829.12
904.171	17620.12
904.409	17329.12
904.646	17217.12
904.884	16938.12
905.121	16726.12
905.359	16516.12
905.596	16420.12
905.833	16221.12
906.071	16196.12
906.308	16154.12
906.545	16137.12
906.783	16085.12
907.02	15960.12
907.257	15894.12
907.494	15872.12
907.731	15734.12
907.968	15750.12
908.205	15603.12
908.442	15616.12
908.679	15480.12
908.915	15360.12
909.152	15260.12
909.389	15035.12
909.626	14991.12
909.862	14890.12
910.099	14836.12
910.335	14830.12
910.572	14688.12
910.808	14707.12
911.045	14613.12
911.281	14496.12
911.518	14594.12
911.754	14435.12
911.99	14380.12
912.226	14240.12
912.463	14060.12
912.699	13940.12
912.935	13970.12
913.171	13768.12
913.407	13587.12
913.643	13578.12
913.879	13512.12
914.114	13343.12
914.35	13177.12
914.586	13134.12
914.822	13014.12
915.057	12931.12
915.293	12728.12
915.529	12666.12
915.764	12781.12
916	12730.12
916.235	12614.12
916.471	12668.12
916.706	12493.12
916.941	12509.12
917.177	12506.12
917.412	12579.12
917.647	12597.12
917.882	12422.12
918.117	12455.12
918.352	12411.12
918.588	12387.12
918.823	12117.12
919.057	12088.12
919.292	11915.12
919.527	11895.12
919.762	11781.12
919.997	11709.12
920.232	11478.12
920.466	11441.12
920.701	11247.12
920.935	11246.12
921.17	11249.12
921.405	11165.12
921.639	11178.12
921.873	11004.12
922.108	10990.12
922.342	10991.12
922.576	10877.12
922.811	10821.12
923.045	10871.12
923.279	10781.12
923.513	10592.12
923.747	10689.12
923.981	10652.12
924.215	10513.12
924.449	10493.12
924.683	10339.12
924.917	10313.12
925.151	10292.12
925.385	10291.12
925.618	10150.12
925.852	10185.12
926.086	10129.12
926.319	10139.12
926.553	10141.12
926.786	10131.12
927.02	10063.12
927.253	10177.12
927.486	10056.12
927.72	9996.12
927.953	10077.12
928.186	9976.12
928.42	9992.12
928.653	9852.12
928.886	9802.12
929.119	9804.12
929.352	9709.12
929.585	9695.12
929.818	9596.12
930.051	9497.12
930.284	9446.12
930.516	9313.12
930.749	9282.12
930.982	9328.12
931.215	9259.12
931.447	9125.12
931.68	9124.12
931.912	9104.12
932.145	9075.12
932.377	9085.12
932.61	9211.12
932.842	8980.12
933.074	9089.12
933.307	9037.12
933.539	9060.12
933.771	9000.12
934.003	9004.12
934.236	9043.12
934.468	9019.12
934.7	8938.12
934.932	8989.12
935.164	8899.12
935.395	8849.12
935.627	8840.12
935.859	8827.12
936.091	8684.12
936.323	8753.12
936.554	8691.12
936.786	8632.12
937.017	8553.12
937.249	8600.12
937.481	8504.12
937.712	8518.12
937.943	8563.12
938.175	8387.12
938.406	8444.12
938.637	8462.12
938.869	8353.12
939.1	8415.12
939.331	8284.12
939.562	8436.12
939.793	8330.12
940.024	8299.12
940.255	8279.12
940.486	8183.12
940.717	8205.12
940.948	8117.12
941.179	8073.12
941.409	8032.12
941.64	8044.12
941.871	8026.12
942.102	8056.12
942.332	8036.12
942.563	8000.12
942.793	8033.12
943.024	7889.12
943.254	7965.12
943.484	8000.12
943.715	8002.12
943.945	7990.12
944.175	7915.12
944.405	7893.12
944.636	7928.12
944.866	7914.12
945.096	7913.12
945.326	7829.12
945.556	7843.12
945.786	7849.12
946.016	7666.12
946.245	7624.12
946.475	7574.12
946.705	7515.12
946.935	7525.12
947.164	7489.12
947.394	7377.12
947.624	7433.12
947.853	7427.12
948.083	7299.12
948.312	7286.12
948.542	7214.12
948.771	7164.12
949	7230.12
949.23	7208.12
949.459	7207.12
949.688	7244.12
949.917	7138.12
950.146	7185.12
950.375	7136.12
950.604	7054.12
950.833	7103.12
951.062	7080.12
951.291	7069.12
951.52	7033.12
951.749	6980.12
951.978	6941.12
952.206	6927.12
952.435	6930.12
952.664	6897.12
952.892	6904.12
953.121	6904.12
953.349	6868.12
953.578	6782.12
953.806	6784.12
954.035	6715.12
954.263	6689.12
954.491	6630.12
954.719	6678.12
954.948	6589.12
955.176	6590.12
955.404	6467.12
955.632	6562.12
955.86	6497.12
956.088	6414.12
956.316	6423.12
956.544	6476.12
956.772	6366.12
956.999	6329.12
957.227	6303.12
957.455	6201.12
957.683	6241.12
957.91	6141.12
958.138	6114.12
958.365	6081.12
958.593	6075.12
958.82	5942.12
959.048	6103.12
959.275	5992.12
959.502	5979.12
959.73	5980.12
959.957	5950.12
960.184	6018.12
960.411	5906.12
960.638	5977.12
960.865	5880.12
961.092	5935.12
961.319	5830.12
961.546	5886.12
961.773	5888.12
962	5849.12
962.227	5874.12
962.454	5852.12
962.68	5775.12
962.907	5791.12
963.134	5701.12
963.36	5677.12
963.587	5657.12
963.813	5542.12
964.04	5628.12
964.266	5519.12
964.493	5644.12
964.719	5562.12
964.945	5507.12
965.171	5367.12
965.398	5422.12
965.624	5374.12
965.85	5284.12
966.076	5307.12
966.302	5284.12
966.528	5247.12
966.754	5207.12
966.98	5228.12
967.206	5249.12
967.431	5199.12
967.657	5194.12
967.883	5155.12
968.109	5137.12
968.334	5081.12
968.56	5098.12
968.785	5106.12
969.011	5004.12
969.236	5112.12
969.462	4968.12
969.687	4992.12
969.912	5024.12
970.138	5007.12
970.363	4974.12
970.588	4954.12
970.813	4927.12
971.038	4866.12
971.263	4859.12
971.488	4836.12
971.713	4907.12
971.938	4872.12
972.163	4729.12
972.388	4727.12
972.613	4712.12
972.838	4725.12
973.062	4723.12
973.287	4672.12
973.512	4586.12
973.736	4600.12
973.961	4598.12
974.185	4538.12
974.41	4524.12
974.634	4432.12
974.858	4428.12
975.083	4441.12
975.307	4487.12
975.531	4405.12
975.755	4345.12
975.98	4308.12
976.204	4236.12
976.428	4220.12
976.652	4249.12
976.876	4145.12
977.1	4219.12
977.324	4166.12
977.547	4207.12
977.771	4166.12
977.995	4181.12
978.219	4060.12
978.442	4214.12
978.666	4124.12
978.89	4061.12
979.113	4054.12
979.337	4095.12
979.56	4020.12
979.783	4123.12
980.007	3951.12
980.23	3960.12
980.453	3932.12
980.677	3978.12
980.9	3920.12
981.123	3841.12
981.346	3954.12
981.569	3837.12
981.792	3914.12
982.015	3896.12
982.238	3817.12
982.461	3833.12
982.684	3772.12
982.907	3704.12
983.129	3676.12
983.352	3711.12
983.575	3673.12
983.797	3673.12
984.02	3612.12
984.242	3587.12
984.465	3615.12
984.687	3628.12
984.91	3634.12
985.132	3574.12
985.354	3598.12
985.577	3559.12
985.799	3512.12
986.021	3445.12
986.243	3416.12
986.465	3416.12
986.687	3449.12
986.909	3510.12
987.131	3435.12
987.353	3395.12
987.575	3410.12
987.797	3388.12
988.019	3299.12
988.241	3339.12
988.462	3317.12
988.684	3379.12
988.906	3381.12
989.127	3374.12
989.349	3234.12
989.57	3279.12
989.792	3331.12
990.013	3317.12
990.234	3327.12
990.456	3307.12
990.677	3278.12
990.898	3220.12
991.119	3187.12
991.341	3219.12
991.562	3131.12
991.783	3161.12
992.004	3096.12
992.225	3023.12
992.446	3092.12
992.667	2980.12
992.887	3053.12
993.108	2955.12
993.329	3087.12
993.55	3003.12
993.77	2947.12
993.991	2941.12
994.212	2943.12
994.432	2972.12
994.653	2943.12
994.873	2884.12
995.093	2756.12
995.314	2835.12
995.534	2881.12
995.754	2886.12
995.975	2896.12
996.195	2786.12
996.415	2822.12
996.635	2807.12
996.855	2817.12
997.075	2813.12
997.295	2770.12
997.515	2728.12
997.735	2796.12
997.955	2723.12
998.174	2752.12
998.394	2684.12
998.614	2778.12
998.834	2729.12
999.053	2711.12
999.273	2718.12
999.492	2757.12
999.712	2715.12
999.931	2648.12
1000.151	2667.12
1000.37	2625.12
1000.589	2667.12
1000.809	2620.12
1001.028	2710.12
1001.247	2614.12
1001.466	2510.12
1001.685	2635.12
1001.904	2571.12
1002.123	2568.12
1002.342	2545.12
1002.561	2464.12
1002.78	2484.12
1002.999	2539.12
1003.218	2507.12
1003.436	2436.12
1003.655	2464.12
1003.874	2405.12
1004.092	2423.12
1004.311	2469.12
1004.53	2425.12
1004.748	2482.12
1004.966	2400.12
1005.185	2445.12
1005.403	2424.12
1005.622	2457.12
1005.84	2476.12
1006.058	2355.12
1006.276	2389.12
1006.494	2864.12
1006.712	2386.12
1006.931	2435.12
1007.149	2339.12
1007.367	2357.12
1007.584	2397.12
1007.802	2398.12
1008.02	2360.12
1008.238	2447.12
1008.456	2452.12
1008.673	2318.12
1008.891	2416.12
1009.109	2363.12
1009.326	2401.12
1009.544	2512.12
1009.761	2434.12
1009.979	2507.12
1010.196	2502.12
1010.413	2645.12
1010.631	2730.12
1010.848	2771.12
1011.065	2782.12
1011.282	2732.12
1011.5	2654.12
1011.717	2769.12
1011.934	2707.12
1012.151	2733.12
1012.368	2694.12
1012.585	2615.12
1012.801	2674.12
1013.018	2679.12
1013.235	2635.12
1013.452	2668.12
1013.669	2674.12
1013.885	2616.12
1014.102	2684.12
1014.318	2650.12
1014.535	2597.12
1014.751	2648.12
1014.968	2619.12
1015.184	2608.12
1015.401	2520.12
1015.617	2556.12
1015.833	2488.12
1016.049	2456.12
1016.266	2444.12
1016.482	2376.12
1016.698	2348.12
1016.914	2375.12
1017.13	2320.12
1017.346	2331.12
1017.562	2387.12
1017.778	2321.12
1017.993	2302.12
1018.209	2338.12
1018.425	2355.12
1018.641	2267.12
1018.856	2224.12
1019.072	2257.12
1019.288	2322.12
1019.503	2284.12
1019.719	2175.12
1019.934	2183.12
1020.149	2255.12
1020.365	2215.12
1020.58	2130.12
1020.795	2147.12
1021.011	2099.12
1021.226	2045.12
1021.441	2062.12
1021.656	1934.12
1021.871	1880.12
1022.086	1841.12
1022.301	1838.12
1022.516	1822.12
1022.731	1846.12
1022.946	1773.12
1023.16	1755.12
1023.375	1723.12
1023.59	1677.12
1023.804	1664.12
1024.019	1715.12
1024.234	1575.12
1024.448	1603.12
1024.663	1555.12
1024.877	1541.12
1025.092	1510.12
1025.306	1544.12
1025.52	1444.12
1025.734	1509.12
1025.949	1402.12
1026.163	1355.12
1026.377	1299.12
1026.591	1314.12
1026.805	1249.12
1027.019	1256.12
1027.233	1191.12
1027.447	1145.12
1027.661	1246.12
1027.875	1147.12
1028.088	1144.12
1028.302	1075.12
1028.516	1048.12
1028.73	1039.12
1028.943	1025.12
1029.157	953.12
1029.37	893.12
1029.584	-0.88
1029.797	-0.88
1030.011	-1.88
1030.224	-3.88
