Data from QEP037381__262__16-13-29-905.txt Node

Date: Fri Dec 16 16:13:29 EST 2022
User: dcclab
Spectrometer: QEP03738
Trigger mode: 4
Integration Time (sec): 1.000000E1
Scans to average: 1
Electric dark correction enabled: true
Nonlinearity correction enabled: false
Boxcar width: 0
XAxis mode: Wavelengths
Number of Pixels in Spectrum: 1044
>>>>>Begin Spectral Data<<<<<
784.041	13.25
784.3	1.25
784.558	-4.75
784.817	-5.75
785.075	114205.25
785.334	19376.25
785.592	8912.25
785.851	6171.25
786.109	4593.25
786.368	3565.25
786.626	2890.25
786.884	2398.25
787.143	2036.25
787.401	1706.25
787.659	1546.25
787.917	1328.25
788.175	1202.25
788.433	1048.25
788.691	946.25
788.949	862.25
789.207	819.25
789.465	722.25
789.723	687.25
789.98	641.25
790.238	662.25
790.496	639.25
790.753	618.25
791.011	653.25
791.268	581.25
791.526	544.25
791.783	586.25
792.041	564.25
792.298	470.25
792.556	530.25
792.813	522.25
793.07	493.25
793.327	473.25
793.584	561.25
793.841	484.25
794.099	493.25
794.356	557.25
794.613	452.25
794.869	505.25
795.126	469.25
795.383	451.25
795.64	478.25
795.897	408.25
796.153	494.25
796.41	457.25
796.667	445.25
796.923	463.25
797.18	460.25
797.436	485.25
797.693	456.25
797.949	500.25
798.206	534.25
798.462	438.25
798.718	517.25
798.974	493.25
799.231	530.25
799.487	531.25
799.743	548.25
799.999	564.25
800.255	572.25
800.511	555.25
800.767	615.25
801.023	594.25
801.279	636.25
801.534	688.25
801.79	780.25
802.046	810.25
802.302	1003.25
802.557	1149.25
802.813	1471.25
803.068	1857.25
803.324	2591.25
803.579	3522.25
803.835	4953.25
804.09	6737.25
804.345	8883.25
804.601	11253.25
804.856	13547.25
805.111	15718.25
805.366	17330.25
805.621	18555.25
805.876	19434.25
806.131	19974.25
806.386	20414.25
806.641	20775.25
806.896	21040.25
807.151	21463.25
807.406	21788.25
807.661	22199.25
807.915	22636.25
808.17	22869.25
808.425	23295.25
808.679	23516.25
808.934	23679.25
809.188	23910.25
809.443	24180.25
809.697	24493.25
809.951	24630.25
810.206	24833.25
810.46	25079.25
810.714	25277.25
810.968	25643.25
811.223	25821.25
811.477	25991.25
811.731	26253.25
811.985	26350.25
812.239	26568.25
812.493	26605.25
812.747	26645.25
813	26828.25
813.254	26879.25
813.508	27043.25
813.762	27148.25
814.015	27278.25
814.269	27413.25
814.522	27842.25
814.776	28139.25
815.03	28391.25
815.283	28928.25
815.536	29303.25
815.79	29748.25
816.043	30157.25
816.296	30417.25
816.55	30732.25
816.803	31208.25
817.056	31681.25
817.309	31989.25
817.562	32354.25
817.815	32665.25
818.068	32842.25
818.321	33261.25
818.574	33497.25
818.827	34060.25
819.079	34491.25
819.332	35039.25
819.585	35350.25
819.838	35957.25
820.09	36025.25
820.343	36347.25
820.595	36390.25
820.848	36871.25
821.1	36981.25
821.353	37023.25
821.605	36872.25
821.857	36942.25
822.11	36840.25
822.362	36708.25
822.614	36580.25
822.866	36663.25
823.118	36759.25
823.37	36656.25
823.622	37074.25
823.874	37034.25
824.126	37263.25
824.378	37159.25
824.63	37301.25
824.882	37395.25
825.134	37331.25
825.385	37142.25
825.637	37360.25
825.888	37244.25
826.14	37155.25
826.392	36941.25
826.643	36694.25
826.895	36630.25
827.146	36511.25
827.397	36519.25
827.649	36485.25
827.9	36517.25
828.151	36513.25
828.402	36475.25
828.653	36642.25
828.905	36847.25
829.156	36885.25
829.407	36832.25
829.658	36854.25
829.909	36945.25
830.159	36826.25
830.41	36753.25
830.661	36505.25
830.912	36387.25
831.162	36187.25
831.413	36150.25
831.664	36208.25
831.914	36019.25
832.165	35933.25
832.415	35892.25
832.666	36060.25
832.916	36157.25
833.167	36113.25
833.417	36001.25
833.667	35858.25
833.917	35807.25
834.168	35830.25
834.418	35559.25
834.668	35468.25
834.918	35330.25
835.168	35191.25
835.418	34938.25
835.668	34830.25
835.918	34882.25
836.167	34885.25
836.417	34701.25
836.667	34685.25
836.917	34726.25
837.166	34608.25
837.416	34559.25
837.666	34542.25
837.915	34561.25
838.165	34460.25
838.414	34431.25
838.663	34210.25
838.913	34361.25
839.162	34160.25
839.411	34322.25
839.661	34112.25
839.91	33941.25
840.159	33949.25
840.408	33931.25
840.657	33906.25
840.906	33938.25
841.155	33992.25
841.404	33908.25
841.653	33908.25
841.902	33973.25
842.15	33977.25
842.399	33952.25
842.648	34005.25
842.897	33920.25
843.145	33563.25
843.394	33496.25
843.642	33214.25
843.891	32980.25
844.139	33069.25
844.388	32581.25
844.636	32571.25
844.884	32646.25
845.133	32570.25
845.381	32645.25
845.629	32575.25
845.877	32620.25
846.125	32522.25
846.373	32492.25
846.621	32358.25
846.869	32173.25
847.117	31953.25
847.365	31843.25
847.613	31597.25
847.861	31608.25
848.108	31662.25
848.356	31517.25
848.604	31486.25
848.851	31438.25
849.099	31562.25
849.346	31619.25
849.594	31728.25
849.841	31820.25
850.089	31880.25
850.336	31916.25
850.583	31870.25
850.831	31655.25
851.078	31453.25
851.325	31540.25
851.572	31637.25
851.819	31220.25
852.066	30704.25
852.313	30365.25
852.56	30042.25
852.807	30109.25
853.054	29984.25
853.301	29871.25
853.548	29937.25
853.794	30027.25
854.041	30125.25
854.288	30154.25
854.534	30458.25
854.781	30545.25
855.028	30408.25
855.274	30259.25
855.52	30172.25
855.767	30019.25
856.013	30048.25
856.26	30378.25
856.506	29715.25
856.752	29658.25
856.998	29691.25
857.244	29751.25
857.49	29928.25
857.736	30086.25
857.982	30013.25
858.228	29982.25
858.474	29707.25
858.72	29437.25
858.966	29226.25
859.212	29014.25
859.458	28659.25
859.703	28368.25
859.949	28123.25
860.195	28000.25
860.44	27823.25
860.686	27693.25
860.931	27693.25
861.177	27546.25
861.422	27405.25
861.667	27324.25
861.913	27319.25
862.158	27434.25
862.403	27527.25
862.648	27426.25
862.893	27461.25
863.138	27356.25
863.384	27277.25
863.629	27356.25
863.873	27438.25
864.118	27191.25
864.363	27119.25
864.608	27014.25
864.853	27045.25
865.098	26794.25
865.342	26702.25
865.587	26608.25
865.832	26659.25
866.076	26509.25
866.321	26329.25
866.565	26408.25
866.81	26260.25
867.054	26247.25
867.298	26086.25
867.543	26034.25
867.787	26231.25
868.031	25906.25
868.275	25870.25
868.519	25810.25
868.764	25818.25
869.008	25689.25
869.252	25759.25
869.496	25650.25
869.739	25477.25
869.983	25542.25
870.227	25474.25
870.471	25526.25
870.715	25560.25
870.958	25597.25
871.202	25610.25
871.446	25776.25
871.689	25678.25
871.933	25705.25
872.176	25824.25
872.42	25721.25
872.663	25555.25
872.906	25530.25
873.15	25513.25
873.393	25455.25
873.636	25370.25
873.879	25126.25
874.122	24994.25
874.366	24608.25
874.609	24431.25
874.852	24269.25
875.095	24105.25
875.337	23867.25
875.58	23836.25
875.823	23723.25
876.066	23701.25
876.309	23629.25
876.551	23333.25
876.794	23298.25
877.037	23291.25
877.279	23188.25
877.522	23154.25
877.764	23234.25
878.007	23207.25
878.249	23160.25
878.491	23079.25
878.734	23052.25
878.976	22989.25
879.218	22758.25
879.46	22726.25
879.702	22511.25
879.945	22449.25
880.187	22265.25
880.429	22084.25
880.671	22067.25
880.912	21897.25
881.154	21829.25
881.396	21714.25
881.638	21793.25
881.88	21752.25
882.121	21725.25
882.363	21582.25
882.605	21668.25
882.846	21686.25
883.088	21497.25
883.329	21525.25
883.571	21626.25
883.812	21713.25
884.053	22169.25
884.295	22486.25
884.536	22659.25
884.777	22340.25
885.018	22453.25
885.259	22356.25
885.5	22181.25
885.742	22256.25
885.982	22000.25
886.223	21865.25
886.464	21710.25
886.705	21582.25
886.946	21373.25
887.187	20897.25
887.428	20748.25
887.668	20543.25
887.909	20321.25
888.15	19992.25
888.39	19938.25
888.631	19839.25
888.871	19571.25
889.111	19368.25
889.352	19390.25
889.592	19240.25
889.833	18971.25
890.073	18908.25
890.313	18744.25
890.553	18676.25
890.793	18564.25
891.033	18519.25
891.273	18402.25
891.513	18273.25
891.753	18339.25
891.993	18301.25
892.233	18342.25
892.473	18423.25
892.713	18242.25
892.952	18245.25
893.192	18368.25
893.432	18334.25
893.671	18327.25
893.911	18037.25
894.15	18111.25
894.39	17922.25
894.629	17895.25
894.869	17767.25
895.108	17592.25
895.347	17578.25
895.587	17525.25
895.826	17419.25
896.065	17450.25
896.304	17443.25
896.543	17443.25
896.782	17358.25
897.021	17292.25
897.26	17237.25
897.499	17279.25
897.738	17199.25
897.977	17017.25
898.216	16977.25
898.454	16810.25
898.693	16631.25
898.932	16654.25
899.17	16591.25
899.409	16594.25
899.647	16508.25
899.886	16391.25
900.124	16486.25
900.363	16498.25
900.601	16520.25
900.839	16533.25
901.078	16578.25
901.316	16704.25
901.554	16683.25
901.792	16805.25
902.03	16725.25
902.268	16674.25
902.506	16808.25
902.744	16575.25
902.982	16549.25
903.22	16295.25
903.458	15976.25
903.695	15843.25
903.933	15609.25
904.171	15350.25
904.409	15045.25
904.646	14914.25
904.884	14672.25
905.121	14644.25
905.359	14356.25
905.596	14333.25
905.833	14176.25
906.071	13943.25
906.308	14080.25
906.545	14047.25
906.783	13916.25
907.02	13864.25
907.257	13832.25
907.494	13710.25
907.731	13710.25
907.968	13675.25
908.205	13581.25
908.442	13479.25
908.679	13396.25
908.915	13310.25
909.152	13262.25
909.389	13015.25
909.626	12998.25
909.862	12919.25
910.099	12867.25
910.335	12845.25
910.572	12721.25
910.808	12719.25
911.045	12659.25
911.281	12568.25
911.518	12571.25
911.754	12443.25
911.99	12391.25
912.226	12265.25
912.463	12214.25
912.699	12171.25
912.935	12011.25
913.171	11898.25
913.407	11866.25
913.643	11797.25
913.879	11619.25
914.114	11631.25
914.35	11461.25
914.586	11352.25
914.822	11206.25
915.057	11215.25
915.293	11069.25
915.529	11021.25
915.764	11097.25
916	11022.25
916.235	10943.25
916.471	10954.25
916.706	10897.25
916.941	10888.25
917.177	10831.25
917.412	10898.25
917.647	10820.25
917.882	10747.25
918.117	10830.25
918.352	10675.25
918.588	10754.25
918.823	10649.25
919.057	10566.25
919.292	10359.25
919.527	10288.25
919.762	10182.25
919.997	10110.25
920.232	9946.25
920.466	9921.25
920.701	9808.25
920.935	9813.25
921.17	9719.25
921.405	9666.25
921.639	9623.25
921.873	9515.25
922.108	9537.25
922.342	9475.25
922.576	9434.25
922.811	9361.25
923.045	9386.25
923.279	9357.25
923.513	9192.25
923.747	9288.25
923.981	9183.25
924.215	9114.25
924.449	9030.25
924.683	8939.25
924.917	8944.25
925.151	8876.25
925.385	8892.25
925.618	8814.25
925.852	8781.25
926.086	8706.25
926.319	8799.25
926.553	8778.25
926.786	8800.25
927.02	8708.25
927.253	8725.25
927.486	8732.25
927.72	8636.25
927.953	8668.25
928.186	8605.25
928.42	8601.25
928.653	8516.25
928.886	8504.25
929.119	8488.25
929.352	8462.25
929.585	8376.25
929.818	8296.25
930.051	8273.25
930.284	8234.25
930.516	8034.25
930.749	7964.25
930.982	8035.25
931.215	8004.25
931.447	7929.25
931.68	7858.25
931.912	7852.25
932.145	7877.25
932.377	7882.25
932.61	7982.25
932.842	7830.25
933.074	7891.25
933.307	7764.25
933.539	7884.25
933.771	7855.25
934.003	7767.25
934.236	7854.25
934.468	7806.25
934.7	7762.25
934.932	7811.25
935.164	7698.25
935.395	7672.25
935.627	7695.25
935.859	7643.25
936.091	7582.25
936.323	7561.25
936.554	7601.25
936.786	7488.25
937.017	7422.25
937.249	7389.25
937.481	7363.25
937.712	7378.25
937.943	7407.25
938.175	7338.25
938.406	7327.25
938.637	7376.25
938.869	7260.25
939.1	7349.25
939.331	7269.25
939.562	7254.25
939.793	7283.25
940.024	7219.25
940.255	7172.25
940.486	7132.25
940.717	7084.25
940.948	7064.25
941.179	6990.25
941.409	7026.25
941.64	7044.25
941.871	6986.25
942.102	6924.25
942.332	6930.25
942.563	6958.25
942.793	6958.25
943.024	6938.25
943.254	6937.25
943.484	6956.25
943.715	6948.25
943.945	6969.25
944.175	6872.25
944.405	6839.25
944.636	6799.25
944.866	6855.25
945.096	6872.25
945.326	6775.25
945.556	6810.25
945.786	6835.25
946.016	6745.25
946.245	6617.25
946.475	6575.25
946.705	6568.25
946.935	6530.25
947.164	6490.25
947.394	6429.25
947.624	6376.25
947.853	6409.25
948.083	6391.25
948.312	6375.25
948.542	6267.25
948.771	6278.25
949	6195.25
949.23	6192.25
949.459	6249.25
949.688	6255.25
949.917	6220.25
950.146	6238.25
950.375	6289.25
950.604	6134.25
950.833	6237.25
951.062	6205.25
951.291	6072.25
951.52	6072.25
951.749	6071.25
951.978	6033.25
952.206	5988.25
952.435	5973.25
952.664	6104.25
952.892	6020.25
953.121	6017.25
953.349	5959.25
953.578	5977.25
953.806	5940.25
954.035	5838.25
954.263	5834.25
954.491	5723.25
954.719	5813.25
954.948	5739.25
955.176	5712.25
955.404	5651.25
955.632	5679.25
955.86	5631.25
956.088	5640.25
956.316	5622.25
956.544	5553.25
956.772	5538.25
956.999	5439.25
957.227	5504.25
957.455	5406.25
957.683	5357.25
957.91	5421.25
958.138	5281.25
958.365	5245.25
958.593	5197.25
958.82	5209.25
959.048	5270.25
959.275	5199.25
959.502	5189.25
959.73	5157.25
959.957	5182.25
960.184	5195.25
960.411	5140.25
960.638	5178.25
960.865	5140.25
961.092	5136.25
961.319	5041.25
961.546	5172.25
961.773	5142.25
962	5066.25
962.227	5137.25
962.454	5069.25
962.68	5029.25
962.907	5022.25
963.134	4970.25
963.36	4979.25
963.587	4944.25
963.813	4837.25
964.04	4836.25
964.266	4810.25
964.493	4869.25
964.719	4790.25
964.945	4784.25
965.171	4670.25
965.398	4687.25
965.624	4741.25
965.85	4606.25
966.076	4614.25
966.302	4645.25
966.528	4574.25
966.754	4603.25
966.98	4539.25
967.206	4574.25
967.431	4464.25
967.657	4524.25
967.883	4533.25
968.109	4516.25
968.334	4473.25
968.56	4396.25
968.785	4391.25
969.011	4368.25
969.236	4409.25
969.462	4333.25
969.687	4324.25
969.912	4382.25
970.138	4389.25
970.363	4282.25
970.588	4322.25
970.813	4262.25
971.038	4177.25
971.263	4294.25
971.488	4238.25
971.713	4265.25
971.938	4239.25
972.163	4159.25
972.388	4111.25
972.613	4115.25
972.838	4152.25
973.062	4081.25
973.287	4093.25
973.512	3982.25
973.736	4057.25
973.961	3999.25
974.185	3958.25
974.41	3983.25
974.634	3894.25
974.858	3876.25
975.083	3926.25
975.307	3900.25
975.531	3798.25
975.755	3777.25
975.98	3752.25
976.204	3713.25
976.428	3682.25
976.652	3695.25
976.876	3654.25
977.1	3700.25
977.324	3631.25
977.547	3722.25
977.771	3653.25
977.995	3618.25
978.219	3583.25
978.442	3684.25
978.666	3592.25
978.89	3619.25
979.113	3605.25
979.337	3598.25
979.56	3518.25
979.783	3642.25
980.007	3463.25
980.23	3508.25
980.453	3480.25
980.677	3515.25
980.9	3439.25
981.123	3373.25
981.346	3478.25
981.569	3399.25
981.792	3445.25
982.015	3357.25
982.238	3334.25
982.461	3348.25
982.684	3303.25
982.907	3261.25
983.129	3252.25
983.352	3278.25
983.575	3258.25
983.797	3246.25
984.02	3181.25
984.242	3173.25
984.465	3180.25
984.687	3198.25
984.91	3179.25
985.132	3171.25
985.354	3172.25
985.577	3129.25
985.799	3068.25
986.021	3001.25
986.243	3057.25
986.465	3038.25
986.687	3079.25
986.909	3110.25
987.131	3011.25
987.353	3000.25
987.575	3024.25
987.797	2958.25
988.019	2921.25
988.241	2964.25
988.462	2958.25
988.684	2970.25
988.906	3007.25
989.127	3051.25
989.349	2900.25
989.57	2921.25
989.792	2961.25
990.013	2950.25
990.234	2956.25
990.456	2936.25
990.677	2900.25
990.898	2860.25
991.119	2867.25
991.341	2908.25
991.562	2825.25
991.783	2844.25
992.004	2759.25
992.225	2687.25
992.446	2769.25
992.667	2677.25
992.887	2712.25
993.108	2663.25
993.329	2739.25
993.55	2692.25
993.77	2608.25
993.991	2590.25
994.212	2649.25
994.432	2597.25
994.653	2618.25
994.873	2599.25
995.093	2488.25
995.314	2529.25
995.534	2600.25
995.754	2620.25
995.975	2625.25
996.195	2502.25
996.415	2553.25
996.635	2512.25
996.855	2522.25
997.075	2511.25
997.295	2519.25
997.515	2469.25
997.735	2516.25
997.955	2502.25
998.174	2500.25
998.394	2438.25
998.614	2479.25
998.834	2422.25
999.053	2506.25
999.273	2468.25
999.492	2516.25
999.712	2411.25
999.931	2390.25
1000.151	2404.25
1000.37	2384.25
1000.589	2422.25
1000.809	2348.25
1001.028	2452.25
1001.247	2391.25
1001.466	2257.25
1001.685	2376.25
1001.904	2350.25
1002.123	2314.25
1002.342	2320.25
1002.561	2243.25
1002.78	2281.25
1002.999	2360.25
1003.218	2252.25
1003.436	2214.25
1003.655	2273.25
1003.874	2196.25
1004.092	2243.25
1004.311	2238.25
1004.53	2186.25
1004.748	2273.25
1004.966	2190.25
1005.185	2231.25
1005.403	2230.25
1005.622	2208.25
1005.84	2274.25
1006.058	2178.25
1006.276	2147.25
1006.494	2672.25
1006.712	2183.25
1006.931	2234.25
1007.149	2176.25
1007.367	2161.25
1007.584	2207.25
1007.802	2236.25
1008.02	2175.25
1008.238	2333.25
1008.456	2277.25
1008.673	2167.25
1008.891	2279.25
1009.109	2242.25
1009.326	2310.25
1009.544	2415.25
1009.761	2327.25
1009.979	2469.25
1010.196	2497.25
1010.413	2647.25
1010.631	2722.25
1010.848	2802.25
1011.065	2811.25
1011.282	2766.25
1011.5	2693.25
1011.717	2771.25
1011.934	2692.25
1012.151	2729.25
1012.368	2687.25
1012.585	2647.25
1012.801	2706.25
1013.018	2662.25
1013.235	2669.25
1013.452	2657.25
1013.669	2710.25
1013.885	2656.25
1014.102	2679.25
1014.318	2696.25
1014.535	2664.25
1014.751	2632.25
1014.968	2631.25
1015.184	2657.25
1015.401	2561.25
1015.617	2588.25
1015.833	2526.25
1016.049	2515.25
1016.266	2451.25
1016.482	2497.25
1016.698	2387.25
1016.914	2398.25
1017.13	2357.25
1017.346	2375.25
1017.562	2402.25
1017.778	2335.25
1017.993	2297.25
1018.209	2356.25
1018.425	2307.25
1018.641	2324.25
1018.856	2245.25
1019.072	2280.25
1019.288	2341.25
1019.503	2284.25
1019.719	2195.25
1019.934	2214.25
1020.149	2270.25
1020.365	2218.25
1020.58	2132.25
1020.795	2163.25
1021.011	2083.25
1021.226	2037.25
1021.441	2036.25
1021.656	1935.25
1021.871	1855.25
1022.086	1868.25
1022.301	1835.25
1022.516	1797.25
1022.731	1819.25
1022.946	1751.25
1023.16	1710.25
1023.375	1667.25
1023.59	1623.25
1023.804	1588.25
1024.019	1673.25
1024.234	1544.25
1024.448	1573.25
1024.663	1444.25
1024.877	1446.25
1025.092	1487.25
1025.306	1496.25
1025.52	1359.25
1025.734	1437.25
1025.949	1356.25
1026.163	1313.25
1026.377	1251.25
1026.591	1269.25
1026.805	1219.25
1027.019	1159.25
1027.233	1117.25
1027.447	1089.25
1027.661	1197.25
1027.875	1111.25
1028.088	1121.25
1028.302	1022.25
1028.516	1031.25
1028.73	1003.25
1028.943	962.25
1029.157	908.25
1029.37	880.25
1029.584	2.25
1029.797	-2.75
1030.011	-1.75
1030.224	-1.75
