Data from QEP037381__274__16-15-29-906.txt Node

Date: Fri Dec 16 16:15:29 EST 2022
User: dcclab
Spectrometer: QEP03738
Trigger mode: 4
Integration Time (sec): 1.000000E1
Scans to average: 1
Electric dark correction enabled: true
Nonlinearity correction enabled: false
Boxcar width: 0
XAxis mode: Wavelengths
Number of Pixels in Spectrum: 1044
>>>>>Begin Spectral Data<<<<<
784.041	15.12
784.3	-3.88
784.558	-0.88
784.817	-2.88
785.075	112920.12
785.334	19232.12
785.592	8892.12
785.851	6108.12
786.109	4559.12
786.368	3545.12
786.626	2868.12
786.884	2355.12
787.143	2002.12
787.401	1650.12
787.659	1497.12
787.917	1299.12
788.175	1147.12
788.433	1039.12
788.691	944.12
788.949	876.12
789.207	819.12
789.465	712.12
789.723	678.12
789.98	613.12
790.238	651.12
790.496	616.12
790.753	607.12
791.011	654.12
791.268	592.12
791.526	551.12
791.783	578.12
792.041	550.12
792.298	471.12
792.556	538.12
792.813	533.12
793.07	490.12
793.327	475.12
793.584	548.12
793.841	485.12
794.099	519.12
794.356	551.12
794.613	449.12
794.869	496.12
795.126	470.12
795.383	442.12
795.64	466.12
795.897	410.12
796.153	482.12
796.41	456.12
796.667	435.12
796.923	441.12
797.18	457.12
797.436	490.12
797.693	449.12
797.949	500.12
798.206	545.12
798.462	450.12
798.718	518.12
798.974	480.12
799.231	519.12
799.487	521.12
799.743	532.12
799.999	566.12
800.255	556.12
800.511	544.12
800.767	602.12
801.023	591.12
801.279	625.12
801.534	692.12
801.79	735.12
802.046	813.12
802.302	961.12
802.557	1101.12
802.813	1424.12
803.068	1796.12
803.324	2495.12
803.579	3435.12
803.835	4783.12
804.09	6529.12
804.345	8603.12
804.601	10814.12
804.856	13232.12
805.111	15229.12
805.366	16812.12
805.621	17968.12
805.876	18881.12
806.131	19352.12
806.386	19802.12
806.641	20084.12
806.896	20408.12
807.151	20876.12
807.406	21174.12
807.661	21561.12
807.915	22000.12
808.17	22209.12
808.425	22455.12
808.679	22568.12
808.934	23021.12
809.188	23312.12
809.443	23374.12
809.697	23709.12
809.951	23888.12
810.206	24060.12
810.46	24401.12
810.714	24557.12
810.968	24746.12
811.223	24907.12
811.477	25203.12
811.731	25478.12
811.985	25484.12
812.239	25450.12
812.493	25761.12
812.747	25822.12
813	25998.12
813.254	26124.12
813.508	26132.12
813.762	26194.12
814.015	26354.12
814.269	26541.12
814.522	26814.12
814.776	27156.12
815.03	27491.12
815.283	27818.12
815.536	28229.12
815.79	28744.12
816.043	29135.12
816.296	29553.12
816.55	29936.12
816.803	30150.12
817.056	30739.12
817.309	30809.12
817.562	31149.12
817.815	31428.12
818.068	31719.12
818.321	32055.12
818.574	32374.12
818.827	32742.12
819.079	33103.12
819.332	33880.12
819.585	34274.12
819.838	34586.12
820.09	34861.12
820.343	35108.12
820.595	35267.12
820.848	35455.12
821.1	35635.12
821.353	35591.12
821.605	35650.12
821.857	35541.12
822.11	35410.12
822.362	35277.12
822.614	35443.12
822.866	35315.12
823.118	35236.12
823.37	35449.12
823.622	35453.12
823.874	35639.12
824.126	35744.12
824.378	35709.12
824.63	35852.12
824.882	36053.12
825.134	35952.12
825.385	35714.12
825.637	35770.12
825.888	35729.12
826.14	35689.12
826.392	35502.12
826.643	35350.12
826.895	35175.12
827.146	35067.12
827.397	35016.12
827.649	35055.12
827.9	35081.12
828.151	35060.12
828.402	35243.12
828.653	35299.12
828.905	35240.12
829.156	35352.12
829.407	35290.12
829.658	35218.12
829.909	35427.12
830.159	35545.12
830.41	35308.12
830.661	35027.12
830.912	34687.12
831.162	34713.12
831.413	34771.12
831.664	34728.12
831.914	34630.12
832.165	34611.12
832.415	34527.12
832.666	34657.12
832.916	34627.12
833.167	34471.12
833.417	34464.12
833.667	34415.12
833.917	34361.12
834.168	34373.12
834.418	34149.12
834.668	34086.12
834.918	33962.12
835.168	33893.12
835.418	33479.12
835.668	33484.12
835.918	33419.12
836.167	33377.12
836.417	33305.12
836.667	33205.12
836.917	33141.12
837.166	33175.12
837.416	33153.12
837.666	33178.12
837.915	33232.12
838.165	32937.12
838.414	32886.12
838.663	32957.12
838.913	32868.12
839.162	32794.12
839.411	32726.12
839.661	32570.12
839.91	32543.12
840.159	32582.12
840.408	32495.12
840.657	32474.12
840.906	32558.12
841.155	32429.12
841.404	32399.12
841.653	32540.12
841.902	32525.12
842.15	32579.12
842.399	32615.12
842.648	32564.12
842.897	32288.12
843.145	32167.12
843.394	32033.12
843.642	31768.12
843.891	31720.12
844.139	31536.12
844.388	31344.12
844.636	31285.12
844.884	31250.12
845.133	31161.12
845.381	31068.12
845.629	31102.12
845.877	31228.12
846.125	31113.12
846.373	31014.12
846.621	30944.12
846.869	30712.12
847.117	30670.12
847.365	30462.12
847.613	30423.12
847.861	30182.12
848.108	30393.12
848.356	30149.12
848.604	30052.12
848.851	30077.12
849.099	30161.12
849.346	30175.12
849.594	30356.12
849.841	30365.12
850.089	30392.12
850.336	30343.12
850.583	30349.12
850.831	30186.12
851.078	30117.12
851.325	30126.12
851.572	30238.12
851.819	29849.12
852.066	29386.12
852.313	28976.12
852.56	28720.12
852.807	28763.12
853.054	28504.12
853.301	28461.12
853.548	28554.12
853.794	28800.12
854.041	28728.12
854.288	28849.12
854.534	29093.12
854.781	28986.12
855.028	28875.12
855.274	28921.12
855.52	28825.12
855.767	28575.12
856.013	28600.12
856.26	28988.12
856.506	28509.12
856.752	28435.12
856.998	28285.12
857.244	28384.12
857.49	28613.12
857.736	28632.12
857.982	28595.12
858.228	28509.12
858.474	28325.12
858.72	28115.12
858.966	27870.12
859.212	27585.12
859.458	27312.12
859.703	27125.12
859.949	26865.12
860.195	26681.12
860.44	26553.12
860.686	26542.12
860.931	26442.12
861.177	26070.12
861.422	26055.12
861.667	25951.12
861.913	25920.12
862.158	26031.12
862.403	26153.12
862.648	26058.12
862.893	26250.12
863.138	26134.12
863.384	26132.12
863.629	26025.12
863.873	25994.12
864.118	25839.12
864.363	25676.12
864.608	25681.12
864.853	25638.12
865.098	25472.12
865.342	25268.12
865.587	25184.12
865.832	25197.12
866.076	25144.12
866.321	25185.12
866.565	25041.12
866.81	24954.12
867.054	24759.12
867.298	24804.12
867.543	24556.12
867.787	24700.12
868.031	24710.12
868.275	24579.12
868.519	24527.12
868.764	24442.12
869.008	24452.12
869.252	24418.12
869.496	24369.12
869.739	24177.12
869.983	24364.12
870.227	24279.12
870.471	24212.12
870.715	24401.12
870.958	24399.12
871.202	24419.12
871.446	24497.12
871.689	24482.12
871.933	24520.12
872.176	24477.12
872.42	24286.12
872.663	24350.12
872.906	24360.12
873.15	24168.12
873.393	24036.12
873.636	24083.12
873.879	23829.12
874.122	23642.12
874.366	23202.12
874.609	23127.12
874.852	22959.12
875.095	22859.12
875.337	22666.12
875.58	22660.12
875.823	22469.12
876.066	22457.12
876.309	22472.12
876.551	22145.12
876.794	22061.12
877.037	22121.12
877.279	22105.12
877.522	22036.12
877.764	21985.12
878.007	21931.12
878.249	21926.12
878.491	21814.12
878.734	21783.12
878.976	21812.12
879.218	21595.12
879.46	21541.12
879.702	21238.12
879.945	21239.12
880.187	20974.12
880.429	20975.12
880.671	20762.12
880.912	20712.12
881.154	20741.12
881.396	20494.12
881.638	20592.12
881.88	20682.12
882.121	20577.12
882.363	20591.12
882.605	20519.12
882.846	20537.12
883.088	20332.12
883.329	20349.12
883.571	20486.12
883.812	20596.12
884.053	20782.12
884.295	21206.12
884.536	21454.12
884.777	21297.12
885.018	21239.12
885.259	21114.12
885.5	21005.12
885.742	21122.12
885.982	20946.12
886.223	20694.12
886.464	20520.12
886.705	20338.12
886.946	20142.12
887.187	19806.12
887.428	19700.12
887.668	19450.12
887.909	19074.12
888.15	18893.12
888.39	18693.12
888.631	18628.12
888.871	18581.12
889.111	18442.12
889.352	18285.12
889.592	18114.12
889.833	17994.12
890.073	17850.12
890.313	17843.12
890.553	17578.12
890.793	17626.12
891.033	17516.12
891.273	17435.12
891.513	17352.12
891.753	17370.12
891.993	17270.12
892.233	17298.12
892.473	17373.12
892.713	17376.12
892.952	17345.12
893.192	17395.12
893.432	17314.12
893.671	17300.12
893.911	17117.12
894.15	17139.12
894.39	16977.12
894.629	16905.12
894.869	16782.12
895.108	16683.12
895.347	16587.12
895.587	16549.12
895.826	16645.12
896.065	16569.12
896.304	16550.12
896.543	16539.12
896.782	16289.12
897.021	16438.12
897.26	16424.12
897.499	16389.12
897.738	16314.12
897.977	16176.12
898.216	16065.12
898.454	15957.12
898.693	15836.12
898.932	15723.12
899.17	15686.12
899.409	15574.12
899.647	15622.12
899.886	15573.12
900.124	15697.12
900.363	15473.12
900.601	15688.12
900.839	15640.12
901.078	15773.12
901.316	15734.12
901.554	15804.12
901.792	15982.12
902.03	15837.12
902.268	15852.12
902.506	15884.12
902.744	15698.12
902.982	15621.12
903.22	15373.12
903.458	15189.12
903.695	14914.12
903.933	14742.12
904.171	14481.12
904.409	14277.12
904.646	14115.12
904.884	13904.12
905.121	13784.12
905.359	13567.12
905.596	13528.12
905.833	13317.12
906.071	13261.12
906.308	13247.12
906.545	13135.12
906.783	13114.12
907.02	13172.12
907.257	13068.12
907.494	13097.12
907.731	12927.12
907.968	12932.12
908.205	12803.12
908.442	12715.12
908.679	12703.12
908.915	12662.12
909.152	12467.12
909.389	12315.12
909.626	12310.12
909.862	12155.12
910.099	12164.12
910.335	12117.12
910.572	12000.12
910.808	12033.12
911.045	12029.12
911.281	11879.12
911.518	11954.12
911.754	11801.12
911.99	11764.12
912.226	11633.12
912.463	11572.12
912.699	11490.12
912.935	11451.12
913.171	11291.12
913.407	11166.12
913.643	11166.12
913.879	11078.12
914.114	10924.12
914.35	10794.12
914.586	10812.12
914.822	10588.12
915.057	10622.12
915.293	10328.12
915.529	10402.12
915.764	10423.12
916	10396.12
916.235	10364.12
916.471	10355.12
916.706	10288.12
916.941	10313.12
917.177	10224.12
917.412	10294.12
917.647	10209.12
917.882	10188.12
918.117	10206.12
918.352	10112.12
918.588	10148.12
918.823	9981.12
919.057	9943.12
919.292	9749.12
919.527	9787.12
919.762	9653.12
919.997	9581.12
920.232	9461.12
920.466	9387.12
920.701	9242.12
920.935	9243.12
921.17	9198.12
921.405	9112.12
921.639	9147.12
921.873	9092.12
922.108	9070.12
922.342	9007.12
922.576	8870.12
922.811	8917.12
923.045	8934.12
923.279	8910.12
923.513	8749.12
923.747	8742.12
923.981	8669.12
924.215	8635.12
924.449	8548.12
924.683	8430.12
924.917	8505.12
925.151	8496.12
925.385	8533.12
925.618	8351.12
925.852	8351.12
926.086	8293.12
926.319	8268.12
926.553	8327.12
926.786	8283.12
927.02	8297.12
927.253	8285.12
927.486	8258.12
927.72	8156.12
927.953	8190.12
928.186	8141.12
928.42	8153.12
928.653	8097.12
928.886	8082.12
929.119	8046.12
929.352	7978.12
929.585	7897.12
929.818	7834.12
930.051	7811.12
930.284	7779.12
930.516	7665.12
930.749	7579.12
930.982	7653.12
931.215	7645.12
931.447	7512.12
931.68	7484.12
931.912	7435.12
932.145	7410.12
932.377	7458.12
932.61	7638.12
932.842	7394.12
933.074	7465.12
933.307	7382.12
933.539	7441.12
933.771	7422.12
934.003	7398.12
934.236	7439.12
934.468	7431.12
934.7	7314.12
934.932	7351.12
935.164	7284.12
935.395	7288.12
935.627	7291.12
935.859	7250.12
936.091	7161.12
936.323	7252.12
936.554	7193.12
936.786	7150.12
937.017	7066.12
937.249	7077.12
937.481	6963.12
937.712	6994.12
937.943	6973.12
938.175	6993.12
938.406	6939.12
938.637	7039.12
938.869	6916.12
939.1	6932.12
939.331	6896.12
939.562	6918.12
939.793	6796.12
940.024	6882.12
940.255	6831.12
940.486	6800.12
940.717	6745.12
940.948	6687.12
941.179	6642.12
941.409	6657.12
941.64	6624.12
941.871	6607.12
942.102	6592.12
942.332	6642.12
942.563	6620.12
942.793	6643.12
943.024	6527.12
943.254	6572.12
943.484	6579.12
943.715	6635.12
943.945	6537.12
944.175	6509.12
944.405	6466.12
944.636	6498.12
944.866	6502.12
945.096	6468.12
945.326	6446.12
945.556	6499.12
945.786	6441.12
946.016	6409.12
946.245	6237.12
946.475	6248.12
946.705	6269.12
946.935	6186.12
947.164	6206.12
947.394	6114.12
947.624	6142.12
947.853	6134.12
948.083	6083.12
948.312	5996.12
948.542	5941.12
948.771	5931.12
949	5925.12
949.23	5925.12
949.459	5925.12
949.688	5998.12
949.917	5926.12
950.146	5925.12
950.375	5902.12
950.604	5787.12
950.833	5906.12
951.062	5894.12
951.291	5839.12
951.52	5762.12
951.749	5784.12
951.978	5771.12
952.206	5766.12
952.435	5668.12
952.664	5725.12
952.892	5742.12
953.121	5656.12
953.349	5673.12
953.578	5663.12
953.806	5576.12
954.035	5517.12
954.263	5540.12
954.491	5496.12
954.719	5527.12
954.948	5402.12
955.176	5391.12
955.404	5311.12
955.632	5397.12
955.86	5343.12
956.088	5321.12
956.316	5353.12
956.544	5357.12
956.772	5204.12
956.999	5230.12
957.227	5264.12
957.455	5140.12
957.683	5126.12
957.91	5111.12
958.138	5002.12
958.365	5026.12
958.593	5012.12
958.82	4987.12
959.048	5047.12
959.275	4983.12
959.502	4964.12
959.73	4932.12
959.957	4963.12
960.184	4882.12
960.411	4861.12
960.638	4900.12
960.865	4884.12
961.092	4924.12
961.319	4755.12
961.546	4880.12
961.773	4913.12
962	4847.12
962.227	4896.12
962.454	4857.12
962.68	4788.12
962.907	4805.12
963.134	4724.12
963.36	4712.12
963.587	4752.12
963.813	4617.12
964.04	4636.12
964.266	4558.12
964.493	4591.12
964.719	4589.12
964.945	4526.12
965.171	4451.12
965.398	4502.12
965.624	4507.12
965.85	4395.12
966.076	4395.12
966.302	4413.12
966.528	4379.12
966.754	4392.12
966.98	4353.12
967.206	4366.12
967.431	4262.12
967.657	4365.12
967.883	4314.12
968.109	4242.12
968.334	4218.12
968.56	4208.12
968.785	4254.12
969.011	4137.12
969.236	4217.12
969.462	4153.12
969.687	4146.12
969.912	4177.12
970.138	4231.12
970.363	4128.12
970.588	4141.12
970.813	4093.12
971.038	4036.12
971.263	4062.12
971.488	4056.12
971.713	4069.12
971.938	4041.12
972.163	3925.12
972.388	3950.12
972.613	3890.12
972.838	3902.12
973.062	3881.12
973.287	3878.12
973.512	3812.12
973.736	3903.12
973.961	3800.12
974.185	3809.12
974.41	3808.12
974.634	3698.12
974.858	3699.12
975.083	3720.12
975.307	3740.12
975.531	3627.12
975.755	3589.12
975.98	3638.12
976.204	3552.12
976.428	3516.12
976.652	3570.12
976.876	3554.12
977.1	3548.12
977.324	3521.12
977.547	3526.12
977.771	3522.12
977.995	3473.12
978.219	3398.12
978.442	3503.12
978.666	3456.12
978.89	3410.12
979.113	3389.12
979.337	3386.12
979.56	3334.12
979.783	3439.12
980.007	3308.12
980.23	3367.12
980.453	3324.12
980.677	3332.12
980.9	3337.12
981.123	3234.12
981.346	3368.12
981.569	3260.12
981.792	3298.12
982.015	3249.12
982.238	3162.12
982.461	3241.12
982.684	3162.12
982.907	3110.12
983.129	3113.12
983.352	3174.12
983.575	3096.12
983.797	3094.12
984.02	3105.12
984.242	3074.12
984.465	3024.12
984.687	3034.12
984.91	3039.12
985.132	3040.12
985.354	3062.12
985.577	2987.12
985.799	2982.12
986.021	2872.12
986.243	2915.12
986.465	2901.12
986.687	2946.12
986.909	2978.12
987.131	2915.12
987.353	2875.12
987.575	2910.12
987.797	2825.12
988.019	2801.12
988.241	2842.12
988.462	2783.12
988.684	2877.12
988.906	2869.12
989.127	2866.12
989.349	2754.12
989.57	2792.12
989.792	2800.12
990.013	2835.12
990.234	2811.12
990.456	2845.12
990.677	2816.12
990.898	2700.12
991.119	2742.12
991.341	2740.12
991.562	2656.12
991.783	2726.12
992.004	2628.12
992.225	2596.12
992.446	2667.12
992.667	2593.12
992.887	2606.12
993.108	2524.12
993.329	2649.12
993.55	2592.12
993.77	2507.12
993.991	2522.12
994.212	2517.12
994.432	2521.12
994.653	2517.12
994.873	2514.12
995.093	2356.12
995.314	2435.12
995.534	2504.12
995.754	2484.12
995.975	2534.12
996.195	2381.12
996.415	2462.12
996.635	2376.12
996.855	2455.12
997.075	2400.12
997.295	2379.12
997.515	2354.12
997.735	2419.12
997.955	2391.12
998.174	2373.12
998.394	2347.12
998.614	2400.12
998.834	2346.12
999.053	2391.12
999.273	2343.12
999.492	2388.12
999.712	2308.12
999.931	2274.12
1000.151	2325.12
1000.37	2287.12
1000.589	2359.12
1000.809	2274.12
1001.028	2344.12
1001.247	2321.12
1001.466	2167.12
1001.685	2327.12
1001.904	2246.12
1002.123	2201.12
1002.342	2202.12
1002.561	2135.12
1002.78	2220.12
1002.999	2275.12
1003.218	2167.12
1003.436	2174.12
1003.655	2182.12
1003.874	2130.12
1004.092	2153.12
1004.311	2177.12
1004.53	2112.12
1004.748	2210.12
1004.966	2075.12
1005.185	2178.12
1005.403	2182.12
1005.622	2125.12
1005.84	2200.12
1006.058	2089.12
1006.276	2091.12
1006.494	2586.12
1006.712	2106.12
1006.931	2143.12
1007.149	2063.12
1007.367	2081.12
1007.584	2118.12
1007.802	2153.12
1008.02	2083.12
1008.238	2217.12
1008.456	2180.12
1008.673	2055.12
1008.891	2207.12
1009.109	2140.12
1009.326	2196.12
1009.544	2321.12
1009.761	2212.12
1009.979	2328.12
1010.196	2393.12
1010.413	2487.12
1010.631	2611.12
1010.848	2634.12
1011.065	2640.12
1011.282	2567.12
1011.5	2543.12
1011.717	2679.12
1011.934	2546.12
1012.151	2624.12
1012.368	2562.12
1012.585	2534.12
1012.801	2547.12
1013.018	2501.12
1013.235	2516.12
1013.452	2523.12
1013.669	2543.12
1013.885	2511.12
1014.102	2571.12
1014.318	2552.12
1014.535	2490.12
1014.751	2510.12
1014.968	2528.12
1015.184	2519.12
1015.401	2423.12
1015.617	2486.12
1015.833	2389.12
1016.049	2403.12
1016.266	2325.12
1016.482	2331.12
1016.698	2269.12
1016.914	2278.12
1017.13	2258.12
1017.346	2255.12
1017.562	2302.12
1017.778	2229.12
1017.993	2189.12
1018.209	2246.12
1018.425	2224.12
1018.641	2191.12
1018.856	2179.12
1019.072	2172.12
1019.288	2195.12
1019.503	2196.12
1019.719	2097.12
1019.934	2125.12
1020.149	2184.12
1020.365	2119.12
1020.58	2018.12
1020.795	2086.12
1021.011	2016.12
1021.226	1969.12
1021.441	1936.12
1021.656	1861.12
1021.871	1809.12
1022.086	1792.12
1022.301	1752.12
1022.516	1716.12
1022.731	1773.12
1022.946	1678.12
1023.16	1643.12
1023.375	1621.12
1023.59	1581.12
1023.804	1538.12
1024.019	1649.12
1024.234	1485.12
1024.448	1513.12
1024.663	1432.12
1024.877	1437.12
1025.092	1445.12
1025.306	1434.12
1025.52	1345.12
1025.734	1379.12
1025.949	1295.12
1026.163	1276.12
1026.377	1206.12
1026.591	1232.12
1026.805	1162.12
1027.019	1135.12
1027.233	1107.12
1027.447	1062.12
1027.661	1152.12
1027.875	1076.12
1028.088	1080.12
1028.302	999.12
1028.516	970.12
1028.73	960.12
1028.943	929.12
1029.157	876.12
1029.37	835.12
1029.584	-1.88
1029.797	-1.88
1030.011	-1.88
1030.224	-1.88
