Data from QEP037381__309__16-21-19-910.txt Node

Date: Fri Dec 16 16:21:19 EST 2022
User: dcclab
Spectrometer: QEP03738
Trigger mode: 4
Integration Time (sec): 1.000000E1
Scans to average: 1
Electric dark correction enabled: true
Nonlinearity correction enabled: false
Boxcar width: 0
XAxis mode: Wavelengths
Number of Pixels in Spectrum: 1044
>>>>>Begin Spectral Data<<<<<
784.041	15.38
784.3	-1.62
784.558	-3.62
784.817	0.38
785.075	115196.38
785.334	19698.38
785.592	9194.38
785.851	6385.38
786.109	4758.38
786.368	3698.38
786.626	2981.38
786.884	2470.38
787.143	2052.38
787.401	1730.38
787.659	1546.38
787.917	1305.38
788.175	1202.38
788.433	1057.38
788.691	950.38
788.949	883.38
789.207	843.38
789.465	729.38
789.723	694.38
789.98	640.38
790.238	689.38
790.496	650.38
790.753	597.38
791.011	659.38
791.268	583.38
791.526	573.38
791.783	582.38
792.041	550.38
792.298	477.38
792.556	541.38
792.813	521.38
793.07	502.38
793.327	483.38
793.584	571.38
793.841	472.38
794.099	512.38
794.356	565.38
794.613	457.38
794.869	508.38
795.126	454.38
795.383	447.38
795.64	458.38
795.897	410.38
796.153	485.38
796.41	464.38
796.667	438.38
796.923	463.38
797.18	446.38
797.436	487.38
797.693	448.38
797.949	511.38
798.206	535.38
798.462	451.38
798.718	513.38
798.974	475.38
799.231	536.38
799.487	537.38
799.743	540.38
799.999	562.38
800.255	572.38
800.511	560.38
800.767	597.38
801.023	618.38
801.279	635.38
801.534	695.38
801.79	741.38
802.046	811.38
802.302	981.38
802.557	1125.38
802.813	1395.38
803.068	1815.38
803.324	2535.38
803.579	3483.38
803.835	4827.38
804.09	6681.38
804.345	8789.38
804.601	11130.38
804.856	13483.38
805.111	15639.38
805.366	17276.38
805.621	18408.38
805.876	19314.38
806.131	19935.38
806.386	20266.38
806.641	20733.38
806.896	20957.38
807.151	21447.38
807.406	21758.38
807.661	22179.38
807.915	22546.38
808.17	22918.38
808.425	23189.38
808.679	23319.38
808.934	23661.38
809.188	23938.38
809.443	24220.38
809.697	24441.38
809.951	24573.38
810.206	24828.38
810.46	25077.38
810.714	25302.38
810.968	25474.38
811.223	25722.38
811.477	26127.38
811.731	26174.38
811.985	26278.38
812.239	26385.38
812.493	26641.38
812.747	26648.38
813	26782.38
813.254	26767.38
813.508	26933.38
813.762	27078.38
814.015	27203.38
814.269	27517.38
814.522	27661.38
814.776	27944.38
815.03	28391.38
815.283	28748.38
815.536	29245.38
815.79	29794.38
816.043	30249.38
816.296	30499.38
816.55	30993.38
816.803	31330.38
817.056	31746.38
817.309	31960.38
817.562	32315.38
817.815	32734.38
818.068	32886.38
818.321	33250.38
818.574	33544.38
818.827	34054.38
819.079	34490.38
819.332	35126.38
819.585	35557.38
819.838	35840.38
820.09	36175.38
820.343	36468.38
820.595	36640.38
820.848	36840.38
821.1	37058.38
821.353	37033.38
821.605	37072.38
821.857	37017.38
822.11	36759.38
822.362	36760.38
822.614	36775.38
822.866	36829.38
823.118	36626.38
823.37	36945.38
823.622	37013.38
823.874	37105.38
824.126	37115.38
824.378	37172.38
824.63	37376.38
824.882	37391.38
825.134	37412.38
825.385	37343.38
825.637	37242.38
825.888	37277.38
826.14	37241.38
826.392	36787.38
826.643	36753.38
826.895	36671.38
827.146	36567.38
827.397	36453.38
827.649	36412.38
827.9	36559.38
828.151	36598.38
828.402	36568.38
828.653	36740.38
828.905	36809.38
829.156	36890.38
829.407	36803.38
829.658	36746.38
829.909	36898.38
830.159	36909.38
830.41	36692.38
830.661	36615.38
830.912	36239.38
831.162	36218.38
831.413	36059.38
831.664	35952.38
831.914	36104.38
832.165	36104.38
832.415	36056.38
832.666	36000.38
832.916	36146.38
833.167	36018.38
833.417	36038.38
833.667	35842.38
833.917	35657.38
834.168	35739.38
834.418	35612.38
834.668	35549.38
834.918	35262.38
835.168	35116.38
835.418	35002.38
835.668	34944.38
835.918	34851.38
836.167	34763.38
836.417	34539.38
836.667	34619.38
836.917	34616.38
837.166	34593.38
837.416	34608.38
837.666	34558.38
837.915	34578.38
838.165	34481.38
838.414	34289.38
838.663	34352.38
838.913	34335.38
839.162	34184.38
839.411	34317.38
839.661	34015.38
839.91	33849.38
840.159	33748.38
840.408	33862.38
840.657	33834.38
840.906	33865.38
841.155	33891.38
841.404	33837.38
841.653	33788.38
841.902	33915.38
842.15	34040.38
842.399	33974.38
842.648	33881.38
842.897	33783.38
843.145	33472.38
843.394	33319.38
843.642	33187.38
843.891	32942.38
844.139	32850.38
844.388	32751.38
844.636	32481.38
844.884	32612.38
845.133	32528.38
845.381	32400.38
845.629	32509.38
845.877	32314.38
846.125	32344.38
846.373	32300.38
846.621	32112.38
846.869	32089.38
847.117	31895.38
847.365	31746.38
847.613	31618.38
847.861	31447.38
848.108	31470.38
848.356	31317.38
848.604	31234.38
848.851	31161.38
849.099	31227.38
849.346	31450.38
849.594	31493.38
849.841	31680.38
850.089	31724.38
850.336	31654.38
850.583	31607.38
850.831	31419.38
851.078	31278.38
851.325	31242.38
851.572	31443.38
851.819	31022.38
852.066	30395.38
852.313	30173.38
852.56	29827.38
852.807	29827.38
853.054	29701.38
853.301	29660.38
853.548	29724.38
853.794	29760.38
854.041	29796.38
854.288	29920.38
854.534	30168.38
854.781	30116.38
855.028	30099.38
855.274	29931.38
855.52	29867.38
855.767	29654.38
856.013	29676.38
856.26	30059.38
856.506	29307.38
856.752	29329.38
856.998	29429.38
857.244	29478.38
857.49	29639.38
857.736	29679.38
857.982	29690.38
858.228	29476.38
858.474	29237.38
858.72	29170.38
858.966	28857.38
859.212	28775.38
859.458	28327.38
859.703	28044.38
859.949	27838.38
860.195	27751.38
860.44	27494.38
860.686	27336.38
860.931	27436.38
861.177	27093.38
861.422	27047.38
861.667	26943.38
861.913	26859.38
862.158	26961.38
862.403	26912.38
862.648	26994.38
862.893	27012.38
863.138	26971.38
863.384	26873.38
863.629	26894.38
863.873	26867.38
864.118	26886.38
864.363	26671.38
864.608	26548.38
864.853	26384.38
865.098	26243.38
865.342	26185.38
865.587	26140.38
865.832	26110.38
866.076	25925.38
866.321	25955.38
866.565	25966.38
866.81	25689.38
867.054	25689.38
867.298	25615.38
867.543	25479.38
867.787	25502.38
868.031	25383.38
868.275	25320.38
868.519	25321.38
868.764	25343.38
869.008	25169.38
869.252	25102.38
869.496	25041.38
869.739	24944.38
869.983	25020.38
870.227	24954.38
870.471	24842.38
870.715	24929.38
870.958	25111.38
871.202	25005.38
871.446	25083.38
871.689	25068.38
871.933	25024.38
872.176	25101.38
872.42	24926.38
872.663	24926.38
872.906	24783.38
873.15	24609.38
873.393	24576.38
873.636	24710.38
873.879	24383.38
874.122	24200.38
874.366	23821.38
874.609	23657.38
874.852	23485.38
875.095	23357.38
875.337	23257.38
875.58	23032.38
875.823	23106.38
876.066	22947.38
876.309	23009.38
876.551	22637.38
876.794	22588.38
877.037	22575.38
877.279	22594.38
877.522	22482.38
877.764	22499.38
878.007	22366.38
878.249	22383.38
878.491	22302.38
878.734	22385.38
878.976	22141.38
879.218	22020.38
879.46	22056.38
879.702	21856.38
879.945	21702.38
880.187	21471.38
880.429	21325.38
880.671	21095.38
880.912	21174.38
881.154	21067.38
881.396	20918.38
881.638	21030.38
881.88	20938.38
882.121	20912.38
882.363	20885.38
882.605	20902.38
882.846	20770.38
883.088	20842.38
883.329	20724.38
883.571	20779.38
883.812	20822.38
884.053	21138.38
884.295	21477.38
884.536	21679.38
884.777	21583.38
885.018	21342.38
885.259	21283.38
885.5	21135.38
885.742	21317.38
885.982	21027.38
886.223	20907.38
886.464	20750.38
886.705	20663.38
886.946	20420.38
887.187	20014.38
887.428	19872.38
887.668	19610.38
887.909	19255.38
888.15	19124.38
888.39	19081.38
888.631	19045.38
888.871	18731.38
889.111	18647.38
889.352	18511.38
889.592	18364.38
889.833	18178.38
890.073	18070.38
890.313	18036.38
890.553	17763.38
890.793	17744.38
891.033	17653.38
891.273	17547.38
891.513	17589.38
891.753	17529.38
891.993	17471.38
892.233	17386.38
892.473	17455.38
892.713	17488.38
892.952	17403.38
893.192	17472.38
893.432	17368.38
893.671	17361.38
893.911	17216.38
894.15	17137.38
894.39	17070.38
894.629	17050.38
894.869	16817.38
895.108	16713.38
895.347	16580.38
895.587	16707.38
895.826	16513.38
896.065	16454.38
896.304	16553.38
896.543	16509.38
896.782	16360.38
897.021	16390.38
897.26	16383.38
897.499	16339.38
897.738	16327.38
897.977	16089.38
898.216	16014.38
898.454	15881.38
898.693	15763.38
898.932	15717.38
899.17	15622.38
899.409	15617.38
899.647	15490.38
899.886	15490.38
900.124	15497.38
900.363	15462.38
900.601	15608.38
900.839	15567.38
901.078	15610.38
901.316	15651.38
901.554	15681.38
901.792	15763.38
902.03	15632.38
902.268	15706.38
902.506	15656.38
902.744	15539.38
902.982	15425.38
903.22	15172.38
903.458	15055.38
903.695	14827.38
903.933	14569.38
904.171	14338.38
904.409	14243.38
904.646	13960.38
904.884	13807.38
905.121	13698.38
905.359	13501.38
905.596	13412.38
905.833	13266.38
906.071	13270.38
906.308	13131.38
906.545	13152.38
906.783	12996.38
907.02	13066.38
907.257	12939.38
907.494	12959.38
907.731	12924.38
907.968	12884.38
908.205	12735.38
908.442	12602.38
908.679	12500.38
908.915	12528.38
909.152	12361.38
909.389	12170.38
909.626	12231.38
909.862	12113.38
910.099	12003.38
910.335	12032.38
910.572	11908.38
910.808	11943.38
911.045	11794.38
911.281	11862.38
911.518	11790.38
911.754	11697.38
911.99	11615.38
912.226	11587.38
912.463	11441.38
912.699	11353.38
912.935	11199.38
913.171	11180.38
913.407	11017.38
913.643	11034.38
913.879	10898.38
914.114	10818.38
914.35	10672.38
914.586	10566.38
914.822	10499.38
915.057	10525.38
915.293	10322.38
915.529	10276.38
915.764	10382.38
916	10253.38
916.235	10197.38
916.471	10211.38
916.706	10125.38
916.941	10157.38
917.177	10052.38
917.412	10044.38
917.647	10037.38
917.882	9925.38
918.117	10001.38
918.352	9957.38
918.588	9956.38
918.823	9839.38
919.057	9767.38
919.292	9638.38
919.527	9702.38
919.762	9497.38
919.997	9376.38
920.232	9203.38
920.466	9248.38
920.701	9073.38
920.935	9070.38
921.17	9030.38
921.405	8944.38
921.639	8978.38
921.873	8906.38
922.108	8879.38
922.342	8872.38
922.576	8701.38
922.811	8729.38
923.045	8718.38
923.279	8696.38
923.513	8529.38
923.747	8570.38
923.981	8562.38
924.215	8448.38
924.449	8373.38
924.683	8321.38
924.917	8268.38
925.151	8220.38
925.385	8324.38
925.618	8251.38
925.852	8173.38
926.086	8109.38
926.319	8110.38
926.553	8049.38
926.786	8148.38
927.02	8080.38
927.253	8115.38
927.486	8107.38
927.72	7983.38
927.953	8025.38
928.186	8020.38
928.42	7978.38
928.653	7886.38
928.886	7870.38
929.119	7821.38
929.352	7806.38
929.585	7706.38
929.818	7677.38
930.051	7681.38
930.284	7579.38
930.516	7466.38
930.749	7410.38
930.982	7384.38
931.215	7352.38
931.447	7187.38
931.68	7315.38
931.912	7209.38
932.145	7205.38
932.377	7254.38
932.61	7350.38
932.842	7130.38
933.074	7230.38
933.307	7232.38
933.539	7303.38
933.771	7206.38
934.003	7213.38
934.236	7236.38
934.468	7165.38
934.7	7121.38
934.932	7120.38
935.164	7034.38
935.395	7069.38
935.627	7044.38
935.859	7004.38
936.091	6962.38
936.323	6992.38
936.554	6994.38
936.786	6903.38
937.017	6865.38
937.249	6868.38
937.481	6787.38
937.712	6871.38
937.943	6779.38
938.175	6765.38
938.406	6717.38
938.637	6836.38
938.869	6725.38
939.1	6717.38
939.331	6679.38
939.562	6720.38
939.793	6666.38
940.024	6580.38
940.255	6580.38
940.486	6534.38
940.717	6493.38
940.948	6463.38
941.179	6397.38
941.409	6408.38
941.64	6381.38
941.871	6484.38
942.102	6394.38
942.332	6383.38
942.563	6454.38
942.793	6388.38
943.024	6327.38
943.254	6368.38
943.484	6400.38
943.715	6364.38
943.945	6326.38
944.175	6295.38
944.405	6270.38
944.636	6321.38
944.866	6287.38
945.096	6308.38
945.326	6209.38
945.556	6268.38
945.786	6213.38
946.016	6140.38
946.245	6041.38
946.475	6051.38
946.705	6004.38
946.935	6000.38
947.164	5993.38
947.394	5909.38
947.624	5918.38
947.853	5936.38
948.083	5843.38
948.312	5776.38
948.542	5791.38
948.771	5706.38
949	5738.38
949.23	5744.38
949.459	5786.38
949.688	5747.38
949.917	5693.38
950.146	5739.38
950.375	5783.38
950.604	5644.38
950.833	5721.38
951.062	5701.38
951.291	5661.38
951.52	5587.38
951.749	5589.38
951.978	5568.38
952.206	5510.38
952.435	5550.38
952.664	5509.38
952.892	5564.38
953.121	5463.38
953.349	5514.38
953.578	5458.38
953.806	5452.38
954.035	5348.38
954.263	5345.38
954.491	5342.38
954.719	5339.38
954.948	5261.38
955.176	5256.38
955.404	5166.38
955.632	5195.38
955.86	5158.38
956.088	5135.38
956.316	5156.38
956.544	5162.38
956.772	5041.38
956.999	5055.38
957.227	5048.38
957.455	4950.38
957.683	4927.38
957.91	4914.38
958.138	4880.38
958.365	4916.38
958.593	4818.38
958.82	4775.38
959.048	4845.38
959.275	4860.38
959.502	4801.38
959.73	4753.38
959.957	4830.38
960.184	4755.38
960.411	4711.38
960.638	4784.38
960.865	4757.38
961.092	4743.38
961.319	4651.38
961.546	4672.38
961.773	4719.38
962	4651.38
962.227	4737.38
962.454	4634.38
962.68	4643.38
962.907	4634.38
963.134	4542.38
963.36	4540.38
963.587	4513.38
963.813	4474.38
964.04	4506.38
964.266	4412.38
964.493	4453.38
964.719	4422.38
964.945	4429.38
965.171	4259.38
965.398	4321.38
965.624	4346.38
965.85	4190.38
966.076	4265.38
966.302	4254.38
966.528	4218.38
966.754	4239.38
966.98	4245.38
967.206	4143.38
967.431	4092.38
967.657	4183.38
967.883	4145.38
968.109	4079.38
968.334	4081.38
968.56	4052.38
968.785	3993.38
969.011	3997.38
969.236	4080.38
969.462	3998.38
969.687	4013.38
969.912	4022.38
970.138	4087.38
970.363	3967.38
970.588	3970.38
970.813	3930.38
971.038	3888.38
971.263	3917.38
971.488	3937.38
971.713	3984.38
971.938	3912.38
972.163	3799.38
972.388	3839.38
972.613	3766.38
972.838	3784.38
973.062	3761.38
973.287	3724.38
973.512	3710.38
973.736	3712.38
973.961	3694.38
974.185	3641.38
974.41	3626.38
974.634	3558.38
974.858	3552.38
975.083	3595.38
975.307	3600.38
975.531	3532.38
975.755	3454.38
975.98	3495.38
976.204	3390.38
976.428	3374.38
976.652	3406.38
976.876	3361.38
977.1	3362.38
977.324	3346.38
977.547	3383.38
977.771	3353.38
977.995	3325.38
978.219	3269.38
978.442	3400.38
978.666	3323.38
978.89	3326.38
979.113	3271.38
979.337	3294.38
979.56	3229.38
979.783	3358.38
980.007	3195.38
980.23	3232.38
980.453	3206.38
980.677	3258.38
980.9	3176.38
981.123	3124.38
981.346	3168.38
981.569	3115.38
981.792	3140.38
982.015	3088.38
982.238	3035.38
982.461	3080.38
982.684	3016.38
982.907	2975.38
983.129	2960.38
983.352	2980.38
983.575	3006.38
983.797	2983.38
984.02	2918.38
984.242	2941.38
984.465	2929.38
984.687	2893.38
984.91	2917.38
985.132	2896.38
985.354	2903.38
985.577	2866.38
985.799	2861.38
986.021	2777.38
986.243	2805.38
986.465	2808.38
986.687	2854.38
986.909	2897.38
987.131	2785.38
987.353	2755.38
987.575	2761.38
987.797	2763.38
988.019	2717.38
988.241	2741.38
988.462	2702.38
988.684	2724.38
988.906	2741.38
989.127	2765.38
989.349	2650.38
989.57	2653.38
989.792	2764.38
990.013	2708.38
990.234	2691.38
990.456	2731.38
990.677	2672.38
990.898	2624.38
991.119	2633.38
991.341	2647.38
991.562	2572.38
991.783	2603.38
992.004	2513.38
992.225	2483.38
992.446	2553.38
992.667	2463.38
992.887	2537.38
993.108	2392.38
993.329	2540.38
993.55	2477.38
993.77	2419.38
993.991	2414.38
994.212	2441.38
994.432	2406.38
994.653	2417.38
994.873	2387.38
995.093	2287.38
995.314	2350.38
995.534	2408.38
995.754	2400.38
995.975	2430.38
996.195	2326.38
996.415	2352.38
996.635	2326.38
996.855	2346.38
997.075	2310.38
997.295	2276.38
997.515	2266.38
997.735	2333.38
997.955	2353.38
998.174	2291.38
998.394	2230.38
998.614	2337.38
998.834	2218.38
999.053	2304.38
999.273	2273.38
999.492	2320.38
999.712	2280.38
999.931	2223.38
1000.151	2229.38
1000.37	2203.38
1000.589	2255.38
1000.809	2164.38
1001.028	2277.38
1001.247	2208.38
1001.466	2084.38
1001.685	2222.38
1001.904	2174.38
1002.123	2137.38
1002.342	2155.38
1002.561	2055.38
1002.78	2118.38
1002.999	2168.38
1003.218	2101.38
1003.436	2057.38
1003.655	2143.38
1003.874	2048.38
1004.092	2092.38
1004.311	2103.38
1004.53	2065.38
1004.748	2122.38
1004.966	2027.38
1005.185	2084.38
1005.403	2071.38
1005.622	2063.38
1005.84	2103.38
1006.058	2037.38
1006.276	2045.38
1006.494	2549.38
1006.712	2009.38
1006.931	2115.38
1007.149	2003.38
1007.367	2001.38
1007.584	2053.38
1007.802	2074.38
1008.02	2026.38
1008.238	2152.38
1008.456	2130.38
1008.673	1991.38
1008.891	2093.38
1009.109	2069.38
1009.326	2133.38
1009.544	2229.38
1009.761	2127.38
1009.979	2248.38
1010.196	2310.38
1010.413	2425.38
1010.631	2492.38
1010.848	2553.38
1011.065	2564.38
1011.282	2559.38
1011.5	2425.38
1011.717	2562.38
1011.934	2457.38
1012.151	2498.38
1012.368	2478.38
1012.585	2422.38
1012.801	2483.38
1013.018	2471.38
1013.235	2433.38
1013.452	2423.38
1013.669	2491.38
1013.885	2424.38
1014.102	2480.38
1014.318	2475.38
1014.535	2431.38
1014.751	2420.38
1014.968	2407.38
1015.184	2478.38
1015.401	2325.38
1015.617	2374.38
1015.833	2282.38
1016.049	2279.38
1016.266	2253.38
1016.482	2251.38
1016.698	2179.38
1016.914	2216.38
1017.13	2123.38
1017.346	2106.38
1017.562	2221.38
1017.778	2098.38
1017.993	2092.38
1018.209	2128.38
1018.425	2118.38
1018.641	2077.38
1018.856	2048.38
1019.072	2085.38
1019.288	2135.38
1019.503	2027.38
1019.719	1976.38
1019.934	2021.38
1020.149	2063.38
1020.365	2011.38
1020.58	1900.38
1020.795	1959.38
1021.011	1897.38
1021.226	1823.38
1021.441	1859.38
1021.656	1777.38
1021.871	1691.38
1022.086	1685.38
1022.301	1686.38
1022.516	1629.38
1022.731	1647.38
1022.946	1574.38
1023.16	1584.38
1023.375	1533.38
1023.59	1489.38
1023.804	1456.38
1024.019	1538.38
1024.234	1391.38
1024.448	1421.38
1024.663	1342.38
1024.877	1356.38
1025.092	1369.38
1025.306	1361.38
1025.52	1249.38
1025.734	1335.38
1025.949	1237.38
1026.163	1194.38
1026.377	1149.38
1026.591	1191.38
1026.805	1118.38
1027.019	1092.38
1027.233	1053.38
1027.447	984.38
1027.661	1090.38
1027.875	1025.38
1028.088	1017.38
1028.302	957.38
1028.516	929.38
1028.73	909.38
1028.943	900.38
1029.157	838.38
1029.37	782.38
1029.584	-2.62
1029.797	-2.62
1030.011	-0.62
1030.224	-4.62
