Data from QEP037381__315__16-22-19-911.txt Node

Date: Fri Dec 16 16:22:19 EST 2022
User: dcclab
Spectrometer: QEP03738
Trigger mode: 4
Integration Time (sec): 1.000000E1
Scans to average: 1
Electric dark correction enabled: true
Nonlinearity correction enabled: false
Boxcar width: 0
XAxis mode: Wavelengths
Number of Pixels in Spectrum: 1044
>>>>>Begin Spectral Data<<<<<
784.041	10.88
784.3	0.88
784.558	-3.12
784.817	-5.12
785.075	109709.88
785.334	19476.88
785.592	9238.88
785.851	6386.88
786.109	4772.88
786.368	3727.88
786.626	3033.88
786.884	2492.88
787.143	2125.88
787.401	1756.88
787.659	1563.88
787.917	1333.88
788.175	1212.88
788.433	1085.88
788.691	954.88
788.949	860.88
789.207	845.88
789.465	725.88
789.723	704.88
789.98	644.88
790.238	675.88
790.496	663.88
790.753	612.88
791.011	643.88
791.268	586.88
791.526	569.88
791.783	585.88
792.041	556.88
792.298	472.88
792.556	542.88
792.813	520.88
793.07	503.88
793.327	488.88
793.584	571.88
793.841	486.88
794.099	504.88
794.356	545.88
794.613	476.88
794.869	505.88
795.126	472.88
795.383	440.88
795.64	477.88
795.897	426.88
796.153	488.88
796.41	466.88
796.667	454.88
796.923	462.88
797.18	466.88
797.436	495.88
797.693	444.88
797.949	503.88
798.206	549.88
798.462	462.88
798.718	536.88
798.974	510.88
799.231	551.88
799.487	534.88
799.743	557.88
799.999	580.88
800.255	579.88
800.511	578.88
800.767	621.88
801.023	614.88
801.279	666.88
801.534	724.88
801.79	786.88
802.046	825.88
802.302	1013.88
802.557	1194.88
802.813	1520.88
803.068	1960.88
803.324	2719.88
803.579	3840.88
803.835	5351.88
804.09	7290.88
804.345	9615.88
804.601	12179.88
804.856	14763.88
805.111	17112.88
805.366	18940.88
805.621	20146.88
805.876	21175.88
806.131	21715.88
806.386	22134.88
806.641	22474.88
806.896	22998.88
807.151	23341.88
807.406	23709.88
807.661	24142.88
807.915	24600.88
808.17	24982.88
808.425	25178.88
808.679	25345.88
808.934	25720.88
809.188	26102.88
809.443	26408.88
809.697	26651.88
809.951	26849.88
810.206	26966.88
810.46	27232.88
810.714	27416.88
810.968	27810.88
811.223	27849.88
811.477	28257.88
811.731	28516.88
811.985	28693.88
812.239	28861.88
812.493	28932.88
812.747	29027.88
813	29005.88
813.254	29338.88
813.508	29526.88
813.762	29525.88
814.015	29689.88
814.269	29968.88
814.522	30172.88
814.776	30612.88
815.03	30883.88
815.283	31426.88
815.536	31797.88
815.79	32362.88
816.043	32844.88
816.296	33363.88
816.55	33738.88
816.803	34088.88
817.056	34566.88
817.309	34869.88
817.562	35186.88
817.815	35585.88
818.068	35808.88
818.321	36250.88
818.574	36646.88
818.827	36947.88
819.079	37659.88
819.332	38233.88
819.585	38553.88
819.838	39129.88
820.09	39429.88
820.343	39725.88
820.595	39848.88
820.848	40202.88
821.1	40472.88
821.353	40424.88
821.605	40275.88
821.857	40242.88
822.11	40173.88
822.362	40060.88
822.614	40018.88
822.866	39990.88
823.118	40103.88
823.37	40174.88
823.622	40346.88
823.874	40415.88
824.126	40583.88
824.378	40628.88
824.63	40764.88
824.882	40866.88
825.134	40834.88
825.385	40680.88
825.637	40720.88
825.888	40504.88
826.14	40456.88
826.392	40318.88
826.643	40196.88
826.895	40174.88
827.146	39817.88
827.397	39947.88
827.649	39906.88
827.9	39769.88
828.151	39924.88
828.402	40079.88
828.653	40233.88
828.905	40235.88
829.156	40282.88
829.407	40286.88
829.658	40316.88
829.909	40491.88
830.159	40255.88
830.41	39933.88
830.661	40007.88
830.912	39747.88
831.162	39724.88
831.413	39530.88
831.664	39674.88
831.914	39544.88
832.165	39530.88
832.415	39557.88
832.666	39327.88
832.916	39527.88
833.167	39615.88
833.417	39407.88
833.667	39388.88
833.917	39098.88
834.168	39143.88
834.418	39065.88
834.668	38923.88
834.918	38740.88
835.168	38556.88
835.418	38386.88
835.668	38361.88
835.918	38167.88
836.167	38089.88
836.417	38216.88
836.667	38098.88
836.917	37958.88
837.166	37807.88
837.416	37944.88
837.666	37964.88
837.915	37927.88
838.165	37785.88
838.414	37824.88
838.663	37591.88
838.913	37667.88
839.162	37618.88
839.411	37468.88
839.661	37387.88
839.91	37187.88
840.159	37330.88
840.408	37290.88
840.657	37136.88
840.906	37304.88
841.155	37141.88
841.404	37124.88
841.653	37321.88
841.902	37423.88
842.15	37514.88
842.399	37460.88
842.648	37343.88
842.897	37192.88
843.145	36967.88
843.394	36810.88
843.642	36414.88
843.891	36495.88
844.139	36273.88
844.388	36126.88
844.636	35948.88
844.884	36030.88
845.133	35949.88
845.381	35840.88
845.629	35811.88
845.877	35727.88
846.125	35846.88
846.373	35722.88
846.621	35620.88
846.869	35473.88
847.117	35249.88
847.365	35062.88
847.613	34866.88
847.861	34848.88
848.108	34652.88
848.356	34694.88
848.604	34542.88
848.851	34699.88
849.099	34765.88
849.346	34738.88
849.594	34969.88
849.841	35048.88
850.089	35136.88
850.336	35142.88
850.583	35130.88
850.831	34968.88
851.078	34678.88
851.325	34762.88
851.572	34818.88
851.819	34504.88
852.066	34033.88
852.313	33512.88
852.56	33171.88
852.807	33039.88
853.054	32955.88
853.301	32982.88
853.548	32837.88
853.794	33129.88
854.041	33128.88
854.288	33366.88
854.534	33517.88
854.781	33567.88
855.028	33442.88
855.274	33317.88
855.52	33263.88
855.767	33004.88
856.013	33137.88
856.26	33278.88
856.506	32768.88
856.752	32729.88
856.998	32854.88
857.244	32990.88
857.49	33017.88
857.736	32983.88
857.982	33057.88
858.228	32972.88
858.474	32753.88
858.72	32680.88
858.966	32418.88
859.212	31960.88
859.458	31732.88
859.703	31251.88
859.949	31143.88
860.195	31031.88
860.44	30862.88
860.686	30569.88
860.931	30552.88
861.177	30388.88
861.422	30291.88
861.667	30297.88
861.913	30276.88
862.158	30278.88
862.403	30429.88
862.648	30447.88
862.893	30517.88
863.138	30448.88
863.384	30298.88
863.629	30298.88
863.873	30361.88
864.118	30227.88
864.363	30010.88
864.608	29966.88
864.853	29950.88
865.098	29819.88
865.342	29596.88
865.587	29400.88
865.832	29443.88
866.076	29466.88
866.321	29334.88
866.565	29322.88
866.81	29093.88
867.054	29025.88
867.298	29037.88
867.543	28973.88
867.787	28741.88
868.031	28818.88
868.275	28734.88
868.519	28714.88
868.764	28597.88
869.008	28612.88
869.252	28593.88
869.496	28370.88
869.739	28388.88
869.983	28292.88
870.227	28314.88
870.471	28347.88
870.715	28489.88
870.958	28622.88
871.202	28542.88
871.446	28638.88
871.689	28576.88
871.933	28572.88
872.176	28637.88
872.42	28474.88
872.663	28485.88
872.906	28376.88
873.15	28224.88
873.393	28058.88
873.636	28116.88
873.879	27727.88
874.122	27543.88
874.366	27175.88
874.609	26950.88
874.852	26735.88
875.095	26702.88
875.337	26491.88
875.58	26497.88
875.823	26368.88
876.066	26431.88
876.309	26410.88
876.551	26124.88
876.794	26001.88
877.037	25821.88
877.279	25923.88
877.522	25904.88
877.764	25972.88
878.007	25667.88
878.249	25797.88
878.491	25748.88
878.734	25721.88
878.976	25569.88
879.218	25457.88
879.46	25349.88
879.702	25189.88
879.945	24946.88
880.187	24739.88
880.429	24706.88
880.671	24492.88
880.912	24361.88
881.154	24392.88
881.396	24237.88
881.638	24152.88
881.88	24255.88
882.121	24216.88
882.363	24095.88
882.605	24175.88
882.846	24102.88
883.088	24064.88
883.329	23969.88
883.571	24097.88
883.812	24128.88
884.053	24489.88
884.295	24749.88
884.536	24773.88
884.777	24785.88
885.018	24612.88
885.259	24686.88
885.5	24499.88
885.742	24619.88
885.982	24357.88
886.223	24161.88
886.464	24102.88
886.705	23749.88
886.946	23734.88
887.187	23355.88
887.428	23159.88
887.668	22919.88
887.909	22554.88
888.15	22296.88
888.39	22234.88
888.631	22126.88
888.871	21853.88
889.111	21820.88
889.352	21681.88
889.592	21529.88
889.833	21141.88
890.073	21048.88
890.313	21005.88
890.553	20792.88
890.793	20866.88
891.033	20805.88
891.273	20608.88
891.513	20562.88
891.753	20504.88
891.993	20509.88
892.233	20498.88
892.473	20630.88
892.713	20652.88
892.952	20585.88
893.192	20526.88
893.432	20540.88
893.671	20483.88
893.911	20342.88
894.15	20236.88
894.39	20074.88
894.629	20060.88
894.869	19841.88
895.108	19794.88
895.347	19674.88
895.587	19585.88
895.826	19619.88
896.065	19604.88
896.304	19621.88
896.543	19579.88
896.782	19345.88
897.021	19458.88
897.26	19330.88
897.499	19272.88
897.738	19333.88
897.977	19231.88
898.216	18947.88
898.454	18925.88
898.693	18675.88
898.932	18672.88
899.17	18536.88
899.409	18521.88
899.647	18507.88
899.886	18408.88
900.124	18459.88
900.363	18363.88
900.601	18461.88
900.839	18612.88
901.078	18458.88
901.316	18510.88
901.554	18664.88
901.792	18723.88
902.03	18657.88
902.268	18746.88
902.506	18615.88
902.744	18527.88
902.982	18381.88
903.22	18098.88
903.458	17812.88
903.695	17685.88
903.933	17456.88
904.171	17132.88
904.409	16942.88
904.646	16761.88
904.884	16442.88
905.121	16282.88
905.359	16093.88
905.596	15990.88
905.833	15781.88
906.071	15741.88
906.308	15665.88
906.545	15625.88
906.783	15608.88
907.02	15531.88
907.257	15542.88
907.494	15409.88
907.731	15497.88
907.968	15361.88
908.205	15305.88
908.442	15155.88
908.679	15053.88
908.915	14887.88
909.152	14797.88
909.389	14629.88
909.626	14565.88
909.862	14520.88
910.099	14446.88
910.335	14488.88
910.572	14222.88
910.808	14282.88
911.045	14214.88
911.281	14196.88
911.518	14142.88
911.754	14097.88
911.99	13940.88
912.226	13799.88
912.463	13723.88
912.699	13605.88
912.935	13501.88
913.171	13403.88
913.407	13218.88
913.643	13270.88
913.879	13141.88
914.114	13038.88
914.35	12868.88
914.586	12651.88
914.822	12533.88
915.057	12565.88
915.293	12417.88
915.529	12427.88
915.764	12398.88
916	12371.88
916.235	12223.88
916.471	12258.88
916.706	12090.88
916.941	12222.88
917.177	12180.88
917.412	12262.88
917.647	12226.88
917.882	12100.88
918.117	12091.88
918.352	12060.88
918.588	12064.88
918.823	11960.88
919.057	11836.88
919.292	11605.88
919.527	11553.88
919.762	11437.88
919.997	11322.88
920.232	11266.88
920.466	11214.88
920.701	10900.88
920.935	10946.88
921.17	10868.88
921.405	10843.88
921.639	10827.88
921.873	10777.88
922.108	10706.88
922.342	10691.88
922.576	10549.88
922.811	10537.88
923.045	10496.88
923.279	10560.88
923.513	10286.88
923.747	10407.88
923.981	10283.88
924.215	10228.88
924.449	10091.88
924.683	10051.88
924.917	10061.88
925.151	9985.88
925.385	9998.88
925.618	9868.88
925.852	9836.88
926.086	9785.88
926.319	9769.88
926.553	9787.88
926.786	9810.88
927.02	9735.88
927.253	9777.88
927.486	9771.88
927.72	9669.88
927.953	9792.88
928.186	9637.88
928.42	9683.88
928.653	9535.88
928.886	9464.88
929.119	9456.88
929.352	9485.88
929.585	9355.88
929.818	9219.88
930.051	9274.88
930.284	9135.88
930.516	9055.88
930.749	8994.88
930.982	8946.88
931.215	8933.88
931.447	8813.88
931.68	8892.88
931.912	8791.88
932.145	8767.88
932.377	8796.88
932.61	8878.88
932.842	8696.88
933.074	8832.88
933.307	8693.88
933.539	8801.88
933.771	8771.88
934.003	8732.88
934.236	8790.88
934.468	8813.88
934.7	8649.88
934.932	8656.88
935.164	8572.88
935.395	8526.88
935.627	8581.88
935.859	8539.88
936.091	8482.88
936.323	8451.88
936.554	8532.88
936.786	8408.88
937.017	8305.88
937.249	8292.88
937.481	8235.88
937.712	8261.88
937.943	8179.88
938.175	8240.88
938.406	8222.88
938.637	8213.88
938.869	8169.88
939.1	8147.88
939.331	8119.88
939.562	8105.88
939.793	8051.88
940.024	8086.88
940.255	8016.88
940.486	7913.88
940.717	7886.88
940.948	7951.88
941.179	7847.88
941.409	7763.88
941.64	7747.88
941.871	7865.88
942.102	7787.88
942.332	7712.88
942.563	7834.88
942.793	7787.88
943.024	7691.88
943.254	7749.88
943.484	7778.88
943.715	7772.88
943.945	7760.88
944.175	7646.88
944.405	7553.88
944.636	7719.88
944.866	7689.88
945.096	7624.88
945.326	7590.88
945.556	7615.88
945.786	7496.88
946.016	7455.88
946.245	7427.88
946.475	7293.88
946.705	7326.88
946.935	7291.88
947.164	7226.88
947.394	7162.88
947.624	7168.88
947.853	7157.88
948.083	7097.88
948.312	7094.88
948.542	6976.88
948.771	6954.88
949	6929.88
949.23	6928.88
949.459	6948.88
949.688	7001.88
949.917	6969.88
950.146	6939.88
950.375	6978.88
950.604	6863.88
950.833	6930.88
951.062	6902.88
951.291	6897.88
951.52	6812.88
951.749	6807.88
951.978	6706.88
952.206	6733.88
952.435	6698.88
952.664	6685.88
952.892	6687.88
953.121	6606.88
953.349	6617.88
953.578	6613.88
953.806	6522.88
954.035	6499.88
954.263	6467.88
954.491	6410.88
954.719	6461.88
954.948	6420.88
955.176	6330.88
955.404	6314.88
955.632	6292.88
955.86	6323.88
956.088	6290.88
956.316	6288.88
956.544	6258.88
956.772	6158.88
956.999	6096.88
957.227	6162.88
957.455	6056.88
957.683	6057.88
957.91	5972.88
958.138	5897.88
958.365	5865.88
958.593	5898.88
958.82	5841.88
959.048	5870.88
959.275	5822.88
959.502	5824.88
959.73	5817.88
959.957	5798.88
960.184	5798.88
960.411	5738.88
960.638	5775.88
960.865	5738.88
961.092	5753.88
961.319	5608.88
961.546	5760.88
961.773	5668.88
962	5679.88
962.227	5653.88
962.454	5670.88
962.68	5616.88
962.907	5554.88
963.134	5564.88
963.36	5560.88
963.587	5513.88
963.813	5373.88
964.04	5418.88
964.266	5346.88
964.493	5386.88
964.719	5377.88
964.945	5312.88
965.171	5207.88
965.398	5235.88
965.624	5244.88
965.85	5158.88
966.076	5142.88
966.302	5173.88
966.528	5047.88
966.754	5106.88
966.98	5094.88
967.206	5055.88
967.431	4963.88
967.657	5056.88
967.883	5012.88
968.109	4971.88
968.334	4903.88
968.56	4931.88
968.785	4937.88
969.011	4877.88
969.236	4933.88
969.462	4855.88
969.687	4857.88
969.912	4883.88
970.138	4847.88
970.363	4775.88
970.588	4800.88
970.813	4743.88
971.038	4728.88
971.263	4713.88
971.488	4740.88
971.713	4727.88
971.938	4717.88
972.163	4616.88
972.388	4604.88
972.613	4568.88
972.838	4562.88
973.062	4535.88
973.287	4503.88
973.512	4480.88
973.736	4430.88
973.961	4437.88
974.185	4407.88
974.41	4419.88
974.634	4312.88
974.858	4346.88
975.083	4355.88
975.307	4349.88
975.531	4250.88
975.755	4123.88
975.98	4211.88
976.204	4180.88
976.428	4074.88
976.652	4132.88
976.876	4117.88
977.1	4081.88
977.324	4045.88
977.547	4053.88
977.771	4089.88
977.995	4039.88
978.219	3984.88
978.442	4053.88
978.666	4005.88
978.89	3990.88
979.113	3969.88
979.337	3980.88
979.56	3886.88
979.783	3966.88
980.007	3841.88
980.23	3914.88
980.453	3820.88
980.677	3902.88
980.9	3879.88
981.123	3758.88
981.346	3811.88
981.569	3788.88
981.792	3826.88
982.015	3722.88
982.238	3693.88
982.461	3706.88
982.684	3664.88
982.907	3582.88
983.129	3608.88
983.352	3657.88
983.575	3599.88
983.797	3568.88
984.02	3504.88
984.242	3477.88
984.465	3500.88
984.687	3553.88
984.91	3510.88
985.132	3516.88
985.354	3493.88
985.577	3414.88
985.799	3397.88
986.021	3376.88
986.243	3357.88
986.465	3352.88
986.687	3403.88
986.909	3444.88
987.131	3340.88
987.353	3323.88
987.575	3370.88
987.797	3276.88
988.019	3259.88
988.241	3308.88
988.462	3237.88
988.684	3281.88
988.906	3308.88
989.127	3273.88
989.349	3207.88
989.57	3221.88
989.792	3237.88
990.013	3243.88
990.234	3236.88
990.456	3269.88
990.677	3207.88
990.898	3097.88
991.119	3152.88
991.341	3148.88
991.562	3054.88
991.783	3075.88
992.004	3003.88
992.225	2988.88
992.446	3011.88
992.667	2928.88
992.887	2978.88
993.108	2879.88
993.329	3016.88
993.55	2912.88
993.77	2847.88
993.991	2858.88
994.212	2866.88
994.432	2846.88
994.653	2869.88
994.873	2851.88
995.093	2716.88
995.314	2717.88
995.534	2814.88
995.754	2845.88
995.975	2858.88
996.195	2733.88
996.415	2765.88
996.635	2746.88
996.855	2745.88
997.075	2749.88
997.295	2716.88
997.515	2698.88
997.735	2761.88
997.955	2702.88
998.174	2706.88
998.394	2677.88
998.614	2723.88
998.834	2643.88
999.053	2687.88
999.273	2677.88
999.492	2715.88
999.712	2650.88
999.931	2583.88
1000.151	2667.88
1000.37	2613.88
1000.589	2626.88
1000.809	2565.88
1001.028	2651.88
1001.247	2546.88
1001.466	2455.88
1001.685	2608.88
1001.904	2501.88
1002.123	2508.88
1002.342	2498.88
1002.561	2401.88
1002.78	2444.88
1002.999	2518.88
1003.218	2412.88
1003.436	2407.88
1003.655	2464.88
1003.874	2381.88
1004.092	2408.88
1004.311	2422.88
1004.53	2367.88
1004.748	2485.88
1004.966	2385.88
1005.185	2408.88
1005.403	2389.88
1005.622	2369.88
1005.84	2470.88
1006.058	2342.88
1006.276	2314.88
1006.494	2838.88
1006.712	2358.88
1006.931	2429.88
1007.149	2320.88
1007.367	2328.88
1007.584	2343.88
1007.802	2405.88
1008.02	2300.88
1008.238	2401.88
1008.456	2439.88
1008.673	2281.88
1008.891	2401.88
1009.109	2398.88
1009.326	2417.88
1009.544	2548.88
1009.761	2454.88
1009.979	2574.88
1010.196	2581.88
1010.413	2715.88
1010.631	2755.88
1010.848	2799.88
1011.065	2807.88
1011.282	2814.88
1011.5	2718.88
1011.717	2811.88
1011.934	2790.88
1012.151	2784.88
1012.368	2730.88
1012.585	2654.88
1012.801	2750.88
1013.018	2730.88
1013.235	2681.88
1013.452	2675.88
1013.669	2694.88
1013.885	2736.88
1014.102	2736.88
1014.318	2728.88
1014.535	2691.88
1014.751	2653.88
1014.968	2697.88
1015.184	2702.88
1015.401	2587.88
1015.617	2642.88
1015.833	2557.88
1016.049	2557.88
1016.266	2539.88
1016.482	2494.88
1016.698	2429.88
1016.914	2466.88
1017.13	2415.88
1017.346	2410.88
1017.562	2438.88
1017.778	2372.88
1017.993	2357.88
1018.209	2393.88
1018.425	2344.88
1018.641	2334.88
1018.856	2319.88
1019.072	2348.88
1019.288	2390.88
1019.503	2349.88
1019.719	2255.88
1019.934	2269.88
1020.149	2328.88
1020.365	2267.88
1020.58	2196.88
1020.795	2251.88
1021.011	2148.88
1021.226	2105.88
1021.441	2085.88
1021.656	2001.88
1021.871	1924.88
1022.086	1914.88
1022.301	1892.88
1022.516	1863.88
1022.731	1923.88
1022.946	1805.88
1023.16	1788.88
1023.375	1750.88
1023.59	1746.88
1023.804	1672.88
1024.019	1776.88
1024.234	1651.88
1024.448	1647.88
1024.663	1558.88
1024.877	1539.88
1025.092	1519.88
1025.306	1535.88
1025.52	1440.88
1025.734	1501.88
1025.949	1405.88
1026.163	1362.88
1026.377	1282.88
1026.591	1336.88
1026.805	1255.88
1027.019	1253.88
1027.233	1193.88
1027.447	1150.88
1027.661	1225.88
1027.875	1182.88
1028.088	1199.88
1028.302	1099.88
1028.516	1069.88
1028.73	1051.88
1028.943	1014.88
1029.157	978.88
1029.37	908.88
1029.584	-2.12
1029.797	-0.12
1030.011	-0.12
1030.224	-1.12
