Data from QEP037381__68__14-47-15-873.txt Node

Date: Wed Dec 21 14:47:15 EST 2022
User: dcclab
Spectrometer: QEP03738
Trigger mode: 4
Integration Time (sec): 1.000000E1
Scans to average: 1
Electric dark correction enabled: true
Nonlinearity correction enabled: false
Boxcar width: 0
XAxis mode: Wavelengths
Number of Pixels in Spectrum: 1044
>>>>>Begin Spectral Data<<<<<
784.041	13.25
784.3	0.25
784.558	-2.75
784.817	-2.75
785.075	99350.25
785.334	17394.25
785.592	8190.25
785.851	5666.25
786.109	4282.25
786.368	3286.25
786.626	2661.25
786.884	2260.25
787.143	1898.25
787.401	1541.25
787.659	1392.25
787.917	1197.25
788.175	1114.25
788.433	956.25
788.691	884.25
788.949	796.25
789.207	767.25
789.465	674.25
789.723	645.25
789.98	611.25
790.238	635.25
790.496	589.25
790.753	579.25
791.011	612.25
791.268	546.25
791.526	522.25
791.783	548.25
792.041	538.25
792.298	428.25
792.556	495.25
792.813	487.25
793.07	468.25
793.327	458.25
793.584	517.25
793.841	457.25
794.099	468.25
794.356	533.25
794.613	434.25
794.869	483.25
795.126	444.25
795.383	426.25
795.64	446.25
795.897	390.25
796.153	444.25
796.41	442.25
796.667	407.25
796.923	426.25
797.18	436.25
797.436	463.25
797.693	429.25
797.949	459.25
798.206	489.25
798.462	396.25
798.718	465.25
798.974	443.25
799.231	496.25
799.487	482.25
799.743	482.25
799.999	505.25
800.255	505.25
800.511	483.25
800.767	542.25
801.023	523.25
801.279	570.25
801.534	597.25
801.79	632.25
802.046	656.25
802.302	814.25
802.557	911.25
802.813	1138.25
803.068	1392.25
803.324	1896.25
803.579	2587.25
803.835	3545.25
804.09	4898.25
804.345	6377.25
804.601	8085.25
804.856	9738.25
805.111	11297.25
805.366	12417.25
805.621	13276.25
805.876	13896.25
806.131	14311.25
806.386	14456.25
806.641	14761.25
806.896	14952.25
807.151	15305.25
807.406	15588.25
807.661	15758.25
807.915	16081.25
808.17	16283.25
808.425	16456.25
808.679	16528.25
808.934	16732.25
809.188	16950.25
809.443	17079.25
809.697	17250.25
809.951	17249.25
810.206	17491.25
810.46	17689.25
810.714	17746.25
810.968	17927.25
811.223	17988.25
811.477	18236.25
811.731	18330.25
811.985	18400.25
812.239	18449.25
812.493	18520.25
812.747	18635.25
813	18656.25
813.254	18694.25
813.508	18769.25
813.762	18793.25
814.015	18935.25
814.269	19055.25
814.522	19306.25
814.776	19536.25
815.03	19786.25
815.283	19981.25
815.536	20341.25
815.79	20686.25
816.043	20908.25
816.296	21120.25
816.55	21381.25
816.803	21537.25
817.056	21998.25
817.309	21989.25
817.562	22272.25
817.815	22503.25
818.068	22551.25
818.321	22854.25
818.574	23105.25
818.827	23415.25
819.079	23659.25
819.332	24033.25
819.585	24258.25
819.838	24553.25
820.09	24756.25
820.343	24858.25
820.595	25059.25
820.848	25214.25
821.1	25321.25
821.353	25226.25
821.605	25119.25
821.857	25214.25
822.11	25036.25
822.362	25067.25
822.614	24934.25
822.866	25032.25
823.118	24909.25
823.37	25097.25
823.622	25092.25
823.874	25219.25
824.126	25301.25
824.378	25257.25
824.63	25431.25
824.882	25413.25
825.134	25316.25
825.385	25339.25
825.637	25200.25
825.888	25101.25
826.14	25115.25
826.392	24935.25
826.643	24690.25
826.895	24696.25
827.146	24663.25
827.397	24616.25
827.649	24619.25
827.9	24534.25
828.151	24564.25
828.402	24574.25
828.653	24675.25
828.905	24715.25
829.156	24669.25
829.407	24815.25
829.658	24905.25
829.909	24912.25
830.159	24807.25
830.41	24819.25
830.661	24568.25
830.912	24284.25
831.162	24150.25
831.413	24186.25
831.664	24316.25
831.914	24154.25
832.165	24068.25
832.415	24121.25
832.666	24197.25
832.916	24245.25
833.167	24053.25
833.417	24106.25
833.667	23915.25
833.917	23902.25
834.168	23964.25
834.418	23727.25
834.668	23708.25
834.918	23602.25
835.168	23540.25
835.418	23359.25
835.668	23400.25
835.918	23285.25
836.167	23254.25
836.417	23149.25
836.667	23109.25
836.917	23146.25
837.166	22999.25
837.416	23070.25
837.666	23085.25
837.915	22983.25
838.165	23005.25
838.414	22849.25
838.663	22838.25
838.913	22844.25
839.162	22729.25
839.411	22808.25
839.661	22576.25
839.91	22571.25
840.159	22519.25
840.408	22533.25
840.657	22443.25
840.906	22523.25
841.155	22537.25
841.404	22459.25
841.653	22517.25
841.902	22550.25
842.15	22599.25
842.399	22631.25
842.648	22536.25
842.897	22448.25
843.145	22351.25
843.394	22255.25
843.642	22025.25
843.891	21893.25
844.139	21790.25
844.388	21724.25
844.636	21515.25
844.884	21589.25
845.133	21537.25
845.381	21554.25
845.629	21578.25
845.877	21510.25
846.125	21329.25
846.373	21438.25
846.621	21364.25
846.869	21211.25
847.117	21032.25
847.365	20999.25
847.613	20915.25
847.861	20850.25
848.108	20913.25
848.356	20858.25
848.604	20847.25
848.851	20883.25
849.099	20758.25
849.346	20692.25
849.594	20879.25
849.841	20937.25
850.089	20893.25
850.336	21009.25
850.583	21048.25
850.831	20869.25
851.078	20750.25
851.325	20783.25
851.572	20757.25
851.819	20602.25
852.066	20226.25
852.313	19842.25
852.56	19795.25
852.807	19635.25
853.054	19614.25
853.301	19668.25
853.548	19634.25
853.794	19728.25
854.041	19843.25
854.288	19848.25
854.534	20131.25
854.781	19943.25
855.028	19882.25
855.274	19879.25
855.52	19740.25
855.767	19674.25
856.013	19734.25
856.26	20083.25
856.506	19523.25
856.752	19473.25
856.998	19537.25
857.244	19447.25
857.49	19593.25
857.736	19658.25
857.982	19575.25
858.228	19481.25
858.474	19333.25
858.72	19286.25
858.966	19107.25
859.212	18782.25
859.458	18679.25
859.703	18525.25
859.949	18339.25
860.195	18257.25
860.44	18221.25
860.686	18057.25
860.931	18019.25
861.177	17770.25
861.422	17797.25
861.667	17736.25
861.913	17759.25
862.158	17720.25
862.403	17783.25
862.648	17783.25
862.893	17819.25
863.138	17898.25
863.384	17749.25
863.629	17736.25
863.873	17579.25
864.118	17709.25
864.363	17521.25
864.608	17560.25
864.853	17507.25
865.098	17266.25
865.342	17269.25
865.587	17198.25
865.832	17236.25
866.076	17075.25
866.321	17045.25
866.565	16947.25
866.81	16907.25
867.054	16814.25
867.298	16831.25
867.543	16684.25
867.787	16819.25
868.031	16630.25
868.275	16602.25
868.519	16671.25
868.764	16635.25
869.008	16478.25
869.252	16597.25
869.496	16467.25
869.739	16432.25
869.983	16464.25
870.227	16455.25
870.471	16469.25
870.715	16553.25
870.958	16518.25
871.202	16608.25
871.446	16467.25
871.689	16560.25
871.933	16527.25
872.176	16504.25
872.42	16461.25
872.663	16386.25
872.906	16539.25
873.15	16399.25
873.393	16382.25
873.636	16405.25
873.879	16275.25
874.122	16003.25
874.366	15756.25
874.609	15640.25
874.852	15524.25
875.095	15391.25
875.337	15285.25
875.58	15263.25
875.823	15189.25
876.066	15175.25
876.309	15102.25
876.551	14893.25
876.794	14846.25
877.037	14917.25
877.279	14873.25
877.522	14830.25
877.764	14839.25
878.007	14749.25
878.249	14833.25
878.491	14766.25
878.734	14735.25
878.976	14672.25
879.218	14558.25
879.46	14491.25
879.702	14412.25
879.945	14322.25
880.187	14122.25
880.429	14080.25
880.671	13954.25
880.912	13902.25
881.154	13808.25
881.396	13884.25
881.638	13873.25
881.88	13792.25
882.121	13752.25
882.363	13660.25
882.605	13789.25
882.846	13701.25
883.088	13703.25
883.329	13681.25
883.571	13731.25
883.812	13920.25
884.053	14170.25
884.295	14527.25
884.536	14584.25
884.777	14546.25
885.018	14415.25
885.259	14336.25
885.5	14206.25
885.742	14472.25
885.982	14051.25
886.223	13967.25
886.464	13904.25
886.705	13751.25
886.946	13622.25
887.187	13396.25
887.428	13209.25
887.668	13012.25
887.909	12745.25
888.15	12679.25
888.39	12615.25
888.631	12557.25
888.871	12441.25
889.111	12297.25
889.352	12240.25
889.592	12081.25
889.833	11922.25
890.073	11957.25
890.313	11899.25
890.553	11695.25
890.793	11717.25
891.033	11685.25
891.273	11581.25
891.513	11490.25
891.753	11492.25
891.993	11468.25
892.233	11526.25
892.473	11603.25
892.713	11560.25
892.952	11535.25
893.192	11561.25
893.432	11498.25
893.671	11510.25
893.911	11398.25
894.15	11407.25
894.39	11187.25
894.629	11226.25
894.869	11170.25
895.108	11029.25
895.347	10943.25
895.587	10897.25
895.826	10935.25
896.065	10862.25
896.304	10960.25
896.543	10942.25
896.782	10785.25
897.021	10782.25
897.26	10697.25
897.499	10868.25
897.738	10809.25
897.977	10712.25
898.216	10507.25
898.454	10429.25
898.693	10394.25
898.932	10403.25
899.17	10287.25
899.409	10258.25
899.647	10211.25
899.886	10166.25
900.124	10238.25
900.363	10175.25
900.601	10239.25
900.839	10321.25
901.078	10288.25
901.316	10278.25
901.554	10364.25
901.792	10407.25
902.03	10370.25
902.268	10387.25
902.506	10396.25
902.744	10297.25
902.982	10287.25
903.22	10095.25
903.458	9958.25
903.695	9821.25
903.933	9705.25
904.171	9501.25
904.409	9400.25
904.646	9236.25
904.884	9110.25
905.121	9083.25
905.359	8964.25
905.596	8927.25
905.833	8823.25
906.071	8785.25
906.308	8779.25
906.545	8704.25
906.783	8677.25
907.02	8716.25
907.257	8633.25
907.494	8637.25
907.731	8597.25
907.968	8641.25
908.205	8517.25
908.442	8496.25
908.679	8417.25
908.915	8380.25
909.152	8301.25
909.389	8139.25
909.626	8112.25
909.862	8149.25
910.099	8093.25
910.335	8051.25
910.572	7955.25
910.808	7977.25
911.045	7836.25
911.281	7912.25
911.518	7985.25
911.754	7832.25
911.99	7839.25
912.226	7755.25
912.463	7727.25
912.699	7655.25
912.935	7570.25
913.171	7505.25
913.407	7396.25
913.643	7426.25
913.879	7393.25
914.114	7329.25
914.35	7172.25
914.586	7140.25
914.822	7078.25
915.057	7091.25
915.293	6890.25
915.529	6885.25
915.764	6973.25
916	6908.25
916.235	6909.25
916.471	6966.25
916.706	6820.25
916.941	6875.25
917.177	6838.25
917.412	6850.25
917.647	6874.25
917.882	6752.25
918.117	6768.25
918.352	6695.25
918.588	6809.25
918.823	6680.25
919.057	6635.25
919.292	6467.25
919.527	6531.25
919.762	6404.25
919.997	6437.25
920.232	6290.25
920.466	6304.25
920.701	6142.25
920.935	6205.25
921.17	6063.25
921.405	6074.25
921.639	6128.25
921.873	6005.25
922.108	6046.25
922.342	6038.25
922.576	5951.25
922.811	5950.25
923.045	5955.25
923.279	5938.25
923.513	5817.25
923.747	5861.25
923.981	5842.25
924.215	5761.25
924.449	5648.25
924.683	5672.25
924.917	5636.25
925.151	5587.25
925.385	5642.25
925.618	5562.25
925.852	5601.25
926.086	5502.25
926.319	5588.25
926.553	5536.25
926.786	5570.25
927.02	5502.25
927.253	5548.25
927.486	5551.25
927.72	5407.25
927.953	5513.25
928.186	5477.25
928.42	5459.25
928.653	5401.25
928.886	5365.25
929.119	5369.25
929.352	5323.25
929.585	5307.25
929.818	5264.25
930.051	5273.25
930.284	5224.25
930.516	5060.25
930.749	5098.25
930.982	5088.25
931.215	5095.25
931.447	5001.25
931.68	4991.25
931.912	4963.25
932.145	4960.25
932.377	4990.25
932.61	5113.25
932.842	4927.25
933.074	5017.25
933.307	4929.25
933.539	5020.25
933.771	4948.25
934.003	4934.25
934.236	4976.25
934.468	4999.25
934.7	4994.25
934.932	4957.25
935.164	4862.25
935.395	4871.25
935.627	4846.25
935.859	4881.25
936.091	4777.25
936.323	4843.25
936.554	4831.25
936.786	4754.25
937.017	4634.25
937.249	4727.25
937.481	4663.25
937.712	4723.25
937.943	4708.25
938.175	4694.25
938.406	4643.25
938.637	4703.25
938.869	4660.25
939.1	4645.25
939.331	4565.25
939.562	4637.25
939.793	4626.25
940.024	4656.25
940.255	4601.25
940.486	4517.25
940.717	4548.25
940.948	4495.25
941.179	4456.25
941.409	4480.25
941.64	4486.25
941.871	4492.25
942.102	4426.25
942.332	4433.25
942.563	4509.25
942.793	4469.25
943.024	4408.25
943.254	4475.25
943.484	4459.25
943.715	4440.25
943.945	4459.25
944.175	4383.25
944.405	4313.25
944.636	4342.25
944.866	4418.25
945.096	4391.25
945.326	4316.25
945.556	4385.25
945.786	4380.25
946.016	4304.25
946.245	4272.25
946.475	4275.25
946.705	4213.25
946.935	4169.25
947.164	4179.25
947.394	4170.25
947.624	4145.25
947.853	4167.25
948.083	4150.25
948.312	4055.25
948.542	4034.25
948.771	4033.25
949	4027.25
949.23	4007.25
949.459	4036.25
949.688	4056.25
949.917	4041.25
950.146	3998.25
950.375	4085.25
950.604	3979.25
950.833	4046.25
951.062	4015.25
951.291	4009.25
951.52	3948.25
951.749	3942.25
951.978	3926.25
952.206	3905.25
952.435	3877.25
952.664	3928.25
952.892	3955.25
953.121	3865.25
953.349	3875.25
953.578	3873.25
953.806	3841.25
954.035	3794.25
954.263	3801.25
954.491	3740.25
954.719	3779.25
954.948	3748.25
955.176	3685.25
955.404	3640.25
955.632	3725.25
955.86	3683.25
956.088	3668.25
956.316	3691.25
956.544	3701.25
956.772	3628.25
956.999	3554.25
957.227	3645.25
957.455	3535.25
957.683	3575.25
957.91	3490.25
958.138	3454.25
958.365	3457.25
958.593	3501.25
958.82	3400.25
959.048	3447.25
959.275	3454.25
959.502	3427.25
959.73	3400.25
959.957	3439.25
960.184	3421.25
960.411	3379.25
960.638	3443.25
960.865	3339.25
961.092	3388.25
961.319	3342.25
961.546	3423.25
961.773	3391.25
962	3390.25
962.227	3387.25
962.454	3352.25
962.68	3313.25
962.907	3356.25
963.134	3257.25
963.36	3283.25
963.587	3322.25
963.813	3219.25
964.04	3256.25
964.266	3180.25
964.493	3291.25
964.719	3255.25
964.945	3227.25
965.171	3112.25
965.398	3121.25
965.624	3168.25
965.85	3044.25
966.076	3087.25
966.302	3083.25
966.528	3087.25
966.754	3091.25
966.98	3076.25
967.206	3077.25
967.431	3001.25
967.657	3054.25
967.883	3038.25
968.109	3026.25
968.334	2920.25
968.56	2938.25
968.785	2982.25
969.011	2920.25
969.236	3011.25
969.462	2934.25
969.687	2964.25
969.912	2940.25
970.138	2977.25
970.363	2884.25
970.588	2923.25
970.813	2878.25
971.038	2851.25
971.263	2920.25
971.488	2880.25
971.713	2885.25
971.938	2893.25
972.163	2788.25
972.388	2786.25
972.613	2789.25
972.838	2758.25
973.062	2732.25
973.287	2781.25
973.512	2713.25
973.736	2717.25
973.961	2702.25
974.185	2667.25
974.41	2667.25
974.634	2627.25
974.858	2606.25
975.083	2670.25
975.307	2667.25
975.531	2611.25
975.755	2554.25
975.98	2575.25
976.204	2499.25
976.428	2477.25
976.652	2477.25
976.876	2474.25
977.1	2496.25
977.324	2475.25
977.547	2516.25
977.771	2520.25
977.995	2491.25
978.219	2425.25
978.442	2527.25
978.666	2458.25
978.89	2489.25
979.113	2404.25
979.337	2421.25
979.56	2397.25
979.783	2510.25
980.007	2383.25
980.23	2415.25
980.453	2388.25
980.677	2396.25
980.9	2382.25
981.123	2282.25
981.346	2376.25
981.569	2346.25
981.792	2347.25
982.015	2329.25
982.238	2284.25
982.461	2286.25
982.684	2236.25
982.907	2228.25
983.129	2223.25
983.352	2298.25
983.575	2208.25
983.797	2249.25
984.02	2218.25
984.242	2200.25
984.465	2172.25
984.687	2255.25
984.91	2227.25
985.132	2243.25
985.354	2216.25
985.577	2178.25
985.799	2166.25
986.021	2095.25
986.243	2115.25
986.465	2150.25
986.687	2182.25
986.909	2178.25
987.131	2135.25
987.353	2099.25
987.575	2149.25
987.797	2076.25
988.019	2019.25
988.241	2067.25
988.462	2047.25
988.684	2109.25
988.906	2117.25
989.127	2146.25
989.349	1990.25
989.57	2029.25
989.792	2057.25
990.013	2088.25
990.234	2128.25
990.456	2134.25
990.677	2105.25
990.898	2017.25
991.119	2042.25
991.341	2060.25
991.562	1963.25
991.783	2031.25
992.004	1951.25
992.225	1921.25
992.446	1960.25
992.667	1883.25
992.887	1958.25
993.108	1884.25
993.329	1988.25
993.55	1947.25
993.77	1882.25
993.991	1869.25
994.212	1868.25
994.432	1856.25
994.653	1892.25
994.873	1887.25
995.093	1771.25
995.314	1799.25
995.534	1888.25
995.754	1873.25
995.975	1907.25
996.195	1811.25
996.415	1865.25
996.635	1821.25
996.855	1839.25
997.075	1815.25
997.295	1838.25
997.515	1775.25
997.735	1848.25
997.955	1826.25
998.174	1821.25
998.394	1759.25
998.614	1793.25
998.834	1759.25
999.053	1867.25
999.273	1802.25
999.492	1847.25
999.712	1784.25
999.931	1742.25
1000.151	1781.25
1000.37	1755.25
1000.589	1799.25
1000.809	1705.25
1001.028	1803.25
1001.247	1759.25
1001.466	1648.25
1001.685	1811.25
1001.904	1723.25
1002.123	1714.25
1002.342	1689.25
1002.561	1658.25
1002.78	1660.25
1002.999	1757.25
1003.218	1691.25
1003.436	1661.25
1003.655	1728.25
1003.874	1647.25
1004.092	1663.25
1004.311	1728.25
1004.53	1648.25
1004.748	1761.25
1004.966	1649.25
1005.185	1679.25
1005.403	1688.25
1005.622	1674.25
1005.84	1758.25
1006.058	1646.25
1006.276	1675.25
1006.494	2130.25
1006.712	1647.25
1006.931	1724.25
1007.149	1634.25
1007.367	1628.25
1007.584	1665.25
1007.802	1726.25
1008.02	1643.25
1008.238	1756.25
1008.456	1775.25
1008.673	1632.25
1008.891	1747.25
1009.109	1717.25
1009.326	1742.25
1009.544	1855.25
1009.761	1791.25
1009.979	1867.25
1010.196	1923.25
1010.413	2011.25
1010.631	2079.25
1010.848	2119.25
1011.065	2144.25
1011.282	2096.25
1011.5	2014.25
1011.717	2151.25
1011.934	2075.25
1012.151	2108.25
1012.368	2040.25
1012.585	2029.25
1012.801	2054.25
1013.018	2054.25
1013.235	1982.25
1013.452	2041.25
1013.669	2076.25
1013.885	2038.25
1014.102	2057.25
1014.318	2037.25
1014.535	2005.25
1014.751	2034.25
1014.968	1995.25
1015.184	2035.25
1015.401	1957.25
1015.617	1952.25
1015.833	1930.25
1016.049	1909.25
1016.266	1892.25
1016.482	1887.25
1016.698	1795.25
1016.914	1819.25
1017.13	1783.25
1017.346	1760.25
1017.562	1816.25
1017.778	1779.25
1017.993	1743.25
1018.209	1777.25
1018.425	1757.25
1018.641	1706.25
1018.856	1692.25
1019.072	1710.25
1019.288	1758.25
1019.503	1690.25
1019.719	1632.25
1019.934	1645.25
1020.149	1703.25
1020.365	1644.25
1020.58	1591.25
1020.795	1598.25
1021.011	1533.25
1021.226	1512.25
1021.441	1549.25
1021.656	1450.25
1021.871	1363.25
1022.086	1363.25
1022.301	1366.25
1022.516	1342.25
1022.731	1372.25
1022.946	1297.25
1023.16	1297.25
1023.375	1247.25
1023.59	1244.25
1023.804	1158.25
1024.019	1269.25
1024.234	1141.25
1024.448	1147.25
1024.663	1092.25
1024.877	1100.25
1025.092	1112.25
1025.306	1123.25
1025.52	1026.25
1025.734	1106.25
1025.949	1006.25
1026.163	963.25
1026.377	914.25
1026.591	965.25
1026.805	893.25
1027.019	887.25
1027.233	869.25
1027.447	792.25
1027.661	905.25
1027.875	825.25
1028.088	821.25
1028.302	754.25
1028.516	743.25
1028.73	744.25
1028.943	729.25
1029.157	693.25
1029.37	634.25
1029.584	-1.75
1029.797	-1.75
1030.011	-2.75
1030.224	-1.75
