Data from QEP037381__58__14-45-35-874.txt Node

Date: Wed Dec 21 14:45:35 EST 2022
User: dcclab
Spectrometer: QEP03738
Trigger mode: 4
Integration Time (sec): 1.000000E1
Scans to average: 1
Electric dark correction enabled: true
Nonlinearity correction enabled: false
Boxcar width: 0
XAxis mode: Wavelengths
Number of Pixels in Spectrum: 1044
>>>>>Begin Spectral Data<<<<<
784.041	13.12
784.3	1.12
784.558	-0.88
784.817	-5.88
785.075	101177.12
785.334	17278.12
785.592	8086.12
785.851	5606.12
786.109	4235.12
786.368	3316.12
786.626	2662.12
786.884	2226.12
787.143	1877.12
787.401	1590.12
787.659	1409.12
787.917	1216.12
788.175	1112.12
788.433	960.12
788.691	860.12
788.949	796.12
789.207	765.12
789.465	666.12
789.723	636.12
789.98	579.12
790.238	622.12
790.496	575.12
790.753	556.12
791.011	605.12
791.268	533.12
791.526	530.12
791.783	539.12
792.041	535.12
792.298	449.12
792.556	523.12
792.813	488.12
793.07	471.12
793.327	455.12
793.584	533.12
793.841	470.12
794.099	480.12
794.356	537.12
794.613	417.12
794.869	479.12
795.126	422.12
795.383	409.12
795.64	452.12
795.897	404.12
796.153	448.12
796.41	434.12
796.667	407.12
796.923	423.12
797.18	433.12
797.436	460.12
797.693	409.12
797.949	467.12
798.206	494.12
798.462	421.12
798.718	466.12
798.974	454.12
799.231	482.12
799.487	485.12
799.743	482.12
799.999	517.12
800.255	512.12
800.511	491.12
800.767	534.12
801.023	524.12
801.279	560.12
801.534	606.12
801.79	642.12
802.046	689.12
802.302	835.12
802.557	931.12
802.813	1147.12
803.068	1408.12
803.324	1932.12
803.579	2683.12
803.835	3662.12
804.09	5054.12
804.345	6471.12
804.601	8201.12
804.856	9827.12
805.111	11271.12
805.366	12411.12
805.621	13249.12
805.876	13749.12
806.131	14234.12
806.386	14447.12
806.641	14623.12
806.896	14926.12
807.151	15066.12
807.406	15327.12
807.661	15570.12
807.915	15841.12
808.17	16168.12
808.425	16330.12
808.679	16369.12
808.934	16515.12
809.188	16696.12
809.443	16850.12
809.697	17003.12
809.951	17067.12
810.206	17241.12
810.46	17420.12
810.714	17626.12
810.968	17663.12
811.223	17789.12
811.477	17983.12
811.731	18210.12
811.985	18256.12
812.239	18259.12
812.493	18398.12
812.747	18374.12
813	18327.12
813.254	18419.12
813.508	18635.12
813.762	18776.12
814.015	18690.12
814.269	18875.12
814.522	18986.12
814.776	19266.12
815.03	19480.12
815.283	19788.12
815.536	20056.12
815.79	20266.12
816.043	20656.12
816.296	20881.12
816.55	21062.12
816.803	21410.12
817.056	21629.12
817.309	21764.12
817.562	22012.12
817.815	22275.12
818.068	22346.12
818.321	22526.12
818.574	22842.12
818.827	23158.12
819.079	23369.12
819.332	23743.12
819.585	23967.12
819.838	24346.12
820.09	24375.12
820.343	24605.12
820.595	24591.12
820.848	24871.12
821.1	24960.12
821.353	24872.12
821.605	24849.12
821.857	24904.12
822.11	24731.12
822.362	24644.12
822.614	24628.12
822.866	24691.12
823.118	24628.12
823.37	24735.12
823.622	24805.12
823.874	24929.12
824.126	25034.12
824.378	24885.12
824.63	25124.12
824.882	25040.12
825.134	25071.12
825.385	25044.12
825.637	24949.12
825.888	24785.12
826.14	24698.12
826.392	24744.12
826.643	24593.12
826.895	24412.12
827.146	24344.12
827.397	24273.12
827.649	24269.12
827.9	24237.12
828.151	24348.12
828.402	24365.12
828.653	24439.12
828.905	24464.12
829.156	24493.12
829.407	24431.12
829.658	24513.12
829.909	24529.12
830.159	24480.12
830.41	24490.12
830.661	24217.12
830.912	24130.12
831.162	23912.12
831.413	23971.12
831.664	23970.12
831.914	23952.12
832.165	23852.12
832.415	23888.12
832.666	23836.12
832.916	23872.12
833.167	23911.12
833.417	23954.12
833.667	23784.12
833.917	23630.12
834.168	23513.12
834.418	23523.12
834.668	23402.12
834.918	23442.12
835.168	23323.12
835.418	23147.12
835.668	23103.12
835.918	23039.12
836.167	22975.12
836.417	22894.12
836.667	22990.12
836.917	22870.12
837.166	22807.12
837.416	22899.12
837.666	22807.12
837.915	22715.12
838.165	22749.12
838.414	22662.12
838.663	22578.12
838.913	22542.12
839.162	22467.12
839.411	22714.12
839.661	22376.12
839.91	22391.12
840.159	22325.12
840.408	22392.12
840.657	22277.12
840.906	22384.12
841.155	22354.12
841.404	22327.12
841.653	22316.12
841.902	22315.12
842.15	22388.12
842.399	22340.12
842.648	22431.12
842.897	22328.12
843.145	22065.12
843.394	21891.12
843.642	21768.12
843.891	21700.12
844.139	21513.12
844.388	21401.12
844.636	21318.12
844.884	21474.12
845.133	21351.12
845.381	21239.12
845.629	21357.12
845.877	21272.12
846.125	21232.12
846.373	21253.12
846.621	21136.12
846.869	21209.12
847.117	20930.12
847.365	20833.12
847.613	20715.12
847.861	20729.12
848.108	20703.12
848.356	20671.12
848.604	20573.12
848.851	20643.12
849.099	20587.12
849.346	20634.12
849.594	20740.12
849.841	20821.12
850.089	20786.12
850.336	20811.12
850.583	20792.12
850.831	20724.12
851.078	20663.12
851.325	20660.12
851.572	20692.12
851.819	20453.12
852.066	19970.12
852.313	19714.12
852.56	19602.12
852.807	19510.12
853.054	19418.12
853.301	19451.12
853.548	19434.12
853.794	19551.12
854.041	19631.12
854.288	19589.12
854.534	19930.12
854.781	19762.12
855.028	19683.12
855.274	19687.12
855.52	19618.12
855.767	19498.12
856.013	19491.12
856.26	19852.12
856.506	19371.12
856.752	19263.12
856.998	19346.12
857.244	19358.12
857.49	19411.12
857.736	19466.12
857.982	19530.12
858.228	19393.12
858.474	19167.12
858.72	19038.12
858.966	18888.12
859.212	18764.12
859.458	18550.12
859.703	18400.12
859.949	18178.12
860.195	18124.12
860.44	17929.12
860.686	17916.12
860.931	17932.12
861.177	17726.12
861.422	17752.12
861.667	17622.12
861.913	17611.12
862.158	17552.12
862.403	17664.12
862.648	17700.12
862.893	17728.12
863.138	17709.12
863.384	17629.12
863.629	17579.12
863.873	17577.12
864.118	17540.12
864.363	17415.12
864.608	17363.12
864.853	17343.12
865.098	17209.12
865.342	17192.12
865.587	17064.12
865.832	17066.12
866.076	16991.12
866.321	16927.12
866.565	16835.12
866.81	16853.12
867.054	16805.12
867.298	16667.12
867.543	16647.12
867.787	16657.12
868.031	16597.12
868.275	16602.12
868.519	16478.12
868.764	16508.12
869.008	16400.12
869.252	16537.12
869.496	16370.12
869.739	16379.12
869.983	16344.12
870.227	16379.12
870.471	16341.12
870.715	16326.12
870.958	16410.12
871.202	16440.12
871.446	16468.12
871.689	16427.12
871.933	16463.12
872.176	16336.12
872.42	16358.12
872.663	16381.12
872.906	16312.12
873.15	16218.12
873.393	16179.12
873.636	16198.12
873.879	16018.12
874.122	15917.12
874.366	15617.12
874.609	15556.12
874.852	15304.12
875.095	15326.12
875.337	15194.12
875.58	15095.12
875.823	15052.12
876.066	15050.12
876.309	14986.12
876.551	14838.12
876.794	14834.12
877.037	14899.12
877.279	14749.12
877.522	14757.12
877.764	14806.12
878.007	14713.12
878.249	14724.12
878.491	14595.12
878.734	14714.12
878.976	14585.12
879.218	14433.12
879.46	14474.12
879.702	14320.12
879.945	14246.12
880.187	14135.12
880.429	13999.12
880.671	13880.12
880.912	13877.12
881.154	13745.12
881.396	13691.12
881.638	13730.12
881.88	13752.12
882.121	13759.12
882.363	13696.12
882.605	13741.12
882.846	13663.12
883.088	13650.12
883.329	13547.12
883.571	13576.12
883.812	13660.12
884.053	13933.12
884.295	14145.12
884.536	14356.12
884.777	14206.12
885.018	14178.12
885.259	14100.12
885.5	13956.12
885.742	14251.12
885.982	13901.12
886.223	13811.12
886.464	13620.12
886.705	13532.12
886.946	13453.12
887.187	13300.12
887.428	13104.12
887.668	12855.12
887.909	12794.12
888.15	12604.12
888.39	12510.12
888.631	12507.12
888.871	12459.12
889.111	12278.12
889.352	12129.12
889.592	12047.12
889.833	11944.12
890.073	11965.12
890.313	11915.12
890.553	11651.12
890.793	11685.12
891.033	11732.12
891.273	11524.12
891.513	11529.12
891.753	11595.12
891.993	11519.12
892.233	11536.12
892.473	11532.12
892.713	11533.12
892.952	11512.12
893.192	11509.12
893.432	11461.12
893.671	11553.12
893.911	11348.12
894.15	11285.12
894.39	11122.12
894.629	11198.12
894.869	11144.12
895.108	10973.12
895.347	11002.12
895.587	10947.12
895.826	10793.12
896.065	10851.12
896.304	10894.12
896.543	10886.12
896.782	10751.12
897.021	10789.12
897.26	10768.12
897.499	10772.12
897.738	10814.12
897.977	10661.12
898.216	10561.12
898.454	10412.12
898.693	10333.12
898.932	10416.12
899.17	10277.12
899.409	10222.12
899.647	10240.12
899.886	10199.12
900.124	10245.12
900.363	10196.12
900.601	10195.12
900.839	10190.12
901.078	10208.12
901.316	10299.12
901.554	10276.12
901.792	10386.12
902.03	10325.12
902.268	10366.12
902.506	10326.12
902.744	10242.12
902.982	10204.12
903.22	10081.12
903.458	9917.12
903.695	9802.12
903.933	9683.12
904.171	9520.12
904.409	9369.12
904.646	9284.12
904.884	9124.12
905.121	9114.12
905.359	8999.12
905.596	8982.12
905.833	8757.12
906.071	8810.12
906.308	8745.12
906.545	8759.12
906.783	8708.12
907.02	8680.12
907.257	8639.12
907.494	8685.12
907.731	8558.12
907.968	8565.12
908.205	8554.12
908.442	8458.12
908.679	8432.12
908.915	8377.12
909.152	8312.12
909.389	8117.12
909.626	8201.12
909.862	8065.12
910.099	8057.12
910.335	8074.12
910.572	7904.12
910.808	7922.12
911.045	7938.12
911.281	7863.12
911.518	7905.12
911.754	7848.12
911.99	7750.12
912.226	7745.12
912.463	7603.12
912.699	7546.12
912.935	7557.12
913.171	7484.12
913.407	7384.12
913.643	7437.12
913.879	7294.12
914.114	7292.12
914.35	7211.12
914.586	7152.12
914.822	7066.12
915.057	7024.12
915.293	6908.12
915.529	6899.12
915.764	7007.12
916	6929.12
916.235	6931.12
916.471	6888.12
916.706	6792.12
916.941	6806.12
917.177	6867.12
917.412	6792.12
917.647	6804.12
917.882	6747.12
918.117	6766.12
918.352	6732.12
918.588	6810.12
918.823	6670.12
919.057	6666.12
919.292	6441.12
919.527	6515.12
919.762	6375.12
919.997	6392.12
920.232	6266.12
920.466	6256.12
920.701	6119.12
920.935	6148.12
921.17	6122.12
921.405	6070.12
921.639	6105.12
921.873	6039.12
922.108	6004.12
922.342	5978.12
922.576	5942.12
922.811	5880.12
923.045	5962.12
923.279	5909.12
923.513	5717.12
923.747	5864.12
923.981	5806.12
924.215	5741.12
924.449	5753.12
924.683	5666.12
924.917	5628.12
925.151	5618.12
925.385	5641.12
925.618	5669.12
925.852	5631.12
926.086	5565.12
926.319	5537.12
926.553	5535.12
926.786	5511.12
927.02	5464.12
927.253	5504.12
927.486	5520.12
927.72	5531.12
927.953	5468.12
928.186	5475.12
928.42	5437.12
928.653	5365.12
928.886	5371.12
929.119	5328.12
929.352	5342.12
929.585	5307.12
929.818	5197.12
930.051	5232.12
930.284	5242.12
930.516	5080.12
930.749	5046.12
930.982	5115.12
931.215	5077.12
931.447	5012.12
931.68	5004.12
931.912	5005.12
932.145	4936.12
932.377	4986.12
932.61	5123.12
932.842	4912.12
933.074	4985.12
933.307	4915.12
933.539	5006.12
933.771	4959.12
934.003	4904.12
934.236	5012.12
934.468	4978.12
934.7	4908.12
934.932	4910.12
935.164	4907.12
935.395	4848.12
935.627	4849.12
935.859	4852.12
936.091	4766.12
936.323	4815.12
936.554	4861.12
936.786	4770.12
937.017	4703.12
937.249	4715.12
937.481	4687.12
937.712	4724.12
937.943	4683.12
938.175	4621.12
938.406	4647.12
938.637	4726.12
938.869	4600.12
939.1	4658.12
939.331	4588.12
939.562	4657.12
939.793	4614.12
940.024	4621.12
940.255	4627.12
940.486	4467.12
940.717	4524.12
940.948	4475.12
941.179	4486.12
941.409	4483.12
941.64	4438.12
941.871	4470.12
942.102	4470.12
942.332	4405.12
942.563	4489.12
942.793	4413.12
943.024	4423.12
943.254	4394.12
943.484	4477.12
943.715	4475.12
943.945	4424.12
944.175	4333.12
944.405	4339.12
944.636	4341.12
944.866	4383.12
945.096	4348.12
945.326	4302.12
945.556	4314.12
945.786	4347.12
946.016	4307.12
946.245	4201.12
946.475	4234.12
946.705	4202.12
946.935	4179.12
947.164	4178.12
947.394	4142.12
947.624	4138.12
947.853	4156.12
948.083	4123.12
948.312	4042.12
948.542	4026.12
948.771	4016.12
949	4028.12
949.23	4016.12
949.459	4010.12
949.688	4075.12
949.917	3977.12
950.146	3989.12
950.375	4028.12
950.604	3925.12
950.833	4040.12
951.062	3992.12
951.291	3963.12
951.52	3892.12
951.749	3937.12
951.978	3853.12
952.206	3918.12
952.435	3868.12
952.664	3954.12
952.892	3894.12
953.121	3873.12
953.349	3858.12
953.578	3840.12
953.806	3815.12
954.035	3742.12
954.263	3746.12
954.491	3690.12
954.719	3759.12
954.948	3702.12
955.176	3699.12
955.404	3652.12
955.632	3684.12
955.86	3674.12
956.088	3639.12
956.316	3667.12
956.544	3689.12
956.772	3598.12
956.999	3590.12
957.227	3638.12
957.455	3548.12
957.683	3538.12
957.91	3489.12
958.138	3507.12
958.365	3501.12
958.593	3471.12
958.82	3394.12
959.048	3446.12
959.275	3402.12
959.502	3405.12
959.73	3391.12
959.957	3416.12
960.184	3437.12
960.411	3325.12
960.638	3419.12
960.865	3382.12
961.092	3392.12
961.319	3328.12
961.546	3391.12
961.773	3358.12
962	3347.12
962.227	3344.12
962.454	3313.12
962.68	3308.12
962.907	3313.12
963.134	3239.12
963.36	3277.12
963.587	3292.12
963.813	3205.12
964.04	3232.12
964.266	3139.12
964.493	3251.12
964.719	3208.12
964.945	3208.12
965.171	3091.12
965.398	3158.12
965.624	3157.12
965.85	3071.12
966.076	3079.12
966.302	3075.12
966.528	3018.12
966.754	3059.12
966.98	3054.12
967.206	3051.12
967.431	2969.12
967.657	3070.12
967.883	3022.12
968.109	3041.12
968.334	2985.12
968.56	2947.12
968.785	2952.12
969.011	2906.12
969.236	2966.12
969.462	2891.12
969.687	2898.12
969.912	2954.12
970.138	2927.12
970.363	2860.12
970.588	2906.12
970.813	2887.12
971.038	2825.12
971.263	2869.12
971.488	2869.12
971.713	2894.12
971.938	2827.12
972.163	2735.12
972.388	2762.12
972.613	2763.12
972.838	2791.12
973.062	2719.12
973.287	2760.12
973.512	2690.12
973.736	2720.12
973.961	2712.12
974.185	2680.12
974.41	2698.12
974.634	2605.12
974.858	2611.12
975.083	2652.12
975.307	2647.12
975.531	2574.12
975.755	2529.12
975.98	2527.12
976.204	2480.12
976.428	2480.12
976.652	2509.12
976.876	2467.12
977.1	2497.12
977.324	2443.12
977.547	2488.12
977.771	2520.12
977.995	2456.12
978.219	2387.12
978.442	2495.12
978.666	2440.12
978.89	2427.12
979.113	2430.12
979.337	2420.12
979.56	2369.12
979.783	2486.12
980.007	2349.12
980.23	2402.12
980.453	2350.12
980.677	2393.12
980.9	2353.12
981.123	2282.12
981.346	2344.12
981.569	2344.12
981.792	2348.12
982.015	2301.12
982.238	2273.12
982.461	2256.12
982.684	2226.12
982.907	2220.12
983.129	2217.12
983.352	2280.12
983.575	2224.12
983.797	2237.12
984.02	2145.12
984.242	2167.12
984.465	2161.12
984.687	2204.12
984.91	2251.12
985.132	2205.12
985.354	2185.12
985.577	2178.12
985.799	2148.12
986.021	2078.12
986.243	2103.12
986.465	2075.12
986.687	2141.12
986.909	2204.12
987.131	2127.12
987.353	2088.12
987.575	2108.12
987.797	2078.12
988.019	2002.12
988.241	2048.12
988.462	2009.12
988.684	2058.12
988.906	2124.12
989.127	2101.12
989.349	2012.12
989.57	2026.12
989.792	2073.12
990.013	2053.12
990.234	2070.12
990.456	2116.12
990.677	2057.12
990.898	1948.12
991.119	1976.12
991.341	2028.12
991.562	1952.12
991.783	2018.12
992.004	1896.12
992.225	1906.12
992.446	1958.12
992.667	1856.12
992.887	1951.12
993.108	1824.12
993.329	1963.12
993.55	1917.12
993.77	1874.12
993.991	1846.12
994.212	1874.12
994.432	1893.12
994.653	1845.12
994.873	1845.12
995.093	1742.12
995.314	1794.12
995.534	1851.12
995.754	1870.12
995.975	1895.12
996.195	1777.12
996.415	1830.12
996.635	1797.12
996.855	1818.12
997.075	1801.12
997.295	1763.12
997.515	1745.12
997.735	1799.12
997.955	1790.12
998.174	1740.12
998.394	1764.12
998.614	1794.12
998.834	1741.12
999.053	1824.12
999.273	1750.12
999.492	1807.12
999.712	1759.12
999.931	1747.12
1000.151	1755.12
1000.37	1734.12
1000.589	1793.12
1000.809	1699.12
1001.028	1829.12
1001.247	1730.12
1001.466	1628.12
1001.685	1814.12
1001.904	1689.12
1002.123	1681.12
1002.342	1668.12
1002.561	1653.12
1002.78	1651.12
1002.999	1713.12
1003.218	1669.12
1003.436	1634.12
1003.655	1690.12
1003.874	1630.12
1004.092	1653.12
1004.311	1682.12
1004.53	1620.12
1004.748	1701.12
1004.966	1636.12
1005.185	1695.12
1005.403	1678.12
1005.622	1681.12
1005.84	1742.12
1006.058	1632.12
1006.276	1638.12
1006.494	2120.12
1006.712	1639.12
1006.931	1679.12
1007.149	1616.12
1007.367	1604.12
1007.584	1643.12
1007.802	1685.12
1008.02	1611.12
1008.238	1734.12
1008.456	1698.12
1008.673	1580.12
1008.891	1711.12
1009.109	1658.12
1009.326	1696.12
1009.544	1817.12
1009.761	1698.12
1009.979	1819.12
1010.196	1799.12
1010.413	1917.12
1010.631	1978.12
1010.848	2013.12
1011.065	2023.12
1011.282	1993.12
1011.5	1920.12
1011.717	2034.12
1011.934	1948.12
1012.151	1981.12
1012.368	1940.12
1012.585	1905.12
1012.801	1938.12
1013.018	1920.12
1013.235	1887.12
1013.452	1909.12
1013.669	1913.12
1013.885	1916.12
1014.102	1961.12
1014.318	1909.12
1014.535	1876.12
1014.751	1930.12
1014.968	1901.12
1015.184	1914.12
1015.401	1834.12
1015.617	1868.12
1015.833	1802.12
1016.049	1768.12
1016.266	1781.12
1016.482	1761.12
1016.698	1689.12
1016.914	1738.12
1017.13	1695.12
1017.346	1679.12
1017.562	1733.12
1017.778	1679.12
1017.993	1644.12
1018.209	1672.12
1018.425	1657.12
1018.641	1622.12
1018.856	1579.12
1019.072	1654.12
1019.288	1685.12
1019.503	1658.12
1019.719	1531.12
1019.934	1571.12
1020.149	1656.12
1020.365	1583.12
1020.58	1518.12
1020.795	1540.12
1021.011	1482.12
1021.226	1456.12
1021.441	1486.12
1021.656	1377.12
1021.871	1316.12
1022.086	1326.12
1022.301	1288.12
1022.516	1309.12
1022.731	1333.12
1022.946	1270.12
1023.16	1252.12
1023.375	1204.12
1023.59	1183.12
1023.804	1135.12
1024.019	1234.12
1024.234	1111.12
1024.448	1126.12
1024.663	1058.12
1024.877	1076.12
1025.092	1096.12
1025.306	1086.12
1025.52	992.12
1025.734	1067.12
1025.949	978.12
1026.163	969.12
1026.377	899.12
1026.591	957.12
1026.805	874.12
1027.019	869.12
1027.233	836.12
1027.447	780.12
1027.661	886.12
1027.875	814.12
1028.088	828.12
1028.302	738.12
1028.516	748.12
1028.73	744.12
1028.943	736.12
1029.157	669.12
1029.37	639.12
1029.584	-2.88
1029.797	-0.88
1030.011	-1.88
1030.224	-1.88
