Data from QEP037381__43__10-02-49-927.txt Node

Date: Wed Dec 21 10:02:49 EST 2022
User: dcclab
Spectrometer: QEP03738
Trigger mode: 4
Integration Time (sec): 1.000000E1
Scans to average: 1
Electric dark correction enabled: true
Nonlinearity correction enabled: false
Boxcar width: 0
XAxis mode: Wavelengths
Number of Pixels in Spectrum: 1044
>>>>>Begin Spectral Data<<<<<
784.041	11.88
784.3	0.88
784.558	-4.12
784.817	-7.12
785.075	116152.88
785.334	19732.88
785.592	9075.88
785.851	6272.88
786.109	4763.88
786.368	3641.88
786.626	2935.88
786.884	2438.88
787.143	1993.88
787.401	1656.88
787.659	1504.88
787.917	1258.88
788.175	1151.88
788.433	988.88
788.691	911.88
788.949	832.88
789.207	794.88
789.465	687.88
789.723	666.88
789.98	600.88
790.238	646.88
790.496	585.88
790.753	567.88
791.011	613.88
791.268	559.88
791.526	527.88
791.783	545.88
792.041	531.88
792.298	433.88
792.556	509.88
792.813	480.88
793.07	441.88
793.327	438.88
793.584	503.88
793.841	441.88
794.099	454.88
794.356	517.88
794.613	418.88
794.869	454.88
795.126	417.88
795.383	395.88
795.64	428.88
795.897	360.88
796.153	426.88
796.41	404.88
796.667	391.88
796.923	406.88
797.18	388.88
797.436	421.88
797.693	370.88
797.949	437.88
798.206	450.88
798.462	363.88
798.718	417.88
798.974	416.88
799.231	449.88
799.487	414.88
799.743	432.88
799.999	445.88
800.255	436.88
800.511	399.88
800.767	451.88
801.023	428.88
801.279	432.88
801.534	486.88
801.79	494.88
802.046	492.88
802.302	607.88
802.557	619.88
802.813	704.88
803.068	811.88
803.324	1058.88
803.579	1357.88
803.835	1784.88
804.09	2413.88
804.345	3124.88
804.601	3864.88
804.856	4619.88
805.111	5341.88
805.366	5769.88
805.621	6135.88
805.876	6368.88
806.131	6540.88
806.386	6654.88
806.641	6757.88
806.896	6795.88
807.151	6946.88
807.406	6993.88
807.661	7163.88
807.915	7220.88
808.17	7325.88
808.425	7379.88
808.679	7411.88
808.934	7546.88
809.188	7522.88
809.443	7550.88
809.697	7715.88
809.951	7713.88
810.206	7740.88
810.46	7880.88
810.714	7875.88
810.968	7936.88
811.223	7894.88
811.477	8047.88
811.731	8101.88
811.985	8049.88
812.239	8091.88
812.493	8148.88
812.747	8165.88
813	8147.88
813.254	8209.88
813.508	8219.88
813.762	8323.88
814.015	8295.88
814.269	8347.88
814.522	8409.88
814.776	8549.88
815.03	8580.88
815.283	8783.88
815.536	8840.88
815.79	8939.88
816.043	9046.88
816.296	9176.88
816.55	9191.88
816.803	9286.88
817.056	9451.88
817.309	9488.88
817.562	9562.88
817.815	9687.88
818.068	9662.88
818.321	9704.88
818.574	9842.88
818.827	10072.88
819.079	10102.88
819.332	10265.88
819.585	10435.88
819.838	10496.88
820.09	10472.88
820.343	10657.88
820.595	10603.88
820.848	10735.88
821.1	10699.88
821.353	10721.88
821.605	10676.88
821.857	10760.88
822.11	10697.88
822.362	10694.88
822.614	10675.88
822.866	10684.88
823.118	10656.88
823.37	10761.88
823.622	10800.88
823.874	10834.88
824.126	10887.88
824.378	10831.88
824.63	10937.88
824.882	10889.88
825.134	10839.88
825.385	10918.88
825.637	10780.88
825.888	10714.88
826.14	10728.88
826.392	10669.88
826.643	10596.88
826.895	10694.88
827.146	10504.88
827.397	10507.88
827.649	10689.88
827.9	10524.88
828.151	10487.88
828.402	10533.88
828.653	10583.88
828.905	10508.88
829.156	10551.88
829.407	10551.88
829.658	10595.88
829.909	10629.88
830.159	10600.88
830.41	10519.88
830.661	10519.88
830.912	10416.88
831.162	10337.88
831.413	10391.88
831.664	10394.88
831.914	10280.88
832.165	10357.88
832.415	10428.88
832.666	10384.88
832.916	10362.88
833.167	10312.88
833.417	10329.88
833.667	10336.88
833.917	10321.88
834.168	10290.88
834.418	10345.88
834.668	10267.88
834.918	10132.88
835.168	10166.88
835.418	10115.88
835.668	10111.88
835.918	10099.88
836.167	10285.88
836.417	10046.88
836.667	9960.88
836.917	10061.88
837.166	9934.88
837.416	9981.88
837.666	9984.88
837.915	9988.88
838.165	9925.88
838.414	9832.88
838.663	9811.88
838.913	9849.88
839.162	9733.88
839.411	9897.88
839.661	9759.88
839.91	9696.88
840.159	9739.88
840.408	9756.88
840.657	9754.88
840.906	9705.88
841.155	9715.88
841.404	9694.88
841.653	9702.88
841.902	9683.88
842.15	9737.88
842.399	9725.88
842.648	9674.88
842.897	9648.88
843.145	9531.88
843.394	9493.88
843.642	9471.88
843.891	9462.88
844.139	9450.88
844.388	9359.88
844.636	9307.88
844.884	9302.88
845.133	9266.88
845.381	9318.88
845.629	9331.88
845.877	9282.88
846.125	9213.88
846.373	9226.88
846.621	9176.88
846.869	9228.88
847.117	9169.88
847.365	9128.88
847.613	9102.88
847.861	9027.88
848.108	9052.88
848.356	9042.88
848.604	8965.88
848.851	9013.88
849.099	9019.88
849.346	9035.88
849.594	9109.88
849.841	9105.88
850.089	9110.88
850.336	9063.88
850.583	9088.88
850.831	9085.88
851.078	9004.88
851.325	8959.88
851.572	8987.88
851.819	8852.88
852.066	8750.88
852.313	8624.88
852.56	8594.88
852.807	8538.88
853.054	8548.88
853.301	8607.88
853.548	8602.88
853.794	8689.88
854.041	8623.88
854.288	8647.88
854.534	8817.88
854.781	8765.88
855.028	8703.88
855.274	8717.88
855.52	8639.88
855.767	8542.88
856.013	8623.88
856.26	8869.88
856.506	8494.88
856.752	8476.88
856.998	8422.88
857.244	8369.88
857.49	8548.88
857.736	8552.88
857.982	8583.88
858.228	8578.88
858.474	8424.88
858.72	8373.88
858.966	8298.88
859.212	8266.88
859.458	8206.88
859.703	8119.88
859.949	7986.88
860.195	8045.88
860.44	8009.88
860.686	7894.88
860.931	7945.88
861.177	7843.88
861.422	7876.88
861.667	7788.88
861.913	7785.88
862.158	7842.88
862.403	7848.88
862.648	7844.88
862.893	7893.88
863.138	7874.88
863.384	7803.88
863.629	7863.88
863.873	7856.88
864.118	7782.88
864.363	7693.88
864.608	7741.88
864.853	7711.88
865.098	7636.88
865.342	7658.88
865.587	7588.88
865.832	7583.88
866.076	7561.88
866.321	7553.88
866.565	7525.88
866.81	7444.88
867.054	7445.88
867.298	7427.88
867.543	7447.88
867.787	7430.88
868.031	7376.88
868.275	7440.88
868.519	7398.88
868.764	7347.88
869.008	7332.88
869.252	7369.88
869.496	7280.88
869.739	7315.88
869.983	7366.88
870.227	7296.88
870.471	7254.88
870.715	7288.88
870.958	7342.88
871.202	7198.88
871.446	7362.88
871.689	7275.88
871.933	7346.88
872.176	7306.88
872.42	7302.88
872.663	7344.88
872.906	7315.88
873.15	7213.88
873.393	7198.88
873.636	7234.88
873.879	7181.88
874.122	7141.88
874.366	6957.88
874.609	6901.88
874.852	6917.88
875.095	6954.88
875.337	6826.88
875.58	6732.88
875.823	6822.88
876.066	6811.88
876.309	6748.88
876.551	6682.88
876.794	6644.88
877.037	6759.88
877.279	6608.88
877.522	6640.88
877.764	6675.88
878.007	6616.88
878.249	6635.88
878.491	6574.88
878.734	6659.88
878.976	6571.88
879.218	6571.88
879.46	6557.88
879.702	6444.88
879.945	6487.88
880.187	6331.88
880.429	6353.88
880.671	6369.88
880.912	6295.88
881.154	6284.88
881.396	6115.88
881.638	6248.88
881.88	6196.88
882.121	6140.88
882.363	6197.88
882.605	6240.88
882.846	6208.88
883.088	6184.88
883.329	6156.88
883.571	6172.88
883.812	6148.88
884.053	6256.88
884.295	6429.88
884.536	6525.88
884.777	6466.88
885.018	6417.88
885.259	6388.88
885.5	6301.88
885.742	6573.88
885.982	6266.88
886.223	6181.88
886.464	6163.88
886.705	6100.88
886.946	6096.88
887.187	5931.88
887.428	5964.88
887.668	5820.88
887.909	5823.88
888.15	5680.88
888.39	5729.88
888.631	5726.88
888.871	5654.88
889.111	5589.88
889.352	5559.88
889.592	5546.88
889.833	5487.88
890.073	5455.88
890.313	5515.88
890.553	5348.88
890.793	5365.88
891.033	5312.88
891.273	5295.88
891.513	5339.88
891.753	5358.88
891.993	5260.88
892.233	5307.88
892.473	5371.88
892.713	5352.88
892.952	5234.88
893.192	5309.88
893.432	5270.88
893.671	5306.88
893.911	5237.88
894.15	5159.88
894.39	5160.88
894.629	5133.88
894.869	5157.88
895.108	5093.88
895.347	4996.88
895.587	5086.88
895.826	4971.88
896.065	4989.88
896.304	5018.88
896.543	5057.88
896.782	4931.88
897.021	4973.88
897.26	4943.88
897.499	4972.88
897.738	4987.88
897.977	4937.88
898.216	4870.88
898.454	4799.88
898.693	4796.88
898.932	4796.88
899.17	4723.88
899.409	4795.88
899.647	4726.88
899.886	4720.88
900.124	4711.88
900.363	4743.88
900.601	4694.88
900.839	4712.88
901.078	4732.88
901.316	4734.88
901.554	4690.88
901.792	4765.88
902.03	4696.88
902.268	4704.88
902.506	4747.88
902.744	4648.88
902.982	4658.88
903.22	4593.88
903.458	4545.88
903.695	4554.88
903.933	4526.88
904.171	4386.88
904.409	4352.88
904.646	4379.88
904.884	4268.88
905.121	4274.88
905.359	4217.88
905.596	4162.88
905.833	4106.88
906.071	4141.88
906.308	4149.88
906.545	4096.88
906.783	4010.88
907.02	4061.88
907.257	4040.88
907.494	4028.88
907.731	4067.88
907.968	4079.88
908.205	3977.88
908.442	3995.88
908.679	3974.88
908.915	3940.88
909.152	3911.88
909.389	3814.88
909.626	3850.88
909.862	3816.88
910.099	3819.88
910.335	3876.88
910.572	3743.88
910.808	3739.88
911.045	3727.88
911.281	3709.88
911.518	3768.88
911.754	3713.88
911.99	3698.88
912.226	3631.88
912.463	3622.88
912.699	3573.88
912.935	3594.88
913.171	3582.88
913.407	3538.88
913.643	3559.88
913.879	3494.88
914.114	3415.88
914.35	3407.88
914.586	3431.88
914.822	3380.88
915.057	3456.88
915.293	3276.88
915.529	3261.88
915.764	3339.88
916	3332.88
916.235	3329.88
916.471	3324.88
916.706	3250.88
916.941	3278.88
917.177	3241.88
917.412	3311.88
917.647	3318.88
917.882	3229.88
918.117	3291.88
918.352	3276.88
918.588	3292.88
918.823	3200.88
919.057	3159.88
919.292	3057.88
919.527	3166.88
919.762	3068.88
919.997	3099.88
920.232	3054.88
920.466	3077.88
920.701	2934.88
920.935	3004.88
921.17	2953.88
921.405	2906.88
921.639	2985.88
921.873	2934.88
922.108	2940.88
922.342	2953.88
922.576	2856.88
922.811	2854.88
923.045	2939.88
923.279	2931.88
923.513	2815.88
923.747	2892.88
923.981	2849.88
924.215	2788.88
924.449	2797.88
924.683	2742.88
924.917	2754.88
925.151	2744.88
925.385	2832.88
925.618	2770.88
925.852	2696.88
926.086	2673.88
926.319	2723.88
926.553	2743.88
926.786	2701.88
927.02	2674.88
927.253	2761.88
927.486	2742.88
927.72	2662.88
927.953	2724.88
928.186	2658.88
928.42	2739.88
928.653	2621.88
928.886	2612.88
929.119	2690.88
929.352	2589.88
929.585	2600.88
929.818	2564.88
930.051	2590.88
930.284	2577.88
930.516	2505.88
930.749	2559.88
930.982	2551.88
931.215	2521.88
931.447	2450.88
931.68	2518.88
931.912	2486.88
932.145	2460.88
932.377	2483.88
932.61	2592.88
932.842	2415.88
933.074	2469.88
933.307	2416.88
933.539	2517.88
933.771	2527.88
934.003	2462.88
934.236	2488.88
934.468	2527.88
934.7	2444.88
934.932	2499.88
935.164	2411.88
935.395	2402.88
935.627	2422.88
935.859	2446.88
936.091	2365.88
936.323	2402.88
936.554	2425.88
936.786	2388.88
937.017	2313.88
937.249	2389.88
937.481	2316.88
937.712	2377.88
937.943	2372.88
938.175	2348.88
938.406	2336.88
938.637	2399.88
938.869	2313.88
939.1	2359.88
939.331	2313.88
939.562	2336.88
939.793	2334.88
940.024	2335.88
940.255	2344.88
940.486	2297.88
940.717	2285.88
940.948	2268.88
941.179	2230.88
941.409	2236.88
941.64	2236.88
941.871	2268.88
942.102	2258.88
942.332	2232.88
942.563	2279.88
942.793	2250.88
943.024	2184.88
943.254	2234.88
943.484	2287.88
943.715	2292.88
943.945	2250.88
944.175	2209.88
944.405	2182.88
944.636	2162.88
944.866	2228.88
945.096	2215.88
945.326	2156.88
945.556	2221.88
945.786	2242.88
946.016	2169.88
946.245	2135.88
946.475	2105.88
946.705	2146.88
946.935	2128.88
947.164	2127.88
947.394	2084.88
947.624	2115.88
947.853	2171.88
948.083	2089.88
948.312	2104.88
948.542	2021.88
948.771	2023.88
949	2031.88
949.23	2042.88
949.459	2080.88
949.688	2120.88
949.917	2068.88
950.146	2092.88
950.375	2100.88
950.604	2009.88
950.833	2098.88
951.062	2115.88
951.291	2028.88
951.52	2029.88
951.749	2063.88
951.978	2000.88
952.206	2027.88
952.435	1988.88
952.664	2008.88
952.892	2028.88
953.121	1992.88
953.349	2037.88
953.578	2020.88
953.806	1965.88
954.035	1933.88
954.263	1966.88
954.491	1927.88
954.719	1962.88
954.948	1900.88
955.176	1906.88
955.404	1859.88
955.632	1909.88
955.86	1938.88
956.088	1913.88
956.316	1923.88
956.544	1958.88
956.772	1872.88
956.999	1846.88
957.227	1940.88
957.455	1869.88
957.683	1872.88
957.91	1820.88
958.138	1804.88
958.365	1825.88
958.593	1808.88
958.82	1788.88
959.048	1858.88
959.275	1797.88
959.502	1827.88
959.73	1784.88
959.957	1813.88
960.184	1833.88
960.411	1777.88
960.638	1845.88
960.865	1793.88
961.092	1820.88
961.319	1698.88
961.546	1818.88
961.773	1832.88
962	1768.88
962.227	1832.88
962.454	1760.88
962.68	1734.88
962.907	1783.88
963.134	1733.88
963.36	1743.88
963.587	1776.88
963.813	1695.88
964.04	1746.88
964.266	1663.88
964.493	1765.88
964.719	1723.88
964.945	1736.88
965.171	1637.88
965.398	1700.88
965.624	1727.88
965.85	1647.88
966.076	1630.88
966.302	1684.88
966.528	1661.88
966.754	1725.88
966.98	1690.88
967.206	1666.88
967.431	1595.88
967.657	1685.88
967.883	1672.88
968.109	1644.88
968.334	1629.88
968.56	1619.88
968.785	1619.88
969.011	1552.88
969.236	1665.88
969.462	1571.88
969.687	1596.88
969.912	1632.88
970.138	1672.88
970.363	1567.88
970.588	1584.88
970.813	1579.88
971.038	1568.88
971.263	1605.88
971.488	1577.88
971.713	1634.88
971.938	1610.88
972.163	1497.88
972.388	1555.88
972.613	1523.88
972.838	1528.88
973.062	1524.88
973.287	1539.88
973.512	1462.88
973.736	1503.88
973.961	1489.88
974.185	1483.88
974.41	1517.88
974.634	1439.88
974.858	1453.88
975.083	1515.88
975.307	1502.88
975.531	1435.88
975.755	1402.88
975.98	1443.88
976.204	1362.88
976.428	1370.88
976.652	1362.88
976.876	1372.88
977.1	1389.88
977.324	1346.88
977.547	1427.88
977.771	1410.88
977.995	1396.88
978.219	1353.88
978.442	1439.88
978.666	1402.88
978.89	1357.88
979.113	1357.88
979.337	1358.88
979.56	1327.88
979.783	1434.88
980.007	1322.88
980.23	1339.88
980.453	1327.88
980.677	1351.88
980.9	1364.88
981.123	1258.88
981.346	1390.88
981.569	1331.88
981.792	1358.88
982.015	1318.88
982.238	1267.88
982.461	1329.88
982.684	1297.88
982.907	1278.88
983.129	1268.88
983.352	1325.88
983.575	1279.88
983.797	1286.88
984.02	1276.88
984.242	1242.88
984.465	1289.88
984.687	1310.88
984.91	1329.88
985.132	1311.88
985.354	1267.88
985.577	1274.88
985.799	1275.88
986.021	1192.88
986.243	1231.88
986.465	1209.88
986.687	1279.88
986.909	1320.88
987.131	1260.88
987.353	1240.88
987.575	1257.88
987.797	1233.88
988.019	1183.88
988.241	1214.88
988.462	1206.88
988.684	1242.88
988.906	1267.88
989.127	1295.88
989.349	1186.88
989.57	1221.88
989.792	1220.88
990.013	1247.88
990.234	1290.88
990.456	1292.88
990.677	1283.88
990.898	1203.88
991.119	1186.88
991.341	1248.88
991.562	1181.88
991.783	1239.88
992.004	1153.88
992.225	1149.88
992.446	1213.88
992.667	1111.88
992.887	1180.88
993.108	1091.88
993.329	1244.88
993.55	1186.88
993.77	1141.88
993.991	1140.88
994.212	1164.88
994.432	1150.88
994.653	1179.88
994.873	1162.88
995.093	1047.88
995.314	1113.88
995.534	1188.88
995.754	1214.88
995.975	1231.88
996.195	1104.88
996.415	1138.88
996.635	1152.88
996.855	1150.88
997.075	1107.88
997.295	1125.88
997.515	1102.88
997.735	1146.88
997.955	1143.88
998.174	1124.88
998.394	1098.88
998.614	1143.88
998.834	1093.88
999.053	1154.88
999.273	1147.88
999.492	1180.88
999.712	1122.88
999.931	1107.88
1000.151	1145.88
1000.37	1120.88
1000.589	1170.88
1000.809	1124.88
1001.028	1234.88
1001.247	1164.88
1001.466	1070.88
1001.685	1215.88
1001.904	1128.88
1002.123	1162.88
1002.342	1155.88
1002.561	1119.88
1002.78	1105.88
1002.999	1202.88
1003.218	1121.88
1003.436	1091.88
1003.655	1181.88
1003.874	1101.88
1004.092	1142.88
1004.311	1173.88
1004.53	1141.88
1004.748	1203.88
1004.966	1126.88
1005.185	1172.88
1005.403	1189.88
1005.622	1144.88
1005.84	1223.88
1006.058	1129.88
1006.276	1168.88
1006.494	1629.88
1006.712	1128.88
1006.931	1186.88
1007.149	1111.88
1007.367	1105.88
1007.584	1154.88
1007.802	1183.88
1008.02	1111.88
1008.238	1210.88
1008.456	1214.88
1008.673	1073.88
1008.891	1186.88
1009.109	1133.88
1009.326	1165.88
1009.544	1231.88
1009.761	1147.88
1009.979	1219.88
1010.196	1208.88
1010.413	1304.88
1010.631	1319.88
1010.848	1315.88
1011.065	1344.88
1011.282	1263.88
1011.5	1215.88
1011.717	1325.88
1011.934	1272.88
1012.151	1305.88
1012.368	1291.88
1012.585	1248.88
1012.801	1291.88
1013.018	1241.88
1013.235	1201.88
1013.452	1229.88
1013.669	1243.88
1013.885	1196.88
1014.102	1250.88
1014.318	1210.88
1014.535	1194.88
1014.751	1227.88
1014.968	1210.88
1015.184	1243.88
1015.401	1163.88
1015.617	1184.88
1015.833	1158.88
1016.049	1151.88
1016.266	1124.88
1016.482	1151.88
1016.698	1079.88
1016.914	1168.88
1017.13	1075.88
1017.346	1082.88
1017.562	1134.88
1017.778	1105.88
1017.993	1054.88
1018.209	1120.88
1018.425	1086.88
1018.641	1057.88
1018.856	1034.88
1019.072	1067.88
1019.288	1099.88
1019.503	1062.88
1019.719	968.88
1019.934	972.88
1020.149	1068.88
1020.365	1011.88
1020.58	964.88
1020.795	1047.88
1021.011	974.88
1021.226	975.88
1021.441	975.88
1021.656	920.88
1021.871	865.88
1022.086	873.88
1022.301	851.88
1022.516	865.88
1022.731	936.88
1022.946	843.88
1023.16	823.88
1023.375	798.88
1023.59	771.88
1023.804	749.88
1024.019	867.88
1024.234	736.88
1024.448	794.88
1024.663	714.88
1024.877	745.88
1025.092	763.88
1025.306	775.88
1025.52	671.88
1025.734	764.88
1025.949	700.88
1026.163	686.88
1026.377	641.88
1026.591	692.88
1026.805	616.88
1027.019	614.88
1027.233	587.88
1027.447	548.88
1027.661	644.88
1027.875	593.88
1028.088	605.88
1028.302	521.88
1028.516	522.88
1028.73	543.88
1028.943	511.88
1029.157	492.88
1029.37	458.88
1029.584	1.88
1029.797	-3.12
1030.011	-1.12
1030.224	0.88
