Data from QEP037381__3__09-56-09-926.txt Node

Date: Wed Dec 21 09:56:09 EST 2022
User: dcclab
Spectrometer: QEP03738
Trigger mode: 4
Integration Time (sec): 1.000000E1
Scans to average: 1
Electric dark correction enabled: true
Nonlinearity correction enabled: false
Boxcar width: 0
XAxis mode: Wavelengths
Number of Pixels in Spectrum: 1044
>>>>>Begin Spectral Data<<<<<
784.041	11.62
784.3	-1.38
784.558	0.62
784.817	-0.38
785.075	123621.62
785.334	21192.62
785.592	9931.62
785.851	6799.62
786.109	5074.62
786.368	3903.62
786.626	3181.62
786.884	2654.62
787.143	2183.62
787.401	1821.62
787.659	1604.62
787.917	1356.62
788.175	1259.62
788.433	1085.62
788.691	986.62
788.949	909.62
789.207	851.62
789.465	742.62
789.723	703.62
789.98	655.62
790.238	668.62
790.496	618.62
790.753	603.62
791.011	646.62
791.268	569.62
791.526	552.62
791.783	560.62
792.041	545.62
792.298	448.62
792.556	525.62
792.813	515.62
793.07	481.62
793.327	452.62
793.584	533.62
793.841	456.62
794.099	459.62
794.356	537.62
794.613	440.62
794.869	467.62
795.126	445.62
795.383	424.62
795.64	439.62
795.897	397.62
796.153	454.62
796.41	424.62
796.667	410.62
796.923	411.62
797.18	418.62
797.436	438.62
797.693	392.62
797.949	448.62
798.206	481.62
798.462	402.62
798.718	451.62
798.974	414.62
799.231	461.62
799.487	467.62
799.743	461.62
799.999	475.62
800.255	480.62
800.511	447.62
800.767	490.62
801.023	474.62
801.279	501.62
801.534	530.62
801.79	566.62
802.046	576.62
802.302	688.62
802.557	742.62
802.813	910.62
803.068	1086.62
803.324	1485.62
803.579	1926.62
803.835	2627.62
804.09	3590.62
804.345	4588.62
804.601	5771.62
804.856	6968.62
805.111	7892.62
805.366	8599.62
805.621	9208.62
805.876	9476.62
806.131	9723.62
806.386	9814.62
806.641	9959.62
806.896	10166.62
807.151	10361.62
807.406	10423.62
807.661	10563.62
807.915	10734.62
808.17	10857.62
808.425	11006.62
808.679	11025.62
808.934	11185.62
809.188	11146.62
809.443	11268.62
809.697	11420.62
809.951	11425.62
810.206	11524.62
810.46	11624.62
810.714	11693.62
810.968	11851.62
811.223	11832.62
811.477	11918.62
811.731	11977.62
811.985	12134.62
812.239	12053.62
812.493	12078.62
812.747	12237.62
813	12201.62
813.254	12339.62
813.508	12306.62
813.762	12302.62
814.015	12395.62
814.269	12453.62
814.522	12601.62
814.776	12732.62
815.03	12825.62
815.283	13047.62
815.536	13122.62
815.79	13308.62
816.043	13493.62
816.296	13691.62
816.55	13814.62
816.803	13865.62
817.056	14197.62
817.309	14114.62
817.562	14214.62
817.815	14427.62
818.068	14397.62
818.321	14567.62
818.574	14654.62
818.827	14918.62
819.079	14999.62
819.332	15325.62
819.585	15539.62
819.838	15653.62
820.09	15659.62
820.343	15806.62
820.595	15803.62
820.848	15917.62
821.1	16018.62
821.353	15983.62
821.605	15994.62
821.857	16034.62
822.11	15900.62
822.362	15851.62
822.614	15929.62
822.866	15994.62
823.118	15859.62
823.37	16005.62
823.622	16019.62
823.874	16036.62
824.126	16134.62
824.378	16160.62
824.63	16310.62
824.882	16235.62
825.134	16228.62
825.385	16124.62
825.637	16105.62
825.888	16068.62
826.14	15987.62
826.392	15895.62
826.643	15833.62
826.895	15843.62
827.146	15654.62
827.397	15678.62
827.649	15758.62
827.9	15600.62
828.151	15619.62
828.402	15693.62
828.653	15775.62
828.905	15796.62
829.156	15921.62
829.407	15770.62
829.658	15797.62
829.909	15838.62
830.159	15628.62
830.41	15670.62
830.661	15581.62
830.912	15552.62
831.162	15391.62
831.413	15392.62
831.664	15447.62
831.914	15356.62
832.165	15407.62
832.415	15360.62
832.666	15342.62
832.916	15319.62
833.167	15343.62
833.417	15393.62
833.667	15247.62
833.917	15230.62
834.168	15200.62
834.418	15234.62
834.668	15107.62
834.918	15061.62
835.168	15021.62
835.418	14961.62
835.668	14921.62
835.918	14982.62
836.167	14908.62
836.417	14910.62
836.667	14885.62
836.917	14802.62
837.166	14712.62
837.416	14833.62
837.666	14722.62
837.915	14677.62
838.165	14736.62
838.414	14545.62
838.663	14532.62
838.913	14542.62
839.162	14363.62
839.411	14443.62
839.661	14296.62
839.91	14400.62
840.159	14302.62
840.408	14337.62
840.657	14324.62
840.906	14355.62
841.155	14326.62
841.404	14299.62
841.653	14361.62
841.902	14266.62
842.15	14310.62
842.399	14276.62
842.648	14267.62
842.897	14184.62
843.145	14128.62
843.394	14047.62
843.642	13962.62
843.891	13939.62
844.139	13831.62
844.388	13767.62
844.636	13684.62
844.884	13763.62
845.133	13690.62
845.381	13716.62
845.629	13695.62
845.877	13620.62
846.125	13588.62
846.373	13615.62
846.621	13493.62
846.869	13625.62
847.117	13429.62
847.365	13415.62
847.613	13332.62
847.861	13301.62
848.108	13247.62
848.356	13222.62
848.604	13255.62
848.851	13250.62
849.099	13295.62
849.346	13266.62
849.594	13288.62
849.841	13349.62
850.089	13393.62
850.336	13343.62
850.583	13349.62
850.831	13274.62
851.078	13175.62
851.325	13085.62
851.572	13065.62
851.819	13019.62
852.066	12816.62
852.313	12712.62
852.56	12686.62
852.807	12497.62
853.054	12493.62
853.301	12532.62
853.548	12478.62
853.794	12525.62
854.041	12570.62
854.288	12597.62
854.534	12825.62
854.781	12709.62
855.028	12635.62
855.274	12641.62
855.52	12514.62
855.767	12420.62
856.013	12434.62
856.26	12615.62
856.506	12259.62
856.752	12272.62
856.998	12328.62
857.244	12361.62
857.49	12369.62
857.736	12327.62
857.982	12435.62
858.228	12382.62
858.474	12204.62
858.72	12212.62
858.966	12152.62
859.212	12048.62
859.458	11841.62
859.703	11846.62
859.949	11743.62
860.195	11667.62
860.44	11571.62
860.686	11463.62
860.931	11465.62
861.177	11387.62
861.422	11505.62
861.667	11335.62
861.913	11390.62
862.158	11375.62
862.403	11501.62
862.648	11501.62
862.893	11443.62
863.138	11506.62
863.384	11354.62
863.629	11440.62
863.873	11358.62
864.118	11323.62
864.363	11207.62
864.608	11311.62
864.853	11172.62
865.098	11100.62
865.342	11164.62
865.587	11030.62
865.832	11057.62
866.076	10985.62
866.321	10906.62
866.565	10894.62
866.81	10823.62
867.054	10821.62
867.298	10866.62
867.543	10774.62
867.787	10842.62
868.031	10768.62
868.275	10731.62
868.519	10700.62
868.764	10650.62
869.008	10631.62
869.252	10658.62
869.496	10587.62
869.739	10512.62
869.983	10559.62
870.227	10497.62
870.471	10432.62
870.715	10555.62
870.958	10492.62
871.202	10504.62
871.446	10510.62
871.689	10422.62
871.933	10526.62
872.176	10541.62
872.42	10492.62
872.663	10420.62
872.906	10478.62
873.15	10323.62
873.393	10217.62
873.636	10276.62
873.879	10202.62
874.122	10113.62
874.366	9972.62
874.609	9901.62
874.852	9872.62
875.095	9788.62
875.337	9808.62
875.58	9695.62
875.823	9762.62
876.066	9719.62
876.309	9706.62
876.551	9539.62
876.794	9554.62
877.037	9614.62
877.279	9497.62
877.522	9522.62
877.764	9495.62
878.007	9563.62
878.249	9488.62
878.491	9431.62
878.734	9471.62
878.976	9425.62
879.218	9369.62
879.46	9378.62
879.702	9248.62
879.945	9264.62
880.187	9101.62
880.429	9088.62
880.671	9081.62
880.912	9051.62
881.154	8986.62
881.396	8902.62
881.638	8952.62
881.88	9001.62
882.121	8922.62
882.363	8897.62
882.605	8934.62
882.846	8866.62
883.088	8855.62
883.329	8827.62
883.571	8792.62
883.812	8768.62
884.053	8832.62
884.295	8929.62
884.536	9044.62
884.777	8949.62
885.018	8873.62
885.259	8899.62
885.5	8780.62
885.742	9090.62
885.982	8828.62
886.223	8720.62
886.464	8652.62
886.705	8609.62
886.946	8661.62
887.187	8442.62
887.428	8503.62
887.668	8324.62
887.909	8173.62
888.15	8131.62
888.39	8152.62
888.631	8198.62
888.871	8089.62
889.111	8049.62
889.352	8047.62
889.592	7947.62
889.833	7852.62
890.073	7900.62
890.313	7888.62
890.553	7664.62
890.793	7680.62
891.033	7668.62
891.273	7590.62
891.513	7584.62
891.753	7642.62
891.993	7599.62
892.233	7618.62
892.473	7612.62
892.713	7610.62
892.952	7553.62
893.192	7585.62
893.432	7468.62
893.671	7585.62
893.911	7476.62
894.15	7449.62
894.39	7334.62
894.629	7328.62
894.869	7330.62
895.108	7234.62
895.347	7176.62
895.587	7226.62
895.826	7145.62
896.065	7145.62
896.304	7162.62
896.543	7157.62
896.782	7052.62
897.021	7131.62
897.26	7025.62
897.499	7071.62
897.738	7050.62
897.977	6958.62
898.216	6903.62
898.454	6815.62
898.693	6766.62
898.932	6836.62
899.17	6816.62
899.409	6763.62
899.647	6627.62
899.886	6653.62
900.124	6640.62
900.363	6644.62
900.601	6605.62
900.839	6645.62
901.078	6622.62
901.316	6639.62
901.554	6634.62
901.792	6677.62
902.03	6563.62
902.268	6600.62
902.506	6623.62
902.744	6525.62
902.982	6587.62
903.22	6420.62
903.458	6396.62
903.695	6387.62
903.933	6387.62
904.171	6249.62
904.409	6181.62
904.646	6208.62
904.884	6047.62
905.121	6036.62
905.359	5935.62
905.596	5949.62
905.833	5815.62
906.071	5859.62
906.308	5889.62
906.545	5848.62
906.783	5740.62
907.02	5764.62
907.257	5711.62
907.494	5753.62
907.731	5757.62
907.968	5724.62
908.205	5681.62
908.442	5628.62
908.679	5619.62
908.915	5518.62
909.152	5543.62
909.389	5409.62
909.626	5382.62
909.862	5378.62
910.099	5389.62
910.335	5399.62
910.572	5329.62
910.808	5401.62
911.045	5309.62
911.281	5290.62
911.518	5301.62
911.754	5232.62
911.99	5232.62
912.226	5164.62
912.463	5125.62
912.699	5075.62
912.935	5077.62
913.171	5024.62
913.407	4987.62
913.643	5023.62
913.879	4953.62
914.114	4902.62
914.35	4821.62
914.586	4816.62
914.822	4720.62
915.057	4790.62
915.293	4685.62
915.529	4635.62
915.764	4659.62
916	4601.62
916.235	4647.62
916.471	4692.62
916.706	4585.62
916.941	4582.62
917.177	4624.62
917.412	4691.62
917.647	4611.62
917.882	4538.62
918.117	4533.62
918.352	4548.62
918.588	4583.62
918.823	4492.62
919.057	4447.62
919.292	4361.62
919.527	4413.62
919.762	4331.62
919.997	4301.62
920.232	4211.62
920.466	4284.62
920.701	4140.62
920.935	4169.62
921.17	4111.62
921.405	4103.62
921.639	4144.62
921.873	4118.62
922.108	4134.62
922.342	4093.62
922.576	4039.62
922.811	3976.62
923.045	4052.62
923.279	4061.62
923.513	3888.62
923.747	4002.62
923.981	3986.62
924.215	3880.62
924.449	3884.62
924.683	3809.62
924.917	3823.62
925.151	3791.62
925.385	3868.62
925.618	3790.62
925.852	3823.62
926.086	3702.62
926.319	3815.62
926.553	3719.62
926.786	3762.62
927.02	3770.62
927.253	3784.62
927.486	3776.62
927.72	3672.62
927.953	3739.62
928.186	3692.62
928.42	3735.62
928.653	3630.62
928.886	3645.62
929.119	3646.62
929.352	3658.62
929.585	3617.62
929.818	3625.62
930.051	3590.62
930.284	3562.62
930.516	3451.62
930.749	3448.62
930.982	3524.62
931.215	3508.62
931.447	3422.62
931.68	3386.62
931.912	3351.62
932.145	3372.62
932.377	3412.62
932.61	3513.62
932.842	3322.62
933.074	3354.62
933.307	3346.62
933.539	3433.62
933.771	3411.62
934.003	3399.62
934.236	3444.62
934.468	3452.62
934.7	3375.62
934.932	3381.62
935.164	3301.62
935.395	3293.62
935.627	3320.62
935.859	3299.62
936.091	3255.62
936.323	3297.62
936.554	3321.62
936.786	3242.62
937.017	3177.62
937.249	3250.62
937.481	3155.62
937.712	3252.62
937.943	3193.62
938.175	3193.62
938.406	3206.62
938.637	3225.62
938.869	3143.62
939.1	3195.62
939.331	3164.62
939.562	3205.62
939.793	3202.62
940.024	3168.62
940.255	3152.62
940.486	3125.62
940.717	3078.62
940.948	3095.62
941.179	3046.62
941.409	3063.62
941.64	3052.62
941.871	3098.62
942.102	3038.62
942.332	3046.62
942.563	3051.62
942.793	3063.62
943.024	2984.62
943.254	3030.62
943.484	3048.62
943.715	3043.62
943.945	3060.62
944.175	3000.62
944.405	2971.62
944.636	2977.62
944.866	3033.62
945.096	3015.62
945.326	2944.62
945.556	2990.62
945.786	2992.62
946.016	2948.62
946.245	2918.62
946.475	2908.62
946.705	2883.62
946.935	2876.62
947.164	2860.62
947.394	2838.62
947.624	2844.62
947.853	2881.62
948.083	2851.62
948.312	2789.62
948.542	2753.62
948.771	2745.62
949	2734.62
949.23	2769.62
949.459	2807.62
949.688	2830.62
949.917	2755.62
950.146	2762.62
950.375	2806.62
950.604	2724.62
950.833	2815.62
951.062	2778.62
951.291	2716.62
951.52	2741.62
951.749	2688.62
951.978	2692.62
952.206	2682.62
952.435	2667.62
952.664	2742.62
952.892	2704.62
953.121	2676.62
953.349	2716.62
953.578	2713.62
953.806	2648.62
954.035	2558.62
954.263	2633.62
954.491	2531.62
954.719	2629.62
954.948	2570.62
955.176	2565.62
955.404	2521.62
955.632	2565.62
955.86	2539.62
956.088	2560.62
956.316	2566.62
956.544	2562.62
956.772	2496.62
956.999	2480.62
957.227	2529.62
957.455	2443.62
957.683	2488.62
957.91	2410.62
958.138	2424.62
958.365	2421.62
958.593	2374.62
958.82	2339.62
959.048	2401.62
959.275	2366.62
959.502	2365.62
959.73	2352.62
959.957	2387.62
960.184	2430.62
960.411	2329.62
960.638	2392.62
960.865	2347.62
961.092	2382.62
961.319	2310.62
961.546	2388.62
961.773	2377.62
962	2319.62
962.227	2349.62
962.454	2352.62
962.68	2328.62
962.907	2365.62
963.134	2294.62
963.36	2307.62
963.587	2307.62
963.813	2206.62
964.04	2274.62
964.266	2189.62
964.493	2289.62
964.719	2299.62
964.945	2251.62
965.171	2151.62
965.398	2217.62
965.624	2212.62
965.85	2127.62
966.076	2175.62
966.302	2175.62
966.528	2173.62
966.754	2155.62
966.98	2161.62
967.206	2153.62
967.431	2093.62
967.657	2200.62
967.883	2181.62
968.109	2131.62
968.334	2104.62
968.56	2045.62
968.785	2070.62
969.011	2059.62
969.236	2148.62
969.462	2045.62
969.687	2071.62
969.912	2101.62
970.138	2153.62
970.363	2057.62
970.588	2070.62
970.813	2063.62
971.038	2026.62
971.263	2048.62
971.488	2026.62
971.713	2050.62
971.938	2032.62
972.163	1957.62
972.388	1973.62
972.613	1945.62
972.838	1977.62
973.062	1943.62
973.287	1966.62
973.512	1905.62
973.736	1918.62
973.961	1950.62
974.185	1891.62
974.41	1949.62
974.634	1865.62
974.858	1873.62
975.083	1873.62
975.307	1925.62
975.531	1844.62
975.755	1794.62
975.98	1837.62
976.204	1756.62
976.428	1759.62
976.652	1770.62
976.876	1754.62
977.1	1799.62
977.324	1753.62
977.547	1787.62
977.771	1788.62
977.995	1776.62
978.219	1701.62
978.442	1828.62
978.666	1760.62
978.89	1750.62
979.113	1737.62
979.337	1727.62
979.56	1709.62
979.783	1824.62
980.007	1705.62
980.23	1681.62
980.453	1680.62
980.677	1717.62
980.9	1701.62
981.123	1620.62
981.346	1726.62
981.569	1676.62
981.792	1702.62
982.015	1675.62
982.238	1651.62
982.461	1657.62
982.684	1620.62
982.907	1602.62
983.129	1615.62
983.352	1626.62
983.575	1620.62
983.797	1633.62
984.02	1594.62
984.242	1599.62
984.465	1582.62
984.687	1608.62
984.91	1603.62
985.132	1575.62
985.354	1615.62
985.577	1586.62
985.799	1568.62
986.021	1504.62
986.243	1528.62
986.465	1538.62
986.687	1586.62
986.909	1627.62
987.131	1547.62
987.353	1529.62
987.575	1558.62
987.797	1489.62
988.019	1448.62
988.241	1539.62
988.462	1496.62
988.684	1561.62
988.906	1549.62
989.127	1564.62
989.349	1447.62
989.57	1505.62
989.792	1515.62
990.013	1547.62
990.234	1562.62
990.456	1578.62
990.677	1540.62
990.898	1469.62
991.119	1486.62
991.341	1509.62
991.562	1445.62
991.783	1501.62
992.004	1411.62
992.225	1414.62
992.446	1450.62
992.667	1385.62
992.887	1484.62
993.108	1349.62
993.329	1459.62
993.55	1437.62
993.77	1376.62
993.991	1375.62
994.212	1410.62
994.432	1412.62
994.653	1394.62
994.873	1388.62
995.093	1306.62
995.314	1324.62
995.534	1427.62
995.754	1418.62
995.975	1437.62
996.195	1339.62
996.415	1360.62
996.635	1376.62
996.855	1365.62
997.075	1335.62
997.295	1321.62
997.515	1312.62
997.735	1373.62
997.955	1349.62
998.174	1335.62
998.394	1294.62
998.614	1341.62
998.834	1302.62
999.053	1358.62
999.273	1352.62
999.492	1417.62
999.712	1352.62
999.931	1302.62
1000.151	1361.62
1000.37	1321.62
1000.589	1363.62
1000.809	1295.62
1001.028	1394.62
1001.247	1338.62
1001.466	1244.62
1001.685	1357.62
1001.904	1313.62
1002.123	1300.62
1002.342	1291.62
1002.561	1257.62
1002.78	1303.62
1002.999	1368.62
1003.218	1279.62
1003.436	1326.62
1003.655	1321.62
1003.874	1265.62
1004.092	1297.62
1004.311	1352.62
1004.53	1284.62
1004.748	1400.62
1004.966	1281.62
1005.185	1308.62
1005.403	1310.62
1005.622	1295.62
1005.84	1365.62
1006.058	1280.62
1006.276	1295.62
1006.494	1782.62
1006.712	1302.62
1006.931	1353.62
1007.149	1272.62
1007.367	1277.62
1007.584	1297.62
1007.802	1326.62
1008.02	1267.62
1008.238	1353.62
1008.456	1348.62
1008.673	1197.62
1008.891	1296.62
1009.109	1239.62
1009.326	1283.62
1009.544	1380.62
1009.761	1254.62
1009.979	1327.62
1010.196	1308.62
1010.413	1410.62
1010.631	1422.62
1010.848	1429.62
1011.065	1420.62
1011.282	1347.62
1011.5	1298.62
1011.717	1408.62
1011.934	1376.62
1012.151	1404.62
1012.368	1381.62
1012.585	1329.62
1012.801	1371.62
1013.018	1352.62
1013.235	1305.62
1013.452	1303.62
1013.669	1324.62
1013.885	1306.62
1014.102	1320.62
1014.318	1286.62
1014.535	1280.62
1014.751	1282.62
1014.968	1299.62
1015.184	1324.62
1015.401	1216.62
1015.617	1258.62
1015.833	1233.62
1016.049	1227.62
1016.266	1224.62
1016.482	1201.62
1016.698	1131.62
1016.914	1215.62
1017.13	1159.62
1017.346	1164.62
1017.562	1206.62
1017.778	1147.62
1017.993	1111.62
1018.209	1186.62
1018.425	1149.62
1018.641	1107.62
1018.856	1061.62
1019.072	1117.62
1019.288	1163.62
1019.503	1109.62
1019.719	1041.62
1019.934	1057.62
1020.149	1141.62
1020.365	1084.62
1020.58	1026.62
1020.795	1062.62
1021.011	1044.62
1021.226	1041.62
1021.441	1056.62
1021.656	992.62
1021.871	927.62
1022.086	965.62
1022.301	932.62
1022.516	919.62
1022.731	966.62
1022.946	900.62
1023.16	892.62
1023.375	870.62
1023.59	874.62
1023.804	808.62
1024.019	940.62
1024.234	812.62
1024.448	864.62
1024.663	789.62
1024.877	823.62
1025.092	810.62
1025.306	848.62
1025.52	753.62
1025.734	821.62
1025.949	759.62
1026.163	754.62
1026.377	679.62
1026.591	747.62
1026.805	664.62
1027.019	686.62
1027.233	649.62
1027.447	601.62
1027.661	691.62
1027.875	625.62
1028.088	630.62
1028.302	576.62
1028.516	579.62
1028.73	579.62
1028.943	568.62
1029.157	534.62
1029.37	495.62
1029.584	0.62
1029.797	-3.38
1030.011	-4.38
1030.224	-3.38
