Data from QEP037381__80__10-08-59-929.txt Node

Date: Wed Dec 21 10:08:59 EST 2022
User: dcclab
Spectrometer: QEP03738
Trigger mode: 4
Integration Time (sec): 1.000000E1
Scans to average: 1
Electric dark correction enabled: true
Nonlinearity correction enabled: false
Boxcar width: 0
XAxis mode: Wavelengths
Number of Pixels in Spectrum: 1044
>>>>>Begin Spectral Data<<<<<
784.041	11
784.3	-1
784.558	-5
784.817	-5
785.075	116341
785.334	19526
785.592	8979
785.851	6142
786.109	4664
786.368	3580
786.626	2895
786.884	2391
787.143	1976
787.401	1633
787.659	1465
787.917	1255
788.175	1134
788.433	993
788.691	896
788.949	834
789.207	766
789.465	682
789.723	661
789.98	618
790.238	605
790.496	600
790.753	568
791.011	632
791.268	534
791.526	527
791.783	521
792.041	518
792.298	437
792.556	497
792.813	467
793.07	456
793.327	430
793.584	516
793.841	433
794.099	453
794.356	500
794.613	402
794.869	443
795.126	406
795.383	389
795.64	422
795.897	371
796.153	422
796.41	415
796.667	384
796.923	399
797.18	382
797.436	416
797.693	390
797.949	429
798.206	450
798.462	360
798.718	439
798.974	407
799.231	454
799.487	409
799.743	429
799.999	455
800.255	425
800.511	429
800.767	442
801.023	430
801.279	444
801.534	480
801.79	493
802.046	491
802.302	585
802.557	600
802.813	709
803.068	785
803.324	1013
803.579	1278
803.835	1732
804.09	2309
804.345	2944
804.601	3704
804.856	4450
805.111	5072
805.366	5516
805.621	5871
805.876	6097
806.131	6169
806.386	6257
806.641	6361
806.896	6471
807.151	6577
807.406	6642
807.661	6763
807.915	6832
808.17	6944
808.425	6992
808.679	6895
808.934	7121
809.188	7101
809.443	7198
809.697	7321
809.951	7209
810.206	7322
810.46	7423
810.714	7439
810.968	7528
811.223	7466
811.477	7614
811.731	7648
811.985	7665
812.239	7655
812.493	7759
812.747	7729
813	7773
813.254	7762
813.508	7859
813.762	7833
814.015	7863
814.269	7979
814.522	8009
814.776	8086
815.03	8141
815.283	8239
815.536	8377
815.79	8462
816.043	8523
816.296	8639
816.55	8744
816.803	8789
817.056	9001
817.309	8952
817.562	9043
817.815	9201
818.068	9135
818.321	9233
818.574	9325
818.827	9507
819.079	9555
819.332	9808
819.585	9823
819.838	9987
820.09	9945
820.343	10067
820.595	10051
820.848	10149
821.1	10200
821.353	10187
821.605	10196
821.857	10183
822.11	10082
822.362	10136
822.614	10024
822.866	10135
823.118	10143
823.37	10205
823.622	10179
823.874	10216
824.126	10282
824.378	10219
824.63	10197
824.882	10270
825.134	10317
825.385	10269
825.637	10291
825.888	10187
826.14	10066
826.392	10092
826.643	9986
826.895	10089
827.146	9875
827.397	9940
827.649	10030
827.9	9836
828.151	9900
828.402	9907
828.653	9946
828.905	9983
829.156	10050
829.407	9962
829.658	9930
829.909	10138
830.159	10059
830.41	9971
830.661	9900
830.912	9815
831.162	9810
831.413	9723
831.664	9780
831.914	9778
832.165	9819
832.415	9828
832.666	9846
832.916	9821
833.167	9756
833.417	9852
833.667	9697
833.917	9764
834.168	9785
834.418	9730
834.668	9591
834.918	9573
835.168	9603
835.418	9587
835.668	9581
835.918	9583
836.167	9526
836.417	9379
836.667	9456
836.917	9459
837.166	9406
837.416	9472
837.666	9446
837.915	9360
838.165	9367
838.414	9332
838.663	9204
838.913	9249
839.162	9238
839.411	9292
839.661	9190
839.91	9277
840.159	9123
840.408	9212
840.657	9182
840.906	9264
841.155	9196
841.404	9104
841.653	9143
841.902	9192
842.15	9219
842.399	9227
842.648	9208
842.897	9189
843.145	8989
843.394	9025
843.642	8992
843.891	8970
844.139	8944
844.388	8805
844.636	8818
844.884	8793
845.133	8809
845.381	8784
845.629	8857
845.877	8827
846.125	8789
846.373	8757
846.621	8771
846.869	8721
847.117	8687
847.365	8572
847.613	8681
847.861	8543
848.108	8531
848.356	8546
848.604	8494
848.851	8504
849.099	8534
849.346	8523
849.594	8604
849.841	8596
850.089	8572
850.336	8647
850.583	8597
850.831	8606
851.078	8642
851.325	8481
851.572	8521
851.819	8502
852.066	8343
852.313	8281
852.56	8150
852.807	8122
853.054	8105
853.301	8089
853.548	8090
853.794	8245
854.041	8203
854.288	8215
854.534	8365
854.781	8309
855.028	8244
855.274	8267
855.52	8176
855.767	8186
856.013	8186
856.26	8436
856.506	8010
856.752	8070
856.998	8069
857.244	8017
857.49	8137
857.736	8143
857.982	8080
858.228	8117
858.474	7994
858.72	7996
858.966	7981
859.212	7833
859.458	7738
859.703	7733
859.949	7600
860.195	7570
860.44	7566
860.686	7500
860.931	7577
861.177	7478
861.422	7486
861.667	7462
861.913	7401
862.158	7447
862.403	7451
862.648	7507
862.893	7463
863.138	7437
863.384	7402
863.629	7439
863.873	7391
864.118	7409
864.363	7327
864.608	7354
864.853	7304
865.098	7257
865.342	7244
865.587	7208
865.832	7241
866.076	7183
866.321	7149
866.565	7054
866.81	7090
867.054	7101
867.298	7079
867.543	6964
867.787	7109
868.031	7047
868.275	6946
868.519	6973
868.764	6960
869.008	6976
869.252	6984
869.496	6939
869.739	6947
869.983	6934
870.227	6957
870.471	6890
870.715	6991
870.958	6954
871.202	6918
871.446	6887
871.689	6942
871.933	6976
872.176	6941
872.42	6922
872.663	6923
872.906	6951
873.15	6927
873.393	6810
873.636	6878
873.879	6848
874.122	6782
874.366	6718
874.609	6687
874.852	6592
875.095	6561
875.337	6506
875.58	6438
875.823	6439
876.066	6479
876.309	6480
876.551	6397
876.794	6296
877.037	6396
877.279	6280
877.522	6366
877.764	6290
878.007	6234
878.249	6291
878.491	6291
878.734	6291
878.976	6306
879.218	6211
879.46	6217
879.702	6148
879.945	6105
880.187	5991
880.429	5980
880.671	5945
880.912	5960
881.154	5902
881.396	5819
881.638	5947
881.88	5887
882.121	5851
882.363	5892
882.605	5893
882.846	5842
883.088	5862
883.329	5817
883.571	5874
883.812	5894
884.053	6038
884.295	6166
884.536	6260
884.777	6216
885.018	6189
885.259	6138
885.5	6044
885.742	6292
885.982	6091
886.223	5994
886.464	5958
886.705	5842
886.946	5820
887.187	5679
887.428	5716
887.668	5584
887.909	5506
888.15	5451
888.39	5465
888.631	5454
888.871	5373
889.111	5335
889.352	5288
889.592	5259
889.833	5219
890.073	5162
890.313	5209
890.553	5044
890.793	5069
891.033	5097
891.273	4995
891.513	4990
891.753	5024
891.993	4998
892.233	5034
892.473	5122
892.713	5034
892.952	4928
893.192	5019
893.432	5023
893.671	5037
893.911	4931
894.15	4972
894.39	4849
894.629	4865
894.869	4904
895.108	4809
895.347	4728
895.587	4819
895.826	4768
896.065	4740
896.304	4769
896.543	4766
896.782	4655
897.021	4732
897.26	4655
897.499	4755
897.738	4760
897.977	4653
898.216	4638
898.454	4571
898.693	4513
898.932	4541
899.17	4494
899.409	4496
899.647	4470
899.886	4416
900.124	4475
900.363	4443
900.601	4485
900.839	4442
901.078	4501
901.316	4512
901.554	4509
901.792	4536
902.03	4489
902.268	4508
902.506	4544
902.744	4472
902.982	4456
903.22	4411
903.458	4314
903.695	4315
903.933	4270
904.171	4158
904.409	4111
904.646	4119
904.884	4051
905.121	4089
905.359	4009
905.596	3972
905.833	3879
906.071	3875
906.308	3970
906.545	3908
906.783	3835
907.02	3884
907.257	3787
907.494	3866
907.731	3883
907.968	3889
908.205	3781
908.442	3790
908.679	3795
908.915	3718
909.152	3750
909.389	3622
909.626	3662
909.862	3610
910.099	3589
910.335	3656
910.572	3517
910.808	3568
911.045	3557
911.281	3538
911.518	3604
911.754	3507
911.99	3566
912.226	3503
912.463	3431
912.699	3416
912.935	3398
913.171	3392
913.407	3355
913.643	3353
913.879	3312
914.114	3269
914.35	3275
914.586	3260
914.822	3203
915.057	3241
915.293	3100
915.529	3112
915.764	3201
916	3207
916.235	3156
916.471	3144
916.706	3084
916.941	3106
917.177	3091
917.412	3125
917.647	3143
917.882	3066
918.117	3134
918.352	3106
918.588	3153
918.823	3034
919.057	3004
919.292	2943
919.527	3039
919.762	2919
919.997	2997
920.232	2872
920.466	2940
920.701	2811
920.935	2861
921.17	2815
921.405	2751
921.639	2850
921.873	2797
922.108	2826
922.342	2792
922.576	2767
922.811	2728
923.045	2788
923.279	2813
923.513	2630
923.747	2752
923.981	2713
924.215	2670
924.449	2643
924.683	2611
924.917	2609
925.151	2617
925.385	2674
925.618	2640
925.852	2654
926.086	2538
926.319	2579
926.553	2627
926.786	2610
927.02	2561
927.253	2608
927.486	2614
927.72	2552
927.953	2556
928.186	2535
928.42	2551
928.653	2503
928.886	2470
929.119	2503
929.352	2532
929.585	2524
929.818	2465
930.051	2458
930.284	2455
930.516	2391
930.749	2416
930.982	2410
931.215	2414
931.447	2362
931.68	2336
931.912	2316
932.145	2336
932.377	2355
932.61	2499
932.842	2275
933.074	2357
933.307	2333
933.539	2434
933.771	2411
934.003	2339
934.236	2477
934.468	2471
934.7	2421
934.932	2506
935.164	2490
935.395	2444
935.627	2469
935.859	2392
936.091	2275
936.323	2343
936.554	2357
936.786	2314
937.017	2234
937.249	2272
937.481	2195
937.712	2292
937.943	2267
938.175	2224
938.406	2235
938.637	2340
938.869	2202
939.1	2235
939.331	2200
939.562	2244
939.793	2240
940.024	2227
940.255	2278
940.486	2188
940.717	2179
940.948	2157
941.179	2126
941.409	2145
941.64	2126
941.871	2154
942.102	2142
942.332	2154
942.563	2180
942.793	2144
943.024	2107
943.254	2158
943.484	2175
943.715	2166
943.945	2154
944.175	2114
944.405	2085
944.636	2105
944.866	2088
945.096	2114
945.326	2044
945.556	2143
945.786	2141
946.016	2071
946.245	2029
946.475	2073
946.705	2042
946.935	2060
947.164	2051
947.394	2012
947.624	2029
947.853	2097
948.083	2006
948.312	1995
948.542	1947
948.771	1919
949	1933
949.23	1979
949.459	1966
949.688	2047
949.917	1975
950.146	2001
950.375	2019
950.604	1929
950.833	2028
951.062	2015
951.291	1967
951.52	1924
951.749	1955
951.978	1887
952.206	1938
952.435	1942
952.664	1952
952.892	1954
953.121	1923
953.349	1940
953.578	1946
953.806	1901
954.035	1838
954.263	1878
954.491	1829
954.719	1881
954.948	1865
955.176	1865
955.404	1800
955.632	1845
955.86	1837
956.088	1835
956.316	1869
956.544	1861
956.772	1837
956.999	1752
957.227	1882
957.455	1783
957.683	1763
957.91	1762
958.138	1746
958.365	1734
958.593	1757
958.82	1706
959.048	1794
959.275	1769
959.502	1748
959.73	1706
959.957	1729
960.184	1769
960.411	1701
960.638	1790
960.865	1725
961.092	1781
961.319	1663
961.546	1762
961.773	1760
962	1698
962.227	1746
962.454	1728
962.68	1700
962.907	1716
963.134	1680
963.36	1683
963.587	1720
963.813	1663
964.04	1710
964.266	1615
964.493	1713
964.719	1695
964.945	1686
965.171	1594
965.398	1658
965.624	1646
965.85	1581
966.076	1570
966.302	1635
966.528	1597
966.754	1648
966.98	1615
967.206	1649
967.431	1545
967.657	1651
967.883	1611
968.109	1605
968.334	1537
968.56	1548
968.785	1569
969.011	1527
969.236	1577
969.462	1526
969.687	1549
969.912	1615
970.138	1611
970.363	1527
970.588	1559
970.813	1509
971.038	1507
971.263	1526
971.488	1535
971.713	1565
971.938	1561
972.163	1455
972.388	1505
972.613	1493
972.838	1503
973.062	1456
973.287	1489
973.512	1402
973.736	1484
973.961	1442
974.185	1429
974.41	1496
974.634	1375
974.858	1407
975.083	1441
975.307	1462
975.531	1401
975.755	1357
975.98	1370
976.204	1319
976.428	1318
976.652	1343
976.876	1309
977.1	1371
977.324	1298
977.547	1385
977.771	1390
977.995	1351
978.219	1295
978.442	1415
978.666	1359
978.89	1365
979.113	1346
979.337	1314
979.56	1279
979.783	1381
980.007	1279
980.23	1313
980.453	1292
980.677	1324
980.9	1326
981.123	1208
981.346	1307
981.569	1302
981.792	1332
982.015	1291
982.238	1245
982.461	1273
982.684	1239
982.907	1236
983.129	1222
983.352	1271
983.575	1262
983.797	1276
984.02	1206
984.242	1230
984.465	1228
984.687	1228
984.91	1268
985.132	1268
985.354	1255
985.577	1262
985.799	1235
986.021	1166
986.243	1211
986.465	1200
986.687	1267
986.909	1289
987.131	1238
987.353	1189
987.575	1232
987.797	1204
988.019	1132
988.241	1190
988.462	1174
988.684	1226
988.906	1251
989.127	1265
989.349	1154
989.57	1192
989.792	1205
990.013	1232
990.234	1220
990.456	1262
990.677	1237
990.898	1179
991.119	1182
991.341	1225
991.562	1173
991.783	1207
992.004	1156
992.225	1133
992.446	1177
992.667	1081
992.887	1181
993.108	1073
993.329	1226
993.55	1156
993.77	1110
993.991	1121
994.212	1139
994.432	1149
994.653	1152
994.873	1157
995.093	1041
995.314	1087
995.534	1164
995.754	1156
995.975	1180
996.195	1086
996.415	1138
996.635	1106
996.855	1126
997.075	1115
997.295	1131
997.515	1091
997.735	1114
997.955	1102
998.174	1112
998.394	1078
998.614	1139
998.834	1061
999.053	1174
999.273	1113
999.492	1173
999.712	1127
999.931	1076
1000.151	1097
1000.37	1100
1000.589	1161
1000.809	1102
1001.028	1201
1001.247	1159
1001.466	1030
1001.685	1180
1001.904	1120
1002.123	1119
1002.342	1131
1002.561	1082
1002.78	1127
1002.999	1178
1003.218	1130
1003.436	1103
1003.655	1169
1003.874	1080
1004.092	1121
1004.311	1166
1004.53	1112
1004.748	1179
1004.966	1111
1005.185	1178
1005.403	1144
1005.622	1131
1005.84	1231
1006.058	1100
1006.276	1145
1006.494	1638
1006.712	1118
1006.931	1187
1007.149	1093
1007.367	1097
1007.584	1150
1007.802	1170
1008.02	1107
1008.238	1215
1008.456	1208
1008.673	1083
1008.891	1163
1009.109	1133
1009.326	1173
1009.544	1233
1009.761	1151
1009.979	1222
1010.196	1225
1010.413	1297
1010.631	1344
1010.848	1351
1011.065	1361
1011.282	1314
1011.5	1284
1011.717	1386
1011.934	1298
1012.151	1346
1012.368	1323
1012.585	1242
1012.801	1320
1013.018	1316
1013.235	1247
1013.452	1256
1013.669	1277
1013.885	1247
1014.102	1291
1014.318	1259
1014.535	1220
1014.751	1271
1014.968	1255
1015.184	1278
1015.401	1207
1015.617	1224
1015.833	1185
1016.049	1189
1016.266	1180
1016.482	1196
1016.698	1131
1016.914	1176
1017.13	1124
1017.346	1129
1017.562	1164
1017.778	1127
1017.993	1088
1018.209	1144
1018.425	1116
1018.641	1084
1018.856	1056
1019.072	1084
1019.288	1115
1019.503	1065
1019.719	990
1019.934	1017
1020.149	1077
1020.365	1059
1020.58	990
1020.795	1057
1021.011	989
1021.226	965
1021.441	1009
1021.656	933
1021.871	872
1022.086	916
1022.301	895
1022.516	859
1022.731	938
1022.946	870
1023.16	840
1023.375	825
1023.59	799
1023.804	780
1024.019	881
1024.234	750
1024.448	767
1024.663	706
1024.877	737
1025.092	763
1025.306	782
1025.52	675
1025.734	778
1025.949	693
1026.163	683
1026.377	633
1026.591	681
1026.805	617
1027.019	611
1027.233	573
1027.447	559
1027.661	632
1027.875	589
1028.088	606
1028.302	509
1028.516	525
1028.73	545
1028.943	518
1029.157	477
1029.37	465
1029.584	1
1029.797	1
1030.011	-3
1030.224	1
