Data from QEP037381__9__09-57-09-926.txt Node

Date: Wed Dec 21 09:57:09 EST 2022
User: dcclab
Spectrometer: QEP03738
Trigger mode: 4
Integration Time (sec): 1.000000E1
Scans to average: 1
Electric dark correction enabled: true
Nonlinearity correction enabled: false
Boxcar width: 0
XAxis mode: Wavelengths
Number of Pixels in Spectrum: 1044
>>>>>Begin Spectral Data<<<<<
784.041	12.12
784.3	-0.88
784.558	-2.88
784.817	-0.88
785.075	114743.12
785.334	20000.12
785.592	9306.12
785.851	6459.12
786.109	4882.12
786.368	3798.12
786.626	3031.12
786.884	2486.12
787.143	2072.12
787.401	1735.12
787.659	1563.12
787.917	1339.12
788.175	1204.12
788.433	1030.12
788.691	938.12
788.949	857.12
789.207	815.12
789.465	696.12
789.723	679.12
789.98	624.12
790.238	651.12
790.496	615.12
790.753	594.12
791.011	628.12
791.268	549.12
791.526	551.12
791.783	554.12
792.041	528.12
792.298	449.12
792.556	496.12
792.813	492.12
793.07	470.12
793.327	455.12
793.584	527.12
793.841	456.12
794.099	468.12
794.356	527.12
794.613	425.12
794.869	473.12
795.126	431.12
795.383	407.12
795.64	431.12
795.897	380.12
796.153	425.12
796.41	413.12
796.667	408.12
796.923	408.12
797.18	414.12
797.436	429.12
797.693	384.12
797.949	449.12
798.206	469.12
798.462	389.12
798.718	444.12
798.974	417.12
799.231	455.12
799.487	436.12
799.743	440.12
799.999	471.12
800.255	455.12
800.511	437.12
800.767	482.12
801.023	455.12
801.279	490.12
801.534	511.12
801.79	533.12
802.046	550.12
802.302	658.12
802.557	688.12
802.813	857.12
803.068	978.12
803.324	1328.12
803.579	1709.12
803.835	2343.12
804.09	3170.12
804.345	4088.12
804.601	5119.12
804.856	6170.12
805.111	7040.12
805.366	7737.12
805.621	8150.12
805.876	8469.12
806.131	8693.12
806.386	8771.12
806.641	8992.12
806.896	9152.12
807.151	9255.12
807.406	9305.12
807.661	9463.12
807.915	9625.12
808.17	9665.12
808.425	9797.12
808.679	9805.12
808.934	9992.12
809.188	9970.12
809.443	10072.12
809.697	10176.12
809.951	10215.12
810.206	10311.12
810.46	10405.12
810.714	10481.12
810.968	10522.12
811.223	10523.12
811.477	10637.12
811.731	10770.12
811.985	10700.12
812.239	10821.12
812.493	10885.12
812.747	10964.12
813	10842.12
813.254	10948.12
813.508	11006.12
813.762	11040.12
814.015	10993.12
814.269	11119.12
814.522	11201.12
814.776	11252.12
815.03	11443.12
815.283	11635.12
815.536	11832.12
815.79	11946.12
816.043	12050.12
816.296	12143.12
816.55	12268.12
816.803	12433.12
817.056	12543.12
817.309	12673.12
817.562	12721.12
817.815	12858.12
818.068	12876.12
818.321	13041.12
818.574	13134.12
818.827	13355.12
819.079	13461.12
819.332	13669.12
819.585	13802.12
819.838	13923.12
820.09	13974.12
820.343	14117.12
820.595	14201.12
820.848	14274.12
821.1	14294.12
821.353	14293.12
821.605	14330.12
821.857	14297.12
822.11	14170.12
822.362	14166.12
822.614	14191.12
822.866	14215.12
823.118	14219.12
823.37	14266.12
823.622	14290.12
823.874	14250.12
824.126	14412.12
824.378	14358.12
824.63	14383.12
824.882	14420.12
825.134	14438.12
825.385	14345.12
825.637	14371.12
825.888	14316.12
826.14	14224.12
826.392	14180.12
826.643	14032.12
826.895	14165.12
827.146	13995.12
827.397	13990.12
827.649	13896.12
827.9	13942.12
828.151	13988.12
828.402	13982.12
828.653	13992.12
828.905	14030.12
829.156	14111.12
829.407	13988.12
829.658	14150.12
829.909	14068.12
830.159	13995.12
830.41	13999.12
830.661	13910.12
830.912	13782.12
831.162	13701.12
831.413	13674.12
831.664	13789.12
831.914	13723.12
832.165	13724.12
832.415	13672.12
832.666	13733.12
832.916	13865.12
833.167	13662.12
833.417	13758.12
833.667	13704.12
833.917	13588.12
834.168	13603.12
834.418	13559.12
834.668	13568.12
834.918	13345.12
835.168	13485.12
835.418	13271.12
835.668	13216.12
835.918	13372.12
836.167	13251.12
836.417	13152.12
836.667	13243.12
836.917	13214.12
837.166	13147.12
837.416	13156.12
837.666	13234.12
837.915	13159.12
838.165	13097.12
838.414	12957.12
838.663	12992.12
838.913	12982.12
839.162	12915.12
839.411	12977.12
839.661	12814.12
839.91	12834.12
840.159	12735.12
840.408	12843.12
840.657	12847.12
840.906	12780.12
841.155	12864.12
841.404	12769.12
841.653	12753.12
841.902	12719.12
842.15	12803.12
842.399	12818.12
842.648	12706.12
842.897	12746.12
843.145	12623.12
843.394	12580.12
843.642	12421.12
843.891	12563.12
844.139	12394.12
844.388	12290.12
844.636	12256.12
844.884	12275.12
845.133	12198.12
845.381	12238.12
845.629	12291.12
845.877	12255.12
846.125	12144.12
846.373	12116.12
846.621	12148.12
846.869	12093.12
847.117	12031.12
847.365	11929.12
847.613	12001.12
847.861	11831.12
848.108	11872.12
848.356	11806.12
848.604	11797.12
848.851	11824.12
849.099	11868.12
849.346	11868.12
849.594	11831.12
849.841	11988.12
850.089	11978.12
850.336	11872.12
850.583	11900.12
850.831	11915.12
851.078	11848.12
851.325	11730.12
851.572	11748.12
851.819	11602.12
852.066	11417.12
852.313	11282.12
852.56	11220.12
852.807	11245.12
853.054	11153.12
853.301	11094.12
853.548	11103.12
853.794	11328.12
854.041	11339.12
854.288	11406.12
854.534	11478.12
854.781	11321.12
855.028	11349.12
855.274	11361.12
855.52	11221.12
855.767	11073.12
856.013	11172.12
856.26	11433.12
856.506	11024.12
856.752	10964.12
856.998	11008.12
857.244	11039.12
857.49	11047.12
857.736	11039.12
857.982	11133.12
858.228	11099.12
858.474	10997.12
858.72	10954.12
858.966	10894.12
859.212	10814.12
859.458	10711.12
859.703	10628.12
859.949	10456.12
860.195	10438.12
860.44	10395.12
860.686	10251.12
860.931	10289.12
861.177	10209.12
861.422	10247.12
861.667	10184.12
861.913	10235.12
862.158	10180.12
862.403	10243.12
862.648	10316.12
862.893	10290.12
863.138	10266.12
863.384	10174.12
863.629	10291.12
863.873	10205.12
864.118	10124.12
864.363	10027.12
864.608	10118.12
864.853	10038.12
865.098	9985.12
865.342	9954.12
865.587	9881.12
865.832	9908.12
866.076	9886.12
866.321	9840.12
866.565	9766.12
866.81	9633.12
867.054	9669.12
867.298	9699.12
867.543	9562.12
867.787	9672.12
868.031	9633.12
868.275	9631.12
868.519	9607.12
868.764	9522.12
869.008	9517.12
869.252	9516.12
869.496	9499.12
869.739	9437.12
869.983	9487.12
870.227	9455.12
870.471	9389.12
870.715	9430.12
870.958	9421.12
871.202	9445.12
871.446	9387.12
871.689	9399.12
871.933	9449.12
872.176	9380.12
872.42	9379.12
872.663	9428.12
872.906	9377.12
873.15	9328.12
873.393	9220.12
873.636	9283.12
873.879	9116.12
874.122	9144.12
874.366	8948.12
874.609	8973.12
874.852	8894.12
875.095	8844.12
875.337	8728.12
875.58	8729.12
875.823	8645.12
876.066	8722.12
876.309	8744.12
876.551	8659.12
876.794	8605.12
877.037	8599.12
877.279	8519.12
877.522	8632.12
877.764	8605.12
878.007	8544.12
878.249	8603.12
878.491	8522.12
878.734	8541.12
878.976	8489.12
879.218	8448.12
879.46	8378.12
879.702	8408.12
879.945	8323.12
880.187	8134.12
880.429	8171.12
880.671	8119.12
880.912	8068.12
881.154	8139.12
881.396	8021.12
881.638	8043.12
881.88	8034.12
882.121	7992.12
882.363	7952.12
882.605	8036.12
882.846	7977.12
883.088	8032.12
883.329	7864.12
883.571	7859.12
883.812	7911.12
884.053	8015.12
884.295	8173.12
884.536	8188.12
884.777	8107.12
885.018	8130.12
885.259	7991.12
885.5	7958.12
885.742	8226.12
885.982	7993.12
886.223	7905.12
886.464	7898.12
886.705	7780.12
886.946	7749.12
887.187	7671.12
887.428	7637.12
887.668	7509.12
887.909	7402.12
888.15	7385.12
888.39	7448.12
888.631	7395.12
888.871	7236.12
889.111	7216.12
889.352	7197.12
889.592	7104.12
889.833	7027.12
890.073	7071.12
890.313	7064.12
890.553	6869.12
890.793	6876.12
891.033	6836.12
891.273	6856.12
891.513	6867.12
891.753	6815.12
891.993	6779.12
892.233	6834.12
892.473	6891.12
892.713	6881.12
892.952	6782.12
893.192	6848.12
893.432	6727.12
893.671	6821.12
893.911	6730.12
894.15	6660.12
894.39	6541.12
894.629	6570.12
894.869	6613.12
895.108	6575.12
895.347	6496.12
895.587	6469.12
895.826	6483.12
896.065	6434.12
896.304	6419.12
896.543	6418.12
896.782	6383.12
897.021	6359.12
897.26	6354.12
897.499	6410.12
897.738	6370.12
897.977	6262.12
898.216	6221.12
898.454	6174.12
898.693	6067.12
898.932	6122.12
899.17	6053.12
899.409	6029.12
899.647	6083.12
899.886	5980.12
900.124	6044.12
900.363	5966.12
900.601	6006.12
900.839	5968.12
901.078	5946.12
901.316	5952.12
901.554	6030.12
901.792	6041.12
902.03	5973.12
902.268	5999.12
902.506	6072.12
902.744	5949.12
902.982	5971.12
903.22	5851.12
903.458	5781.12
903.695	5747.12
903.933	5702.12
904.171	5622.12
904.409	5580.12
904.646	5543.12
904.884	5444.12
905.121	5429.12
905.359	5337.12
905.596	5316.12
905.833	5259.12
906.071	5225.12
906.308	5288.12
906.545	5285.12
906.783	5175.12
907.02	5209.12
907.257	5173.12
907.494	5164.12
907.731	5153.12
907.968	5150.12
908.205	5081.12
908.442	5098.12
908.679	5041.12
908.915	5056.12
909.152	4991.12
909.389	4869.12
909.626	4929.12
909.862	4884.12
910.099	4850.12
910.335	4856.12
910.572	4762.12
910.808	4762.12
911.045	4817.12
911.281	4738.12
911.518	4831.12
911.754	4741.12
911.99	4690.12
912.226	4686.12
912.463	4557.12
912.699	4544.12
912.935	4602.12
913.171	4533.12
913.407	4462.12
913.643	4488.12
913.879	4468.12
914.114	4487.12
914.35	4320.12
914.586	4311.12
914.822	4297.12
915.057	4366.12
915.293	4165.12
915.529	4180.12
915.764	4256.12
916	4217.12
916.235	4210.12
916.471	4193.12
916.706	4160.12
916.941	4168.12
917.177	4122.12
917.412	4189.12
917.647	4124.12
917.882	4105.12
918.117	4145.12
918.352	4099.12
918.588	4182.12
918.823	4068.12
919.057	3987.12
919.292	3969.12
919.527	4035.12
919.762	3904.12
919.997	3970.12
920.232	3828.12
920.466	3840.12
920.701	3741.12
920.935	3794.12
921.17	3745.12
921.405	3671.12
921.639	3751.12
921.873	3685.12
922.108	3699.12
922.342	3685.12
922.576	3594.12
922.811	3653.12
923.045	3626.12
923.279	3667.12
923.513	3520.12
923.747	3644.12
923.981	3583.12
924.215	3485.12
924.449	3499.12
924.683	3443.12
924.917	3458.12
925.151	3452.12
925.385	3530.12
925.618	3434.12
925.852	3413.12
926.086	3390.12
926.319	3449.12
926.553	3406.12
926.786	3432.12
927.02	3370.12
927.253	3404.12
927.486	3398.12
927.72	3386.12
927.953	3423.12
928.186	3356.12
928.42	3372.12
928.653	3281.12
928.886	3248.12
929.119	3315.12
929.352	3285.12
929.585	3274.12
929.818	3228.12
930.051	3260.12
930.284	3236.12
930.516	3074.12
930.749	3140.12
930.982	3127.12
931.215	3138.12
931.447	3035.12
931.68	3116.12
931.912	3091.12
932.145	3051.12
932.377	3089.12
932.61	3190.12
932.842	2983.12
933.074	3121.12
933.307	2984.12
933.539	3147.12
933.771	3086.12
934.003	3062.12
934.236	3089.12
934.468	3131.12
934.7	3021.12
934.932	3086.12
935.164	3009.12
935.395	3034.12
935.627	3024.12
935.859	3001.12
936.091	2933.12
936.323	3012.12
936.554	3019.12
936.786	2955.12
937.017	2901.12
937.249	2915.12
937.481	2874.12
937.712	2926.12
937.943	2920.12
938.175	2883.12
938.406	2878.12
938.637	2951.12
938.869	2821.12
939.1	2905.12
939.331	2840.12
939.562	2880.12
939.793	2880.12
940.024	2897.12
940.255	2913.12
940.486	2824.12
940.717	2824.12
940.948	2822.12
941.179	2772.12
941.409	2811.12
941.64	2788.12
941.871	2777.12
942.102	2726.12
942.332	2777.12
942.563	2799.12
942.793	2774.12
943.024	2741.12
943.254	2762.12
943.484	2803.12
943.715	2771.12
943.945	2780.12
944.175	2694.12
944.405	2687.12
944.636	2665.12
944.866	2736.12
945.096	2752.12
945.326	2674.12
945.556	2758.12
945.786	2721.12
946.016	2687.12
946.245	2642.12
946.475	2626.12
946.705	2642.12
946.935	2634.12
947.164	2642.12
947.394	2574.12
947.624	2593.12
947.853	2632.12
948.083	2585.12
948.312	2558.12
948.542	2498.12
948.771	2470.12
949	2502.12
949.23	2494.12
949.459	2527.12
949.688	2563.12
949.917	2529.12
950.146	2504.12
950.375	2616.12
950.604	2437.12
950.833	2556.12
951.062	2571.12
951.291	2513.12
951.52	2469.12
951.749	2500.12
951.978	2450.12
952.206	2445.12
952.435	2432.12
952.664	2422.12
952.892	2457.12
953.121	2460.12
953.349	2470.12
953.578	2454.12
953.806	2403.12
954.035	2371.12
954.263	2415.12
954.491	2369.12
954.719	2393.12
954.948	2340.12
955.176	2352.12
955.404	2276.12
955.632	2309.12
955.86	2316.12
956.088	2292.12
956.316	2313.12
956.544	2345.12
956.772	2299.12
956.999	2256.12
957.227	2375.12
957.455	2217.12
957.683	2267.12
957.91	2232.12
958.138	2194.12
958.365	2191.12
958.593	2213.12
958.82	2165.12
959.048	2217.12
959.275	2200.12
959.502	2164.12
959.73	2133.12
959.957	2201.12
960.184	2200.12
960.411	2137.12
960.638	2220.12
960.865	2153.12
961.092	2192.12
961.319	2143.12
961.546	2152.12
961.773	2190.12
962	2111.12
962.227	2154.12
962.454	2145.12
962.68	2154.12
962.907	2153.12
963.134	2052.12
963.36	2103.12
963.587	2131.12
963.813	2048.12
964.04	2124.12
964.266	2039.12
964.493	2109.12
964.719	2083.12
964.945	2085.12
965.171	1949.12
965.398	2045.12
965.624	2041.12
965.85	1982.12
966.076	1975.12
966.302	2012.12
966.528	2000.12
966.754	2013.12
966.98	1988.12
967.206	1976.12
967.431	1912.12
967.657	2012.12
967.883	1975.12
968.109	1979.12
968.334	1926.12
968.56	1914.12
968.785	1931.12
969.011	1866.12
969.236	1942.12
969.462	1872.12
969.687	1938.12
969.912	1921.12
970.138	1968.12
970.363	1868.12
970.588	1895.12
970.813	1846.12
971.038	1817.12
971.263	1882.12
971.488	1864.12
971.713	1901.12
971.938	1896.12
972.163	1784.12
972.388	1832.12
972.613	1819.12
972.838	1831.12
973.062	1809.12
973.287	1800.12
973.512	1757.12
973.736	1770.12
973.961	1754.12
974.185	1742.12
974.41	1809.12
974.634	1693.12
974.858	1723.12
975.083	1766.12
975.307	1761.12
975.531	1726.12
975.755	1656.12
975.98	1655.12
976.204	1609.12
976.428	1641.12
976.652	1642.12
976.876	1634.12
977.1	1660.12
977.324	1624.12
977.547	1643.12
977.771	1657.12
977.995	1644.12
978.219	1602.12
978.442	1711.12
978.666	1627.12
978.89	1639.12
979.113	1628.12
979.337	1595.12
979.56	1589.12
979.783	1649.12
980.007	1567.12
980.23	1599.12
980.453	1553.12
980.677	1595.12
980.9	1573.12
981.123	1511.12
981.346	1616.12
981.569	1594.12
981.792	1602.12
982.015	1547.12
982.238	1518.12
982.461	1503.12
982.684	1490.12
982.907	1487.12
983.129	1492.12
983.352	1515.12
983.575	1500.12
983.797	1533.12
984.02	1469.12
984.242	1467.12
984.465	1467.12
984.687	1479.12
984.91	1501.12
985.132	1475.12
985.354	1520.12
985.577	1493.12
985.799	1471.12
986.021	1397.12
986.243	1391.12
986.465	1414.12
986.687	1493.12
986.909	1511.12
987.131	1438.12
987.353	1400.12
987.575	1434.12
987.797	1411.12
988.019	1348.12
988.241	1431.12
988.462	1378.12
988.684	1424.12
988.906	1490.12
989.127	1465.12
989.349	1373.12
989.57	1374.12
989.792	1455.12
990.013	1440.12
990.234	1460.12
990.456	1510.12
990.677	1466.12
990.898	1384.12
991.119	1362.12
991.341	1415.12
991.562	1350.12
991.783	1404.12
992.004	1334.12
992.225	1324.12
992.446	1380.12
992.667	1280.12
992.887	1390.12
993.108	1268.12
993.329	1388.12
993.55	1342.12
993.77	1274.12
993.991	1291.12
994.212	1315.12
994.432	1315.12
994.653	1319.12
994.873	1309.12
995.093	1194.12
995.314	1235.12
995.534	1340.12
995.754	1360.12
995.975	1359.12
996.195	1259.12
996.415	1310.12
996.635	1282.12
996.855	1289.12
997.075	1266.12
997.295	1255.12
997.515	1255.12
997.735	1303.12
997.955	1262.12
998.174	1262.12
998.394	1233.12
998.614	1289.12
998.834	1223.12
999.053	1322.12
999.273	1299.12
999.492	1322.12
999.712	1274.12
999.931	1226.12
1000.151	1275.12
1000.37	1243.12
1000.589	1284.12
1000.809	1266.12
1001.028	1344.12
1001.247	1279.12
1001.466	1177.12
1001.685	1314.12
1001.904	1257.12
1002.123	1264.12
1002.342	1258.12
1002.561	1220.12
1002.78	1273.12
1002.999	1297.12
1003.218	1225.12
1003.436	1217.12
1003.655	1283.12
1003.874	1249.12
1004.092	1241.12
1004.311	1269.12
1004.53	1233.12
1004.748	1309.12
1004.966	1229.12
1005.185	1294.12
1005.403	1269.12
1005.622	1244.12
1005.84	1314.12
1006.058	1216.12
1006.276	1225.12
1006.494	1729.12
1006.712	1244.12
1006.931	1290.12
1007.149	1197.12
1007.367	1214.12
1007.584	1226.12
1007.802	1256.12
1008.02	1211.12
1008.238	1323.12
1008.456	1274.12
1008.673	1148.12
1008.891	1264.12
1009.109	1216.12
1009.326	1287.12
1009.544	1318.12
1009.761	1223.12
1009.979	1300.12
1010.196	1304.12
1010.413	1335.12
1010.631	1374.12
1010.848	1406.12
1011.065	1395.12
1011.282	1349.12
1011.5	1293.12
1011.717	1415.12
1011.934	1358.12
1012.151	1350.12
1012.368	1351.12
1012.585	1301.12
1012.801	1359.12
1013.018	1316.12
1013.235	1283.12
1013.452	1283.12
1013.669	1302.12
1013.885	1263.12
1014.102	1335.12
1014.318	1289.12
1014.535	1235.12
1014.751	1272.12
1014.968	1266.12
1015.184	1298.12
1015.401	1222.12
1015.617	1257.12
1015.833	1230.12
1016.049	1194.12
1016.266	1190.12
1016.482	1200.12
1016.698	1122.12
1016.914	1215.12
1017.13	1172.12
1017.346	1148.12
1017.562	1207.12
1017.778	1125.12
1017.993	1101.12
1018.209	1150.12
1018.425	1155.12
1018.641	1126.12
1018.856	1056.12
1019.072	1105.12
1019.288	1149.12
1019.503	1089.12
1019.719	1016.12
1019.934	1053.12
1020.149	1120.12
1020.365	1065.12
1020.58	1004.12
1020.795	1068.12
1021.011	1023.12
1021.226	999.12
1021.441	1030.12
1021.656	944.12
1021.871	910.12
1022.086	934.12
1022.301	912.12
1022.516	902.12
1022.731	963.12
1022.946	905.12
1023.16	870.12
1023.375	846.12
1023.59	848.12
1023.804	807.12
1024.019	927.12
1024.234	792.12
1024.448	814.12
1024.663	751.12
1024.877	783.12
1025.092	814.12
1025.306	802.12
1025.52	721.12
1025.734	806.12
1025.949	725.12
1026.163	721.12
1026.377	657.12
1026.591	718.12
1026.805	636.12
1027.019	663.12
1027.233	609.12
1027.447	568.12
1027.661	671.12
1027.875	626.12
1028.088	628.12
1028.302	562.12
1028.516	559.12
1028.73	570.12
1028.943	557.12
1029.157	518.12
1029.37	486.12
1029.584	-3.88
1029.797	-0.88
1030.011	-1.88
1030.224	-0.88
