Data from QEP037381__14__09-57-59-926.txt Node

Date: Wed Dec 21 09:57:59 EST 2022
User: dcclab
Spectrometer: QEP03738
Trigger mode: 4
Integration Time (sec): 1.000000E1
Scans to average: 1
Electric dark correction enabled: true
Nonlinearity correction enabled: false
Boxcar width: 0
XAxis mode: Wavelengths
Number of Pixels in Spectrum: 1044
>>>>>Begin Spectral Data<<<<<
784.041	12.12
784.3	2.12
784.558	-4.88
784.817	-3.88
785.075	112151.12
785.334	19594.12
785.592	9251.12
785.851	6413.12
786.109	4745.12
786.368	3743.12
786.626	2969.12
786.884	2492.12
787.143	2120.12
787.401	1685.12
787.659	1521.12
787.917	1325.12
788.175	1187.12
788.433	1056.12
788.691	932.12
788.949	835.12
789.207	808.12
789.465	708.12
789.723	678.12
789.98	626.12
790.238	662.12
790.496	598.12
790.753	585.12
791.011	638.12
791.268	549.12
791.526	534.12
791.783	546.12
792.041	558.12
792.298	435.12
792.556	504.12
792.813	492.12
793.07	465.12
793.327	446.12
793.584	538.12
793.841	428.12
794.099	461.12
794.356	509.12
794.613	414.12
794.869	453.12
795.126	412.12
795.383	404.12
795.64	421.12
795.897	378.12
796.153	418.12
796.41	408.12
796.667	394.12
796.923	405.12
797.18	396.12
797.436	420.12
797.693	393.12
797.949	435.12
798.206	461.12
798.462	369.12
798.718	425.12
798.974	410.12
799.231	439.12
799.487	437.12
799.743	431.12
799.999	442.12
800.255	456.12
800.511	441.12
800.767	482.12
801.023	449.12
801.279	459.12
801.534	489.12
801.79	513.12
802.046	515.12
802.302	597.12
802.557	645.12
802.813	776.12
803.068	854.12
803.324	1118.12
803.579	1457.12
803.835	1939.12
804.09	2595.12
804.345	3342.12
804.601	4216.12
804.856	5101.12
805.111	5820.12
805.366	6371.12
805.621	6751.12
805.876	7091.12
806.131	7209.12
806.386	7295.12
806.641	7391.12
806.896	7457.12
807.151	7687.12
807.406	7705.12
807.661	7846.12
807.915	7965.12
808.17	8042.12
808.425	8123.12
808.679	8133.12
808.934	8311.12
809.188	8229.12
809.443	8361.12
809.697	8515.12
809.951	8410.12
810.206	8481.12
810.46	8627.12
810.714	8663.12
810.968	8761.12
811.223	8763.12
811.477	8864.12
811.731	8878.12
811.985	8847.12
812.239	8982.12
812.493	8952.12
812.747	9011.12
813	9042.12
813.254	9129.12
813.508	9153.12
813.762	9098.12
814.015	9141.12
814.269	9210.12
814.522	9262.12
814.776	9411.12
815.03	9488.12
815.283	9590.12
815.536	9684.12
815.79	9849.12
816.043	10010.12
816.296	10008.12
816.55	10210.12
816.803	10285.12
817.056	10465.12
817.309	10448.12
817.562	10566.12
817.815	10649.12
818.068	10641.12
818.321	10723.12
818.574	10823.12
818.827	11027.12
819.079	11136.12
819.332	11351.12
819.585	11438.12
819.838	11497.12
820.09	11543.12
820.343	11650.12
820.595	11644.12
820.848	11796.12
821.1	11892.12
821.353	11803.12
821.605	11824.12
821.857	11891.12
822.11	11761.12
822.362	11791.12
822.614	11698.12
822.866	11765.12
823.118	11790.12
823.37	11846.12
823.622	11875.12
823.874	11855.12
824.126	11952.12
824.378	11885.12
824.63	11989.12
824.882	12002.12
825.134	11895.12
825.385	11852.12
825.637	11789.12
825.888	11815.12
826.14	11773.12
826.392	11673.12
826.643	11714.12
826.895	11664.12
827.146	11622.12
827.397	11561.12
827.649	11651.12
827.9	11529.12
828.151	11560.12
828.402	11605.12
828.653	11613.12
828.905	11621.12
829.156	11693.12
829.407	11535.12
829.658	11613.12
829.909	11671.12
830.159	11650.12
830.41	11608.12
830.661	11512.12
830.912	11423.12
831.162	11432.12
831.413	11304.12
831.664	11430.12
831.914	11375.12
832.165	11315.12
832.415	11347.12
832.666	11393.12
832.916	11376.12
833.167	11336.12
833.417	11398.12
833.667	11327.12
833.917	11282.12
834.168	11322.12
834.418	11357.12
834.668	11258.12
834.918	11182.12
835.168	11217.12
835.418	11017.12
835.668	11155.12
835.918	11088.12
836.167	10999.12
836.417	10965.12
836.667	10987.12
836.917	10966.12
837.166	10899.12
837.416	10927.12
837.666	11025.12
837.915	10975.12
838.165	10869.12
838.414	10824.12
838.663	10655.12
838.913	10826.12
839.162	10742.12
839.411	10804.12
839.661	10676.12
839.91	10725.12
840.159	10639.12
840.408	10618.12
840.657	10562.12
840.906	10673.12
841.155	10689.12
841.404	10578.12
841.653	10584.12
841.902	10581.12
842.15	10669.12
842.399	10614.12
842.648	10589.12
842.897	10530.12
843.145	10502.12
843.394	10395.12
843.642	10383.12
843.891	10384.12
844.139	10282.12
844.388	10315.12
844.636	10215.12
844.884	10264.12
845.133	10221.12
845.381	10208.12
845.629	10221.12
845.877	10098.12
846.125	10102.12
846.373	10174.12
846.621	10100.12
846.869	10020.12
847.117	10028.12
847.365	9969.12
847.613	9906.12
847.861	9929.12
848.108	9947.12
848.356	9888.12
848.604	9821.12
848.851	9844.12
849.099	9814.12
849.346	9847.12
849.594	9926.12
849.841	10002.12
850.089	9905.12
850.336	9971.12
850.583	9968.12
850.831	9900.12
851.078	9907.12
851.325	9791.12
851.572	9855.12
851.819	9742.12
852.066	9562.12
852.313	9435.12
852.56	9368.12
852.807	9362.12
853.054	9357.12
853.301	9303.12
853.548	9307.12
853.794	9412.12
854.041	9466.12
854.288	9431.12
854.534	9554.12
854.781	9604.12
855.028	9487.12
855.274	9518.12
855.52	9460.12
855.767	9321.12
856.013	9324.12
856.26	9626.12
856.506	9148.12
856.752	9244.12
856.998	9219.12
857.244	9177.12
857.49	9326.12
857.736	9248.12
857.982	9321.12
858.228	9309.12
858.474	9236.12
858.72	9181.12
858.966	9121.12
859.212	9034.12
859.458	8927.12
859.703	8868.12
859.949	8762.12
860.195	8697.12
860.44	8695.12
860.686	8647.12
860.931	8658.12
861.177	8537.12
861.422	8583.12
861.667	8497.12
861.913	8523.12
862.158	8551.12
862.403	8586.12
862.648	8598.12
862.893	8594.12
863.138	8548.12
863.384	8551.12
863.629	8541.12
863.873	8519.12
864.118	8497.12
864.363	8387.12
864.608	8423.12
864.853	8435.12
865.098	8355.12
865.342	8324.12
865.587	8331.12
865.832	8324.12
866.076	8269.12
866.321	8245.12
866.565	8209.12
866.81	8104.12
867.054	8128.12
867.298	8165.12
867.543	8104.12
867.787	8147.12
868.031	8049.12
868.275	8157.12
868.519	8109.12
868.764	8068.12
869.008	7954.12
869.252	8062.12
869.496	7928.12
869.739	7921.12
869.983	7940.12
870.227	7956.12
870.471	7895.12
870.715	7992.12
870.958	7946.12
871.202	7946.12
871.446	7958.12
871.689	7979.12
871.933	7911.12
872.176	7939.12
872.42	7912.12
872.663	7910.12
872.906	8016.12
873.15	7843.12
873.393	7829.12
873.636	7864.12
873.879	7736.12
874.122	7703.12
874.366	7594.12
874.609	7564.12
874.852	7466.12
875.095	7466.12
875.337	7376.12
875.58	7327.12
875.823	7393.12
876.066	7414.12
876.309	7393.12
876.551	7259.12
876.794	7227.12
877.037	7280.12
877.279	7220.12
877.522	7227.12
877.764	7252.12
878.007	7233.12
878.249	7206.12
878.491	7203.12
878.734	7216.12
878.976	7199.12
879.218	7123.12
879.46	7125.12
879.702	7049.12
879.945	6974.12
880.187	6950.12
880.429	6932.12
880.671	6891.12
880.912	6875.12
881.154	6825.12
881.396	6718.12
881.638	6774.12
881.88	6810.12
882.121	6713.12
882.363	6798.12
882.605	6807.12
882.846	6724.12
883.088	6683.12
883.329	6624.12
883.571	6614.12
883.812	6713.12
884.053	6768.12
884.295	6843.12
884.536	7020.12
884.777	6904.12
885.018	6907.12
885.259	6878.12
885.5	6784.12
885.742	7015.12
885.982	6792.12
886.223	6688.12
886.464	6600.12
886.705	6612.12
886.946	6606.12
887.187	6375.12
887.428	6452.12
887.668	6339.12
887.909	6301.12
888.15	6216.12
888.39	6253.12
888.631	6217.12
888.871	6153.12
889.111	6112.12
889.352	6043.12
889.592	5981.12
889.833	5964.12
890.073	5948.12
890.313	5996.12
890.553	5848.12
890.793	5849.12
891.033	5784.12
891.273	5788.12
891.513	5817.12
891.753	5851.12
891.993	5733.12
892.233	5807.12
892.473	5856.12
892.713	5800.12
892.952	5716.12
893.192	5776.12
893.432	5692.12
893.671	5720.12
893.911	5716.12
894.15	5717.12
894.39	5567.12
894.629	5581.12
894.869	5632.12
895.108	5547.12
895.347	5522.12
895.587	5488.12
895.826	5440.12
896.065	5433.12
896.304	5470.12
896.543	5480.12
896.782	5379.12
897.021	5416.12
897.26	5392.12
897.499	5419.12
897.738	5402.12
897.977	5368.12
898.216	5303.12
898.454	5205.12
898.693	5216.12
898.932	5217.12
899.17	5157.12
899.409	5156.12
899.647	5138.12
899.886	5064.12
900.124	5077.12
900.363	5116.12
900.601	5153.12
900.839	5133.12
901.078	5137.12
901.316	5113.12
901.554	5122.12
901.792	5116.12
902.03	5088.12
902.268	5107.12
902.506	5134.12
902.744	5070.12
902.982	5074.12
903.22	4983.12
903.458	4972.12
903.695	4942.12
903.933	4862.12
904.171	4754.12
904.409	4765.12
904.646	4751.12
904.884	4654.12
905.121	4649.12
905.359	4575.12
905.596	4551.12
905.833	4461.12
906.071	4469.12
906.308	4487.12
906.545	4460.12
906.783	4423.12
907.02	4423.12
907.257	4403.12
907.494	4451.12
907.731	4417.12
907.968	4390.12
908.205	4309.12
908.442	4313.12
908.679	4335.12
908.915	4288.12
909.152	4256.12
909.389	4132.12
909.626	4139.12
909.862	4120.12
910.099	4152.12
910.335	4157.12
910.572	4080.12
910.808	4095.12
911.045	4062.12
911.281	4045.12
911.518	4111.12
911.754	4032.12
911.99	4058.12
912.226	3973.12
912.463	3895.12
912.699	3914.12
912.935	3948.12
913.171	3846.12
913.407	3853.12
913.643	3900.12
913.879	3774.12
914.114	3772.12
914.35	3730.12
914.586	3697.12
914.822	3669.12
915.057	3728.12
915.293	3563.12
915.529	3543.12
915.764	3663.12
916	3635.12
916.235	3614.12
916.471	3590.12
916.706	3533.12
916.941	3560.12
917.177	3532.12
917.412	3570.12
917.647	3544.12
917.882	3532.12
918.117	3560.12
918.352	3516.12
918.588	3595.12
918.823	3478.12
919.057	3480.12
919.292	3353.12
919.527	3488.12
919.762	3365.12
919.997	3403.12
920.232	3281.12
920.466	3341.12
920.701	3207.12
920.935	3234.12
921.17	3201.12
921.405	3164.12
921.639	3195.12
921.873	3152.12
922.108	3182.12
922.342	3191.12
922.576	3133.12
922.811	3106.12
923.045	3162.12
923.279	3194.12
923.513	3038.12
923.747	3109.12
923.981	3048.12
924.215	3012.12
924.449	3027.12
924.683	2981.12
924.917	2995.12
925.151	3023.12
925.385	3030.12
925.618	2987.12
925.852	2976.12
926.086	2883.12
926.319	2937.12
926.553	2928.12
926.786	2962.12
927.02	2882.12
927.253	2947.12
927.486	2943.12
927.72	2872.12
927.953	2930.12
928.186	2892.12
928.42	2900.12
928.653	2858.12
928.886	2837.12
929.119	2871.12
929.352	2847.12
929.585	2841.12
929.818	2770.12
930.051	2783.12
930.284	2763.12
930.516	2701.12
930.749	2723.12
930.982	2742.12
931.215	2712.12
931.447	2673.12
931.68	2694.12
931.912	2675.12
932.145	2671.12
932.377	2687.12
932.61	2782.12
932.842	2614.12
933.074	2687.12
933.307	2664.12
933.539	2696.12
933.771	2716.12
934.003	2643.12
934.236	2701.12
934.468	2737.12
934.7	2680.12
934.932	2682.12
935.164	2600.12
935.395	2605.12
935.627	2612.12
935.859	2584.12
936.091	2534.12
936.323	2607.12
936.554	2649.12
936.786	2586.12
937.017	2521.12
937.249	2565.12
937.481	2504.12
937.712	2564.12
937.943	2543.12
938.175	2534.12
938.406	2534.12
938.637	2583.12
938.869	2470.12
939.1	2554.12
939.331	2439.12
939.562	2507.12
939.793	2507.12
940.024	2543.12
940.255	2509.12
940.486	2438.12
940.717	2472.12
940.948	2417.12
941.179	2381.12
941.409	2411.12
941.64	2418.12
941.871	2429.12
942.102	2389.12
942.332	2411.12
942.563	2444.12
942.793	2396.12
943.024	2358.12
943.254	2415.12
943.484	2453.12
943.715	2465.12
943.945	2400.12
944.175	2332.12
944.405	2314.12
944.636	2349.12
944.866	2391.12
945.096	2398.12
945.326	2343.12
945.556	2397.12
945.786	2405.12
946.016	2304.12
946.245	2272.12
946.475	2308.12
946.705	2282.12
946.935	2285.12
947.164	2305.12
947.394	2243.12
947.624	2236.12
947.853	2270.12
948.083	2261.12
948.312	2220.12
948.542	2170.12
948.771	2145.12
949	2190.12
949.23	2214.12
949.459	2178.12
949.688	2252.12
949.917	2193.12
950.146	2218.12
950.375	2251.12
950.604	2128.12
950.833	2255.12
951.062	2248.12
951.291	2174.12
951.52	2176.12
951.749	2173.12
951.978	2095.12
952.206	2135.12
952.435	2117.12
952.664	2161.12
952.892	2161.12
953.121	2137.12
953.349	2186.12
953.578	2158.12
953.806	2133.12
954.035	2097.12
954.263	2098.12
954.491	2064.12
954.719	2092.12
954.948	2058.12
955.176	2022.12
955.404	1991.12
955.632	2057.12
955.86	2054.12
956.088	2024.12
956.316	2059.12
956.544	2041.12
956.772	2004.12
956.999	1966.12
957.227	2067.12
957.455	1958.12
957.683	1991.12
957.91	1957.12
958.138	1932.12
958.365	1946.12
958.593	1985.12
958.82	1874.12
959.048	1989.12
959.275	1911.12
959.502	1947.12
959.73	1887.12
959.957	1906.12
960.184	1939.12
960.411	1878.12
960.638	1939.12
960.865	1835.12
961.092	1916.12
961.319	1872.12
961.546	1922.12
961.773	1931.12
962	1901.12
962.227	1919.12
962.454	1864.12
962.68	1887.12
962.907	1902.12
963.134	1857.12
963.36	1840.12
963.587	1879.12
963.813	1822.12
964.04	1860.12
964.266	1804.12
964.493	1874.12
964.719	1819.12
964.945	1857.12
965.171	1749.12
965.398	1790.12
965.624	1824.12
965.85	1755.12
966.076	1770.12
966.302	1791.12
966.528	1759.12
966.754	1778.12
966.98	1791.12
967.206	1745.12
967.431	1691.12
967.657	1804.12
967.883	1789.12
968.109	1754.12
968.334	1703.12
968.56	1693.12
968.785	1721.12
969.011	1686.12
969.236	1745.12
969.462	1669.12
969.687	1702.12
969.912	1751.12
970.138	1751.12
970.363	1660.12
970.588	1678.12
970.813	1671.12
971.038	1666.12
971.263	1695.12
971.488	1695.12
971.713	1739.12
971.938	1688.12
972.163	1606.12
972.388	1627.12
972.613	1607.12
972.838	1637.12
973.062	1628.12
973.287	1632.12
973.512	1570.12
973.736	1613.12
973.961	1579.12
974.185	1557.12
974.41	1630.12
974.634	1534.12
974.858	1538.12
975.083	1572.12
975.307	1589.12
975.531	1535.12
975.755	1491.12
975.98	1528.12
976.204	1451.12
976.428	1437.12
976.652	1467.12
976.876	1429.12
977.1	1479.12
977.324	1437.12
977.547	1493.12
977.771	1498.12
977.995	1490.12
978.219	1429.12
978.442	1533.12
978.666	1457.12
978.89	1426.12
979.113	1454.12
979.337	1464.12
979.56	1422.12
979.783	1503.12
980.007	1372.12
980.23	1432.12
980.453	1378.12
980.677	1447.12
980.9	1437.12
981.123	1316.12
981.346	1456.12
981.569	1422.12
981.792	1438.12
982.015	1383.12
982.238	1353.12
982.461	1383.12
982.684	1321.12
982.907	1332.12
983.129	1325.12
983.352	1390.12
983.575	1381.12
983.797	1362.12
984.02	1288.12
984.242	1308.12
984.465	1365.12
984.687	1357.12
984.91	1364.12
985.132	1383.12
985.354	1379.12
985.577	1352.12
985.799	1326.12
986.021	1237.12
986.243	1267.12
986.465	1286.12
986.687	1360.12
986.909	1374.12
987.131	1331.12
987.353	1295.12
987.575	1333.12
987.797	1287.12
988.019	1222.12
988.241	1302.12
988.462	1250.12
988.684	1312.12
988.906	1357.12
989.127	1365.12
989.349	1238.12
989.57	1271.12
989.792	1333.12
990.013	1328.12
990.234	1304.12
990.456	1342.12
990.677	1308.12
990.898	1266.12
991.119	1279.12
991.341	1306.12
991.562	1229.12
991.783	1287.12
992.004	1213.12
992.225	1194.12
992.446	1250.12
992.667	1157.12
992.887	1232.12
993.108	1160.12
993.329	1298.12
993.55	1238.12
993.77	1170.12
993.991	1188.12
994.212	1232.12
994.432	1198.12
994.653	1228.12
994.873	1224.12
995.093	1088.12
995.314	1146.12
995.534	1225.12
995.754	1231.12
995.975	1263.12
996.195	1118.12
996.415	1190.12
996.635	1168.12
996.855	1205.12
997.075	1175.12
997.295	1165.12
997.515	1125.12
997.735	1195.12
997.955	1142.12
998.174	1148.12
998.394	1104.12
998.614	1180.12
998.834	1142.12
999.053	1201.12
999.273	1161.12
999.492	1242.12
999.712	1168.12
999.931	1121.12
1000.151	1171.12
1000.37	1151.12
1000.589	1219.12
1000.809	1136.12
1001.028	1263.12
1001.247	1207.12
1001.466	1089.12
1001.685	1227.12
1001.904	1175.12
1002.123	1152.12
1002.342	1182.12
1002.561	1123.12
1002.78	1179.12
1002.999	1226.12
1003.218	1177.12
1003.436	1125.12
1003.655	1185.12
1003.874	1135.12
1004.092	1175.12
1004.311	1189.12
1004.53	1160.12
1004.748	1235.12
1004.966	1154.12
1005.185	1189.12
1005.403	1206.12
1005.622	1174.12
1005.84	1232.12
1006.058	1149.12
1006.276	1163.12
1006.494	1657.12
1006.712	1154.12
1006.931	1227.12
1007.149	1122.12
1007.367	1135.12
1007.584	1169.12
1007.802	1210.12
1008.02	1137.12
1008.238	1231.12
1008.456	1209.12
1008.673	1084.12
1008.891	1218.12
1009.109	1126.12
1009.326	1169.12
1009.544	1259.12
1009.761	1142.12
1009.979	1247.12
1010.196	1211.12
1010.413	1277.12
1010.631	1306.12
1010.848	1316.12
1011.065	1311.12
1011.282	1269.12
1011.5	1221.12
1011.717	1325.12
1011.934	1236.12
1012.151	1298.12
1012.368	1261.12
1012.585	1219.12
1012.801	1260.12
1013.018	1243.12
1013.235	1201.12
1013.452	1216.12
1013.669	1222.12
1013.885	1192.12
1014.102	1229.12
1014.318	1204.12
1014.535	1173.12
1014.751	1202.12
1014.968	1200.12
1015.184	1247.12
1015.401	1136.12
1015.617	1196.12
1015.833	1113.12
1016.049	1153.12
1016.266	1123.12
1016.482	1155.12
1016.698	1096.12
1016.914	1132.12
1017.13	1076.12
1017.346	1052.12
1017.562	1165.12
1017.778	1075.12
1017.993	1052.12
1018.209	1102.12
1018.425	1073.12
1018.641	1060.12
1018.856	1015.12
1019.072	1042.12
1019.288	1097.12
1019.503	1059.12
1019.719	956.12
1019.934	980.12
1020.149	1041.12
1020.365	1009.12
1020.58	972.12
1020.795	1029.12
1021.011	959.12
1021.226	934.12
1021.441	990.12
1021.656	900.12
1021.871	882.12
1022.086	879.12
1022.301	869.12
1022.516	861.12
1022.731	903.12
1022.946	832.12
1023.16	828.12
1023.375	796.12
1023.59	785.12
1023.804	773.12
1024.019	878.12
1024.234	748.12
1024.448	789.12
1024.663	716.12
1024.877	736.12
1025.092	776.12
1025.306	777.12
1025.52	690.12
1025.734	767.12
1025.949	708.12
1026.163	678.12
1026.377	622.12
1026.591	676.12
1026.805	615.12
1027.019	614.12
1027.233	590.12
1027.447	535.12
1027.661	648.12
1027.875	588.12
1028.088	598.12
1028.302	540.12
1028.516	532.12
1028.73	544.12
1028.943	519.12
1029.157	486.12
1029.37	460.12
1029.584	-1.88
1029.797	4.12
1030.011	-3.88
1030.224	-3.88
