Data from QEP037381__37__10-01-49-928.txt Node

Date: Wed Dec 21 10:01:49 EST 2022
User: dcclab
Spectrometer: QEP03738
Trigger mode: 4
Integration Time (sec): 1.000000E1
Scans to average: 1
Electric dark correction enabled: true
Nonlinearity correction enabled: false
Boxcar width: 0
XAxis mode: Wavelengths
Number of Pixels in Spectrum: 1044
>>>>>Begin Spectral Data<<<<<
784.041	10.5
784.3	1.5
784.558	-0.5
784.817	-2.5
785.075	113894.5
785.334	19887.5
785.592	9394.5
785.851	6505.5
786.109	4923.5
786.368	3746.5
786.626	3044.5
786.884	2513.5
787.143	2128.5
787.401	1782.5
787.659	1587.5
787.917	1320.5
788.175	1210.5
788.433	1048.5
788.691	932.5
788.949	877.5
789.207	784.5
789.465	694.5
789.723	679.5
789.98	613.5
790.238	652.5
790.496	599.5
790.753	575.5
791.011	613.5
791.268	537.5
791.526	536.5
791.783	546.5
792.041	514.5
792.298	423.5
792.556	494.5
792.813	478.5
793.07	444.5
793.327	442.5
793.584	531.5
793.841	437.5
794.099	458.5
794.356	513.5
794.613	425.5
794.869	462.5
795.126	413.5
795.383	395.5
795.64	403.5
795.897	359.5
796.153	419.5
796.41	404.5
796.667	388.5
796.923	406.5
797.18	394.5
797.436	426.5
797.693	382.5
797.949	423.5
798.206	465.5
798.462	359.5
798.718	431.5
798.974	399.5
799.231	434.5
799.487	415.5
799.743	431.5
799.999	444.5
800.255	444.5
800.511	416.5
800.767	457.5
801.023	441.5
801.279	458.5
801.534	477.5
801.79	493.5
802.046	494.5
802.302	575.5
802.557	610.5
802.813	712.5
803.068	802.5
803.324	1059.5
803.579	1347.5
803.835	1751.5
804.09	2393.5
804.345	3082.5
804.601	3853.5
804.856	4625.5
805.111	5353.5
805.366	5836.5
805.621	6216.5
805.876	6471.5
806.131	6596.5
806.386	6676.5
806.641	6772.5
806.896	6909.5
807.151	7080.5
807.406	7103.5
807.661	7221.5
807.915	7340.5
808.17	7361.5
808.425	7436.5
808.679	7485.5
808.934	7623.5
809.188	7607.5
809.443	7723.5
809.697	7799.5
809.951	7805.5
810.206	7798.5
810.46	7956.5
810.714	7948.5
810.968	8117.5
811.223	8067.5
811.477	8169.5
811.731	8205.5
811.985	8178.5
812.239	8209.5
812.493	8325.5
812.747	8291.5
813	8257.5
813.254	8378.5
813.508	8381.5
813.762	8383.5
814.015	8377.5
814.269	8480.5
814.522	8566.5
814.776	8693.5
815.03	8704.5
815.283	8908.5
815.536	9010.5
815.79	9071.5
816.043	9207.5
816.296	9263.5
816.55	9440.5
816.803	9448.5
817.056	9624.5
817.309	9696.5
817.562	9654.5
817.815	9790.5
818.068	9785.5
818.321	9903.5
818.574	10014.5
818.827	10169.5
819.079	10299.5
819.332	10542.5
819.585	10606.5
819.838	10729.5
820.09	10722.5
820.343	10829.5
820.595	10835.5
820.848	10896.5
821.1	10972.5
821.353	10935.5
821.605	10968.5
821.857	11031.5
822.11	10941.5
822.362	10894.5
822.614	10860.5
822.866	10943.5
823.118	10905.5
823.37	11015.5
823.622	10979.5
823.874	10986.5
824.126	11094.5
824.378	11061.5
824.63	11011.5
824.882	11145.5
825.134	11047.5
825.385	11085.5
825.637	11084.5
825.888	10977.5
826.14	10926.5
826.392	10879.5
826.643	10807.5
826.895	10836.5
827.146	10755.5
827.397	10651.5
827.649	10804.5
827.9	10645.5
828.151	10696.5
828.402	10712.5
828.653	10740.5
828.905	10758.5
829.156	10837.5
829.407	10726.5
829.658	10769.5
829.909	10856.5
830.159	10844.5
830.41	10769.5
830.661	10689.5
830.912	10634.5
831.162	10565.5
831.413	10587.5
831.664	10522.5
831.914	10572.5
832.165	10548.5
832.415	10502.5
832.666	10556.5
832.916	10573.5
833.167	10505.5
833.417	10488.5
833.667	10555.5
833.917	10509.5
834.168	10491.5
834.418	10493.5
834.668	10400.5
834.918	10315.5
835.168	10271.5
835.418	10271.5
835.668	10296.5
835.918	10256.5
836.167	10184.5
836.417	10186.5
836.667	10196.5
836.917	10174.5
837.166	10140.5
837.416	10187.5
837.666	10139.5
837.915	10064.5
838.165	10137.5
838.414	9943.5
838.663	10049.5
838.913	9999.5
839.162	9911.5
839.411	9994.5
839.661	9837.5
839.91	9860.5
840.159	9906.5
840.408	9897.5
840.657	9875.5
840.906	9896.5
841.155	9929.5
841.404	9876.5
841.653	9916.5
841.902	9808.5
842.15	9860.5
842.399	9925.5
842.648	9904.5
842.897	9851.5
843.145	9697.5
843.394	9762.5
843.642	9628.5
843.891	9646.5
844.139	9562.5
844.388	9557.5
844.636	9473.5
844.884	9469.5
845.133	9395.5
845.381	9425.5
845.629	9456.5
845.877	9408.5
846.125	9399.5
846.373	9424.5
846.621	9417.5
846.869	9349.5
847.117	9357.5
847.365	9231.5
847.613	9228.5
847.861	9230.5
848.108	9209.5
848.356	9229.5
848.604	9072.5
848.851	9198.5
849.099	9193.5
849.346	9154.5
849.594	9203.5
849.841	9292.5
850.089	9260.5
850.336	9202.5
850.583	9256.5
850.831	9187.5
851.078	9178.5
851.325	9170.5
851.572	9172.5
851.819	9047.5
852.066	8887.5
852.313	8801.5
852.56	8751.5
852.807	8719.5
853.054	8672.5
853.301	8696.5
853.548	8673.5
853.794	8860.5
854.041	8757.5
854.288	8768.5
854.534	9003.5
854.781	8816.5
855.028	8848.5
855.274	8885.5
855.52	8742.5
855.767	8701.5
856.013	8743.5
856.26	9049.5
856.506	8578.5
856.752	8593.5
856.998	8575.5
857.244	8527.5
857.49	8719.5
857.736	8721.5
857.982	8660.5
858.228	8705.5
858.474	8581.5
858.72	8561.5
858.966	8477.5
859.212	8429.5
859.458	8290.5
859.703	8209.5
859.949	8127.5
860.195	8140.5
860.44	8083.5
860.686	8025.5
860.931	8064.5
861.177	7923.5
861.422	8018.5
861.667	7948.5
861.913	7946.5
862.158	7927.5
862.403	8038.5
862.648	8017.5
862.893	8038.5
863.138	7969.5
863.384	7919.5
863.629	7980.5
863.873	7940.5
864.118	7917.5
864.363	7850.5
864.608	7885.5
864.853	7849.5
865.098	7768.5
865.342	7789.5
865.587	7743.5
865.832	7757.5
866.076	7732.5
866.321	7613.5
866.565	7599.5
866.81	7570.5
867.054	7600.5
867.298	7624.5
867.543	7555.5
867.787	7614.5
868.031	7561.5
868.275	7595.5
868.519	7464.5
868.764	7474.5
869.008	7473.5
869.252	7488.5
869.496	7438.5
869.739	7465.5
869.983	7416.5
870.227	7468.5
870.471	7356.5
870.715	7418.5
870.958	7445.5
871.202	7361.5
871.446	7435.5
871.689	7341.5
871.933	7438.5
872.176	7428.5
872.42	7391.5
872.663	7398.5
872.906	7411.5
873.15	7285.5
873.393	7250.5
873.636	7334.5
873.879	7231.5
874.122	7200.5
874.366	7037.5
874.609	7068.5
874.852	7056.5
875.095	6928.5
875.337	6931.5
875.58	6883.5
875.823	6888.5
876.066	6893.5
876.309	6973.5
876.551	6807.5
876.794	6759.5
877.037	6836.5
877.279	6666.5
877.522	6752.5
877.764	6719.5
878.007	6690.5
878.249	6734.5
878.491	6713.5
878.734	6688.5
878.976	6724.5
879.218	6605.5
879.46	6626.5
879.702	6603.5
879.945	6493.5
880.187	6455.5
880.429	6490.5
880.671	6418.5
880.912	6411.5
881.154	6333.5
881.396	6290.5
881.638	6329.5
881.88	6343.5
882.121	6271.5
882.363	6285.5
882.605	6299.5
882.846	6255.5
883.088	6299.5
883.329	6225.5
883.571	6206.5
883.812	6275.5
884.053	6330.5
884.295	6396.5
884.536	6549.5
884.777	6491.5
885.018	6460.5
885.259	6467.5
885.5	6346.5
885.742	6617.5
885.982	6403.5
886.223	6293.5
886.464	6236.5
886.705	6171.5
886.946	6161.5
887.187	6113.5
887.428	6091.5
887.668	5934.5
887.909	5860.5
888.15	5838.5
888.39	5837.5
888.631	5826.5
888.871	5829.5
889.111	5702.5
889.352	5688.5
889.592	5617.5
889.833	5619.5
890.073	5530.5
890.313	5572.5
890.553	5464.5
890.793	5466.5
891.033	5466.5
891.273	5369.5
891.513	5408.5
891.753	5431.5
891.993	5397.5
892.233	5432.5
892.473	5502.5
892.713	5431.5
892.952	5371.5
893.192	5405.5
893.432	5395.5
893.671	5348.5
893.911	5338.5
894.15	5359.5
894.39	5221.5
894.629	5222.5
894.869	5283.5
895.108	5195.5
895.347	5152.5
895.587	5160.5
895.826	5131.5
896.065	5117.5
896.304	5131.5
896.543	5159.5
896.782	5033.5
897.021	5084.5
897.26	5066.5
897.499	5082.5
897.738	5075.5
897.977	4977.5
898.216	4970.5
898.454	4844.5
898.693	4818.5
898.932	4868.5
899.17	4819.5
899.409	4812.5
899.647	4814.5
899.886	4759.5
900.124	4805.5
900.363	4754.5
900.601	4803.5
900.839	4788.5
901.078	4813.5
901.316	4806.5
901.554	4802.5
901.792	4836.5
902.03	4774.5
902.268	4782.5
902.506	4785.5
902.744	4744.5
902.982	4767.5
903.22	4660.5
903.458	4644.5
903.695	4599.5
903.933	4572.5
904.171	4499.5
904.409	4430.5
904.646	4457.5
904.884	4330.5
905.121	4364.5
905.359	4254.5
905.596	4234.5
905.833	4195.5
906.071	4174.5
906.308	4219.5
906.545	4193.5
906.783	4120.5
907.02	4165.5
907.257	4166.5
907.494	4155.5
907.731	4127.5
907.968	4151.5
908.205	4060.5
908.442	4031.5
908.679	4031.5
908.915	4036.5
909.152	3980.5
909.389	3914.5
909.626	3893.5
909.862	3893.5
910.099	3912.5
910.335	3885.5
910.572	3764.5
910.808	3873.5
911.045	3835.5
911.281	3808.5
911.518	3884.5
911.754	3757.5
911.99	3793.5
912.226	3744.5
912.463	3657.5
912.699	3676.5
912.935	3661.5
913.171	3664.5
913.407	3608.5
913.643	3659.5
913.879	3603.5
914.114	3523.5
914.35	3527.5
914.586	3481.5
914.822	3429.5
915.057	3517.5
915.293	3330.5
915.529	3374.5
915.764	3392.5
916	3393.5
916.235	3401.5
916.471	3391.5
916.706	3249.5
916.941	3328.5
917.177	3353.5
917.412	3363.5
917.647	3396.5
917.882	3258.5
918.117	3376.5
918.352	3288.5
918.588	3358.5
918.823	3260.5
919.057	3256.5
919.292	3138.5
919.527	3263.5
919.762	3147.5
919.997	3179.5
920.232	3122.5
920.466	3140.5
920.701	3014.5
920.935	3046.5
921.17	3024.5
921.405	2988.5
921.639	3042.5
921.873	2970.5
922.108	3027.5
922.342	2983.5
922.576	2938.5
922.811	2907.5
923.045	2947.5
923.279	2953.5
923.513	2851.5
923.747	2921.5
923.981	2938.5
924.215	2845.5
924.449	2820.5
924.683	2808.5
924.917	2799.5
925.151	2788.5
925.385	2859.5
925.618	2798.5
925.852	2802.5
926.086	2720.5
926.319	2778.5
926.553	2741.5
926.786	2770.5
927.02	2781.5
927.253	2795.5
927.486	2808.5
927.72	2671.5
927.953	2743.5
928.186	2730.5
928.42	2752.5
928.653	2678.5
928.886	2662.5
929.119	2678.5
929.352	2658.5
929.585	2677.5
929.818	2626.5
930.051	2648.5
930.284	2641.5
930.516	2527.5
930.749	2554.5
930.982	2586.5
931.215	2559.5
931.447	2508.5
931.68	2517.5
931.912	2490.5
932.145	2504.5
932.377	2543.5
932.61	2651.5
932.842	2463.5
933.074	2498.5
933.307	2461.5
933.539	2570.5
933.771	2549.5
934.003	2490.5
934.236	2551.5
934.468	2578.5
934.7	2460.5
934.932	2506.5
935.164	2467.5
935.395	2432.5
935.627	2480.5
935.859	2459.5
936.091	2427.5
936.323	2456.5
936.554	2458.5
936.786	2445.5
937.017	2365.5
937.249	2439.5
937.481	2356.5
937.712	2436.5
937.943	2401.5
938.175	2377.5
938.406	2353.5
938.637	2425.5
938.869	2317.5
939.1	2405.5
939.331	2369.5
939.562	2370.5
939.793	2403.5
940.024	2365.5
940.255	2344.5
940.486	2322.5
940.717	2297.5
940.948	2311.5
941.179	2270.5
941.409	2265.5
941.64	2287.5
941.871	2286.5
942.102	2264.5
942.332	2266.5
942.563	2293.5
942.793	2307.5
943.024	2262.5
943.254	2275.5
943.484	2318.5
943.715	2320.5
943.945	2247.5
944.175	2241.5
944.405	2227.5
944.636	2247.5
944.866	2264.5
945.096	2268.5
945.326	2192.5
945.556	2248.5
945.786	2264.5
946.016	2244.5
946.245	2143.5
946.475	2164.5
946.705	2189.5
946.935	2188.5
947.164	2177.5
947.394	2110.5
947.624	2141.5
947.853	2176.5
948.083	2140.5
948.312	2090.5
948.542	2068.5
948.771	2061.5
949	2075.5
949.23	2085.5
949.459	2079.5
949.688	2124.5
949.917	2068.5
950.146	2107.5
950.375	2129.5
950.604	2026.5
950.833	2131.5
951.062	2136.5
951.291	2069.5
951.52	2038.5
951.749	2089.5
951.978	1987.5
952.206	2044.5
952.435	2027.5
952.664	2038.5
952.892	2038.5
953.121	2033.5
953.349	2055.5
953.578	2052.5
953.806	2013.5
954.035	1969.5
954.263	2020.5
954.491	1956.5
954.719	1984.5
954.948	1954.5
955.176	1945.5
955.404	1888.5
955.632	1952.5
955.86	1943.5
956.088	1903.5
956.316	1954.5
956.544	2005.5
956.772	1910.5
956.999	1868.5
957.227	1950.5
957.455	1881.5
957.683	1912.5
957.91	1856.5
958.138	1832.5
958.365	1835.5
958.593	1845.5
958.82	1774.5
959.048	1847.5
959.275	1843.5
959.502	1824.5
959.73	1809.5
959.957	1858.5
960.184	1860.5
960.411	1812.5
960.638	1868.5
960.865	1823.5
961.092	1839.5
961.319	1761.5
961.546	1831.5
961.773	1831.5
962	1795.5
962.227	1838.5
962.454	1819.5
962.68	1806.5
962.907	1801.5
963.134	1750.5
963.36	1766.5
963.587	1805.5
963.813	1724.5
964.04	1785.5
964.266	1718.5
964.493	1795.5
964.719	1786.5
964.945	1796.5
965.171	1677.5
965.398	1706.5
965.624	1755.5
965.85	1675.5
966.076	1691.5
966.302	1715.5
966.528	1690.5
966.754	1715.5
966.98	1713.5
967.206	1698.5
967.431	1619.5
967.657	1722.5
967.883	1699.5
968.109	1674.5
968.334	1645.5
968.56	1647.5
968.785	1624.5
969.011	1568.5
969.236	1658.5
969.462	1584.5
969.687	1613.5
969.912	1672.5
970.138	1662.5
970.363	1589.5
970.588	1609.5
970.813	1597.5
971.038	1579.5
971.263	1611.5
971.488	1614.5
971.713	1649.5
971.938	1624.5
972.163	1529.5
972.388	1558.5
972.613	1550.5
972.838	1577.5
973.062	1567.5
973.287	1556.5
973.512	1475.5
973.736	1528.5
973.961	1531.5
974.185	1511.5
974.41	1538.5
974.634	1425.5
974.858	1491.5
975.083	1502.5
975.307	1510.5
975.531	1470.5
975.755	1403.5
975.98	1429.5
976.204	1375.5
976.428	1397.5
976.652	1381.5
976.876	1366.5
977.1	1416.5
977.324	1352.5
977.547	1429.5
977.771	1428.5
977.995	1396.5
978.219	1360.5
978.442	1446.5
978.666	1412.5
978.89	1411.5
979.113	1417.5
979.337	1384.5
979.56	1366.5
979.783	1434.5
980.007	1321.5
980.23	1370.5
980.453	1344.5
980.677	1379.5
980.9	1353.5
981.123	1274.5
981.346	1375.5
981.569	1351.5
981.792	1373.5
982.015	1341.5
982.238	1294.5
982.461	1336.5
982.684	1292.5
982.907	1292.5
983.129	1297.5
983.352	1336.5
983.575	1309.5
983.797	1305.5
984.02	1263.5
984.242	1284.5
984.465	1282.5
984.687	1315.5
984.91	1337.5
985.132	1313.5
985.354	1313.5
985.577	1292.5
985.799	1266.5
986.021	1213.5
986.243	1257.5
986.465	1245.5
986.687	1303.5
986.909	1319.5
987.131	1262.5
987.353	1236.5
987.575	1283.5
987.797	1265.5
988.019	1185.5
988.241	1252.5
988.462	1189.5
988.684	1279.5
988.906	1308.5
989.127	1308.5
989.349	1174.5
989.57	1248.5
989.792	1261.5
990.013	1284.5
990.234	1315.5
990.456	1274.5
990.677	1275.5
990.898	1226.5
991.119	1221.5
991.341	1254.5
991.562	1201.5
991.783	1237.5
992.004	1189.5
992.225	1169.5
992.446	1211.5
992.667	1138.5
992.887	1200.5
993.108	1099.5
993.329	1269.5
993.55	1200.5
993.77	1121.5
993.991	1158.5
994.212	1190.5
994.432	1182.5
994.653	1185.5
994.873	1191.5
995.093	1062.5
995.314	1118.5
995.534	1203.5
995.754	1207.5
995.975	1232.5
996.195	1093.5
996.415	1178.5
996.635	1120.5
996.855	1129.5
997.075	1131.5
997.295	1134.5
997.515	1097.5
997.735	1164.5
997.955	1143.5
998.174	1134.5
998.394	1104.5
998.614	1137.5
998.834	1113.5
999.053	1159.5
999.273	1137.5
999.492	1189.5
999.712	1160.5
999.931	1102.5
1000.151	1159.5
1000.37	1120.5
1000.589	1175.5
1000.809	1102.5
1001.028	1217.5
1001.247	1170.5
1001.466	1074.5
1001.685	1191.5
1001.904	1165.5
1002.123	1131.5
1002.342	1160.5
1002.561	1102.5
1002.78	1113.5
1002.999	1176.5
1003.218	1144.5
1003.436	1126.5
1003.655	1151.5
1003.874	1111.5
1004.092	1133.5
1004.311	1186.5
1004.53	1150.5
1004.748	1202.5
1004.966	1114.5
1005.185	1183.5
1005.403	1166.5
1005.622	1154.5
1005.84	1236.5
1006.058	1137.5
1006.276	1131.5
1006.494	1630.5
1006.712	1138.5
1006.931	1197.5
1007.149	1098.5
1007.367	1119.5
1007.584	1128.5
1007.802	1169.5
1008.02	1107.5
1008.238	1219.5
1008.456	1191.5
1008.673	1063.5
1008.891	1175.5
1009.109	1129.5
1009.326	1162.5
1009.544	1244.5
1009.761	1130.5
1009.979	1206.5
1010.196	1195.5
1010.413	1285.5
1010.631	1279.5
1010.848	1306.5
1011.065	1313.5
1011.282	1258.5
1011.5	1191.5
1011.717	1314.5
1011.934	1248.5
1012.151	1271.5
1012.368	1262.5
1012.585	1203.5
1012.801	1258.5
1013.018	1230.5
1013.235	1177.5
1013.452	1204.5
1013.669	1209.5
1013.885	1193.5
1014.102	1217.5
1014.318	1200.5
1014.535	1130.5
1014.751	1197.5
1014.968	1186.5
1015.184	1221.5
1015.401	1131.5
1015.617	1177.5
1015.833	1141.5
1016.049	1114.5
1016.266	1112.5
1016.482	1117.5
1016.698	1051.5
1016.914	1114.5
1017.13	1080.5
1017.346	1082.5
1017.562	1110.5
1017.778	1073.5
1017.993	1022.5
1018.209	1079.5
1018.425	1055.5
1018.641	1038.5
1018.856	1014.5
1019.072	1038.5
1019.288	1091.5
1019.503	1015.5
1019.719	941.5
1019.934	969.5
1020.149	1049.5
1020.365	1003.5
1020.58	942.5
1020.795	1011.5
1021.011	952.5
1021.226	939.5
1021.441	984.5
1021.656	896.5
1021.871	834.5
1022.086	855.5
1022.301	866.5
1022.516	859.5
1022.731	915.5
1022.946	834.5
1023.16	801.5
1023.375	801.5
1023.59	785.5
1023.804	761.5
1024.019	875.5
1024.234	763.5
1024.448	795.5
1024.663	711.5
1024.877	722.5
1025.092	759.5
1025.306	763.5
1025.52	678.5
1025.734	767.5
1025.949	678.5
1026.163	676.5
1026.377	623.5
1026.591	672.5
1026.805	616.5
1027.019	626.5
1027.233	571.5
1027.447	540.5
1027.661	627.5
1027.875	577.5
1028.088	583.5
1028.302	521.5
1028.516	520.5
1028.73	529.5
1028.943	539.5
1029.157	488.5
1029.37	457.5
1029.584	1.5
1029.797	-2.5
1030.011	-4.5
1030.224	-3.5
