Data from QEP037381__47__10-03-29-928.txt Node

Date: Wed Dec 21 10:03:29 EST 2022
User: dcclab
Spectrometer: QEP03738
Trigger mode: 4
Integration Time (sec): 1.000000E1
Scans to average: 1
Electric dark correction enabled: true
Nonlinearity correction enabled: false
Boxcar width: 0
XAxis mode: Wavelengths
Number of Pixels in Spectrum: 1044
>>>>>Begin Spectral Data<<<<<
784.041	10.75
784.3	-1.25
784.558	-1.25
784.817	-2.25
785.075	118957.75
785.334	19755.75
785.592	9009.75
785.851	6195.75
786.109	4601.75
786.368	3554.75
786.626	2873.75
786.884	2382.75
787.143	1999.75
787.401	1651.75
787.659	1458.75
787.917	1252.75
788.175	1138.75
788.433	1004.75
788.691	904.75
788.949	826.75
789.207	785.75
789.465	695.75
789.723	651.75
789.98	609.75
790.238	629.75
790.496	589.75
790.753	578.75
791.011	614.75
791.268	551.75
791.526	538.75
791.783	531.75
792.041	529.75
792.298	432.75
792.556	504.75
792.813	466.75
793.07	449.75
793.327	433.75
793.584	509.75
793.841	443.75
794.099	473.75
794.356	506.75
794.613	420.75
794.869	458.75
795.126	421.75
795.383	394.75
795.64	406.75
795.897	378.75
796.153	407.75
796.41	405.75
796.667	392.75
796.923	399.75
797.18	386.75
797.436	425.75
797.693	379.75
797.949	428.75
798.206	445.75
798.462	373.75
798.718	415.75
798.974	396.75
799.231	439.75
799.487	412.75
799.743	427.75
799.999	454.75
800.255	445.75
800.511	413.75
800.767	445.75
801.023	437.75
801.279	445.75
801.534	473.75
801.79	496.75
802.046	484.75
802.302	577.75
802.557	589.75
802.813	677.75
803.068	756.75
803.324	1003.75
803.579	1252.75
803.835	1646.75
804.09	2201.75
804.345	2831.75
804.601	3504.75
804.856	4241.75
805.111	4882.75
805.366	5332.75
805.621	5664.75
805.876	5874.75
806.131	6012.75
806.386	6054.75
806.641	6167.75
806.896	6262.75
807.151	6404.75
807.406	6447.75
807.661	6483.75
807.915	6583.75
808.17	6650.75
808.425	6760.75
808.679	6758.75
808.934	6887.75
809.188	6902.75
809.443	6930.75
809.697	7061.75
809.951	7024.75
810.206	7057.75
810.46	7184.75
810.714	7199.75
810.968	7254.75
811.223	7297.75
811.477	7355.75
811.731	7424.75
811.985	7377.75
812.239	7380.75
812.493	7462.75
812.747	7529.75
813	7496.75
813.254	7508.75
813.508	7625.75
813.762	7473.75
814.015	7573.75
814.269	7657.75
814.522	7739.75
814.776	7809.75
815.03	7856.75
815.283	7970.75
815.536	8047.75
815.79	8174.75
816.043	8268.75
816.296	8313.75
816.55	8438.75
816.803	8494.75
817.056	8681.75
817.309	8696.75
817.562	8738.75
817.815	8846.75
818.068	8863.75
818.321	8849.75
818.574	8962.75
818.827	9152.75
819.079	9265.75
819.332	9476.75
819.585	9449.75
819.838	9674.75
820.09	9612.75
820.343	9714.75
820.595	9699.75
820.848	9792.75
821.1	9822.75
821.353	9871.75
821.605	9817.75
821.857	9879.75
822.11	9685.75
822.362	9746.75
822.614	9699.75
822.866	9805.75
823.118	9711.75
823.37	9857.75
823.622	9817.75
823.874	9848.75
824.126	9994.75
824.378	9916.75
824.63	9924.75
824.882	9960.75
825.134	9916.75
825.385	9927.75
825.637	9852.75
825.888	9819.75
826.14	9708.75
826.392	9734.75
826.643	9670.75
826.895	9676.75
827.146	9596.75
827.397	9558.75
827.649	9699.75
827.9	9540.75
828.151	9558.75
828.402	9554.75
828.653	9668.75
828.905	9629.75
829.156	9685.75
829.407	9647.75
829.658	9650.75
829.909	9741.75
830.159	9656.75
830.41	9609.75
830.661	9533.75
830.912	9442.75
831.162	9498.75
831.413	9368.75
831.664	9541.75
831.914	9446.75
832.165	9432.75
832.415	9599.75
832.666	9444.75
832.916	9536.75
833.167	9400.75
833.417	9487.75
833.667	9435.75
833.917	9375.75
834.168	9408.75
834.418	9471.75
834.668	9348.75
834.918	9315.75
835.168	9292.75
835.418	9216.75
835.668	9249.75
835.918	9223.75
836.167	9154.75
836.417	9149.75
836.667	9157.75
836.917	9159.75
837.166	9106.75
837.416	9078.75
837.666	9082.75
837.915	9050.75
838.165	9034.75
838.414	8946.75
838.663	8899.75
838.913	9016.75
839.162	8886.75
839.411	8994.75
839.661	8915.75
839.91	8871.75
840.159	8864.75
840.408	8888.75
840.657	8847.75
840.906	8903.75
841.155	8839.75
841.404	8834.75
841.653	8885.75
841.902	8814.75
842.15	8825.75
842.399	8844.75
842.648	8900.75
842.897	8900.75
843.145	8803.75
843.394	8696.75
843.642	8704.75
843.891	8695.75
844.139	8574.75
844.388	8524.75
844.636	8491.75
844.884	8554.75
845.133	8501.75
845.381	8489.75
845.629	8514.75
845.877	8391.75
846.125	8503.75
846.373	8461.75
846.621	8450.75
846.869	8494.75
847.117	8379.75
847.365	8263.75
847.613	8335.75
847.861	8313.75
848.108	8302.75
848.356	8263.75
848.604	8211.75
848.851	8275.75
849.099	8272.75
849.346	8289.75
849.594	8318.75
849.841	8329.75
850.089	8343.75
850.336	8277.75
850.583	8376.75
850.831	8289.75
851.078	8245.75
851.325	8191.75
851.572	8204.75
851.819	8195.75
852.066	8078.75
852.313	7904.75
852.56	7900.75
852.807	7815.75
853.054	7827.75
853.301	7836.75
853.548	7808.75
853.794	7954.75
854.041	7918.75
854.288	7962.75
854.534	8047.75
854.781	7987.75
855.028	7974.75
855.274	8053.75
855.52	7881.75
855.767	7820.75
856.013	7903.75
856.26	8130.75
856.506	7760.75
856.752	7725.75
856.998	7764.75
857.244	7746.75
857.49	7852.75
857.736	7828.75
857.982	7817.75
858.228	7809.75
858.474	7702.75
858.72	7697.75
858.966	7634.75
859.212	7612.75
859.458	7524.75
859.703	7408.75
859.949	7307.75
860.195	7309.75
860.44	7300.75
860.686	7259.75
860.931	7288.75
861.177	7168.75
861.422	7240.75
861.667	7159.75
861.913	7135.75
862.158	7200.75
862.403	7279.75
862.648	7265.75
862.893	7262.75
863.138	7218.75
863.384	7159.75
863.629	7190.75
863.873	7171.75
864.118	7122.75
864.363	7038.75
864.608	7111.75
864.853	7116.75
865.098	6997.75
865.342	7034.75
865.587	6955.75
865.832	6992.75
866.076	6952.75
866.321	6874.75
866.565	6866.75
866.81	6855.75
867.054	6811.75
867.298	6842.75
867.543	6852.75
867.787	6807.75
868.031	6751.75
868.275	6741.75
868.519	6782.75
868.764	6759.75
869.008	6770.75
869.252	6777.75
869.496	6750.75
869.739	6722.75
869.983	6733.75
870.227	6708.75
870.471	6697.75
870.715	6743.75
870.958	6711.75
871.202	6703.75
871.446	6737.75
871.689	6671.75
871.933	6709.75
872.176	6736.75
872.42	6727.75
872.663	6734.75
872.906	6752.75
873.15	6696.75
873.393	6569.75
873.636	6673.75
873.879	6590.75
874.122	6554.75
874.366	6422.75
874.609	6429.75
874.852	6321.75
875.095	6299.75
875.337	6267.75
875.58	6185.75
875.823	6232.75
876.066	6285.75
876.309	6269.75
876.551	6161.75
876.794	6120.75
877.037	6163.75
877.279	6088.75
877.522	6095.75
877.764	6089.75
878.007	6120.75
878.249	6094.75
878.491	6063.75
878.734	6097.75
878.976	6049.75
879.218	5959.75
879.46	6017.75
879.702	5983.75
879.945	5941.75
880.187	5793.75
880.429	5869.75
880.671	5858.75
880.912	5778.75
881.154	5734.75
881.396	5645.75
881.638	5691.75
881.88	5736.75
882.121	5671.75
882.363	5688.75
882.605	5752.75
882.846	5699.75
883.088	5702.75
883.329	5644.75
883.571	5625.75
883.812	5696.75
884.053	5812.75
884.295	5928.75
884.536	6035.75
884.777	5957.75
885.018	5963.75
885.259	5886.75
885.5	5843.75
885.742	6104.75
885.982	5833.75
886.223	5692.75
886.464	5699.75
886.705	5628.75
886.946	5567.75
887.187	5490.75
887.428	5520.75
887.668	5382.75
887.909	5310.75
888.15	5264.75
888.39	5269.75
888.631	5295.75
888.871	5244.75
889.111	5160.75
889.352	5121.75
889.592	5081.75
889.833	5062.75
890.073	5010.75
890.313	5043.75
890.553	4948.75
890.793	4971.75
891.033	4926.75
891.273	4886.75
891.513	4910.75
891.753	4918.75
891.993	4861.75
892.233	4949.75
892.473	4945.75
892.713	4881.75
892.952	4845.75
893.192	4855.75
893.432	4829.75
893.671	4901.75
893.911	4813.75
894.15	4813.75
894.39	4708.75
894.629	4736.75
894.869	4793.75
895.108	4726.75
895.347	4624.75
895.587	4696.75
895.826	4625.75
896.065	4591.75
896.304	4642.75
896.543	4597.75
896.782	4530.75
897.021	4553.75
897.26	4533.75
897.499	4620.75
897.738	4590.75
897.977	4513.75
898.216	4474.75
898.454	4462.75
898.693	4422.75
898.932	4413.75
899.17	4393.75
899.409	4382.75
899.647	4391.75
899.886	4293.75
900.124	4357.75
900.363	4298.75
900.601	4342.75
900.839	4371.75
901.078	4388.75
901.316	4363.75
901.554	4376.75
901.792	4411.75
902.03	4342.75
902.268	4403.75
902.506	4404.75
902.744	4367.75
902.982	4312.75
903.22	4243.75
903.458	4209.75
903.695	4209.75
903.933	4170.75
904.171	4085.75
904.409	4046.75
904.646	4053.75
904.884	3946.75
905.121	3952.75
905.359	3908.75
905.596	3875.75
905.833	3784.75
906.071	3796.75
906.308	3835.75
906.545	3788.75
906.783	3746.75
907.02	3792.75
907.257	3709.75
907.494	3711.75
907.731	3750.75
907.968	3748.75
908.205	3694.75
908.442	3708.75
908.679	3696.75
908.915	3636.75
909.152	3627.75
909.389	3531.75
909.626	3544.75
909.862	3501.75
910.099	3548.75
910.335	3549.75
910.572	3483.75
910.808	3513.75
911.045	3460.75
911.281	3474.75
911.518	3546.75
911.754	3431.75
911.99	3466.75
912.226	3387.75
912.463	3326.75
912.699	3330.75
912.935	3351.75
913.171	3297.75
913.407	3243.75
913.643	3297.75
913.879	3276.75
914.114	3219.75
914.35	3217.75
914.586	3170.75
914.822	3124.75
915.057	3182.75
915.293	3042.75
915.529	3011.75
915.764	3095.75
916	3092.75
916.235	3091.75
916.471	3112.75
916.706	3021.75
916.941	3014.75
917.177	3019.75
917.412	3041.75
917.647	3061.75
917.882	3006.75
918.117	3039.75
918.352	2987.75
918.588	3054.75
918.823	2941.75
919.057	2970.75
919.292	2814.75
919.527	2922.75
919.762	2875.75
919.997	2884.75
920.232	2821.75
920.466	2829.75
920.701	2737.75
920.935	2773.75
921.17	2755.75
921.405	2709.75
921.639	2766.75
921.873	2746.75
922.108	2721.75
922.342	2744.75
922.576	2654.75
922.811	2693.75
923.045	2687.75
923.279	2737.75
923.513	2581.75
923.747	2693.75
923.981	2676.75
924.215	2623.75
924.449	2583.75
924.683	2543.75
924.917	2542.75
925.151	2548.75
925.385	2605.75
925.618	2551.75
925.852	2487.75
926.086	2470.75
926.319	2550.75
926.553	2523.75
926.786	2530.75
927.02	2527.75
927.253	2538.75
927.486	2545.75
927.72	2467.75
927.953	2535.75
928.186	2459.75
928.42	2501.75
928.653	2484.75
928.886	2438.75
929.119	2476.75
929.352	2468.75
929.585	2419.75
929.818	2389.75
930.051	2425.75
930.284	2423.75
930.516	2338.75
930.749	2319.75
930.982	2359.75
931.215	2350.75
931.447	2284.75
931.68	2292.75
931.912	2321.75
932.145	2279.75
932.377	2310.75
932.61	2406.75
932.842	2239.75
933.074	2326.75
933.307	2271.75
933.539	2346.75
933.771	2351.75
934.003	2268.75
934.236	2347.75
934.468	2359.75
934.7	2286.75
934.932	2315.75
935.164	2248.75
935.395	2237.75
935.627	2252.75
935.859	2254.75
936.091	2191.75
936.323	2244.75
936.554	2251.75
936.786	2211.75
937.017	2200.75
937.249	2218.75
937.481	2162.75
937.712	2217.75
937.943	2199.75
938.175	2189.75
938.406	2183.75
938.637	2247.75
938.869	2131.75
939.1	2201.75
939.331	2158.75
939.562	2186.75
939.793	2149.75
940.024	2166.75
940.255	2210.75
940.486	2138.75
940.717	2112.75
940.948	2112.75
941.179	2080.75
941.409	2090.75
941.64	2106.75
941.871	2081.75
942.102	2058.75
942.332	2097.75
942.563	2124.75
942.793	2135.75
943.024	2051.75
943.254	2081.75
943.484	2121.75
943.715	2156.75
943.945	2090.75
944.175	2016.75
944.405	2005.75
944.636	2046.75
944.866	2061.75
945.096	2077.75
945.326	2016.75
945.556	2060.75
945.786	2087.75
946.016	2043.75
946.245	1963.75
946.475	1990.75
946.705	2002.75
946.935	1951.75
947.164	2004.75
947.394	1971.75
947.624	1980.75
947.853	2031.75
948.083	1967.75
948.312	1936.75
948.542	1883.75
948.771	1875.75
949	1877.75
949.23	1920.75
949.459	1915.75
949.688	1985.75
949.917	1952.75
950.146	1958.75
950.375	1981.75
950.604	1884.75
950.833	1972.75
951.062	1984.75
951.291	1886.75
951.52	1872.75
951.749	1924.75
951.978	1866.75
952.206	1861.75
952.435	1854.75
952.664	1910.75
952.892	1875.75
953.121	1882.75
953.349	1879.75
953.578	1916.75
953.806	1849.75
954.035	1831.75
954.263	1857.75
954.491	1812.75
954.719	1847.75
954.948	1816.75
955.176	1767.75
955.404	1723.75
955.632	1799.75
955.86	1818.75
956.088	1806.75
956.316	1790.75
956.544	1817.75
956.772	1764.75
956.999	1751.75
957.227	1832.75
957.455	1733.75
957.683	1758.75
957.91	1712.75
958.138	1682.75
958.365	1694.75
958.593	1687.75
958.82	1652.75
959.048	1739.75
959.275	1705.75
959.502	1714.75
959.73	1676.75
959.957	1695.75
960.184	1704.75
960.411	1675.75
960.638	1722.75
960.865	1703.75
961.092	1701.75
961.319	1608.75
961.546	1723.75
961.773	1693.75
962	1670.75
962.227	1719.75
962.454	1667.75
962.68	1666.75
962.907	1669.75
963.134	1608.75
963.36	1665.75
963.587	1678.75
963.813	1597.75
964.04	1665.75
964.266	1588.75
964.493	1702.75
964.719	1641.75
964.945	1655.75
965.171	1556.75
965.398	1610.75
965.624	1630.75
965.85	1541.75
966.076	1538.75
966.302	1599.75
966.528	1574.75
966.754	1593.75
966.98	1590.75
967.206	1573.75
967.431	1522.75
967.657	1606.75
967.883	1587.75
968.109	1580.75
968.334	1515.75
968.56	1524.75
968.785	1514.75
969.011	1470.75
969.236	1544.75
969.462	1507.75
969.687	1504.75
969.912	1564.75
970.138	1577.75
970.363	1494.75
970.588	1500.75
970.813	1477.75
971.038	1467.75
971.263	1500.75
971.488	1499.75
971.713	1524.75
971.938	1525.75
972.163	1406.75
972.388	1450.75
972.613	1439.75
972.838	1473.75
973.062	1453.75
973.287	1451.75
973.512	1383.75
973.736	1445.75
973.961	1431.75
974.185	1394.75
974.41	1449.75
974.634	1355.75
974.858	1384.75
975.083	1408.75
975.307	1430.75
975.531	1394.75
975.755	1314.75
975.98	1381.75
976.204	1300.75
976.428	1295.75
976.652	1299.75
976.876	1282.75
977.1	1322.75
977.324	1293.75
977.547	1334.75
977.771	1339.75
977.995	1313.75
978.219	1268.75
978.442	1346.75
978.666	1310.75
978.89	1297.75
979.113	1317.75
979.337	1306.75
979.56	1266.75
979.783	1335.75
980.007	1247.75
980.23	1297.75
980.453	1242.75
980.677	1304.75
980.9	1284.75
981.123	1190.75
981.346	1310.75
981.569	1279.75
981.792	1272.75
982.015	1243.75
982.238	1221.75
982.461	1263.75
982.684	1246.75
982.907	1216.75
983.129	1186.75
983.352	1246.75
983.575	1248.75
983.797	1221.75
984.02	1189.75
984.242	1216.75
984.465	1201.75
984.687	1239.75
984.91	1254.75
985.132	1214.75
985.354	1241.75
985.577	1200.75
985.799	1243.75
986.021	1145.75
986.243	1183.75
986.465	1186.75
986.687	1239.75
986.909	1280.75
987.131	1212.75
987.353	1181.75
987.575	1204.75
987.797	1154.75
988.019	1109.75
988.241	1155.75
988.462	1130.75
988.684	1203.75
988.906	1231.75
989.127	1256.75
989.349	1149.75
989.57	1168.75
989.792	1213.75
990.013	1227.75
990.234	1203.75
990.456	1246.75
990.677	1225.75
990.898	1155.75
991.119	1159.75
991.341	1175.75
991.562	1143.75
991.783	1183.75
992.004	1099.75
992.225	1092.75
992.446	1167.75
992.667	1072.75
992.887	1161.75
993.108	1057.75
993.329	1187.75
993.55	1138.75
993.77	1086.75
993.991	1086.75
994.212	1119.75
994.432	1111.75
994.653	1135.75
994.873	1120.75
995.093	998.75
995.314	1039.75
995.534	1126.75
995.754	1150.75
995.975	1157.75
996.195	1059.75
996.415	1123.75
996.635	1067.75
996.855	1113.75
997.075	1064.75
997.295	1075.75
997.515	1058.75
997.735	1130.75
997.955	1079.75
998.174	1066.75
998.394	1036.75
998.614	1093.75
998.834	1069.75
999.053	1120.75
999.273	1083.75
999.492	1130.75
999.712	1079.75
999.931	1041.75
1000.151	1121.75
1000.37	1086.75
1000.589	1129.75
1000.809	1075.75
1001.028	1190.75
1001.247	1126.75
1001.466	1011.75
1001.685	1157.75
1001.904	1086.75
1002.123	1095.75
1002.342	1100.75
1002.561	1085.75
1002.78	1097.75
1002.999	1147.75
1003.218	1099.75
1003.436	1076.75
1003.655	1116.75
1003.874	1067.75
1004.092	1097.75
1004.311	1142.75
1004.53	1104.75
1004.748	1191.75
1004.966	1095.75
1005.185	1140.75
1005.403	1142.75
1005.622	1119.75
1005.84	1184.75
1006.058	1086.75
1006.276	1116.75
1006.494	1605.75
1006.712	1112.75
1006.931	1180.75
1007.149	1075.75
1007.367	1112.75
1007.584	1116.75
1007.802	1151.75
1008.02	1080.75
1008.238	1172.75
1008.456	1181.75
1008.673	1039.75
1008.891	1157.75
1009.109	1085.75
1009.326	1126.75
1009.544	1209.75
1009.761	1122.75
1009.979	1214.75
1010.196	1202.75
1010.413	1253.75
1010.631	1287.75
1010.848	1316.75
1011.065	1292.75
1011.282	1242.75
1011.5	1218.75
1011.717	1316.75
1011.934	1264.75
1012.151	1297.75
1012.368	1263.75
1012.585	1191.75
1012.801	1263.75
1013.018	1234.75
1013.235	1193.75
1013.452	1212.75
1013.669	1206.75
1013.885	1204.75
1014.102	1217.75
1014.318	1210.75
1014.535	1156.75
1014.751	1186.75
1014.968	1198.75
1015.184	1230.75
1015.401	1140.75
1015.617	1199.75
1015.833	1130.75
1016.049	1127.75
1016.266	1117.75
1016.482	1138.75
1016.698	1045.75
1016.914	1112.75
1017.13	1075.75
1017.346	1073.75
1017.562	1138.75
1017.778	1066.75
1017.993	1039.75
1018.209	1076.75
1018.425	1074.75
1018.641	1035.75
1018.856	992.75
1019.072	1027.75
1019.288	1088.75
1019.503	1025.75
1019.719	947.75
1019.934	978.75
1020.149	1048.75
1020.365	978.75
1020.58	974.75
1020.795	1027.75
1021.011	952.75
1021.226	928.75
1021.441	971.75
1021.656	900.75
1021.871	831.75
1022.086	850.75
1022.301	847.75
1022.516	850.75
1022.731	897.75
1022.946	810.75
1023.16	821.75
1023.375	798.75
1023.59	765.75
1023.804	747.75
1024.019	846.75
1024.234	731.75
1024.448	771.75
1024.663	691.75
1024.877	744.75
1025.092	752.75
1025.306	764.75
1025.52	669.75
1025.734	747.75
1025.949	693.75
1026.163	676.75
1026.377	617.75
1026.591	676.75
1026.805	591.75
1027.019	590.75
1027.233	566.75
1027.447	518.75
1027.661	621.75
1027.875	582.75
1028.088	575.75
1028.302	521.75
1028.516	519.75
1028.73	510.75
1028.943	513.75
1029.157	487.75
1029.37	451.75
1029.584	1.75
1029.797	-3.25
1030.011	-2.25
1030.224	-2.25
