Data from QEP037381__78__10-08-39-929.txt Node

Date: Wed Dec 21 10:08:39 EST 2022
User: dcclab
Spectrometer: QEP03738
Trigger mode: 4
Integration Time (sec): 1.000000E1
Scans to average: 1
Electric dark correction enabled: true
Nonlinearity correction enabled: false
Boxcar width: 0
XAxis mode: Wavelengths
Number of Pixels in Spectrum: 1044
>>>>>Begin Spectral Data<<<<<
784.041	12.25
784.3	2.25
784.558	-6.75
784.817	-3.75
785.075	112381.25
785.334	19265.25
785.592	9014.25
785.851	6204.25
786.109	4636.25
786.368	3571.25
786.626	2941.25
786.884	2423.25
787.143	2019.25
787.401	1673.25
787.659	1488.25
787.917	1264.25
788.175	1159.25
788.433	1008.25
788.691	892.25
788.949	841.25
789.207	785.25
789.465	665.25
789.723	661.25
789.98	582.25
790.238	635.25
790.496	599.25
790.753	565.25
791.011	604.25
791.268	536.25
791.526	520.25
791.783	526.25
792.041	511.25
792.298	428.25
792.556	481.25
792.813	454.25
793.07	446.25
793.327	422.25
793.584	535.25
793.841	434.25
794.099	455.25
794.356	508.25
794.613	423.25
794.869	453.25
795.126	405.25
795.383	399.25
795.64	401.25
795.897	366.25
796.153	416.25
796.41	407.25
796.667	385.25
796.923	402.25
797.18	391.25
797.436	420.25
797.693	376.25
797.949	438.25
798.206	446.25
798.462	367.25
798.718	423.25
798.974	396.25
799.231	439.25
799.487	435.25
799.743	419.25
799.999	442.25
800.255	438.25
800.511	418.25
800.767	443.25
801.023	428.25
801.279	439.25
801.534	457.25
801.79	484.25
802.046	471.25
802.302	550.25
802.557	586.25
802.813	661.25
803.068	726.25
803.324	969.25
803.579	1227.25
803.835	1593.25
804.09	2124.25
804.345	2696.25
804.601	3389.25
804.856	4076.25
805.111	4687.25
805.366	5101.25
805.621	5420.25
805.876	5595.25
806.131	5763.25
806.386	5834.25
806.641	5891.25
806.896	5992.25
807.151	6143.25
807.406	6117.25
807.661	6225.25
807.915	6352.25
808.17	6468.25
808.425	6492.25
808.679	6439.25
808.934	6618.25
809.188	6577.25
809.443	6700.25
809.697	6775.25
809.951	6749.25
810.206	6815.25
810.46	6903.25
810.714	6942.25
810.968	6991.25
811.223	6960.25
811.477	7076.25
811.731	7135.25
811.985	7101.25
812.239	7097.25
812.493	7170.25
812.747	7154.25
813	7135.25
813.254	7186.25
813.508	7297.25
813.762	7234.25
814.015	7250.25
814.269	7295.25
814.522	7434.25
814.776	7473.25
815.03	7560.25
815.283	7625.25
815.536	7744.25
815.79	7872.25
816.043	7930.25
816.296	8033.25
816.55	8064.25
816.803	8140.25
817.056	8308.25
817.309	8309.25
817.562	8394.25
817.815	8438.25
818.068	8486.25
818.321	8505.25
818.574	8623.25
818.827	8816.25
819.079	8863.25
819.332	9018.25
819.585	9048.25
819.838	9260.25
820.09	9254.25
820.343	9267.25
820.595	9252.25
820.848	9377.25
821.1	9318.25
821.353	9420.25
821.605	9460.25
821.857	9435.25
822.11	9282.25
822.362	9380.25
822.614	9314.25
822.866	9418.25
823.118	9331.25
823.37	9455.25
823.622	9431.25
823.874	9502.25
824.126	9523.25
824.378	9464.25
824.63	9579.25
824.882	9559.25
825.134	9548.25
825.385	9485.25
825.637	9452.25
825.888	9386.25
826.14	9409.25
826.392	9294.25
826.643	9254.25
826.895	9273.25
827.146	9238.25
827.397	9149.25
827.649	9246.25
827.9	9128.25
828.151	9137.25
828.402	9163.25
828.653	9203.25
828.905	9233.25
829.156	9276.25
829.407	9253.25
829.658	9251.25
829.909	9278.25
830.159	9306.25
830.41	9250.25
830.661	9137.25
830.912	9081.25
831.162	9055.25
831.413	9096.25
831.664	9124.25
831.914	9036.25
832.165	9063.25
832.415	9052.25
832.666	9119.25
832.916	9131.25
833.167	9024.25
833.417	9114.25
833.667	8997.25
833.917	8982.25
834.168	9026.25
834.418	8967.25
834.668	8942.25
834.918	8897.25
835.168	8927.25
835.418	8756.25
835.668	8832.25
835.918	8866.25
836.167	8800.25
836.417	8685.25
836.667	8737.25
836.917	8734.25
837.166	8671.25
837.416	8827.25
837.666	8689.25
837.915	8637.25
838.165	8716.25
838.414	8594.25
838.663	8661.25
838.913	8623.25
839.162	8506.25
839.411	8646.25
839.661	8543.25
839.91	8532.25
840.159	8490.25
840.408	8507.25
840.657	8533.25
840.906	8569.25
841.155	8537.25
841.404	8462.25
841.653	8486.25
841.902	8515.25
842.15	8549.25
842.399	8519.25
842.648	8557.25
842.897	8496.25
843.145	8398.25
843.394	8340.25
843.642	8377.25
843.891	8336.25
844.139	8237.25
844.388	8184.25
844.636	8147.25
844.884	8213.25
845.133	8147.25
845.381	8154.25
845.629	8246.25
845.877	8084.25
846.125	8161.25
846.373	8152.25
846.621	8069.25
846.869	8058.25
847.117	8029.25
847.365	7914.25
847.613	7989.25
847.861	7943.25
848.108	7977.25
848.356	7887.25
848.604	7867.25
848.851	7954.25
849.099	7927.25
849.346	7966.25
849.594	8016.25
849.841	8007.25
850.089	8048.25
850.336	7977.25
850.583	8024.25
850.831	7983.25
851.078	7904.25
851.325	7887.25
851.572	7850.25
851.819	7881.25
852.066	7696.25
852.313	7608.25
852.56	7508.25
852.807	7489.25
853.054	7465.25
853.301	7523.25
853.548	7567.25
853.794	7669.25
854.041	7630.25
854.288	7638.25
854.534	7719.25
854.781	7703.25
855.028	7685.25
855.274	7730.25
855.52	7630.25
855.767	7525.25
856.013	7617.25
856.26	7844.25
856.506	7497.25
856.752	7511.25
856.998	7456.25
857.244	7497.25
857.49	7552.25
857.736	7610.25
857.982	7580.25
858.228	7540.25
858.474	7480.25
858.72	7375.25
858.966	7350.25
859.212	7357.25
859.458	7216.25
859.703	7237.25
859.949	7043.25
860.195	7108.25
860.44	7026.25
860.686	6952.25
860.931	7005.25
861.177	6951.25
861.422	6964.25
861.667	6887.25
861.913	6854.25
862.158	6896.25
862.403	6922.25
862.648	6927.25
862.893	7025.25
863.138	6919.25
863.384	6857.25
863.629	6881.25
863.873	6921.25
864.118	6806.25
864.363	6796.25
864.608	6811.25
864.853	6764.25
865.098	6726.25
865.342	6671.25
865.587	6671.25
865.832	6676.25
866.076	6649.25
866.321	6654.25
866.565	6631.25
866.81	6497.25
867.054	6540.25
867.298	6542.25
867.543	6520.25
867.787	6592.25
868.031	6487.25
868.275	6534.25
868.519	6511.25
868.764	6520.25
869.008	6414.25
869.252	6480.25
869.496	6415.25
869.739	6444.25
869.983	6507.25
870.227	6470.25
870.471	6402.25
870.715	6511.25
870.958	6477.25
871.202	6472.25
871.446	6495.25
871.689	6451.25
871.933	6537.25
872.176	6497.25
872.42	6491.25
872.663	6477.25
872.906	6495.25
873.15	6406.25
873.393	6400.25
873.636	6458.25
873.879	6412.25
874.122	6331.25
874.366	6249.25
874.609	6160.25
874.852	6116.25
875.095	6100.25
875.337	6005.25
875.58	5960.25
875.823	6036.25
876.066	6002.25
876.309	6030.25
876.551	5919.25
876.794	5867.25
877.037	5879.25
877.279	5807.25
877.522	5881.25
877.764	5927.25
878.007	5802.25
878.249	5837.25
878.491	5831.25
878.734	5860.25
878.976	5859.25
879.218	5767.25
879.46	5799.25
879.702	5770.25
879.945	5675.25
880.187	5589.25
880.429	5572.25
880.671	5548.25
880.912	5595.25
881.154	5533.25
881.396	5421.25
881.638	5522.25
881.88	5465.25
882.121	5452.25
882.363	5488.25
882.605	5542.25
882.846	5468.25
883.088	5527.25
883.329	5485.25
883.571	5461.25
883.812	5477.25
884.053	5617.25
884.295	5790.25
884.536	5970.25
884.777	5878.25
885.018	5794.25
885.259	5733.25
885.5	5656.25
885.742	5935.25
885.982	5639.25
886.223	5570.25
886.464	5534.25
886.705	5459.25
886.946	5471.25
887.187	5285.25
887.428	5361.25
887.668	5188.25
887.909	5167.25
888.15	5061.25
888.39	5098.25
888.631	5054.25
888.871	4994.25
889.111	4938.25
889.352	4935.25
889.592	4822.25
889.833	4800.25
890.073	4814.25
890.313	4838.25
890.553	4737.25
890.793	4739.25
891.033	4685.25
891.273	4675.25
891.513	4700.25
891.753	4704.25
891.993	4663.25
892.233	4698.25
892.473	4733.25
892.713	4696.25
892.952	4645.25
893.192	4654.25
893.432	4629.25
893.671	4664.25
893.911	4619.25
894.15	4597.25
894.39	4516.25
894.629	4525.25
894.869	4513.25
895.108	4499.25
895.347	4421.25
895.587	4476.25
895.826	4433.25
896.065	4405.25
896.304	4454.25
896.543	4464.25
896.782	4362.25
897.021	4401.25
897.26	4316.25
897.499	4373.25
897.738	4424.25
897.977	4324.25
898.216	4330.25
898.454	4267.25
898.693	4220.25
898.932	4264.25
899.17	4214.25
899.409	4216.25
899.647	4220.25
899.886	4163.25
900.124	4191.25
900.363	4155.25
900.601	4201.25
900.839	4169.25
901.078	4199.25
901.316	4207.25
901.554	4205.25
901.792	4226.25
902.03	4197.25
902.268	4240.25
902.506	4236.25
902.744	4226.25
902.982	4204.25
903.22	4093.25
903.458	4032.25
903.695	4065.25
903.933	4011.25
904.171	3929.25
904.409	3855.25
904.646	3819.25
904.884	3800.25
905.121	3802.25
905.359	3754.25
905.596	3699.25
905.833	3662.25
906.071	3623.25
906.308	3680.25
906.545	3660.25
906.783	3595.25
907.02	3619.25
907.257	3569.25
907.494	3615.25
907.731	3628.25
907.968	3602.25
908.205	3529.25
908.442	3522.25
908.679	3553.25
908.915	3450.25
909.152	3460.25
909.389	3416.25
909.626	3426.25
909.862	3380.25
910.099	3364.25
910.335	3429.25
910.572	3286.25
910.808	3341.25
911.045	3330.25
911.281	3268.25
911.518	3366.25
911.754	3261.25
911.99	3255.25
912.226	3251.25
912.463	3188.25
912.699	3203.25
912.935	3193.25
913.171	3205.25
913.407	3089.25
913.643	3159.25
913.879	3118.25
914.114	3059.25
914.35	3022.25
914.586	3056.25
914.822	2960.25
915.057	3070.25
915.293	2922.25
915.529	2934.25
915.764	2988.25
916	2969.25
916.235	2950.25
916.471	2977.25
916.706	2843.25
916.941	2903.25
917.177	2884.25
917.412	2960.25
917.647	2937.25
917.882	2869.25
918.117	2942.25
918.352	2935.25
918.588	2936.25
918.823	2847.25
919.057	2846.25
919.292	2711.25
919.527	2849.25
919.762	2743.25
919.997	2770.25
920.232	2714.25
920.466	2756.25
920.701	2628.25
920.935	2683.25
921.17	2592.25
921.405	2617.25
921.639	2670.25
921.873	2602.25
922.108	2600.25
922.342	2597.25
922.576	2543.25
922.811	2580.25
923.045	2623.25
923.279	2641.25
923.513	2523.25
923.747	2599.25
923.981	2547.25
924.215	2511.25
924.449	2475.25
924.683	2415.25
924.917	2469.25
925.151	2463.25
925.385	2540.25
925.618	2482.25
925.852	2434.25
926.086	2417.25
926.319	2432.25
926.553	2445.25
926.786	2447.25
927.02	2460.25
927.253	2473.25
927.486	2432.25
927.72	2382.25
927.953	2469.25
928.186	2383.25
928.42	2416.25
928.653	2355.25
928.886	2356.25
929.119	2395.25
929.352	2352.25
929.585	2368.25
929.818	2294.25
930.051	2302.25
930.284	2316.25
930.516	2196.25
930.749	2219.25
930.982	2279.25
931.215	2278.25
931.447	2221.25
931.68	2200.25
931.912	2217.25
932.145	2210.25
932.377	2237.25
932.61	2358.25
932.842	2165.25
933.074	2219.25
933.307	2174.25
933.539	2240.25
933.771	2224.25
934.003	2228.25
934.236	2278.25
934.468	2296.25
934.7	2182.25
934.932	2248.25
935.164	2171.25
935.395	2133.25
935.627	2177.25
935.859	2201.25
936.091	2144.25
936.323	2151.25
936.554	2211.25
936.786	2149.25
937.017	2085.25
937.249	2130.25
937.481	2057.25
937.712	2162.25
937.943	2115.25
938.175	2104.25
938.406	2083.25
938.637	2175.25
938.869	2057.25
939.1	2120.25
939.331	2085.25
939.562	2110.25
939.793	2107.25
940.024	2121.25
940.255	2095.25
940.486	2051.25
940.717	2065.25
940.948	2047.25
941.179	1969.25
941.409	2024.25
941.64	1999.25
941.871	2018.25
942.102	2004.25
942.332	2006.25
942.563	2052.25
942.793	2020.25
943.024	1997.25
943.254	2041.25
943.484	2045.25
943.715	2088.25
943.945	2047.25
944.175	1963.25
944.405	1952.25
944.636	1941.25
944.866	2024.25
945.096	2023.25
945.326	1936.25
945.556	1985.25
945.786	2010.25
946.016	1978.25
946.245	1909.25
946.475	1923.25
946.705	1912.25
946.935	1937.25
947.164	1934.25
947.394	1896.25
947.624	1908.25
947.853	1954.25
948.083	1910.25
948.312	1874.25
948.542	1836.25
948.771	1821.25
949	1843.25
949.23	1866.25
949.459	1840.25
949.688	1917.25
949.917	1864.25
950.146	1875.25
950.375	1924.25
950.604	1842.25
950.833	1910.25
951.062	1910.25
951.291	1834.25
951.52	1818.25
951.749	1844.25
951.978	1783.25
952.206	1802.25
952.435	1789.25
952.664	1829.25
952.892	1838.25
953.121	1807.25
953.349	1846.25
953.578	1850.25
953.806	1794.25
954.035	1752.25
954.263	1770.25
954.491	1749.25
954.719	1792.25
954.948	1722.25
955.176	1751.25
955.404	1688.25
955.632	1730.25
955.86	1755.25
956.088	1701.25
956.316	1737.25
956.544	1786.25
956.772	1729.25
956.999	1706.25
957.227	1756.25
957.455	1672.25
957.683	1685.25
957.91	1629.25
958.138	1660.25
958.365	1636.25
958.593	1629.25
958.82	1599.25
959.048	1679.25
959.275	1632.25
959.502	1639.25
959.73	1638.25
959.957	1642.25
960.184	1664.25
960.411	1602.25
960.638	1711.25
960.865	1644.25
961.092	1640.25
961.319	1588.25
961.546	1669.25
961.773	1665.25
962	1614.25
962.227	1651.25
962.454	1625.25
962.68	1613.25
962.907	1640.25
963.134	1567.25
963.36	1639.25
963.587	1640.25
963.813	1563.25
964.04	1622.25
964.266	1533.25
964.493	1645.25
964.719	1598.25
964.945	1622.25
965.171	1496.25
965.398	1558.25
965.624	1581.25
965.85	1512.25
966.076	1525.25
966.302	1558.25
966.528	1547.25
966.754	1532.25
966.98	1550.25
967.206	1526.25
967.431	1479.25
967.657	1555.25
967.883	1508.25
968.109	1544.25
968.334	1464.25
968.56	1470.25
968.785	1475.25
969.011	1433.25
969.236	1473.25
969.462	1454.25
969.687	1468.25
969.912	1524.25
970.138	1519.25
970.363	1439.25
970.588	1453.25
970.813	1464.25
971.038	1436.25
971.263	1489.25
971.488	1441.25
971.713	1510.25
971.938	1491.25
972.163	1386.25
972.388	1412.25
972.613	1406.25
972.838	1424.25
973.062	1416.25
973.287	1387.25
973.512	1353.25
973.736	1380.25
973.961	1366.25
974.185	1336.25
974.41	1381.25
974.634	1333.25
974.858	1329.25
975.083	1374.25
975.307	1399.25
975.531	1348.25
975.755	1278.25
975.98	1309.25
976.204	1247.25
976.428	1279.25
976.652	1268.25
976.876	1262.25
977.1	1287.25
977.324	1273.25
977.547	1317.25
977.771	1313.25
977.995	1293.25
978.219	1214.25
978.442	1353.25
978.666	1283.25
978.89	1274.25
979.113	1284.25
979.337	1267.25
979.56	1222.25
979.783	1336.25
980.007	1222.25
980.23	1242.25
980.453	1203.25
980.677	1268.25
980.9	1273.25
981.123	1156.25
981.346	1259.25
981.569	1213.25
981.792	1277.25
982.015	1213.25
982.238	1222.25
982.461	1227.25
982.684	1219.25
982.907	1182.25
983.129	1155.25
983.352	1222.25
983.575	1202.25
983.797	1200.25
984.02	1167.25
984.242	1164.25
984.465	1196.25
984.687	1226.25
984.91	1237.25
985.132	1198.25
985.354	1227.25
985.577	1192.25
985.799	1184.25
986.021	1112.25
986.243	1153.25
986.465	1156.25
986.687	1207.25
986.909	1234.25
987.131	1177.25
987.353	1142.25
987.575	1181.25
987.797	1137.25
988.019	1087.25
988.241	1146.25
988.462	1095.25
988.684	1155.25
988.906	1191.25
989.127	1216.25
989.349	1117.25
989.57	1145.25
989.792	1166.25
990.013	1209.25
990.234	1209.25
990.456	1223.25
990.677	1176.25
990.898	1139.25
991.119	1118.25
991.341	1168.25
991.562	1112.25
991.783	1165.25
992.004	1084.25
992.225	1074.25
992.446	1142.25
992.667	1024.25
992.887	1125.25
993.108	1025.25
993.329	1183.25
993.55	1122.25
993.77	1072.25
993.991	1080.25
994.212	1121.25
994.432	1107.25
994.653	1091.25
994.873	1114.25
995.093	992.25
995.314	1030.25
995.534	1092.25
995.754	1140.25
995.975	1133.25
996.195	1039.25
996.415	1093.25
996.635	1079.25
996.855	1073.25
997.075	1063.25
997.295	1075.25
997.515	1046.25
997.735	1092.25
997.955	1077.25
998.174	1064.25
998.394	1042.25
998.614	1081.25
998.834	1049.25
999.053	1125.25
999.273	1095.25
999.492	1130.25
999.712	1073.25
999.931	1045.25
1000.151	1081.25
1000.37	1058.25
1000.589	1125.25
1000.809	1048.25
1001.028	1157.25
1001.247	1108.25
1001.466	1021.25
1001.685	1145.25
1001.904	1096.25
1002.123	1078.25
1002.342	1087.25
1002.561	1043.25
1002.78	1070.25
1002.999	1121.25
1003.218	1063.25
1003.436	1067.25
1003.655	1134.25
1003.874	1045.25
1004.092	1074.25
1004.311	1097.25
1004.53	1077.25
1004.748	1146.25
1004.966	1102.25
1005.185	1118.25
1005.403	1123.25
1005.622	1097.25
1005.84	1179.25
1006.058	1087.25
1006.276	1119.25
1006.494	1593.25
1006.712	1103.25
1006.931	1171.25
1007.149	1061.25
1007.367	1094.25
1007.584	1080.25
1007.802	1139.25
1008.02	1098.25
1008.238	1179.25
1008.456	1174.25
1008.673	1030.25
1008.891	1130.25
1009.109	1075.25
1009.326	1143.25
1009.544	1221.25
1009.761	1112.25
1009.979	1213.25
1010.196	1214.25
1010.413	1255.25
1010.631	1298.25
1010.848	1353.25
1011.065	1329.25
1011.282	1283.25
1011.5	1235.25
1011.717	1339.25
1011.934	1285.25
1012.151	1315.25
1012.368	1310.25
1012.585	1247.25
1012.801	1293.25
1013.018	1255.25
1013.235	1223.25
1013.452	1242.25
1013.669	1235.25
1013.885	1223.25
1014.102	1282.25
1014.318	1225.25
1014.535	1206.25
1014.751	1232.25
1014.968	1237.25
1015.184	1254.25
1015.401	1144.25
1015.617	1201.25
1015.833	1165.25
1016.049	1155.25
1016.266	1127.25
1016.482	1175.25
1016.698	1110.25
1016.914	1154.25
1017.13	1096.25
1017.346	1096.25
1017.562	1182.25
1017.778	1123.25
1017.993	1067.25
1018.209	1124.25
1018.425	1105.25
1018.641	1046.25
1018.856	1020.25
1019.072	1073.25
1019.288	1107.25
1019.503	1063.25
1019.719	958.25
1019.934	987.25
1020.149	1084.25
1020.365	1017.25
1020.58	974.25
1020.795	1026.25
1021.011	984.25
1021.226	937.25
1021.441	985.25
1021.656	908.25
1021.871	866.25
1022.086	858.25
1022.301	855.25
1022.516	871.25
1022.731	931.25
1022.946	841.25
1023.16	806.25
1023.375	789.25
1023.59	802.25
1023.804	774.25
1024.019	838.25
1024.234	738.25
1024.448	777.25
1024.663	706.25
1024.877	726.25
1025.092	760.25
1025.306	768.25
1025.52	673.25
1025.734	765.25
1025.949	689.25
1026.163	678.25
1026.377	624.25
1026.591	656.25
1026.805	613.25
1027.019	611.25
1027.233	557.25
1027.447	538.25
1027.661	627.25
1027.875	576.25
1028.088	580.25
1028.302	504.25
1028.516	508.25
1028.73	503.25
1028.943	507.25
1029.157	475.25
1029.37	447.25
1029.584	-2.75
1029.797	-0.75
1030.011	1.25
1030.224	-1.75
