Data from QEP037381__65__10-06-29-932.txt Node

Date: Wed Dec 21 10:06:29 EST 2022
User: dcclab
Spectrometer: QEP03738
Trigger mode: 4
Integration Time (sec): 1.000000E1
Scans to average: 1
Electric dark correction enabled: true
Nonlinearity correction enabled: false
Boxcar width: 0
XAxis mode: Wavelengths
Number of Pixels in Spectrum: 1044
>>>>>Begin Spectral Data<<<<<
784.041	15.38
784.3	0.38
784.558	-7.62
784.817	-3.62
785.075	108746.38
785.334	18804.38
785.592	8781.38
785.851	6064.38
786.109	4565.38
786.368	3541.38
786.626	2828.38
786.884	2357.38
787.143	1971.38
787.401	1620.38
787.659	1467.38
787.917	1238.38
788.175	1147.38
788.433	1007.38
788.691	886.38
788.949	821.38
789.207	789.38
789.465	680.38
789.723	641.38
789.98	592.38
790.238	617.38
790.496	578.38
790.753	562.38
791.011	599.38
791.268	543.38
791.526	515.38
791.783	528.38
792.041	519.38
792.298	429.38
792.556	484.38
792.813	482.38
793.07	453.38
793.327	440.38
793.584	517.38
793.841	425.38
794.099	449.38
794.356	506.38
794.613	403.38
794.869	428.38
795.126	414.38
795.383	388.38
795.64	411.38
795.897	363.38
796.153	406.38
796.41	402.38
796.667	388.38
796.923	416.38
797.18	400.38
797.436	421.38
797.693	367.38
797.949	433.38
798.206	445.38
798.462	358.38
798.718	420.38
798.974	379.38
799.231	442.38
799.487	422.38
799.743	418.38
799.999	452.38
800.255	421.38
800.511	420.38
800.767	439.38
801.023	423.38
801.279	452.38
801.534	459.38
801.79	476.38
802.046	467.38
802.302	545.38
802.557	578.38
802.813	695.38
803.068	755.38
803.324	977.38
803.579	1197.38
803.835	1590.38
804.09	2128.38
804.345	2701.38
804.601	3391.38
804.856	4084.38
805.111	4668.38
805.366	5118.38
805.621	5398.38
805.876	5637.38
806.131	5751.38
806.386	5794.38
806.641	5897.38
806.896	5985.38
807.151	6106.38
807.406	6161.38
807.661	6282.38
807.915	6349.38
808.17	6422.38
808.425	6560.38
808.679	6492.38
808.934	6659.38
809.188	6604.38
809.443	6721.38
809.697	6762.38
809.951	6707.38
810.206	6765.38
810.46	6922.38
810.714	6936.38
810.968	6981.38
811.223	6939.38
811.477	7050.38
811.731	7078.38
811.985	7098.38
812.239	7046.38
812.493	7173.38
812.747	7178.38
813	7165.38
813.254	7258.38
813.508	7278.38
813.762	7255.38
814.015	7296.38
814.269	7299.38
814.522	7459.38
814.776	7461.38
815.03	7485.38
815.283	7704.38
815.536	7775.38
815.79	7867.38
816.043	7983.38
816.296	8000.38
816.55	8120.38
816.803	8163.38
817.056	8307.38
817.309	8345.38
817.562	8372.38
817.815	8473.38
818.068	8459.38
818.321	8484.38
818.574	8633.38
818.827	8756.38
819.079	8839.38
819.332	9046.38
819.585	9100.38
819.838	9218.38
820.09	9231.38
820.343	9403.38
820.595	9275.38
820.848	9328.38
821.1	9392.38
821.353	9420.38
821.605	9375.38
821.857	9485.38
822.11	9292.38
822.362	9303.38
822.614	9292.38
822.866	9419.38
823.118	9268.38
823.37	9450.38
823.622	9468.38
823.874	9430.38
824.126	9525.38
824.378	9392.38
824.63	9491.38
824.882	9527.38
825.134	9526.38
825.385	9491.38
825.637	9501.38
825.888	9398.38
826.14	9378.38
826.392	9329.38
826.643	9260.38
826.895	9294.38
827.146	9197.38
827.397	9183.38
827.649	9208.38
827.9	9152.38
828.151	9143.38
828.402	9184.38
828.653	9217.38
828.905	9281.38
829.156	9332.38
829.407	9211.38
829.658	9198.38
829.909	9310.38
830.159	9312.38
830.41	9234.38
830.661	9184.38
830.912	9118.38
831.162	8995.38
831.413	9029.38
831.664	9157.38
831.914	9027.38
832.165	9062.38
832.415	9077.38
832.666	9085.38
832.916	9053.38
833.167	9018.38
833.417	9059.38
833.667	8989.38
833.917	9040.38
834.168	9147.38
834.418	9021.38
834.668	8940.38
834.918	8935.38
835.168	8924.38
835.418	8792.38
835.668	8778.38
835.918	8823.38
836.167	8853.38
836.417	8774.38
836.667	8791.38
836.917	8798.38
837.166	8643.38
837.416	8721.38
837.666	8712.38
837.915	8709.38
838.165	8707.38
838.414	8614.38
838.663	8565.38
838.913	8650.38
839.162	8517.38
839.411	8599.38
839.661	8620.38
839.91	8604.38
840.159	8552.38
840.408	8483.38
840.657	8530.38
840.906	8574.38
841.155	8533.38
841.404	8484.38
841.653	8518.38
841.902	8537.38
842.15	8569.38
842.399	8551.38
842.648	8559.38
842.897	8499.38
843.145	8307.38
843.394	8335.38
843.642	8360.38
843.891	8355.38
844.139	8269.38
844.388	8247.38
844.636	8119.38
844.884	8188.38
845.133	8120.38
845.381	8183.38
845.629	8187.38
845.877	8098.38
846.125	8180.38
846.373	8137.38
846.621	8064.38
846.869	8127.38
847.117	8071.38
847.365	7959.38
847.613	7946.38
847.861	8018.38
848.108	7984.38
848.356	7874.38
848.604	7911.38
848.851	7901.38
849.099	7909.38
849.346	7946.38
849.594	8008.38
849.841	8008.38
850.089	7941.38
850.336	7994.38
850.583	7980.38
850.831	7977.38
851.078	7929.38
851.325	7922.38
851.572	7924.38
851.819	7872.38
852.066	7709.38
852.313	7644.38
852.56	7570.38
852.807	7546.38
853.054	7500.38
853.301	7593.38
853.548	7467.38
853.794	7622.38
854.041	7595.38
854.288	7598.38
854.534	7781.38
854.781	7714.38
855.028	7713.38
855.274	7702.38
855.52	7634.38
855.767	7591.38
856.013	7602.38
856.26	7847.38
856.506	7451.38
856.752	7507.38
856.998	7481.38
857.244	7485.38
857.49	7542.38
857.736	7560.38
857.982	7556.38
858.228	7527.38
858.474	7441.38
858.72	7445.38
858.966	7416.38
859.212	7359.38
859.458	7179.38
859.703	7163.38
859.949	7090.38
860.195	7152.38
860.44	7028.38
860.686	7009.38
860.931	6983.38
861.177	6890.38
861.422	6956.38
861.667	6864.38
861.913	6884.38
862.158	6863.38
862.403	6943.38
862.648	6941.38
862.893	6935.38
863.138	6890.38
863.384	6860.38
863.629	6891.38
863.873	6876.38
864.118	6906.38
864.363	6773.38
864.608	6847.38
864.853	6824.38
865.098	6729.38
865.342	6726.38
865.587	6648.38
865.832	6718.38
866.076	6612.38
866.321	6616.38
866.565	6696.38
866.81	6559.38
867.054	6602.38
867.298	6585.38
867.543	6553.38
867.787	6603.38
868.031	6594.38
868.275	6500.38
868.519	6537.38
868.764	6536.38
869.008	6486.38
869.252	6475.38
869.496	6469.38
869.739	6418.38
869.983	6527.38
870.227	6505.38
870.471	6412.38
870.715	6474.38
870.958	6496.38
871.202	6461.38
871.446	6523.38
871.689	6464.38
871.933	6523.38
872.176	6472.38
872.42	6484.38
872.663	6492.38
872.906	6460.38
873.15	6438.38
873.393	6322.38
873.636	6471.38
873.879	6383.38
874.122	6321.38
874.366	6188.38
874.609	6165.38
874.852	6093.38
875.095	6081.38
875.337	6009.38
875.58	6007.38
875.823	6015.38
876.066	6083.38
876.309	6073.38
876.551	5920.38
876.794	5943.38
877.037	5931.38
877.279	5884.38
877.522	5859.38
877.764	5888.38
878.007	5822.38
878.249	5875.38
878.491	5844.38
878.734	5882.38
878.976	5859.38
879.218	5760.38
879.46	5785.38
879.702	5757.38
879.945	5723.38
880.187	5637.38
880.429	5622.38
880.671	5616.38
880.912	5595.38
881.154	5563.38
881.396	5465.38
881.638	5540.38
881.88	5518.38
882.121	5459.38
882.363	5430.38
882.605	5552.38
882.846	5440.38
883.088	5487.38
883.329	5388.38
883.571	5455.38
883.812	5505.38
884.053	5635.38
884.295	5776.38
884.536	5933.38
884.777	5777.38
885.018	5780.38
885.259	5716.38
885.5	5598.38
885.742	5927.38
885.982	5623.38
886.223	5535.38
886.464	5517.38
886.705	5466.38
886.946	5459.38
887.187	5272.38
887.428	5327.38
887.668	5176.38
887.909	5102.38
888.15	5091.38
888.39	5090.38
888.631	5102.38
888.871	4984.38
889.111	4990.38
889.352	4928.38
889.592	4884.38
889.833	4877.38
890.073	4834.38
890.313	4863.38
890.553	4709.38
890.793	4732.38
891.033	4716.38
891.273	4700.38
891.513	4671.38
891.753	4678.38
891.993	4693.38
892.233	4650.38
892.473	4786.38
892.713	4743.38
892.952	4659.38
893.192	4704.38
893.432	4642.38
893.671	4659.38
893.911	4581.38
894.15	4610.38
894.39	4550.38
894.629	4510.38
894.869	4592.38
895.108	4548.38
895.347	4470.38
895.587	4540.38
895.826	4406.38
896.065	4376.38
896.304	4446.38
896.543	4470.38
896.782	4393.38
897.021	4404.38
897.26	4406.38
897.499	4417.38
897.738	4425.38
897.977	4340.38
898.216	4319.38
898.454	4252.38
898.693	4236.38
898.932	4226.38
899.17	4214.38
899.409	4234.38
899.647	4191.38
899.886	4155.38
900.124	4238.38
900.363	4140.38
900.601	4185.38
900.839	4196.38
901.078	4176.38
901.316	4196.38
901.554	4212.38
901.792	4272.38
902.03	4213.38
902.268	4269.38
902.506	4278.38
902.744	4192.38
902.982	4204.38
903.22	4080.38
903.458	4036.38
903.695	4043.38
903.933	3994.38
904.171	3870.38
904.409	3848.38
904.646	3915.38
904.884	3811.38
905.121	3802.38
905.359	3716.38
905.596	3737.38
905.833	3602.38
906.071	3631.38
906.308	3683.38
906.545	3683.38
906.783	3588.38
907.02	3629.38
907.257	3595.38
907.494	3557.38
907.731	3624.38
907.968	3598.38
908.205	3564.38
908.442	3540.38
908.679	3560.38
908.915	3504.38
909.152	3486.38
909.389	3398.38
909.626	3401.38
909.862	3367.38
910.099	3393.38
910.335	3419.38
910.572	3309.38
910.808	3352.38
911.045	3331.38
911.281	3302.38
911.518	3359.38
911.754	3299.38
911.99	3311.38
912.226	3240.38
912.463	3229.38
912.699	3219.38
912.935	3204.38
913.171	3153.38
913.407	3124.38
913.643	3156.38
913.879	3111.38
914.114	3060.38
914.35	3103.38
914.586	3010.38
914.822	2992.38
915.057	3083.38
915.293	2893.38
915.529	2925.38
915.764	3032.38
916	2997.38
916.235	2953.38
916.471	2976.38
916.706	2883.38
916.941	2926.38
917.177	2890.38
917.412	2939.38
917.647	2962.38
917.882	2890.38
918.117	2927.38
918.352	2917.38
918.588	2971.38
918.823	2847.38
919.057	2823.38
919.292	2738.38
919.527	2834.38
919.762	2738.38
919.997	2772.38
920.232	2729.38
920.466	2765.38
920.701	2679.38
920.935	2623.38
921.17	2633.38
921.405	2591.38
921.639	2623.38
921.873	2629.38
922.108	2624.38
922.342	2632.38
922.576	2578.38
922.811	2590.38
923.045	2577.38
923.279	2608.38
923.513	2515.38
923.747	2590.38
923.981	2553.38
924.215	2492.38
924.449	2484.38
924.683	2442.38
924.917	2459.38
925.151	2427.38
925.385	2508.38
925.618	2448.38
925.852	2440.38
926.086	2407.38
926.319	2442.38
926.553	2420.38
926.786	2452.38
927.02	2403.38
927.253	2472.38
927.486	2454.38
927.72	2410.38
927.953	2411.38
928.186	2391.38
928.42	2411.38
928.653	2342.38
928.886	2369.38
929.119	2407.38
929.352	2376.38
929.585	2334.38
929.818	2306.38
930.051	2342.38
930.284	2301.38
930.516	2227.38
930.749	2238.38
930.982	2294.38
931.215	2263.38
931.447	2220.38
931.68	2219.38
931.912	2206.38
932.145	2210.38
932.377	2237.38
932.61	2345.38
932.842	2127.38
933.074	2246.38
933.307	2167.38
933.539	2281.38
933.771	2248.38
934.003	2224.38
934.236	2262.38
934.468	2269.38
934.7	2170.38
934.932	2233.38
935.164	2149.38
935.395	2163.38
935.627	2185.38
935.859	2192.38
936.091	2132.38
936.323	2162.38
936.554	2241.38
936.786	2169.38
937.017	2080.38
937.249	2138.38
937.481	2080.38
937.712	2179.38
937.943	2100.38
938.175	2133.38
938.406	2117.38
938.637	2147.38
938.869	2085.38
939.1	2127.38
939.331	2097.38
939.562	2112.38
939.793	2111.38
940.024	2104.38
940.255	2114.38
940.486	2070.38
940.717	2042.38
940.948	2043.38
941.179	2021.38
941.409	2057.38
941.64	2012.38
941.871	2041.38
942.102	2019.38
942.332	2025.38
942.563	2064.38
942.793	2037.38
943.024	1960.38
943.254	2035.38
943.484	2089.38
943.715	2045.38
943.945	2047.38
944.175	1965.38
944.405	1937.38
944.636	1949.38
944.866	2005.38
945.096	2009.38
945.326	1927.38
945.556	1997.38
945.786	2030.38
946.016	1955.38
946.245	1925.38
946.475	1937.38
946.705	1950.38
946.935	1950.38
947.164	1915.38
947.394	1888.38
947.624	1935.38
947.853	1941.38
948.083	1915.38
948.312	1858.38
948.542	1846.38
948.771	1811.38
949	1844.38
949.23	1853.38
949.459	1857.38
949.688	1914.38
949.917	1827.38
950.146	1873.38
950.375	1902.38
950.604	1812.38
950.833	1904.38
951.062	1921.38
951.291	1830.38
951.52	1847.38
951.749	1857.38
951.978	1806.38
952.206	1810.38
952.435	1798.38
952.664	1857.38
952.892	1824.38
953.121	1797.38
953.349	1848.38
953.578	1824.38
953.806	1775.38
954.035	1740.38
954.263	1795.38
954.491	1744.38
954.719	1782.38
954.948	1749.38
955.176	1717.38
955.404	1658.38
955.632	1768.38
955.86	1746.38
956.088	1729.38
956.316	1762.38
956.544	1764.38
956.772	1713.38
956.999	1678.38
957.227	1762.38
957.455	1680.38
957.683	1702.38
957.91	1640.38
958.138	1653.38
958.365	1658.38
958.593	1659.38
958.82	1596.38
959.048	1697.38
959.275	1642.38
959.502	1631.38
959.73	1617.38
959.957	1660.38
960.184	1666.38
960.411	1599.38
960.638	1683.38
960.865	1644.38
961.092	1682.38
961.319	1581.38
961.546	1670.38
961.773	1677.38
962	1633.38
962.227	1691.38
962.454	1621.38
962.68	1611.38
962.907	1606.38
963.134	1574.38
963.36	1594.38
963.587	1627.38
963.813	1568.38
964.04	1619.38
964.266	1564.38
964.493	1606.38
964.719	1578.38
964.945	1603.38
965.171	1507.38
965.398	1568.38
965.624	1583.38
965.85	1491.38
966.076	1513.38
966.302	1554.38
966.528	1529.38
966.754	1549.38
966.98	1514.38
967.206	1520.38
967.431	1466.38
967.657	1558.38
967.883	1536.38
968.109	1499.38
968.334	1469.38
968.56	1478.38
968.785	1477.38
969.011	1411.38
969.236	1512.38
969.462	1485.38
969.687	1443.38
969.912	1532.38
970.138	1525.38
970.363	1447.38
970.588	1464.38
970.813	1472.38
971.038	1472.38
971.263	1469.38
971.488	1463.38
971.713	1505.38
971.938	1480.38
972.163	1388.38
972.388	1399.38
972.613	1409.38
972.838	1428.38
973.062	1408.38
973.287	1439.38
973.512	1351.38
973.736	1395.38
973.961	1385.38
974.185	1372.38
974.41	1382.38
974.634	1309.38
974.858	1335.38
975.083	1410.38
975.307	1388.38
975.531	1332.38
975.755	1295.38
975.98	1309.38
976.204	1250.38
976.428	1260.38
976.652	1273.38
976.876	1265.38
977.1	1284.38
977.324	1241.38
977.547	1292.38
977.771	1303.38
977.995	1295.38
978.219	1244.38
978.442	1341.38
978.666	1291.38
978.89	1279.38
979.113	1282.38
979.337	1253.38
979.56	1238.38
979.783	1320.38
980.007	1193.38
980.23	1247.38
980.453	1247.38
980.677	1274.38
980.9	1262.38
981.123	1177.38
981.346	1258.38
981.569	1236.38
981.792	1262.38
982.015	1238.38
982.238	1208.38
982.461	1229.38
982.684	1188.38
982.907	1192.38
983.129	1153.38
983.352	1236.38
983.575	1198.38
983.797	1187.38
984.02	1160.38
984.242	1169.38
984.465	1156.38
984.687	1220.38
984.91	1226.38
985.132	1198.38
985.354	1206.38
985.577	1197.38
985.799	1173.38
986.021	1118.38
986.243	1137.38
986.465	1152.38
986.687	1208.38
986.909	1256.38
987.131	1179.38
987.353	1152.38
987.575	1175.38
987.797	1171.38
988.019	1101.38
988.241	1144.38
988.462	1128.38
988.684	1174.38
988.906	1203.38
989.127	1237.38
989.349	1119.38
989.57	1143.38
989.792	1169.38
990.013	1178.38
990.234	1190.38
990.456	1205.38
990.677	1198.38
990.898	1125.38
991.119	1167.38
991.341	1165.38
991.562	1110.38
991.783	1177.38
992.004	1102.38
992.225	1100.38
992.446	1147.38
992.667	1024.38
992.887	1128.38
993.108	1029.38
993.329	1190.38
993.55	1101.38
993.77	1051.38
993.991	1078.38
994.212	1111.38
994.432	1093.38
994.653	1103.38
994.873	1101.38
995.093	996.38
995.314	1041.38
995.534	1117.38
995.754	1127.38
995.975	1147.38
996.195	1034.38
996.415	1098.38
996.635	1088.38
996.855	1104.38
997.075	1053.38
997.295	1061.38
997.515	1046.38
997.735	1119.38
997.955	1092.38
998.174	1073.38
998.394	1037.38
998.614	1085.38
998.834	1040.38
999.053	1132.38
999.273	1107.38
999.492	1128.38
999.712	1088.38
999.931	1057.38
1000.151	1061.38
1000.37	1072.38
1000.589	1116.38
1000.809	1058.38
1001.028	1196.38
1001.247	1093.38
1001.466	998.38
1001.685	1167.38
1001.904	1098.38
1002.123	1090.38
1002.342	1077.38
1002.561	1055.38
1002.78	1082.38
1002.999	1119.38
1003.218	1094.38
1003.436	1041.38
1003.655	1113.38
1003.874	1064.38
1004.092	1069.38
1004.311	1129.38
1004.53	1062.38
1004.748	1159.38
1004.966	1079.38
1005.185	1142.38
1005.403	1101.38
1005.622	1114.38
1005.84	1194.38
1006.058	1069.38
1006.276	1091.38
1006.494	1599.38
1006.712	1101.38
1006.931	1186.38
1007.149	1071.38
1007.367	1065.38
1007.584	1115.38
1007.802	1143.38
1008.02	1075.38
1008.238	1148.38
1008.456	1153.38
1008.673	1031.38
1008.891	1126.38
1009.109	1095.38
1009.326	1127.38
1009.544	1189.38
1009.761	1116.38
1009.979	1179.38
1010.196	1201.38
1010.413	1280.38
1010.631	1301.38
1010.848	1301.38
1011.065	1310.38
1011.282	1271.38
1011.5	1189.38
1011.717	1312.38
1011.934	1257.38
1012.151	1302.38
1012.368	1275.38
1012.585	1204.38
1012.801	1277.38
1013.018	1238.38
1013.235	1202.38
1013.452	1208.38
1013.669	1209.38
1013.885	1214.38
1014.102	1257.38
1014.318	1215.38
1014.535	1173.38
1014.751	1218.38
1014.968	1195.38
1015.184	1225.38
1015.401	1146.38
1015.617	1200.38
1015.833	1136.38
1016.049	1139.38
1016.266	1125.38
1016.482	1148.38
1016.698	1078.38
1016.914	1129.38
1017.13	1068.38
1017.346	1078.38
1017.562	1130.38
1017.778	1091.38
1017.993	1052.38
1018.209	1126.38
1018.425	1079.38
1018.641	1054.38
1018.856	1026.38
1019.072	1043.38
1019.288	1084.38
1019.503	1050.38
1019.719	947.38
1019.934	994.38
1020.149	1079.38
1020.365	1008.38
1020.58	977.38
1020.795	1014.38
1021.011	956.38
1021.226	945.38
1021.441	997.38
1021.656	918.38
1021.871	841.38
1022.086	860.38
1022.301	854.38
1022.516	850.38
1022.731	930.38
1022.946	818.38
1023.16	810.38
1023.375	777.38
1023.59	776.38
1023.804	749.38
1024.019	835.38
1024.234	716.38
1024.448	775.38
1024.663	692.38
1024.877	705.38
1025.092	748.38
1025.306	747.38
1025.52	660.38
1025.734	766.38
1025.949	676.38
1026.163	663.38
1026.377	611.38
1026.591	676.38
1026.805	595.38
1027.019	583.38
1027.233	575.38
1027.447	511.38
1027.661	624.38
1027.875	558.38
1028.088	578.38
1028.302	519.38
1028.516	506.38
1028.73	513.38
1028.943	520.38
1029.157	473.38
1029.37	451.38
1029.584	0.38
1029.797	-1.62
1030.011	-2.62
1030.224	-0.62
