Data from QEP037381__30__10-00-39-927.txt Node

Date: Wed Dec 21 10:00:39 EST 2022
User: dcclab
Spectrometer: QEP03738
Trigger mode: 4
Integration Time (sec): 1.000000E1
Scans to average: 1
Electric dark correction enabled: true
Nonlinearity correction enabled: false
Boxcar width: 0
XAxis mode: Wavelengths
Number of Pixels in Spectrum: 1044
>>>>>Begin Spectral Data<<<<<
784.041	8.5
784.3	0.5
784.558	-2.5
784.817	-3.5
785.075	116598.5
785.334	19718.5
785.592	9052.5
785.851	6194.5
786.109	4703.5
786.368	3645.5
786.626	2898.5
786.884	2399.5
787.143	2041.5
787.401	1666.5
787.659	1499.5
787.917	1282.5
788.175	1156.5
788.433	1033.5
788.691	920.5
788.949	843.5
789.207	801.5
789.465	698.5
789.723	664.5
789.98	619.5
790.238	639.5
790.496	617.5
790.753	566.5
791.011	613.5
791.268	548.5
791.526	532.5
791.783	538.5
792.041	511.5
792.298	432.5
792.556	498.5
792.813	471.5
793.07	439.5
793.327	435.5
793.584	511.5
793.841	447.5
794.099	462.5
794.356	518.5
794.613	411.5
794.869	451.5
795.126	413.5
795.383	396.5
795.64	409.5
795.897	362.5
796.153	422.5
796.41	408.5
796.667	390.5
796.923	404.5
797.18	385.5
797.436	423.5
797.693	378.5
797.949	441.5
798.206	461.5
798.462	369.5
798.718	429.5
798.974	405.5
799.231	429.5
799.487	430.5
799.743	429.5
799.999	440.5
800.255	440.5
800.511	418.5
800.767	453.5
801.023	417.5
801.279	446.5
801.534	479.5
801.79	481.5
802.046	498.5
802.302	593.5
802.557	599.5
802.813	686.5
803.068	759.5
803.324	1015.5
803.579	1286.5
803.835	1698.5
804.09	2275.5
804.345	2875.5
804.601	3580.5
804.856	4310.5
805.111	4938.5
805.366	5470.5
805.621	5762.5
805.876	6041.5
806.131	6173.5
806.386	6233.5
806.641	6249.5
806.896	6399.5
807.151	6546.5
807.406	6567.5
807.661	6680.5
807.915	6735.5
808.17	6853.5
808.425	6905.5
808.679	6898.5
808.934	7064.5
809.188	7030.5
809.443	7101.5
809.697	7202.5
809.951	7219.5
810.206	7232.5
810.46	7370.5
810.714	7401.5
810.968	7488.5
811.223	7434.5
811.477	7504.5
811.731	7608.5
811.985	7549.5
812.239	7550.5
812.493	7606.5
812.747	7653.5
813	7673.5
813.254	7718.5
813.508	7735.5
813.762	7757.5
814.015	7819.5
814.269	7889.5
814.522	7938.5
814.776	7972.5
815.03	8121.5
815.283	8177.5
815.536	8346.5
815.79	8403.5
816.043	8499.5
816.296	8535.5
816.55	8653.5
816.803	8734.5
817.056	8888.5
817.309	8897.5
817.562	8986.5
817.815	9024.5
818.068	9125.5
818.321	9045.5
818.574	9216.5
818.827	9396.5
819.079	9437.5
819.332	9678.5
819.585	9679.5
819.838	9867.5
820.09	9836.5
820.343	9998.5
820.595	9934.5
820.848	10025.5
821.1	10086.5
821.353	10003.5
821.605	10112.5
821.857	10051.5
822.11	9956.5
822.362	9929.5
822.614	9985.5
822.866	9980.5
823.118	10020.5
823.37	10133.5
823.622	10099.5
823.874	10125.5
824.126	10252.5
824.378	10095.5
824.63	10201.5
824.882	10244.5
825.134	10114.5
825.385	10150.5
825.637	10112.5
825.888	10126.5
826.14	10043.5
826.392	9971.5
826.643	9894.5
826.895	9980.5
827.146	9867.5
827.397	9825.5
827.649	9920.5
827.9	9744.5
828.151	9888.5
828.402	9821.5
828.653	9856.5
828.905	9941.5
829.156	9921.5
829.407	9883.5
829.658	9940.5
829.909	9948.5
830.159	9957.5
830.41	9811.5
830.661	9778.5
830.912	9705.5
831.162	9685.5
831.413	9689.5
831.664	9722.5
831.914	9605.5
832.165	9705.5
832.415	9773.5
832.666	9649.5
832.916	9818.5
833.167	9679.5
833.417	9689.5
833.667	9676.5
833.917	9672.5
834.168	9715.5
834.418	9698.5
834.668	9649.5
834.918	9527.5
835.168	9518.5
835.418	9469.5
835.668	9430.5
835.918	9435.5
836.167	9416.5
836.417	9325.5
836.667	9412.5
836.917	9366.5
837.166	9370.5
837.416	9399.5
837.666	9307.5
837.915	9245.5
838.165	9306.5
838.414	9247.5
838.663	9160.5
838.913	9210.5
839.162	9140.5
839.411	9203.5
839.661	9030.5
839.91	9130.5
840.159	9108.5
840.408	9081.5
840.657	9079.5
840.906	9117.5
841.155	9092.5
841.404	9051.5
841.653	9044.5
841.902	9099.5
842.15	9096.5
842.399	9154.5
842.648	9125.5
842.897	8985.5
843.145	8938.5
843.394	8957.5
843.642	8852.5
843.891	8907.5
844.139	8853.5
844.388	8772.5
844.636	8639.5
844.884	8668.5
845.133	8687.5
845.381	8573.5
845.629	8736.5
845.877	8632.5
846.125	8701.5
846.373	8671.5
846.621	8648.5
846.869	8578.5
847.117	8565.5
847.365	8521.5
847.613	8529.5
847.861	8482.5
848.108	8494.5
848.356	8478.5
848.604	8352.5
848.851	8381.5
849.099	8443.5
849.346	8428.5
849.594	8504.5
849.841	8567.5
850.089	8538.5
850.336	8548.5
850.583	8472.5
850.831	8498.5
851.078	8450.5
851.325	8441.5
851.572	8432.5
851.819	8407.5
852.066	8209.5
852.313	8096.5
852.56	8050.5
852.807	8041.5
853.054	8063.5
853.301	7988.5
853.548	8035.5
853.794	8124.5
854.041	8124.5
854.288	8119.5
854.534	8276.5
854.781	8161.5
855.028	8058.5
855.274	8142.5
855.52	8055.5
855.767	8001.5
856.013	8059.5
856.26	8266.5
856.506	7939.5
856.752	7953.5
856.998	7952.5
857.244	7920.5
857.49	7972.5
857.736	8064.5
857.982	8047.5
858.228	7965.5
858.474	7879.5
858.72	7919.5
858.966	7824.5
859.212	7762.5
859.458	7708.5
859.703	7648.5
859.949	7564.5
860.195	7557.5
860.44	7493.5
860.686	7378.5
860.931	7460.5
861.177	7383.5
861.422	7344.5
861.667	7321.5
861.913	7302.5
862.158	7330.5
862.403	7341.5
862.648	7377.5
862.893	7400.5
863.138	7426.5
863.384	7296.5
863.629	7326.5
863.873	7319.5
864.118	7296.5
864.363	7229.5
864.608	7256.5
864.853	7247.5
865.098	7169.5
865.342	7182.5
865.587	7120.5
865.832	7116.5
866.076	7121.5
866.321	7045.5
866.565	7058.5
866.81	6992.5
867.054	6935.5
867.298	7009.5
867.543	7002.5
867.787	6956.5
868.031	6959.5
868.275	6964.5
868.519	6951.5
868.764	6933.5
869.008	6906.5
869.252	6926.5
869.496	6832.5
869.739	6875.5
869.983	6903.5
870.227	6874.5
870.471	6819.5
870.715	6929.5
870.958	6873.5
871.202	6797.5
871.446	6903.5
871.689	6848.5
871.933	6862.5
872.176	6862.5
872.42	6857.5
872.663	6845.5
872.906	6847.5
873.15	6834.5
873.393	6710.5
873.636	6768.5
873.879	6743.5
874.122	6699.5
874.366	6583.5
874.609	6528.5
874.852	6476.5
875.095	6477.5
875.337	6427.5
875.58	6306.5
875.823	6382.5
876.066	6373.5
876.309	6467.5
876.551	6265.5
876.794	6217.5
877.037	6241.5
877.279	6204.5
877.522	6294.5
877.764	6264.5
878.007	6199.5
878.249	6270.5
878.491	6176.5
878.734	6259.5
878.976	6235.5
879.218	6161.5
879.46	6194.5
879.702	6110.5
879.945	6007.5
880.187	5896.5
880.429	5983.5
880.671	5902.5
880.912	5910.5
881.154	5913.5
881.396	5765.5
881.638	5868.5
881.88	5843.5
882.121	5801.5
882.363	5805.5
882.605	5874.5
882.846	5786.5
883.088	5787.5
883.329	5746.5
883.571	5760.5
883.812	5852.5
884.053	5883.5
884.295	5995.5
884.536	6114.5
884.777	6000.5
885.018	6001.5
885.259	5999.5
885.5	5856.5
885.742	6156.5
885.982	5929.5
886.223	5832.5
886.464	5805.5
886.705	5724.5
886.946	5707.5
887.187	5558.5
887.428	5676.5
887.668	5516.5
887.909	5420.5
888.15	5347.5
888.39	5428.5
888.631	5359.5
888.871	5364.5
889.111	5263.5
889.352	5251.5
889.592	5211.5
889.833	5176.5
890.073	5112.5
890.313	5207.5
890.553	5043.5
890.793	5022.5
891.033	4994.5
891.273	4959.5
891.513	4953.5
891.753	4991.5
891.993	4889.5
892.233	4984.5
892.473	5045.5
892.713	4973.5
892.952	4983.5
893.192	4986.5
893.432	4958.5
893.671	4970.5
893.911	4904.5
894.15	4907.5
894.39	4801.5
894.629	4823.5
894.869	4819.5
895.108	4834.5
895.347	4700.5
895.587	4779.5
895.826	4741.5
896.065	4685.5
896.304	4712.5
896.543	4749.5
896.782	4651.5
897.021	4698.5
897.26	4686.5
897.499	4735.5
897.738	4692.5
897.977	4661.5
898.216	4590.5
898.454	4516.5
898.693	4460.5
898.932	4515.5
899.17	4463.5
899.409	4463.5
899.647	4454.5
899.886	4371.5
900.124	4453.5
900.363	4440.5
900.601	4451.5
900.839	4395.5
901.078	4470.5
901.316	4475.5
901.554	4484.5
901.792	4472.5
902.03	4407.5
902.268	4441.5
902.506	4462.5
902.744	4415.5
902.982	4436.5
903.22	4340.5
903.458	4281.5
903.695	4312.5
903.933	4268.5
904.171	4161.5
904.409	4101.5
904.646	4111.5
904.884	4040.5
905.121	4042.5
905.359	3987.5
905.596	3926.5
905.833	3867.5
906.071	3868.5
906.308	3889.5
906.545	3893.5
906.783	3834.5
907.02	3915.5
907.257	3828.5
907.494	3802.5
907.731	3862.5
907.968	3852.5
908.205	3805.5
908.442	3754.5
908.679	3755.5
908.915	3708.5
909.152	3690.5
909.389	3601.5
909.626	3648.5
909.862	3598.5
910.099	3570.5
910.335	3650.5
910.572	3520.5
910.808	3574.5
911.045	3525.5
911.281	3528.5
911.518	3560.5
911.754	3504.5
911.99	3543.5
912.226	3489.5
912.463	3427.5
912.699	3391.5
912.935	3424.5
913.171	3356.5
913.407	3308.5
913.643	3410.5
913.879	3308.5
914.114	3312.5
914.35	3235.5
914.586	3242.5
914.822	3146.5
915.057	3244.5
915.293	3098.5
915.529	3120.5
915.764	3186.5
916	3127.5
916.235	3131.5
916.471	3190.5
916.706	3064.5
916.941	3091.5
917.177	3075.5
917.412	3124.5
917.647	3127.5
917.882	3074.5
918.117	3137.5
918.352	3103.5
918.588	3110.5
918.823	3017.5
919.057	2985.5
919.292	2902.5
919.527	3029.5
919.762	2917.5
919.997	2978.5
920.232	2873.5
920.466	2923.5
920.701	2777.5
920.935	2844.5
921.17	2795.5
921.405	2785.5
921.639	2825.5
921.873	2778.5
922.108	2816.5
922.342	2815.5
922.576	2729.5
922.811	2700.5
923.045	2777.5
923.279	2792.5
923.513	2659.5
923.747	2761.5
923.981	2700.5
924.215	2691.5
924.449	2630.5
924.683	2599.5
924.917	2597.5
925.151	2609.5
925.385	2685.5
925.618	2602.5
925.852	2580.5
926.086	2558.5
926.319	2570.5
926.553	2575.5
926.786	2599.5
927.02	2569.5
927.253	2567.5
927.486	2624.5
927.72	2532.5
927.953	2579.5
928.186	2528.5
928.42	2568.5
928.653	2499.5
928.886	2472.5
929.119	2519.5
929.352	2497.5
929.585	2507.5
929.818	2472.5
930.051	2444.5
930.284	2441.5
930.516	2368.5
930.749	2383.5
930.982	2408.5
931.215	2415.5
931.447	2335.5
931.68	2356.5
931.912	2335.5
932.145	2320.5
932.377	2337.5
932.61	2468.5
932.842	2277.5
933.074	2374.5
933.307	2304.5
933.539	2385.5
933.771	2405.5
934.003	2309.5
934.236	2399.5
934.468	2396.5
934.7	2309.5
934.932	2376.5
935.164	2295.5
935.395	2265.5
935.627	2292.5
935.859	2296.5
936.091	2266.5
936.323	2273.5
936.554	2312.5
936.786	2271.5
937.017	2175.5
937.249	2282.5
937.481	2214.5
937.712	2257.5
937.943	2241.5
938.175	2199.5
938.406	2217.5
938.637	2324.5
938.869	2174.5
939.1	2227.5
939.331	2197.5
939.562	2240.5
939.793	2231.5
940.024	2253.5
940.255	2255.5
940.486	2143.5
940.717	2154.5
940.948	2173.5
941.179	2099.5
941.409	2139.5
941.64	2160.5
941.871	2145.5
942.102	2097.5
942.332	2141.5
942.563	2161.5
942.793	2134.5
943.024	2106.5
943.254	2121.5
943.484	2153.5
943.715	2182.5
943.945	2153.5
944.175	2072.5
944.405	2036.5
944.636	2048.5
944.866	2100.5
945.096	2105.5
945.326	2040.5
945.556	2101.5
945.786	2125.5
946.016	2052.5
946.245	2024.5
946.475	2032.5
946.705	2002.5
946.935	2033.5
947.164	2059.5
947.394	1976.5
947.624	2018.5
947.853	2048.5
948.083	1987.5
948.312	1985.5
948.542	1940.5
948.771	1933.5
949	1974.5
949.23	1960.5
949.459	1958.5
949.688	2015.5
949.917	1972.5
950.146	1973.5
950.375	1998.5
950.604	1930.5
950.833	2008.5
951.062	1997.5
951.291	1955.5
951.52	1906.5
951.749	1950.5
951.978	1884.5
952.206	1910.5
952.435	1894.5
952.664	1948.5
952.892	1935.5
953.121	1936.5
953.349	1912.5
953.578	1918.5
953.806	1877.5
954.035	1831.5
954.263	1881.5
954.491	1840.5
954.719	1895.5
954.948	1817.5
955.176	1830.5
955.404	1800.5
955.632	1849.5
955.86	1852.5
956.088	1831.5
956.316	1852.5
956.544	1887.5
956.772	1809.5
956.999	1775.5
957.227	1863.5
957.455	1755.5
957.683	1793.5
957.91	1744.5
958.138	1721.5
958.365	1748.5
958.593	1728.5
958.82	1671.5
959.048	1760.5
959.275	1720.5
959.502	1717.5
959.73	1650.5
959.957	1713.5
960.184	1771.5
960.411	1673.5
960.638	1783.5
960.865	1697.5
961.092	1738.5
961.319	1647.5
961.546	1736.5
961.773	1720.5
962	1701.5
962.227	1724.5
962.454	1720.5
962.68	1676.5
962.907	1701.5
963.134	1629.5
963.36	1670.5
963.587	1700.5
963.813	1606.5
964.04	1690.5
964.266	1584.5
964.493	1720.5
964.719	1656.5
964.945	1648.5
965.171	1565.5
965.398	1616.5
965.624	1659.5
965.85	1587.5
966.076	1586.5
966.302	1635.5
966.528	1574.5
966.754	1603.5
966.98	1605.5
967.206	1596.5
967.431	1544.5
967.657	1623.5
967.883	1587.5
968.109	1584.5
968.334	1525.5
968.56	1529.5
968.785	1548.5
969.011	1487.5
969.236	1583.5
969.462	1497.5
969.687	1521.5
969.912	1591.5
970.138	1579.5
970.363	1497.5
970.588	1532.5
970.813	1505.5
971.038	1517.5
971.263	1505.5
971.488	1513.5
971.713	1563.5
971.938	1548.5
972.163	1443.5
972.388	1465.5
972.613	1448.5
972.838	1485.5
973.062	1457.5
973.287	1448.5
973.512	1404.5
973.736	1424.5
973.961	1427.5
974.185	1425.5
974.41	1435.5
974.634	1362.5
974.858	1387.5
975.083	1450.5
975.307	1453.5
975.531	1379.5
975.755	1326.5
975.98	1367.5
976.204	1307.5
976.428	1307.5
976.652	1314.5
976.876	1315.5
977.1	1337.5
977.324	1317.5
977.547	1355.5
977.771	1354.5
977.995	1347.5
978.219	1278.5
978.442	1388.5
978.666	1333.5
978.89	1323.5
979.113	1334.5
979.337	1303.5
979.56	1282.5
979.783	1382.5
980.007	1266.5
980.23	1320.5
980.453	1274.5
980.677	1314.5
980.9	1292.5
981.123	1221.5
981.346	1318.5
981.569	1252.5
981.792	1322.5
982.015	1279.5
982.238	1231.5
982.461	1277.5
982.684	1238.5
982.907	1236.5
983.129	1205.5
983.352	1260.5
983.575	1230.5
983.797	1239.5
984.02	1181.5
984.242	1210.5
984.465	1220.5
984.687	1279.5
984.91	1266.5
985.132	1234.5
985.354	1254.5
985.577	1217.5
985.799	1200.5
986.021	1159.5
986.243	1184.5
986.465	1188.5
986.687	1246.5
986.909	1289.5
987.131	1208.5
987.353	1185.5
987.575	1227.5
987.797	1184.5
988.019	1117.5
988.241	1190.5
988.462	1140.5
988.684	1187.5
988.906	1223.5
989.127	1267.5
989.349	1135.5
989.57	1183.5
989.792	1213.5
990.013	1234.5
990.234	1220.5
990.456	1265.5
990.677	1230.5
990.898	1185.5
991.119	1178.5
991.341	1205.5
991.562	1125.5
991.783	1177.5
992.004	1130.5
992.225	1126.5
992.446	1161.5
992.667	1091.5
992.887	1178.5
993.108	1057.5
993.329	1186.5
993.55	1162.5
993.77	1109.5
993.991	1077.5
994.212	1138.5
994.432	1114.5
994.653	1127.5
994.873	1130.5
995.093	1030.5
995.314	1063.5
995.534	1150.5
995.754	1177.5
995.975	1164.5
996.195	1073.5
996.415	1131.5
996.635	1097.5
996.855	1098.5
997.075	1085.5
997.295	1081.5
997.515	1079.5
997.735	1132.5
997.955	1093.5
998.174	1081.5
998.394	1071.5
998.614	1119.5
998.834	1056.5
999.053	1116.5
999.273	1097.5
999.492	1157.5
999.712	1111.5
999.931	1060.5
1000.151	1102.5
1000.37	1087.5
1000.589	1138.5
1000.809	1054.5
1001.028	1198.5
1001.247	1128.5
1001.466	1027.5
1001.685	1177.5
1001.904	1101.5
1002.123	1092.5
1002.342	1098.5
1002.561	1047.5
1002.78	1094.5
1002.999	1162.5
1003.218	1109.5
1003.436	1072.5
1003.655	1144.5
1003.874	1094.5
1004.092	1089.5
1004.311	1150.5
1004.53	1088.5
1004.748	1173.5
1004.966	1091.5
1005.185	1159.5
1005.403	1143.5
1005.622	1137.5
1005.84	1193.5
1006.058	1103.5
1006.276	1125.5
1006.494	1592.5
1006.712	1100.5
1006.931	1159.5
1007.149	1056.5
1007.367	1101.5
1007.584	1123.5
1007.802	1161.5
1008.02	1074.5
1008.238	1207.5
1008.456	1169.5
1008.673	1056.5
1008.891	1146.5
1009.109	1108.5
1009.326	1142.5
1009.544	1199.5
1009.761	1088.5
1009.979	1189.5
1010.196	1176.5
1010.413	1258.5
1010.631	1283.5
1010.848	1288.5
1011.065	1295.5
1011.282	1220.5
1011.5	1164.5
1011.717	1313.5
1011.934	1228.5
1012.151	1261.5
1012.368	1260.5
1012.585	1185.5
1012.801	1225.5
1013.018	1223.5
1013.235	1154.5
1013.452	1188.5
1013.669	1190.5
1013.885	1158.5
1014.102	1209.5
1014.318	1189.5
1014.535	1128.5
1014.751	1183.5
1014.968	1186.5
1015.184	1194.5
1015.401	1138.5
1015.617	1180.5
1015.833	1117.5
1016.049	1127.5
1016.266	1100.5
1016.482	1128.5
1016.698	1034.5
1016.914	1100.5
1017.13	1062.5
1017.346	1033.5
1017.562	1112.5
1017.778	1048.5
1017.993	1023.5
1018.209	1079.5
1018.425	1051.5
1018.641	1017.5
1018.856	987.5
1019.072	1023.5
1019.288	1055.5
1019.503	1025.5
1019.719	943.5
1019.934	941.5
1020.149	1027.5
1020.365	969.5
1020.58	935.5
1020.795	983.5
1021.011	937.5
1021.226	948.5
1021.441	970.5
1021.656	901.5
1021.871	852.5
1022.086	826.5
1022.301	849.5
1022.516	825.5
1022.731	905.5
1022.946	833.5
1023.16	806.5
1023.375	805.5
1023.59	776.5
1023.804	737.5
1024.019	846.5
1024.234	718.5
1024.448	761.5
1024.663	694.5
1024.877	727.5
1025.092	741.5
1025.306	749.5
1025.52	680.5
1025.734	753.5
1025.949	693.5
1026.163	669.5
1026.377	603.5
1026.591	661.5
1026.805	592.5
1027.019	597.5
1027.233	575.5
1027.447	518.5
1027.661	616.5
1027.875	584.5
1028.088	586.5
1028.302	507.5
1028.516	506.5
1028.73	526.5
1028.943	510.5
1029.157	471.5
1029.37	467.5
1029.584	1.5
1029.797	-3.5
1030.011	-2.5
1030.224	1.5
