Data from QEP037381__40__10-02-19-928.txt Node

Date: Wed Dec 21 10:02:19 EST 2022
User: dcclab
Spectrometer: QEP03738
Trigger mode: 4
Integration Time (sec): 1.000000E1
Scans to average: 1
Electric dark correction enabled: true
Nonlinearity correction enabled: false
Boxcar width: 0
XAxis mode: Wavelengths
Number of Pixels in Spectrum: 1044
>>>>>Begin Spectral Data<<<<<
784.041	10.25
784.3	-1.75
784.558	-0.75
784.817	-2.75
785.075	108278.25
785.334	18886.25
785.592	8876.25
785.851	6145.25
786.109	4578.25
786.368	3539.25
786.626	2896.25
786.884	2384.25
787.143	1989.25
787.401	1648.25
787.659	1488.25
787.917	1270.25
788.175	1165.25
788.433	1004.25
788.691	892.25
788.949	820.25
789.207	784.25
789.465	692.25
789.723	656.25
789.98	594.25
790.238	625.25
790.496	586.25
790.753	551.25
791.011	612.25
791.268	530.25
791.526	528.25
791.783	529.25
792.041	509.25
792.298	444.25
792.556	495.25
792.813	476.25
793.07	465.25
793.327	434.25
793.584	511.25
793.841	435.25
794.099	458.25
794.356	505.25
794.613	415.25
794.869	452.25
795.126	402.25
795.383	386.25
795.64	416.25
795.897	361.25
796.153	420.25
796.41	398.25
796.667	391.25
796.923	388.25
797.18	389.25
797.436	412.25
797.693	370.25
797.949	437.25
798.206	461.25
798.462	368.25
798.718	426.25
798.974	406.25
799.231	445.25
799.487	428.25
799.743	422.25
799.999	447.25
800.255	442.25
800.511	403.25
800.767	460.25
801.023	435.25
801.279	467.25
801.534	477.25
801.79	496.25
802.046	485.25
802.302	574.25
802.557	586.25
802.813	695.25
803.068	769.25
803.324	1001.25
803.579	1273.25
803.835	1658.25
804.09	2260.25
804.345	2861.25
804.601	3603.25
804.856	4304.25
805.111	4932.25
805.366	5363.25
805.621	5688.25
805.876	5909.25
806.131	6035.25
806.386	6136.25
806.641	6187.25
806.896	6293.25
807.151	6419.25
807.406	6457.25
807.661	6557.25
807.915	6665.25
808.17	6763.25
808.425	6791.25
808.679	6809.25
808.934	6952.25
809.188	6944.25
809.443	7050.25
809.697	7071.25
809.951	7110.25
810.206	7154.25
810.46	7223.25
810.714	7303.25
810.968	7358.25
811.223	7365.25
811.477	7374.25
811.731	7452.25
811.985	7433.25
812.239	7500.25
812.493	7514.25
812.747	7536.25
813	7545.25
813.254	7625.25
813.508	7657.25
813.762	7679.25
814.015	7686.25
814.269	7752.25
814.522	7788.25
814.776	7933.25
815.03	7981.25
815.283	8100.25
815.536	8281.25
815.79	8212.25
816.043	8342.25
816.296	8453.25
816.55	8496.25
816.803	8635.25
817.056	8758.25
817.309	8796.25
817.562	8809.25
817.815	8958.25
818.068	8966.25
818.321	9016.25
818.574	9135.25
818.827	9249.25
819.079	9331.25
819.332	9587.25
819.585	9635.25
819.838	9733.25
820.09	9756.25
820.343	9808.25
820.595	9808.25
820.848	9914.25
821.1	9936.25
821.353	9939.25
821.605	9921.25
821.857	9956.25
822.11	9839.25
822.362	9892.25
822.614	9912.25
822.866	9919.25
823.118	9854.25
823.37	9924.25
823.622	9944.25
823.874	10010.25
824.126	10086.25
824.378	10088.25
824.63	10090.25
824.882	10131.25
825.134	10038.25
825.385	10077.25
825.637	10042.25
825.888	9948.25
826.14	9939.25
826.392	9816.25
826.643	9816.25
826.895	9854.25
827.146	9794.25
827.397	9753.25
827.649	9755.25
827.9	9628.25
828.151	9683.25
828.402	9760.25
828.653	9761.25
828.905	9807.25
829.156	9884.25
829.407	9813.25
829.658	9763.25
829.909	9847.25
830.159	9808.25
830.41	9782.25
830.661	9715.25
830.912	9673.25
831.162	9521.25
831.413	9612.25
831.664	9611.25
831.914	9675.25
832.165	9566.25
832.415	9619.25
832.666	9624.25
832.916	9622.25
833.167	9610.25
833.417	9570.25
833.667	9562.25
833.917	9501.25
834.168	9483.25
834.418	9552.25
834.668	9470.25
834.918	9435.25
835.168	9371.25
835.418	9325.25
835.668	9344.25
835.918	9370.25
836.167	9308.25
836.417	9225.25
836.667	9282.25
836.917	9317.25
837.166	9182.25
837.416	9302.25
837.666	9225.25
837.915	9124.25
838.165	9180.25
838.414	9099.25
838.663	9065.25
838.913	9067.25
839.162	9066.25
839.411	9090.25
839.661	8928.25
839.91	9005.25
840.159	9013.25
840.408	9019.25
840.657	9001.25
840.906	9064.25
841.155	9080.25
841.404	8981.25
841.653	8966.25
841.902	8988.25
842.15	9045.25
842.399	9036.25
842.648	9037.25
842.897	8936.25
843.145	8858.25
843.394	8856.25
843.642	8832.25
843.891	8871.25
844.139	8821.25
844.388	8634.25
844.636	8624.25
844.884	8605.25
845.133	8564.25
845.381	8625.25
845.629	8701.25
845.877	8556.25
846.125	8568.25
846.373	8595.25
846.621	8552.25
846.869	8582.25
847.117	8476.25
847.365	8494.25
847.613	8461.25
847.861	8334.25
848.108	8440.25
848.356	8371.25
848.604	8386.25
848.851	8341.25
849.099	8388.25
849.346	8377.25
849.594	8426.25
849.841	8463.25
850.089	8497.25
850.336	8486.25
850.583	8398.25
850.831	8410.25
851.078	8432.25
851.325	8341.25
851.572	8348.25
851.819	8309.25
852.066	8185.25
852.313	8086.25
852.56	7945.25
852.807	7964.25
853.054	7904.25
853.301	7937.25
853.548	7940.25
853.794	8030.25
854.041	7986.25
854.288	8013.25
854.534	8242.25
854.781	8134.25
855.028	8026.25
855.274	8095.25
855.52	8052.25
855.767	7954.25
856.013	7971.25
856.26	8217.25
856.506	7862.25
856.752	7899.25
856.998	7845.25
857.244	7841.25
857.49	7857.25
857.736	7962.25
857.982	7909.25
858.228	7943.25
858.474	7857.25
858.72	7791.25
858.966	7699.25
859.212	7689.25
859.458	7626.25
859.703	7521.25
859.949	7408.25
860.195	7434.25
860.44	7410.25
860.686	7350.25
860.931	7370.25
861.177	7318.25
861.422	7345.25
861.667	7265.25
861.913	7313.25
862.158	7230.25
862.403	7330.25
862.648	7288.25
862.893	7366.25
863.138	7306.25
863.384	7301.25
863.629	7295.25
863.873	7341.25
864.118	7217.25
864.363	7142.25
864.608	7187.25
864.853	7180.25
865.098	7124.25
865.342	7087.25
865.587	7088.25
865.832	7077.25
866.076	7136.25
866.321	7018.25
866.565	6972.25
866.81	6907.25
867.054	6969.25
867.298	6975.25
867.543	6870.25
867.787	6865.25
868.031	6899.25
868.275	6926.25
868.519	6839.25
868.764	6860.25
869.008	6834.25
869.252	6905.25
869.496	6781.25
869.739	6756.25
869.983	6861.25
870.227	6752.25
870.471	6724.25
870.715	6789.25
870.958	6886.25
871.202	6760.25
871.446	6805.25
871.689	6776.25
871.933	6829.25
872.176	6834.25
872.42	6775.25
872.663	6824.25
872.906	6821.25
873.15	6713.25
873.393	6728.25
873.636	6719.25
873.879	6654.25
874.122	6631.25
874.366	6477.25
874.609	6432.25
874.852	6443.25
875.095	6430.25
875.337	6367.25
875.58	6280.25
875.823	6274.25
876.066	6323.25
876.309	6335.25
876.551	6230.25
876.794	6176.25
877.037	6298.25
877.279	6125.25
877.522	6210.25
877.764	6188.25
878.007	6142.25
878.249	6182.25
878.491	6180.25
878.734	6189.25
878.976	6159.25
879.218	6085.25
879.46	6170.25
879.702	6040.25
879.945	5988.25
880.187	5884.25
880.429	5910.25
880.671	5878.25
880.912	5898.25
881.154	5846.25
881.396	5717.25
881.638	5847.25
881.88	5781.25
882.121	5755.25
882.363	5750.25
882.605	5804.25
882.846	5725.25
883.088	5782.25
883.329	5716.25
883.571	5761.25
883.812	5787.25
884.053	5849.25
884.295	5938.25
884.536	6119.25
884.777	5940.25
885.018	5952.25
885.259	5943.25
885.5	5865.25
885.742	6146.25
885.982	5862.25
886.223	5763.25
886.464	5777.25
886.705	5693.25
886.946	5626.25
887.187	5561.25
887.428	5615.25
887.668	5464.25
887.909	5374.25
888.15	5363.25
888.39	5388.25
888.631	5359.25
888.871	5318.25
889.111	5263.25
889.352	5218.25
889.592	5106.25
889.833	5063.25
890.073	5151.25
890.313	5133.25
890.553	5006.25
890.793	5035.25
891.033	4959.25
891.273	4905.25
891.513	4979.25
891.753	5000.25
891.993	4936.25
892.233	4979.25
892.473	5000.25
892.713	4937.25
892.952	4933.25
893.192	4934.25
893.432	4910.25
893.671	4944.25
893.911	4895.25
894.15	4892.25
894.39	4777.25
894.629	4772.25
894.869	4768.25
895.108	4756.25
895.347	4688.25
895.587	4773.25
895.826	4661.25
896.065	4647.25
896.304	4715.25
896.543	4714.25
896.782	4598.25
897.021	4664.25
897.26	4652.25
897.499	4689.25
897.738	4684.25
897.977	4587.25
898.216	4546.25
898.454	4551.25
898.693	4420.25
898.932	4500.25
899.17	4449.25
899.409	4430.25
899.647	4394.25
899.886	4409.25
900.124	4402.25
900.363	4353.25
900.601	4407.25
900.839	4402.25
901.078	4455.25
901.316	4449.25
901.554	4425.25
901.792	4453.25
902.03	4441.25
902.268	4407.25
902.506	4432.25
902.744	4386.25
902.982	4333.25
903.22	4294.25
903.458	4275.25
903.695	4243.25
903.933	4211.25
904.171	4133.25
904.409	4067.25
904.646	4091.25
904.884	3996.25
905.121	4031.25
905.359	3956.25
905.596	3911.25
905.833	3845.25
906.071	3859.25
906.308	3890.25
906.545	3870.25
906.783	3795.25
907.02	3847.25
907.257	3779.25
907.494	3816.25
907.731	3833.25
907.968	3837.25
908.205	3721.25
908.442	3670.25
908.679	3727.25
908.915	3683.25
909.152	3697.25
909.389	3619.25
909.626	3616.25
909.862	3544.25
910.099	3603.25
910.335	3635.25
910.572	3484.25
910.808	3582.25
911.045	3528.25
911.281	3474.25
911.518	3532.25
911.754	3501.25
911.99	3517.25
912.226	3450.25
912.463	3406.25
912.699	3395.25
912.935	3403.25
913.171	3351.25
913.407	3331.25
913.643	3347.25
913.879	3311.25
914.114	3243.25
914.35	3241.25
914.586	3229.25
914.822	3114.25
915.057	3234.25
915.293	3098.25
915.529	3082.25
915.764	3144.25
916	3162.25
916.235	3096.25
916.471	3139.25
916.706	3075.25
916.941	3079.25
917.177	3067.25
917.412	3057.25
917.647	3122.25
917.882	3048.25
918.117	3111.25
918.352	3090.25
918.588	3074.25
918.823	2992.25
919.057	3000.25
919.292	2914.25
919.527	2999.25
919.762	2892.25
919.997	2934.25
920.232	2869.25
920.466	2887.25
920.701	2751.25
920.935	2828.25
921.17	2748.25
921.405	2772.25
921.639	2775.25
921.873	2759.25
922.108	2751.25
922.342	2770.25
922.576	2688.25
922.811	2699.25
923.045	2782.25
923.279	2759.25
923.513	2619.25
923.747	2715.25
923.981	2673.25
924.215	2619.25
924.449	2632.25
924.683	2610.25
924.917	2580.25
925.151	2587.25
925.385	2631.25
925.618	2609.25
925.852	2589.25
926.086	2515.25
926.319	2566.25
926.553	2581.25
926.786	2584.25
927.02	2575.25
927.253	2594.25
927.486	2567.25
927.72	2522.25
927.953	2565.25
928.186	2537.25
928.42	2563.25
928.653	2523.25
928.886	2492.25
929.119	2526.25
929.352	2459.25
929.585	2478.25
929.818	2405.25
930.051	2468.25
930.284	2436.25
930.516	2410.25
930.749	2358.25
930.982	2413.25
931.215	2390.25
931.447	2365.25
931.68	2336.25
931.912	2332.25
932.145	2312.25
932.377	2323.25
932.61	2487.25
932.842	2266.25
933.074	2311.25
933.307	2311.25
933.539	2369.25
933.771	2366.25
934.003	2314.25
934.236	2370.25
934.468	2375.25
934.7	2314.25
934.932	2324.25
935.164	2293.25
935.395	2269.25
935.627	2289.25
935.859	2282.25
936.091	2241.25
936.323	2276.25
936.554	2301.25
936.786	2275.25
937.017	2210.25
937.249	2245.25
937.481	2171.25
937.712	2279.25
937.943	2243.25
938.175	2221.25
938.406	2196.25
938.637	2257.25
938.869	2171.25
939.1	2220.25
939.331	2183.25
939.562	2227.25
939.793	2238.25
940.024	2237.25
940.255	2215.25
940.486	2162.25
940.717	2166.25
940.948	2146.25
941.179	2098.25
941.409	2119.25
941.64	2102.25
941.871	2122.25
942.102	2107.25
942.332	2113.25
942.563	2175.25
942.793	2132.25
943.024	2095.25
943.254	2071.25
943.484	2139.25
943.715	2161.25
943.945	2126.25
944.175	2066.25
944.405	2044.25
944.636	2050.25
944.866	2089.25
945.096	2113.25
945.326	2015.25
945.556	2087.25
945.786	2118.25
946.016	2054.25
946.245	2040.25
946.475	2022.25
946.705	2044.25
946.935	2004.25
947.164	2032.25
947.394	1970.25
947.624	2002.25
947.853	2062.25
948.083	2028.25
948.312	1940.25
948.542	1912.25
948.771	1918.25
949	1917.25
949.23	1950.25
949.459	1962.25
949.688	1990.25
949.917	1964.25
950.146	1970.25
950.375	1975.25
950.604	1907.25
950.833	1982.25
951.062	2002.25
951.291	1925.25
951.52	1881.25
951.749	1923.25
951.978	1889.25
952.206	1892.25
952.435	1876.25
952.664	1909.25
952.892	1924.25
953.121	1913.25
953.349	1930.25
953.578	1916.25
953.806	1920.25
954.035	1824.25
954.263	1875.25
954.491	1800.25
954.719	1856.25
954.948	1810.25
955.176	1822.25
955.404	1747.25
955.632	1824.25
955.86	1839.25
956.088	1821.25
956.316	1858.25
956.544	1850.25
956.772	1782.25
956.999	1757.25
957.227	1836.25
957.455	1718.25
957.683	1767.25
957.91	1749.25
958.138	1729.25
958.365	1749.25
958.593	1712.25
958.82	1680.25
959.048	1767.25
959.275	1748.25
959.502	1697.25
959.73	1697.25
959.957	1687.25
960.184	1768.25
960.411	1677.25
960.638	1760.25
960.865	1710.25
961.092	1740.25
961.319	1606.25
961.546	1730.25
961.773	1731.25
962	1662.25
962.227	1745.25
962.454	1686.25
962.68	1655.25
962.907	1703.25
963.134	1648.25
963.36	1674.25
963.587	1719.25
963.813	1617.25
964.04	1695.25
964.266	1604.25
964.493	1675.25
964.719	1669.25
964.945	1699.25
965.171	1582.25
965.398	1618.25
965.624	1653.25
965.85	1550.25
966.076	1601.25
966.302	1617.25
966.528	1604.25
966.754	1621.25
966.98	1596.25
967.206	1607.25
967.431	1504.25
967.657	1622.25
967.883	1599.25
968.109	1597.25
968.334	1536.25
968.56	1518.25
968.785	1547.25
969.011	1495.25
969.236	1570.25
969.462	1506.25
969.687	1514.25
969.912	1555.25
970.138	1602.25
970.363	1482.25
970.588	1525.25
970.813	1508.25
971.038	1488.25
971.263	1525.25
971.488	1525.25
971.713	1558.25
971.938	1546.25
972.163	1454.25
972.388	1482.25
972.613	1448.25
972.838	1461.25
973.062	1467.25
973.287	1477.25
973.512	1409.25
973.736	1434.25
973.961	1440.25
974.185	1420.25
974.41	1498.25
974.634	1356.25
974.858	1371.25
975.083	1437.25
975.307	1456.25
975.531	1386.25
975.755	1355.25
975.98	1353.25
976.204	1310.25
976.428	1310.25
976.652	1335.25
976.876	1310.25
977.1	1347.25
977.324	1329.25
977.547	1368.25
977.771	1375.25
977.995	1331.25
978.219	1298.25
978.442	1391.25
978.666	1341.25
978.89	1325.25
979.113	1323.25
979.337	1335.25
979.56	1301.25
979.783	1367.25
980.007	1268.25
980.23	1301.25
980.453	1280.25
980.677	1315.25
980.9	1293.25
981.123	1217.25
981.346	1310.25
981.569	1302.25
981.792	1310.25
982.015	1279.25
982.238	1238.25
982.461	1281.25
982.684	1250.25
982.907	1207.25
983.129	1195.25
983.352	1276.25
983.575	1239.25
983.797	1238.25
984.02	1211.25
984.242	1229.25
984.465	1229.25
984.687	1243.25
984.91	1261.25
985.132	1244.25
985.354	1269.25
985.577	1240.25
985.799	1223.25
986.021	1131.25
986.243	1168.25
986.465	1185.25
986.687	1256.25
986.909	1267.25
987.131	1232.25
987.353	1205.25
987.575	1219.25
987.797	1186.25
988.019	1138.25
988.241	1203.25
988.462	1145.25
988.684	1198.25
988.906	1231.25
989.127	1252.25
989.349	1129.25
989.57	1170.25
989.792	1219.25
990.013	1219.25
990.234	1221.25
990.456	1234.25
990.677	1243.25
990.898	1155.25
991.119	1175.25
991.341	1192.25
991.562	1139.25
991.783	1175.25
992.004	1121.25
992.225	1107.25
992.446	1155.25
992.667	1086.25
992.887	1150.25
993.108	1055.25
993.329	1187.25
993.55	1130.25
993.77	1066.25
993.991	1086.25
994.212	1117.25
994.432	1110.25
994.653	1135.25
994.873	1099.25
995.093	1049.25
995.314	1050.25
995.534	1136.25
995.754	1155.25
995.975	1182.25
996.195	1059.25
996.415	1123.25
996.635	1081.25
996.855	1128.25
997.075	1077.25
997.295	1095.25
997.515	1063.25
997.735	1134.25
997.955	1087.25
998.174	1090.25
998.394	1053.25
998.614	1102.25
998.834	1056.25
999.053	1131.25
999.273	1107.25
999.492	1169.25
999.712	1084.25
999.931	1064.25
1000.151	1113.25
1000.37	1101.25
1000.589	1141.25
1000.809	1079.25
1001.028	1205.25
1001.247	1123.25
1001.466	1030.25
1001.685	1170.25
1001.904	1098.25
1002.123	1097.25
1002.342	1092.25
1002.561	1067.25
1002.78	1094.25
1002.999	1184.25
1003.218	1102.25
1003.436	1070.25
1003.655	1147.25
1003.874	1085.25
1004.092	1093.25
1004.311	1165.25
1004.53	1080.25
1004.748	1190.25
1004.966	1103.25
1005.185	1152.25
1005.403	1141.25
1005.622	1125.25
1005.84	1178.25
1006.058	1102.25
1006.276	1112.25
1006.494	1617.25
1006.712	1124.25
1006.931	1162.25
1007.149	1087.25
1007.367	1071.25
1007.584	1130.25
1007.802	1153.25
1008.02	1079.25
1008.238	1173.25
1008.456	1142.25
1008.673	1054.25
1008.891	1135.25
1009.109	1075.25
1009.326	1131.25
1009.544	1228.25
1009.761	1088.25
1009.979	1191.25
1010.196	1165.25
1010.413	1256.25
1010.631	1295.25
1010.848	1292.25
1011.065	1284.25
1011.282	1237.25
1011.5	1174.25
1011.717	1295.25
1011.934	1231.25
1012.151	1255.25
1012.368	1243.25
1012.585	1170.25
1012.801	1247.25
1013.018	1182.25
1013.235	1156.25
1013.452	1202.25
1013.669	1200.25
1013.885	1182.25
1014.102	1204.25
1014.318	1189.25
1014.535	1153.25
1014.751	1186.25
1014.968	1189.25
1015.184	1229.25
1015.401	1125.25
1015.617	1162.25
1015.833	1115.25
1016.049	1128.25
1016.266	1108.25
1016.482	1114.25
1016.698	1046.25
1016.914	1117.25
1017.13	1059.25
1017.346	1042.25
1017.562	1131.25
1017.778	1063.25
1017.993	1016.25
1018.209	1082.25
1018.425	1079.25
1018.641	1017.25
1018.856	1006.25
1019.072	1017.25
1019.288	1064.25
1019.503	1023.25
1019.719	961.25
1019.934	965.25
1020.149	1004.25
1020.365	990.25
1020.58	920.25
1020.795	1000.25
1021.011	945.25
1021.226	940.25
1021.441	951.25
1021.656	896.25
1021.871	827.25
1022.086	847.25
1022.301	839.25
1022.516	850.25
1022.731	906.25
1022.946	823.25
1023.16	797.25
1023.375	787.25
1023.59	767.25
1023.804	743.25
1024.019	850.25
1024.234	725.25
1024.448	772.25
1024.663	701.25
1024.877	719.25
1025.092	764.25
1025.306	776.25
1025.52	647.25
1025.734	742.25
1025.949	685.25
1026.163	653.25
1026.377	617.25
1026.591	663.25
1026.805	600.25
1027.019	599.25
1027.233	571.25
1027.447	513.25
1027.661	621.25
1027.875	565.25
1028.088	576.25
1028.302	511.25
1028.516	513.25
1028.73	525.25
1028.943	521.25
1029.157	473.25
1029.37	454.25
1029.584	-5.75
1029.797	1.25
1030.011	1.25
1030.224	-1.75
