Data from QEP037381__4__09-56-19-924.txt Node

Date: Wed Dec 21 09:56:19 EST 2022
User: dcclab
Spectrometer: QEP03738
Trigger mode: 4
Integration Time (sec): 1.000000E1
Scans to average: 1
Electric dark correction enabled: true
Nonlinearity correction enabled: false
Boxcar width: 0
XAxis mode: Wavelengths
Number of Pixels in Spectrum: 1044
>>>>>Begin Spectral Data<<<<<
784.041	15
784.3	0
784.558	-5
784.817	-4
785.075	122610
785.334	20417
785.592	9294
785.851	6379
786.109	4855
786.368	3757
786.626	3003
786.884	2503
787.143	2082
787.401	1708
787.659	1581
787.917	1333
788.175	1195
788.433	1056
788.691	931
788.949	859
789.207	838
789.465	700
789.723	688
789.98	618
790.238	656
790.496	610
790.753	577
791.011	629
791.268	564
791.526	534
791.783	574
792.041	535
792.298	452
792.556	514
792.813	486
793.07	475
793.327	452
793.584	524
793.841	455
794.099	467
794.356	533
794.613	422
794.869	465
795.126	416
795.383	417
795.64	424
795.897	395
796.153	432
796.41	424
796.667	408
796.923	422
797.18	403
797.436	435
797.693	395
797.949	459
798.206	478
798.462	395
798.718	431
798.974	423
799.231	478
799.487	448
799.743	454
799.999	485
800.255	467
800.511	457
800.767	480
801.023	462
801.279	498
801.534	520
801.79	560
802.046	576
802.302	681
802.557	735
802.813	884
803.068	1038
803.324	1409
803.579	1838
803.835	2529
804.09	3425
804.345	4480
804.601	5553
804.856	6685
805.111	7621
805.366	8315
805.621	8760
805.876	9182
806.131	9338
806.386	9490
806.641	9589
806.896	9698
807.151	9930
807.406	10048
807.661	10207
807.915	10323
808.17	10474
808.425	10562
808.679	10574
808.934	10690
809.188	10762
809.443	10927
809.697	11000
809.951	10988
810.206	11044
810.46	11155
810.714	11229
810.968	11303
811.223	11325
811.477	11446
811.731	11553
811.985	11573
812.239	11644
812.493	11686
812.747	11759
813	11714
813.254	11854
813.508	11840
813.762	11877
814.015	11859
814.269	11955
814.522	12135
814.776	12162
815.03	12291
815.283	12453
815.536	12606
815.79	12908
816.043	12986
816.296	13046
816.55	13223
816.803	13310
817.056	13614
817.309	13619
817.562	13647
817.815	13812
818.068	13849
818.321	13900
818.574	14133
818.827	14315
819.079	14369
819.332	14667
819.585	14871
819.838	15066
820.09	15052
820.343	15222
820.595	15200
820.848	15287
821.1	15331
821.353	15451
821.605	15420
821.857	15396
822.11	15378
822.362	15275
822.614	15218
822.866	15263
823.118	15265
823.37	15392
823.622	15392
823.874	15465
824.126	15529
824.378	15420
824.63	15490
824.882	15608
825.134	15530
825.385	15521
825.637	15480
825.888	15399
826.14	15359
826.392	15269
826.643	15202
826.895	15091
827.146	15126
827.397	15006
827.649	15117
827.9	15069
828.151	15071
828.402	15069
828.653	15143
828.905	15170
829.156	15157
829.407	15171
829.658	15107
829.909	15111
830.159	15109
830.41	15029
830.661	14973
830.912	14856
831.162	14867
831.413	14720
831.664	14799
831.914	14759
832.165	14834
832.415	14844
832.666	14799
832.916	14725
833.167	14757
833.417	14753
833.667	14691
833.917	14611
834.168	14639
834.418	14618
834.668	14558
834.918	14490
835.168	14413
835.418	14449
835.668	14280
835.918	14394
836.167	14355
836.417	14225
836.667	14210
836.917	14242
837.166	14168
837.416	14118
837.666	14111
837.915	14085
838.165	14116
838.414	13940
838.663	13972
838.913	14009
839.162	13866
839.411	13937
839.661	13811
839.91	13888
840.159	13784
840.408	13816
840.657	13811
840.906	13842
841.155	13835
841.404	13751
841.653	13767
841.902	13684
842.15	13724
842.399	13723
842.648	13727
842.897	13668
843.145	13624
843.394	13467
843.642	13430
843.891	13379
844.139	13347
844.388	13192
844.636	13180
844.884	13142
845.133	13129
845.381	13182
845.629	13137
845.877	13114
846.125	13093
846.373	13096
846.621	13047
846.869	13026
847.117	12946
847.365	12805
847.613	12806
847.861	12741
848.108	12797
848.356	12778
848.604	12710
848.851	12718
849.099	12791
849.346	12739
849.594	12812
849.841	12844
850.089	12767
850.336	12876
850.583	12816
850.831	12690
851.078	12764
851.325	12636
851.572	12575
851.819	12503
852.066	12238
852.313	12182
852.56	12068
852.807	12084
853.054	12034
853.301	12005
853.548	11990
853.794	12155
854.041	12067
854.288	12126
854.534	12329
854.781	12278
855.028	12200
855.274	12134
855.52	12046
855.767	11973
856.013	11983
856.26	12232
856.506	11793
856.752	11847
856.998	11816
857.244	11827
857.49	11873
857.736	11886
857.982	11870
858.228	11884
858.474	11869
858.72	11754
858.966	11692
859.212	11520
859.458	11374
859.703	11392
859.949	11320
860.195	11270
860.44	11170
860.686	11019
860.931	11073
861.177	10932
861.422	10945
861.667	10970
861.913	10888
862.158	10930
862.403	11050
862.648	10972
862.893	11080
863.138	11055
863.384	10993
863.629	10974
863.873	10914
864.118	10897
864.363	10799
864.608	10834
864.853	10793
865.098	10755
865.342	10752
865.587	10573
865.832	10572
866.076	10673
866.321	10588
866.565	10516
866.81	10452
867.054	10440
867.298	10494
867.543	10387
867.787	10459
868.031	10276
868.275	10388
868.519	10320
868.764	10352
869.008	10249
869.252	10171
869.496	10133
869.739	10096
869.983	10164
870.227	10024
870.471	10028
870.715	10072
870.958	10152
871.202	10090
871.446	10091
871.689	10067
871.933	10108
872.176	10129
872.42	10071
872.663	10019
872.906	10048
873.15	9961
873.393	9830
873.636	9912
873.879	9836
874.122	9744
874.366	9562
874.609	9600
874.852	9478
875.095	9507
875.337	9368
875.58	9323
875.823	9391
876.066	9321
876.309	9383
876.551	9219
876.794	9193
877.037	9206
877.279	9139
877.522	9158
877.764	9261
878.007	9131
878.249	9189
878.491	9103
878.734	9169
878.976	9101
879.218	9077
879.46	9046
879.702	8987
879.945	8917
880.187	8840
880.429	8729
880.671	8703
880.912	8736
881.154	8649
881.396	8646
881.638	8617
881.88	8669
882.121	8612
882.363	8609
882.605	8565
882.846	8603
883.088	8470
883.329	8470
883.571	8448
883.812	8518
884.053	8541
884.295	8681
884.536	8705
884.777	8657
885.018	8619
885.259	8578
885.5	8482
885.742	8757
885.982	8439
886.223	8371
886.464	8334
886.705	8305
886.946	8295
887.187	8083
887.428	8138
887.668	8044
887.909	7987
888.15	7952
888.39	7931
888.631	7863
888.871	7839
889.111	7773
889.352	7765
889.592	7630
889.833	7556
890.073	7556
890.313	7574
890.553	7341
890.793	7414
891.033	7381
891.273	7331
891.513	7331
891.753	7372
891.993	7294
892.233	7249
892.473	7405
892.713	7281
892.952	7259
893.192	7338
893.432	7284
893.671	7281
893.911	7174
894.15	7204
894.39	7078
894.629	7088
894.869	7080
895.108	6956
895.347	6967
895.587	7006
895.826	6894
896.065	6856
896.304	6887
896.543	6878
896.782	6824
897.021	6881
897.26	6847
897.499	6813
897.738	6768
897.977	6709
898.216	6669
898.454	6589
898.693	6566
898.932	6568
899.17	6504
899.409	6469
899.647	6482
899.886	6423
900.124	6480
900.363	6409
900.601	6410
900.839	6456
901.078	6415
901.316	6413
901.554	6399
901.792	6396
902.03	6378
902.268	6366
902.506	6385
902.744	6352
902.982	6338
903.22	6287
903.458	6128
903.695	6158
903.933	6110
904.171	5997
904.409	5993
904.646	5889
904.884	5847
905.121	5879
905.359	5699
905.596	5690
905.833	5619
906.071	5644
906.308	5688
906.545	5652
906.783	5557
907.02	5581
907.257	5499
907.494	5570
907.731	5539
907.968	5537
908.205	5449
908.442	5424
908.679	5463
908.915	5382
909.152	5331
909.389	5258
909.626	5253
909.862	5236
910.099	5209
910.335	5249
910.572	5122
910.808	5179
911.045	5126
911.281	5123
911.518	5120
911.754	5067
911.99	5003
912.226	4979
912.463	4946
912.699	4925
912.935	4865
913.171	4876
913.407	4770
913.643	4839
913.879	4730
914.114	4677
914.35	4632
914.586	4682
914.822	4558
915.057	4612
915.293	4464
915.529	4460
915.764	4563
916	4494
916.235	4513
916.471	4496
916.706	4428
916.941	4450
917.177	4406
917.412	4464
917.647	4485
917.882	4390
918.117	4467
918.352	4411
918.588	4399
918.823	4333
919.057	4255
919.292	4171
919.527	4278
919.762	4160
919.997	4157
920.232	4072
920.466	4103
920.701	3968
920.935	4076
921.17	4020
921.405	3954
921.639	3988
921.873	3973
922.108	3952
922.342	3980
922.576	3885
922.811	3839
923.045	3888
923.279	3887
923.513	3790
923.747	3875
923.981	3830
924.215	3726
924.449	3760
924.683	3665
924.917	3686
925.151	3686
925.385	3728
925.618	3654
925.852	3688
926.086	3603
926.319	3673
926.553	3673
926.786	3658
927.02	3631
927.253	3655
927.486	3651
927.72	3580
927.953	3640
928.186	3551
928.42	3610
928.653	3497
928.886	3552
929.119	3547
929.352	3531
929.585	3534
929.818	3414
930.051	3474
930.284	3419
930.516	3343
930.749	3310
930.982	3331
931.215	3349
931.447	3278
931.68	3308
931.912	3265
932.145	3292
932.377	3301
932.61	3397
932.842	3214
933.074	3273
933.307	3246
933.539	3328
933.771	3330
934.003	3230
934.236	3289
934.468	3329
934.7	3233
934.932	3268
935.164	3205
935.395	3210
935.627	3196
935.859	3233
936.091	3171
936.323	3233
936.554	3191
936.786	3153
937.017	3083
937.249	3141
937.481	3061
937.712	3137
937.943	3100
938.175	3130
938.406	3096
938.637	3156
938.869	3030
939.1	3073
939.331	3005
939.562	3086
939.793	3070
940.024	3089
940.255	3070
940.486	3018
940.717	2995
940.948	2995
941.179	2979
941.409	2946
941.64	2962
941.871	2993
942.102	2930
942.332	2965
942.563	2952
942.793	2986
943.024	2891
943.254	2957
943.484	3000
943.715	2987
943.945	2954
944.175	2873
944.405	2873
944.636	2834
944.866	2935
945.096	2942
945.326	2824
945.556	2876
945.786	2925
946.016	2836
946.245	2779
946.475	2766
946.705	2783
946.935	2776
947.164	2762
947.394	2767
947.624	2757
947.853	2737
948.083	2745
948.312	2683
948.542	2656
948.771	2627
949	2659
949.23	2651
949.459	2662
949.688	2756
949.917	2658
950.146	2669
950.375	2706
950.604	2617
950.833	2692
951.062	2669
951.291	2650
951.52	2613
951.749	2654
951.978	2582
952.206	2606
952.435	2606
952.664	2619
952.892	2617
953.121	2601
953.349	2580
953.578	2562
953.806	2587
954.035	2477
954.263	2551
954.491	2476
954.719	2514
954.948	2514
955.176	2433
955.404	2400
955.632	2492
955.86	2473
956.088	2460
956.316	2462
956.544	2457
956.772	2419
956.999	2392
957.227	2484
957.455	2345
957.683	2361
957.91	2332
958.138	2312
958.365	2385
958.593	2324
958.82	2302
959.048	2347
959.275	2348
959.502	2305
959.73	2277
959.957	2301
960.184	2324
960.411	2262
960.638	2347
960.865	2270
961.092	2330
961.319	2208
961.546	2292
961.773	2311
962	2263
962.227	2297
962.454	2248
962.68	2286
962.907	2265
963.134	2213
963.36	2186
963.587	2259
963.813	2163
964.04	2235
964.266	2174
964.493	2236
964.719	2206
964.945	2198
965.171	2051
965.398	2181
965.624	2142
965.85	2093
966.076	2120
966.302	2119
966.528	2131
966.754	2125
966.98	2086
967.206	2103
967.431	2023
967.657	2097
967.883	2098
968.109	2084
968.334	2033
968.56	2007
968.785	2000
969.011	1993
969.236	2055
969.462	1979
969.687	1980
969.912	2033
970.138	2067
970.363	1985
970.588	2006
970.813	1970
971.038	1932
971.263	1954
971.488	2003
971.713	2026
971.938	1969
972.163	1892
972.388	1928
972.613	1926
972.838	1911
973.062	1918
973.287	1907
973.512	1804
973.736	1872
973.961	1844
974.185	1849
974.41	1886
974.634	1797
974.858	1795
975.083	1844
975.307	1838
975.531	1807
975.755	1766
975.98	1741
976.204	1704
976.428	1726
976.652	1727
976.876	1724
977.1	1738
977.324	1689
977.547	1744
977.771	1751
977.995	1719
978.219	1665
978.442	1752
978.666	1725
978.89	1700
979.113	1727
979.337	1707
979.56	1669
979.783	1758
980.007	1632
980.23	1680
980.453	1656
980.677	1683
980.9	1664
981.123	1595
981.346	1665
981.569	1636
981.792	1662
982.015	1625
982.238	1573
982.461	1615
982.684	1588
982.907	1573
983.129	1530
983.352	1586
983.575	1586
983.797	1613
984.02	1525
984.242	1533
984.465	1548
984.687	1582
984.91	1571
985.132	1533
985.354	1581
985.577	1559
985.799	1531
986.021	1479
986.243	1492
986.465	1510
986.687	1503
986.909	1589
987.131	1514
987.353	1499
987.575	1507
987.797	1463
988.019	1412
988.241	1495
988.462	1423
988.684	1506
988.906	1506
989.127	1547
989.349	1418
989.57	1445
989.792	1525
990.013	1514
990.234	1528
990.456	1486
990.677	1527
990.898	1443
991.119	1449
991.341	1464
991.562	1409
991.783	1449
992.004	1402
992.225	1366
992.446	1433
992.667	1340
992.887	1416
993.108	1330
993.329	1436
993.55	1375
993.77	1342
993.991	1331
994.212	1385
994.432	1363
994.653	1389
994.873	1377
995.093	1268
995.314	1287
995.534	1374
995.754	1403
995.975	1396
996.195	1293
996.415	1344
996.635	1339
996.855	1341
997.075	1308
997.295	1318
997.515	1268
997.735	1322
997.955	1309
998.174	1269
998.394	1282
998.614	1322
998.834	1285
999.053	1346
999.273	1317
999.492	1349
999.712	1279
999.931	1258
1000.151	1307
1000.37	1273
1000.589	1346
1000.809	1270
1001.028	1397
1001.247	1335
1001.466	1234
1001.685	1374
1001.904	1310
1002.123	1288
1002.342	1299
1002.561	1250
1002.78	1291
1002.999	1345
1003.218	1271
1003.436	1254
1003.655	1321
1003.874	1270
1004.092	1282
1004.311	1310
1004.53	1273
1004.748	1336
1004.966	1265
1005.185	1315
1005.403	1304
1005.622	1273
1005.84	1340
1006.058	1252
1006.276	1286
1006.494	1763
1006.712	1260
1006.931	1333
1007.149	1221
1007.367	1229
1007.584	1257
1007.802	1302
1008.02	1260
1008.238	1357
1008.456	1328
1008.673	1186
1008.891	1272
1009.109	1240
1009.326	1263
1009.544	1362
1009.761	1246
1009.979	1304
1010.196	1277
1010.413	1362
1010.631	1405
1010.848	1419
1011.065	1420
1011.282	1365
1011.5	1290
1011.717	1394
1011.934	1340
1012.151	1385
1012.368	1350
1012.585	1290
1012.801	1344
1013.018	1321
1013.235	1292
1013.452	1313
1013.669	1311
1013.885	1297
1014.102	1320
1014.318	1289
1014.535	1258
1014.751	1300
1014.968	1291
1015.184	1330
1015.401	1215
1015.617	1269
1015.833	1225
1016.049	1205
1016.266	1197
1016.482	1212
1016.698	1137
1016.914	1197
1017.13	1145
1017.346	1178
1017.562	1208
1017.778	1161
1017.993	1129
1018.209	1183
1018.425	1154
1018.641	1111
1018.856	1085
1019.072	1125
1019.288	1155
1019.503	1110
1019.719	1058
1019.934	1061
1020.149	1129
1020.365	1078
1020.58	1053
1020.795	1077
1021.011	1026
1021.226	1019
1021.441	1050
1021.656	966
1021.871	917
1022.086	925
1022.301	938
1022.516	903
1022.731	970
1022.946	889
1023.16	887
1023.375	830
1023.59	866
1023.804	813
1024.019	912
1024.234	812
1024.448	850
1024.663	773
1024.877	797
1025.092	797
1025.306	835
1025.52	727
1025.734	823
1025.949	733
1026.163	731
1026.377	671
1026.591	726
1026.805	663
1027.019	663
1027.233	612
1027.447	575
1027.661	679
1027.875	623
1028.088	655
1028.302	568
1028.516	568
1028.73	586
1028.943	579
1029.157	519
1029.37	509
1029.584	1
1029.797	-2
1030.011	-3
1030.224	-2
