Data from QEP037381__48__10-03-39-928.txt Node

Date: Wed Dec 21 10:03:39 EST 2022
User: dcclab
Spectrometer: QEP03738
Trigger mode: 4
Integration Time (sec): 1.000000E1
Scans to average: 1
Electric dark correction enabled: true
Nonlinearity correction enabled: false
Boxcar width: 0
XAxis mode: Wavelengths
Number of Pixels in Spectrum: 1044
>>>>>Begin Spectral Data<<<<<
784.041	14.5
784.3	0.5
784.558	-1.5
784.817	-3.5
785.075	113472.5
785.334	19994.5
785.592	9421.5
785.851	6521.5
786.109	4953.5
786.368	3789.5
786.626	3009.5
786.884	2499.5
787.143	2112.5
787.401	1700.5
787.659	1538.5
787.917	1278.5
788.175	1176.5
788.433	1029.5
788.691	934.5
788.949	842.5
789.207	798.5
789.465	697.5
789.723	668.5
789.98	592.5
790.238	639.5
790.496	592.5
790.753	572.5
791.011	596.5
791.268	538.5
791.526	525.5
791.783	524.5
792.041	508.5
792.298	430.5
792.556	491.5
792.813	469.5
793.07	461.5
793.327	437.5
793.584	516.5
793.841	440.5
794.099	452.5
794.356	507.5
794.613	416.5
794.869	445.5
795.126	404.5
795.383	388.5
795.64	415.5
795.897	362.5
796.153	414.5
796.41	399.5
796.667	392.5
796.923	402.5
797.18	374.5
797.436	404.5
797.693	380.5
797.949	430.5
798.206	449.5
798.462	378.5
798.718	429.5
798.974	390.5
799.231	426.5
799.487	419.5
799.743	427.5
799.999	445.5
800.255	431.5
800.511	406.5
800.767	446.5
801.023	441.5
801.279	445.5
801.534	446.5
801.79	500.5
802.046	485.5
802.302	564.5
802.557	602.5
802.813	691.5
803.068	757.5
803.324	962.5
803.579	1227.5
803.835	1617.5
804.09	2166.5
804.345	2731.5
804.601	3426.5
804.856	4134.5
805.111	4763.5
805.366	5206.5
805.621	5496.5
805.876	5714.5
806.131	5867.5
806.386	5957.5
806.641	5947.5
806.896	6054.5
807.151	6279.5
807.406	6319.5
807.661	6411.5
807.915	6454.5
808.17	6518.5
808.425	6595.5
808.679	6606.5
808.934	6725.5
809.188	6672.5
809.443	6845.5
809.697	6897.5
809.951	6859.5
810.206	6941.5
810.46	7057.5
810.714	7021.5
810.968	7129.5
811.223	7099.5
811.477	7187.5
811.731	7237.5
811.985	7278.5
812.239	7253.5
812.493	7311.5
812.747	7311.5
813	7248.5
813.254	7382.5
813.508	7451.5
813.762	7434.5
814.015	7409.5
814.269	7518.5
814.522	7516.5
814.776	7640.5
815.03	7726.5
815.283	7855.5
815.536	7905.5
815.79	8001.5
816.043	8039.5
816.296	8157.5
816.55	8251.5
816.803	8355.5
817.056	8535.5
817.309	8483.5
817.562	8502.5
817.815	8682.5
818.068	8619.5
818.321	8667.5
818.574	8768.5
818.827	8943.5
819.079	8987.5
819.332	9270.5
819.585	9235.5
819.838	9430.5
820.09	9366.5
820.343	9471.5
820.595	9499.5
820.848	9615.5
821.1	9638.5
821.353	9602.5
821.605	9599.5
821.857	9618.5
822.11	9538.5
822.362	9515.5
822.614	9539.5
822.866	9551.5
823.118	9502.5
823.37	9743.5
823.622	9635.5
823.874	9610.5
824.126	9718.5
824.378	9706.5
824.63	9757.5
824.882	9753.5
825.134	9692.5
825.385	9686.5
825.637	9604.5
825.888	9624.5
826.14	9567.5
826.392	9528.5
826.643	9454.5
826.895	9519.5
827.146	9437.5
827.397	9378.5
827.649	9410.5
827.9	9333.5
828.151	9384.5
828.402	9379.5
828.653	9391.5
828.905	9478.5
829.156	9475.5
829.407	9449.5
829.658	9456.5
829.909	9469.5
830.159	9432.5
830.41	9428.5
830.661	9361.5
830.912	9333.5
831.162	9225.5
831.413	9235.5
831.664	9261.5
831.914	9252.5
832.165	9237.5
832.415	9304.5
832.666	9278.5
832.916	9362.5
833.167	9267.5
833.417	9282.5
833.667	9258.5
833.917	9197.5
834.168	9209.5
834.418	9257.5
834.668	9135.5
834.918	9124.5
835.168	9103.5
835.418	9009.5
835.668	9069.5
835.918	9018.5
836.167	9004.5
836.417	8953.5
836.667	8991.5
836.917	8931.5
837.166	8896.5
837.416	8968.5
837.666	8885.5
837.915	8859.5
838.165	8923.5
838.414	8819.5
838.663	8794.5
838.913	8775.5
839.162	8695.5
839.411	8823.5
839.661	8734.5
839.91	8677.5
840.159	8705.5
840.408	8776.5
840.657	8695.5
840.906	8746.5
841.155	8778.5
841.404	8710.5
841.653	8750.5
841.902	8719.5
842.15	8692.5
842.399	8720.5
842.648	8663.5
842.897	8659.5
843.145	8600.5
843.394	8540.5
843.642	8512.5
843.891	8446.5
844.139	8438.5
844.388	8435.5
844.636	8308.5
844.884	8356.5
845.133	8335.5
845.381	8327.5
845.629	8373.5
845.877	8287.5
846.125	8314.5
846.373	8335.5
846.621	8233.5
846.869	8321.5
847.117	8226.5
847.365	8110.5
847.613	8180.5
847.861	8146.5
848.108	8188.5
848.356	8104.5
848.604	8027.5
848.851	8059.5
849.099	8150.5
849.346	8100.5
849.594	8177.5
849.841	8202.5
850.089	8211.5
850.336	8156.5
850.583	8125.5
850.831	8163.5
851.078	8044.5
851.325	8003.5
851.572	8065.5
851.819	8007.5
852.066	7818.5
852.313	7747.5
852.56	7732.5
852.807	7678.5
853.054	7629.5
853.301	7589.5
853.548	7651.5
853.794	7749.5
854.041	7819.5
854.288	7825.5
854.534	7995.5
854.781	7838.5
855.028	7800.5
855.274	7849.5
855.52	7760.5
855.767	7671.5
856.013	7758.5
856.26	7961.5
856.506	7625.5
856.752	7596.5
856.998	7576.5
857.244	7559.5
857.49	7675.5
857.736	7734.5
857.982	7691.5
858.228	7659.5
858.474	7566.5
858.72	7553.5
858.966	7500.5
859.212	7492.5
859.458	7373.5
859.703	7286.5
859.949	7203.5
860.195	7216.5
860.44	7179.5
860.686	7101.5
860.931	7101.5
861.177	7019.5
861.422	7088.5
861.667	7029.5
861.913	7045.5
862.158	7062.5
862.403	7117.5
862.648	7050.5
862.893	7133.5
863.138	7082.5
863.384	7016.5
863.629	7070.5
863.873	7026.5
864.118	7008.5
864.363	6950.5
864.608	6947.5
864.853	6938.5
865.098	6892.5
865.342	6919.5
865.587	6854.5
865.832	6817.5
866.076	6797.5
866.321	6761.5
866.565	6758.5
866.81	6707.5
867.054	6738.5
867.298	6685.5
867.543	6669.5
867.787	6746.5
868.031	6671.5
868.275	6609.5
868.519	6579.5
868.764	6644.5
869.008	6563.5
869.252	6687.5
869.496	6568.5
869.739	6556.5
869.983	6626.5
870.227	6571.5
870.471	6553.5
870.715	6579.5
870.958	6613.5
871.202	6531.5
871.446	6525.5
871.689	6592.5
871.933	6645.5
872.176	6625.5
872.42	6550.5
872.663	6575.5
872.906	6610.5
873.15	6544.5
873.393	6491.5
873.636	6639.5
873.879	6532.5
874.122	6444.5
874.366	6334.5
874.609	6275.5
874.852	6224.5
875.095	6244.5
875.337	6150.5
875.58	6098.5
875.823	6146.5
876.066	6170.5
876.309	6170.5
876.551	6063.5
876.794	5977.5
877.037	6049.5
877.279	5972.5
877.522	5960.5
877.764	5982.5
878.007	5970.5
878.249	6001.5
878.491	5967.5
878.734	6028.5
878.976	5932.5
879.218	5880.5
879.46	5936.5
879.702	5846.5
879.945	5809.5
880.187	5717.5
880.429	5705.5
880.671	5689.5
880.912	5727.5
881.154	5609.5
881.396	5563.5
881.638	5613.5
881.88	5661.5
882.121	5599.5
882.363	5601.5
882.605	5650.5
882.846	5567.5
883.088	5607.5
883.329	5589.5
883.571	5598.5
883.812	5563.5
884.053	5692.5
884.295	5783.5
884.536	5941.5
884.777	5889.5
885.018	5785.5
885.259	5810.5
885.5	5759.5
885.742	5979.5
885.982	5743.5
886.223	5631.5
886.464	5614.5
886.705	5519.5
886.946	5559.5
887.187	5368.5
887.428	5464.5
887.668	5278.5
887.909	5222.5
888.15	5185.5
888.39	5201.5
888.631	5189.5
888.871	5105.5
889.111	5112.5
889.352	5024.5
889.592	4992.5
889.833	4943.5
890.073	4950.5
890.313	5005.5
890.553	4842.5
890.793	4848.5
891.033	4849.5
891.273	4750.5
891.513	4757.5
891.753	4831.5
891.993	4761.5
892.233	4784.5
892.473	4874.5
892.713	4803.5
892.952	4768.5
893.192	4749.5
893.432	4777.5
893.671	4798.5
893.911	4716.5
894.15	4714.5
894.39	4622.5
894.629	4578.5
894.869	4704.5
895.108	4590.5
895.347	4521.5
895.587	4574.5
895.826	4508.5
896.065	4532.5
896.304	4561.5
896.543	4544.5
896.782	4486.5
897.021	4503.5
897.26	4499.5
897.499	4491.5
897.738	4513.5
897.977	4444.5
898.216	4430.5
898.454	4378.5
898.693	4368.5
898.932	4396.5
899.17	4309.5
899.409	4317.5
899.647	4265.5
899.886	4254.5
900.124	4317.5
900.363	4206.5
900.601	4269.5
900.839	4256.5
901.078	4288.5
901.316	4251.5
901.554	4251.5
901.792	4335.5
902.03	4251.5
902.268	4261.5
902.506	4318.5
902.744	4274.5
902.982	4283.5
903.22	4182.5
903.458	4113.5
903.695	4160.5
903.933	4078.5
904.171	3986.5
904.409	3931.5
904.646	3941.5
904.884	3880.5
905.121	3900.5
905.359	3847.5
905.596	3807.5
905.833	3729.5
906.071	3739.5
906.308	3787.5
906.545	3771.5
906.783	3684.5
907.02	3697.5
907.257	3655.5
907.494	3698.5
907.731	3703.5
907.968	3682.5
908.205	3607.5
908.442	3610.5
908.679	3633.5
908.915	3616.5
909.152	3571.5
909.389	3467.5
909.626	3500.5
909.862	3448.5
910.099	3464.5
910.335	3473.5
910.572	3386.5
910.808	3399.5
911.045	3432.5
911.281	3371.5
911.518	3451.5
911.754	3366.5
911.99	3356.5
912.226	3334.5
912.463	3281.5
912.699	3282.5
912.935	3269.5
913.171	3249.5
913.407	3205.5
913.643	3249.5
913.879	3219.5
914.114	3195.5
914.35	3127.5
914.586	3059.5
914.822	3064.5
915.057	3151.5
915.293	2975.5
915.529	3001.5
915.764	3063.5
916	3047.5
916.235	3054.5
916.471	3063.5
916.706	2942.5
916.941	2968.5
917.177	2961.5
917.412	3024.5
917.647	2975.5
917.882	2920.5
918.117	2995.5
918.352	2980.5
918.588	2983.5
918.823	2905.5
919.057	2923.5
919.292	2787.5
919.527	2895.5
919.762	2827.5
919.997	2847.5
920.232	2792.5
920.466	2814.5
920.701	2698.5
920.935	2753.5
921.17	2674.5
921.405	2636.5
921.639	2726.5
921.873	2682.5
922.108	2709.5
922.342	2670.5
922.576	2607.5
922.811	2641.5
923.045	2675.5
923.279	2696.5
923.513	2563.5
923.747	2647.5
923.981	2610.5
924.215	2549.5
924.449	2552.5
924.683	2501.5
924.917	2513.5
925.151	2512.5
925.385	2612.5
925.618	2480.5
925.852	2528.5
926.086	2444.5
926.319	2510.5
926.553	2470.5
926.786	2494.5
927.02	2464.5
927.253	2533.5
927.486	2531.5
927.72	2434.5
927.953	2497.5
928.186	2438.5
928.42	2503.5
928.653	2439.5
928.886	2416.5
929.119	2449.5
929.352	2410.5
929.585	2396.5
929.818	2337.5
930.051	2398.5
930.284	2388.5
930.516	2271.5
930.749	2308.5
930.982	2354.5
931.215	2328.5
931.447	2242.5
931.68	2253.5
931.912	2254.5
932.145	2238.5
932.377	2293.5
932.61	2410.5
932.842	2221.5
933.074	2297.5
933.307	2243.5
933.539	2310.5
933.771	2300.5
934.003	2270.5
934.236	2307.5
934.468	2307.5
934.7	2228.5
934.932	2262.5
935.164	2231.5
935.395	2203.5
935.627	2244.5
935.859	2219.5
936.091	2176.5
936.323	2241.5
936.554	2258.5
936.786	2184.5
937.017	2135.5
937.249	2187.5
937.481	2124.5
937.712	2192.5
937.943	2160.5
938.175	2148.5
938.406	2158.5
938.637	2194.5
938.869	2083.5
939.1	2188.5
939.331	2120.5
939.562	2182.5
939.793	2161.5
940.024	2148.5
940.255	2173.5
940.486	2102.5
940.717	2078.5
940.948	2112.5
941.179	2050.5
941.409	2107.5
941.64	2072.5
941.871	2072.5
942.102	2073.5
942.332	2076.5
942.563	2087.5
942.793	2082.5
943.024	2031.5
943.254	2068.5
943.484	2110.5
943.715	2089.5
943.945	2088.5
944.175	2024.5
944.405	2002.5
944.636	2011.5
944.866	2072.5
945.096	2062.5
945.326	1998.5
945.556	2048.5
945.786	2059.5
946.016	2021.5
946.245	1945.5
946.475	1977.5
946.705	1996.5
946.935	1954.5
947.164	1970.5
947.394	1933.5
947.624	1973.5
947.853	1958.5
948.083	1973.5
948.312	1932.5
948.542	1853.5
948.771	1848.5
949	1862.5
949.23	1887.5
949.459	1886.5
949.688	1961.5
949.917	1901.5
950.146	1920.5
950.375	1950.5
950.604	1863.5
950.833	1938.5
951.062	1941.5
951.291	1902.5
951.52	1826.5
951.749	1884.5
951.978	1843.5
952.206	1829.5
952.435	1862.5
952.664	1845.5
952.892	1883.5
953.121	1855.5
953.349	1865.5
953.578	1851.5
953.806	1843.5
954.035	1772.5
954.263	1824.5
954.491	1755.5
954.719	1809.5
954.948	1794.5
955.176	1771.5
955.404	1730.5
955.632	1810.5
955.86	1769.5
956.088	1757.5
956.316	1777.5
956.544	1790.5
956.772	1747.5
956.999	1741.5
957.227	1811.5
957.455	1690.5
957.683	1730.5
957.91	1718.5
958.138	1698.5
958.365	1701.5
958.593	1701.5
958.82	1617.5
959.048	1742.5
959.275	1702.5
959.502	1651.5
959.73	1652.5
959.957	1666.5
960.184	1711.5
960.411	1646.5
960.638	1725.5
960.865	1656.5
961.092	1693.5
961.319	1603.5
961.546	1703.5
961.773	1697.5
962	1651.5
962.227	1702.5
962.454	1645.5
962.68	1624.5
962.907	1677.5
963.134	1631.5
963.36	1652.5
963.587	1670.5
963.813	1572.5
964.04	1625.5
964.266	1568.5
964.493	1666.5
964.719	1642.5
964.945	1619.5
965.171	1530.5
965.398	1596.5
965.624	1629.5
965.85	1545.5
966.076	1551.5
966.302	1598.5
966.528	1540.5
966.754	1617.5
966.98	1572.5
967.206	1581.5
967.431	1503.5
967.657	1590.5
967.883	1566.5
968.109	1567.5
968.334	1488.5
968.56	1513.5
968.785	1531.5
969.011	1453.5
969.236	1511.5
969.462	1475.5
969.687	1495.5
969.912	1540.5
970.138	1565.5
970.363	1476.5
970.588	1501.5
970.813	1479.5
971.038	1465.5
971.263	1481.5
971.488	1482.5
971.713	1515.5
971.938	1522.5
972.163	1417.5
972.388	1417.5
972.613	1417.5
972.838	1435.5
973.062	1432.5
973.287	1445.5
973.512	1356.5
973.736	1414.5
973.961	1407.5
974.185	1380.5
974.41	1417.5
974.634	1353.5
974.858	1345.5
975.083	1401.5
975.307	1408.5
975.531	1340.5
975.755	1295.5
975.98	1341.5
976.204	1287.5
976.428	1279.5
976.652	1312.5
976.876	1273.5
977.1	1291.5
977.324	1288.5
977.547	1338.5
977.771	1348.5
977.995	1329.5
978.219	1218.5
978.442	1362.5
978.666	1325.5
978.89	1280.5
979.113	1311.5
979.337	1270.5
979.56	1273.5
979.783	1364.5
980.007	1252.5
980.23	1273.5
980.453	1256.5
980.677	1298.5
980.9	1261.5
981.123	1191.5
981.346	1288.5
981.569	1279.5
981.792	1269.5
982.015	1240.5
982.238	1203.5
982.461	1235.5
982.684	1215.5
982.907	1189.5
983.129	1213.5
983.352	1244.5
983.575	1206.5
983.797	1221.5
984.02	1171.5
984.242	1176.5
984.465	1189.5
984.687	1249.5
984.91	1278.5
985.132	1246.5
985.354	1232.5
985.577	1211.5
985.799	1209.5
986.021	1130.5
986.243	1155.5
986.465	1202.5
986.687	1205.5
986.909	1246.5
987.131	1176.5
987.353	1165.5
987.575	1205.5
987.797	1144.5
988.019	1100.5
988.241	1176.5
988.462	1142.5
988.684	1172.5
988.906	1200.5
989.127	1237.5
989.349	1106.5
989.57	1154.5
989.792	1180.5
990.013	1214.5
990.234	1199.5
990.456	1242.5
990.677	1209.5
990.898	1167.5
991.119	1138.5
991.341	1182.5
991.562	1133.5
991.783	1166.5
992.004	1086.5
992.225	1103.5
992.446	1121.5
992.667	1032.5
992.887	1144.5
993.108	1067.5
993.329	1193.5
993.55	1155.5
993.77	1074.5
993.991	1050.5
994.212	1126.5
994.432	1119.5
994.653	1132.5
994.873	1129.5
995.093	999.5
995.314	1052.5
995.534	1111.5
995.754	1167.5
995.975	1147.5
996.195	1049.5
996.415	1094.5
996.635	1093.5
996.855	1106.5
997.075	1074.5
997.295	1078.5
997.515	1050.5
997.735	1099.5
997.955	1101.5
998.174	1073.5
998.394	1063.5
998.614	1104.5
998.834	1044.5
999.053	1125.5
999.273	1096.5
999.492	1150.5
999.712	1090.5
999.931	1047.5
1000.151	1094.5
1000.37	1080.5
1000.589	1136.5
1000.809	1078.5
1001.028	1182.5
1001.247	1126.5
1001.466	1014.5
1001.685	1161.5
1001.904	1102.5
1002.123	1089.5
1002.342	1088.5
1002.561	1062.5
1002.78	1089.5
1002.999	1169.5
1003.218	1079.5
1003.436	1091.5
1003.655	1114.5
1003.874	1088.5
1004.092	1096.5
1004.311	1134.5
1004.53	1079.5
1004.748	1153.5
1004.966	1077.5
1005.185	1160.5
1005.403	1138.5
1005.622	1097.5
1005.84	1191.5
1006.058	1099.5
1006.276	1121.5
1006.494	1590.5
1006.712	1110.5
1006.931	1164.5
1007.149	1071.5
1007.367	1084.5
1007.584	1120.5
1007.802	1152.5
1008.02	1065.5
1008.238	1179.5
1008.456	1179.5
1008.673	1034.5
1008.891	1151.5
1009.109	1101.5
1009.326	1147.5
1009.544	1218.5
1009.761	1112.5
1009.979	1156.5
1010.196	1164.5
1010.413	1260.5
1010.631	1272.5
1010.848	1274.5
1011.065	1303.5
1011.282	1246.5
1011.5	1185.5
1011.717	1298.5
1011.934	1213.5
1012.151	1281.5
1012.368	1275.5
1012.585	1206.5
1012.801	1245.5
1013.018	1202.5
1013.235	1198.5
1013.452	1206.5
1013.669	1209.5
1013.885	1183.5
1014.102	1211.5
1014.318	1185.5
1014.535	1132.5
1014.751	1194.5
1014.968	1176.5
1015.184	1204.5
1015.401	1148.5
1015.617	1169.5
1015.833	1120.5
1016.049	1111.5
1016.266	1103.5
1016.482	1136.5
1016.698	1051.5
1016.914	1096.5
1017.13	1052.5
1017.346	1048.5
1017.562	1099.5
1017.778	1059.5
1017.993	1033.5
1018.209	1107.5
1018.425	1088.5
1018.641	1014.5
1018.856	1017.5
1019.072	1027.5
1019.288	1060.5
1019.503	1032.5
1019.719	952.5
1019.934	960.5
1020.149	1045.5
1020.365	1000.5
1020.58	938.5
1020.795	1002.5
1021.011	956.5
1021.226	924.5
1021.441	953.5
1021.656	883.5
1021.871	837.5
1022.086	843.5
1022.301	843.5
1022.516	847.5
1022.731	906.5
1022.946	828.5
1023.16	829.5
1023.375	786.5
1023.59	778.5
1023.804	750.5
1024.019	845.5
1024.234	720.5
1024.448	747.5
1024.663	685.5
1024.877	706.5
1025.092	730.5
1025.306	753.5
1025.52	678.5
1025.734	756.5
1025.949	688.5
1026.163	658.5
1026.377	604.5
1026.591	657.5
1026.805	606.5
1027.019	606.5
1027.233	568.5
1027.447	530.5
1027.661	622.5
1027.875	567.5
1028.088	582.5
1028.302	506.5
1028.516	515.5
1028.73	517.5
1028.943	518.5
1029.157	498.5
1029.37	458.5
1029.584	-1.5
1029.797	-1.5
1030.011	-2.5
1030.224	-4.5
