Data from QEP037381__16__09-58-19-926.txt Node

Date: Wed Dec 21 09:58:19 EST 2022
User: dcclab
Spectrometer: QEP03738
Trigger mode: 4
Integration Time (sec): 1.000000E1
Scans to average: 1
Electric dark correction enabled: true
Nonlinearity correction enabled: false
Boxcar width: 0
XAxis mode: Wavelengths
Number of Pixels in Spectrum: 1044
>>>>>Begin Spectral Data<<<<<
784.041	15.75
784.3	2.75
784.558	-5.25
784.817	-4.25
785.075	111375.75
785.334	19576.75
785.592	9297.75
785.851	6368.75
786.109	4740.75
786.368	3680.75
786.626	2974.75
786.884	2466.75
787.143	2042.75
787.401	1699.75
787.659	1511.75
787.917	1277.75
788.175	1165.75
788.433	998.75
788.691	913.75
788.949	845.75
789.207	789.75
789.465	695.75
789.723	654.75
789.98	611.75
790.238	656.75
790.496	606.75
790.753	584.75
791.011	613.75
791.268	553.75
791.526	536.75
791.783	544.75
792.041	534.75
792.298	438.75
792.556	499.75
792.813	487.75
793.07	456.75
793.327	447.75
793.584	511.75
793.841	440.75
794.099	468.75
794.356	516.75
794.613	420.75
794.869	451.75
795.126	411.75
795.383	393.75
795.64	424.75
795.897	377.75
796.153	433.75
796.41	415.75
796.667	388.75
796.923	389.75
797.18	397.75
797.436	418.75
797.693	396.75
797.949	428.75
798.206	473.75
798.462	377.75
798.718	442.75
798.974	407.75
799.231	449.75
799.487	431.75
799.743	438.75
799.999	454.75
800.255	454.75
800.511	431.75
800.767	470.75
801.023	450.75
801.279	464.75
801.534	512.75
801.79	523.75
802.046	520.75
802.302	611.75
802.557	656.75
802.813	791.75
803.068	881.75
803.324	1190.75
803.579	1519.75
803.835	2045.75
804.09	2758.75
804.345	3552.75
804.601	4424.75
804.856	5398.75
805.111	6218.75
805.366	6778.75
805.621	7294.75
805.876	7574.75
806.131	7630.75
806.386	7814.75
806.641	7902.75
806.896	8016.75
807.151	8160.75
807.406	8240.75
807.661	8403.75
807.915	8497.75
808.17	8636.75
808.425	8701.75
808.679	8712.75
808.934	8879.75
809.188	8871.75
809.443	9024.75
809.697	9121.75
809.951	9046.75
810.206	9142.75
810.46	9223.75
810.714	9294.75
810.968	9370.75
811.223	9398.75
811.477	9458.75
811.731	9596.75
811.985	9550.75
812.239	9574.75
812.493	9652.75
812.747	9763.75
813	9698.75
813.254	9790.75
813.508	9849.75
813.762	9756.75
814.015	9786.75
814.269	9895.75
814.522	9985.75
814.776	10053.75
815.03	10170.75
815.283	10290.75
815.536	10551.75
815.79	10574.75
816.043	10686.75
816.296	10913.75
816.55	10944.75
816.803	11037.75
817.056	11224.75
817.309	11223.75
817.562	11376.75
817.815	11478.75
818.068	11481.75
818.321	11508.75
818.574	11734.75
818.827	11882.75
819.079	11930.75
819.332	12197.75
819.585	12255.75
819.838	12447.75
820.09	12391.75
820.343	12540.75
820.595	12626.75
820.848	12679.75
821.1	12715.75
821.353	12705.75
821.605	12726.75
821.857	12745.75
822.11	12692.75
822.362	12583.75
822.614	12617.75
822.866	12653.75
823.118	12629.75
823.37	12644.75
823.622	12744.75
823.874	12753.75
824.126	12825.75
824.378	12814.75
824.63	12963.75
824.882	12837.75
825.134	12850.75
825.385	12824.75
825.637	12740.75
825.888	12759.75
826.14	12765.75
826.392	12709.75
826.643	12537.75
826.895	12635.75
827.146	12523.75
827.397	12462.75
827.649	12633.75
827.9	12367.75
828.151	12453.75
828.402	12448.75
828.653	12599.75
828.905	12530.75
829.156	12667.75
829.407	12525.75
829.658	12581.75
829.909	12557.75
830.159	12586.75
830.41	12441.75
830.661	12416.75
830.912	12394.75
831.162	12313.75
831.413	12287.75
831.664	12289.75
831.914	12259.75
832.165	12248.75
832.415	12339.75
832.666	12268.75
832.916	12260.75
833.167	12284.75
833.417	12273.75
833.667	12209.75
833.917	12163.75
834.168	12208.75
834.418	12112.75
834.668	12119.75
834.918	12050.75
835.168	12054.75
835.418	11920.75
835.668	11940.75
835.918	11950.75
836.167	11880.75
836.417	11825.75
836.667	11906.75
836.917	11805.75
837.166	11830.75
837.416	11818.75
837.666	11809.75
837.915	11726.75
838.165	11762.75
838.414	11667.75
838.663	11570.75
838.913	11606.75
839.162	11590.75
839.411	11564.75
839.661	11507.75
839.91	11501.75
840.159	11455.75
840.408	11425.75
840.657	11440.75
840.906	11462.75
841.155	11441.75
841.404	11404.75
841.653	11383.75
841.902	11458.75
842.15	11469.75
842.399	11477.75
842.648	11404.75
842.897	11375.75
843.145	11277.75
843.394	11211.75
843.642	11142.75
843.891	11171.75
844.139	11145.75
844.388	11131.75
844.636	11013.75
844.884	11065.75
845.133	10986.75
845.381	10917.75
845.629	11037.75
845.877	10884.75
846.125	10950.75
846.373	10958.75
846.621	10839.75
846.869	10849.75
847.117	10817.75
847.365	10706.75
847.613	10688.75
847.861	10686.75
848.108	10665.75
848.356	10638.75
848.604	10590.75
848.851	10639.75
849.099	10642.75
849.346	10631.75
849.594	10703.75
849.841	10735.75
850.089	10747.75
850.336	10726.75
850.583	10601.75
850.831	10669.75
851.078	10612.75
851.325	10486.75
851.572	10592.75
851.819	10462.75
852.066	10322.75
852.313	10198.75
852.56	10171.75
852.807	10064.75
853.054	10086.75
853.301	10036.75
853.548	10093.75
853.794	10169.75
854.041	10138.75
854.288	10112.75
854.534	10354.75
854.781	10253.75
855.028	10244.75
855.274	10190.75
855.52	10090.75
855.767	10076.75
856.013	10070.75
856.26	10323.75
856.506	9925.75
856.752	9981.75
856.998	9956.75
857.244	9918.75
857.49	9972.75
857.736	10049.75
857.982	10032.75
858.228	9965.75
858.474	9841.75
858.72	9899.75
858.966	9843.75
859.212	9735.75
859.458	9572.75
859.703	9551.75
859.949	9447.75
860.195	9391.75
860.44	9371.75
860.686	9332.75
860.931	9257.75
861.177	9183.75
861.422	9239.75
861.667	9184.75
861.913	9181.75
862.158	9161.75
862.403	9256.75
862.648	9240.75
862.893	9267.75
863.138	9206.75
863.384	9155.75
863.629	9141.75
863.873	9159.75
864.118	9174.75
864.363	9024.75
864.608	9145.75
864.853	9054.75
865.098	8980.75
865.342	9037.75
865.587	8909.75
865.832	8938.75
866.076	8976.75
866.321	8895.75
866.565	8806.75
866.81	8723.75
867.054	8825.75
867.298	8781.75
867.543	8699.75
867.787	8780.75
868.031	8708.75
868.275	8696.75
868.519	8664.75
868.764	8672.75
869.008	8579.75
869.252	8663.75
869.496	8590.75
869.739	8517.75
869.983	8571.75
870.227	8579.75
870.471	8424.75
870.715	8640.75
870.958	8598.75
871.202	8443.75
871.446	8503.75
871.689	8540.75
871.933	8492.75
872.176	8577.75
872.42	8488.75
872.663	8484.75
872.906	8486.75
873.15	8379.75
873.393	8350.75
873.636	8387.75
873.879	8307.75
874.122	8259.75
874.366	8144.75
874.609	8095.75
874.852	8066.75
875.095	8028.75
875.337	8010.75
875.58	7926.75
875.823	7900.75
876.066	7929.75
876.309	7927.75
876.551	7836.75
876.794	7677.75
877.037	7780.75
877.279	7759.75
877.522	7751.75
877.764	7793.75
878.007	7716.75
878.249	7778.75
878.491	7677.75
878.734	7752.75
878.976	7720.75
879.218	7638.75
879.46	7660.75
879.702	7582.75
879.945	7569.75
880.187	7436.75
880.429	7429.75
880.671	7384.75
880.912	7411.75
881.154	7366.75
881.396	7255.75
881.638	7297.75
881.88	7292.75
882.121	7256.75
882.363	7258.75
882.605	7260.75
882.846	7203.75
883.088	7258.75
883.329	7186.75
883.571	7156.75
883.812	7205.75
884.053	7205.75
884.295	7400.75
884.536	7525.75
884.777	7379.75
885.018	7354.75
885.259	7319.75
885.5	7224.75
885.742	7462.75
885.982	7237.75
886.223	7094.75
886.464	7180.75
886.705	7054.75
886.946	7087.75
887.187	6914.75
887.428	6958.75
887.668	6873.75
887.909	6745.75
888.15	6697.75
888.39	6745.75
888.631	6648.75
888.871	6653.75
889.111	6600.75
889.352	6548.75
889.592	6524.75
889.833	6379.75
890.073	6350.75
890.313	6447.75
890.553	6231.75
890.793	6324.75
891.033	6283.75
891.273	6256.75
891.513	6216.75
891.753	6307.75
891.993	6223.75
892.233	6178.75
892.473	6273.75
892.713	6213.75
892.952	6153.75
893.192	6224.75
893.432	6119.75
893.671	6209.75
893.911	6126.75
894.15	6130.75
894.39	6056.75
894.629	6019.75
894.869	6009.75
895.108	5935.75
895.347	5871.75
895.587	5946.75
895.826	5875.75
896.065	5829.75
896.304	5838.75
896.543	5897.75
896.782	5795.75
897.021	5851.75
897.26	5762.75
897.499	5832.75
897.738	5788.75
897.977	5719.75
898.216	5716.75
898.454	5633.75
898.693	5545.75
898.932	5594.75
899.17	5504.75
899.409	5557.75
899.647	5478.75
899.886	5431.75
900.124	5482.75
900.363	5453.75
900.601	5482.75
900.839	5509.75
901.078	5452.75
901.316	5501.75
901.554	5441.75
901.792	5523.75
902.03	5436.75
902.268	5411.75
902.506	5540.75
902.744	5456.75
902.982	5444.75
903.22	5365.75
903.458	5324.75
903.695	5297.75
903.933	5250.75
904.171	5107.75
904.409	5072.75
904.646	5023.75
904.884	4965.75
905.121	4996.75
905.359	4899.75
905.596	4859.75
905.833	4807.75
906.071	4825.75
906.308	4796.75
906.545	4819.75
906.783	4750.75
907.02	4743.75
907.257	4690.75
907.494	4713.75
907.731	4727.75
907.968	4746.75
908.205	4654.75
908.442	4639.75
908.679	4602.75
908.915	4620.75
909.152	4593.75
909.389	4446.75
909.626	4452.75
909.862	4424.75
910.099	4466.75
910.335	4435.75
910.572	4348.75
910.808	4416.75
911.045	4353.75
911.281	4326.75
911.518	4377.75
911.754	4339.75
911.99	4324.75
912.226	4277.75
912.463	4216.75
912.699	4264.75
912.935	4204.75
913.171	4165.75
913.407	4105.75
913.643	4198.75
913.879	4070.75
914.114	4043.75
914.35	3972.75
914.586	3965.75
914.822	3958.75
915.057	4001.75
915.293	3869.75
915.529	3853.75
915.764	3904.75
916	3874.75
916.235	3831.75
916.471	3827.75
916.706	3802.75
916.941	3764.75
917.177	3784.75
917.412	3803.75
917.647	3835.75
917.882	3763.75
918.117	3830.75
918.352	3795.75
918.588	3828.75
918.823	3716.75
919.057	3728.75
919.292	3589.75
919.527	3635.75
919.762	3606.75
919.997	3627.75
920.232	3557.75
920.466	3580.75
920.701	3413.75
920.935	3502.75
921.17	3411.75
921.405	3410.75
921.639	3494.75
921.873	3389.75
922.108	3438.75
922.342	3416.75
922.576	3363.75
922.811	3356.75
923.045	3365.75
923.279	3416.75
923.513	3260.75
923.747	3354.75
923.981	3273.75
924.215	3269.75
924.449	3231.75
924.683	3178.75
924.917	3156.75
925.151	3174.75
925.385	3224.75
925.618	3182.75
925.852	3177.75
926.086	3090.75
926.319	3182.75
926.553	3145.75
926.786	3150.75
927.02	3121.75
927.253	3158.75
927.486	3153.75
927.72	3090.75
927.953	3131.75
928.186	3055.75
928.42	3096.75
928.653	3073.75
928.886	3057.75
929.119	3041.75
929.352	3011.75
929.585	3027.75
929.818	3015.75
930.051	2955.75
930.284	2983.75
930.516	2908.75
930.749	2884.75
930.982	2941.75
931.215	2879.75
931.447	2840.75
931.68	2888.75
931.912	2838.75
932.145	2811.75
932.377	2849.75
932.61	2959.75
932.842	2799.75
933.074	2843.75
933.307	2818.75
933.539	2921.75
933.771	2918.75
934.003	2827.75
934.236	2942.75
934.468	2889.75
934.7	2774.75
934.932	2844.75
935.164	2778.75
935.395	2721.75
935.627	2809.75
935.859	2784.75
936.091	2708.75
936.323	2788.75
936.554	2785.75
936.786	2752.75
937.017	2710.75
937.249	2719.75
937.481	2698.75
937.712	2725.75
937.943	2712.75
938.175	2677.75
938.406	2674.75
938.637	2757.75
938.869	2640.75
939.1	2686.75
939.331	2660.75
939.562	2678.75
939.793	2677.75
940.024	2666.75
940.255	2666.75
940.486	2634.75
940.717	2591.75
940.948	2612.75
941.179	2538.75
941.409	2593.75
941.64	2583.75
941.871	2606.75
942.102	2551.75
942.332	2567.75
942.563	2593.75
942.793	2571.75
943.024	2523.75
943.254	2566.75
943.484	2600.75
943.715	2604.75
943.945	2577.75
944.175	2499.75
944.405	2496.75
944.636	2489.75
944.866	2535.75
945.096	2558.75
945.326	2433.75
945.556	2532.75
945.786	2535.75
946.016	2486.75
946.245	2449.75
946.475	2446.75
946.705	2433.75
946.935	2425.75
947.164	2439.75
947.394	2454.75
947.624	2416.75
947.853	2461.75
948.083	2411.75
948.312	2405.75
948.542	2289.75
948.771	2288.75
949	2314.75
949.23	2347.75
949.459	2320.75
949.688	2370.75
949.917	2336.75
950.146	2361.75
950.375	2425.75
950.604	2298.75
950.833	2400.75
951.062	2392.75
951.291	2316.75
951.52	2307.75
951.749	2298.75
951.978	2276.75
952.206	2278.75
952.435	2273.75
952.664	2321.75
952.892	2324.75
953.121	2287.75
953.349	2292.75
953.578	2307.75
953.806	2236.75
954.035	2237.75
954.263	2206.75
954.491	2137.75
954.719	2235.75
954.948	2190.75
955.176	2176.75
955.404	2116.75
955.632	2211.75
955.86	2147.75
956.088	2165.75
956.316	2158.75
956.544	2182.75
956.772	2106.75
956.999	2107.75
957.227	2205.75
957.455	2108.75
957.683	2114.75
957.91	2080.75
958.138	2054.75
958.365	2052.75
958.593	2056.75
958.82	1985.75
959.048	2082.75
959.275	2077.75
959.502	2060.75
959.73	1983.75
959.957	2044.75
960.184	2035.75
960.411	1977.75
960.638	2047.75
960.865	2002.75
961.092	2039.75
961.319	1947.75
961.546	2065.75
961.773	2041.75
962	2025.75
962.227	2050.75
962.454	1995.75
962.68	1982.75
962.907	2017.75
963.134	1960.75
963.36	1952.75
963.587	1995.75
963.813	1931.75
964.04	1951.75
964.266	1897.75
964.493	1981.75
964.719	1970.75
964.945	1969.75
965.171	1877.75
965.398	1904.75
965.624	1905.75
965.85	1857.75
966.076	1833.75
966.302	1902.75
966.528	1891.75
966.754	1906.75
966.98	1887.75
967.206	1866.75
967.431	1828.75
967.657	1891.75
967.883	1883.75
968.109	1874.75
968.334	1801.75
968.56	1787.75
968.785	1816.75
969.011	1769.75
969.236	1832.75
969.462	1749.75
969.687	1829.75
969.912	1828.75
970.138	1825.75
970.363	1747.75
970.588	1796.75
970.813	1745.75
971.038	1754.75
971.263	1770.75
971.488	1792.75
971.713	1820.75
971.938	1762.75
972.163	1694.75
972.388	1731.75
972.613	1719.75
972.838	1719.75
973.062	1686.75
973.287	1722.75
973.512	1618.75
973.736	1668.75
973.961	1672.75
974.185	1655.75
974.41	1687.75
974.634	1600.75
974.858	1610.75
975.083	1655.75
975.307	1670.75
975.531	1615.75
975.755	1557.75
975.98	1572.75
976.204	1561.75
976.428	1535.75
976.652	1535.75
976.876	1507.75
977.1	1555.75
977.324	1521.75
977.547	1569.75
977.771	1585.75
977.995	1519.75
978.219	1466.75
978.442	1602.75
978.666	1521.75
978.89	1532.75
979.113	1554.75
979.337	1542.75
979.56	1494.75
979.783	1581.75
980.007	1469.75
980.23	1522.75
980.453	1514.75
980.677	1512.75
980.9	1510.75
981.123	1441.75
981.346	1520.75
981.569	1488.75
981.792	1505.75
982.015	1472.75
982.238	1431.75
982.461	1456.75
982.684	1424.75
982.907	1407.75
983.129	1420.75
983.352	1459.75
983.575	1418.75
983.797	1414.75
984.02	1393.75
984.242	1400.75
984.465	1412.75
984.687	1450.75
984.91	1450.75
985.132	1417.75
985.354	1450.75
985.577	1421.75
985.799	1391.75
986.021	1326.75
986.243	1357.75
986.465	1364.75
986.687	1411.75
986.909	1464.75
987.131	1368.75
987.353	1372.75
987.575	1385.75
987.797	1341.75
988.019	1300.75
988.241	1353.75
988.462	1303.75
988.684	1365.75
988.906	1391.75
989.127	1418.75
989.349	1310.75
989.57	1346.75
989.792	1380.75
990.013	1371.75
990.234	1393.75
990.456	1404.75
990.677	1367.75
990.898	1298.75
991.119	1325.75
991.341	1340.75
991.562	1279.75
991.783	1350.75
992.004	1274.75
992.225	1245.75
992.446	1312.75
992.667	1223.75
992.887	1312.75
993.108	1199.75
993.329	1331.75
993.55	1283.75
993.77	1224.75
993.991	1225.75
994.212	1281.75
994.432	1257.75
994.653	1273.75
994.873	1289.75
995.093	1152.75
995.314	1212.75
995.534	1274.75
995.754	1275.75
995.975	1307.75
996.195	1198.75
996.415	1254.75
996.635	1205.75
996.855	1214.75
997.075	1209.75
997.295	1222.75
997.515	1182.75
997.735	1260.75
997.955	1240.75
998.174	1196.75
998.394	1173.75
998.614	1229.75
998.834	1168.75
999.053	1255.75
999.273	1223.75
999.492	1285.75
999.712	1182.75
999.931	1183.75
1000.151	1222.75
1000.37	1195.75
1000.589	1274.75
1000.809	1181.75
1001.028	1312.75
1001.247	1219.75
1001.466	1133.75
1001.685	1302.75
1001.904	1223.75
1002.123	1188.75
1002.342	1218.75
1002.561	1171.75
1002.78	1205.75
1002.999	1257.75
1003.218	1202.75
1003.436	1200.75
1003.655	1251.75
1003.874	1172.75
1004.092	1183.75
1004.311	1223.75
1004.53	1206.75
1004.748	1259.75
1004.966	1197.75
1005.185	1223.75
1005.403	1240.75
1005.622	1202.75
1005.84	1289.75
1006.058	1184.75
1006.276	1210.75
1006.494	1688.75
1006.712	1192.75
1006.931	1244.75
1007.149	1183.75
1007.367	1178.75
1007.584	1207.75
1007.802	1231.75
1008.02	1169.75
1008.238	1273.75
1008.456	1260.75
1008.673	1133.75
1008.891	1227.75
1009.109	1152.75
1009.326	1209.75
1009.544	1292.75
1009.761	1188.75
1009.979	1255.75
1010.196	1261.75
1010.413	1307.75
1010.631	1344.75
1010.848	1367.75
1011.065	1361.75
1011.282	1268.75
1011.5	1234.75
1011.717	1354.75
1011.934	1271.75
1012.151	1329.75
1012.368	1286.75
1012.585	1265.75
1012.801	1288.75
1013.018	1255.75
1013.235	1221.75
1013.452	1226.75
1013.669	1221.75
1013.885	1218.75
1014.102	1270.75
1014.318	1219.75
1014.535	1176.75
1014.751	1224.75
1014.968	1203.75
1015.184	1286.75
1015.401	1157.75
1015.617	1203.75
1015.833	1152.75
1016.049	1141.75
1016.266	1129.75
1016.482	1163.75
1016.698	1095.75
1016.914	1139.75
1017.13	1083.75
1017.346	1077.75
1017.562	1174.75
1017.778	1124.75
1017.993	1068.75
1018.209	1107.75
1018.425	1088.75
1018.641	1036.75
1018.856	1051.75
1019.072	1070.75
1019.288	1091.75
1019.503	1062.75
1019.719	983.75
1019.934	981.75
1020.149	1083.75
1020.365	1013.75
1020.58	987.75
1020.795	1026.75
1021.011	975.75
1021.226	979.75
1021.441	982.75
1021.656	927.75
1021.871	889.75
1022.086	895.75
1022.301	879.75
1022.516	870.75
1022.731	936.75
1022.946	829.75
1023.16	846.75
1023.375	845.75
1023.59	798.75
1023.804	780.75
1024.019	894.75
1024.234	762.75
1024.448	784.75
1024.663	748.75
1024.877	769.75
1025.092	767.75
1025.306	773.75
1025.52	690.75
1025.734	810.75
1025.949	715.75
1026.163	702.75
1026.377	661.75
1026.591	691.75
1026.805	649.75
1027.019	624.75
1027.233	599.75
1027.447	545.75
1027.661	654.75
1027.875	593.75
1028.088	607.75
1028.302	539.75
1028.516	552.75
1028.73	537.75
1028.943	540.75
1029.157	504.75
1029.37	482.75
1029.584	-2.25
1029.797	-2.25
1030.011	0.75
1030.224	-5.25
