Data from QEP037381__22__09-59-19-926.txt Node

Date: Wed Dec 21 09:59:19 EST 2022
User: dcclab
Spectrometer: QEP03738
Trigger mode: 4
Integration Time (sec): 1.000000E1
Scans to average: 1
Electric dark correction enabled: true
Nonlinearity correction enabled: false
Boxcar width: 0
XAxis mode: Wavelengths
Number of Pixels in Spectrum: 1044
>>>>>Begin Spectral Data<<<<<
784.041	11.88
784.3	-1.12
784.558	-1.12
784.817	-3.12
785.075	112951.88
785.334	19659.88
785.592	9229.88
785.851	6322.88
786.109	4765.88
786.368	3637.88
786.626	2931.88
786.884	2426.88
787.143	2049.88
787.401	1655.88
787.659	1501.88
787.917	1277.88
788.175	1170.88
788.433	985.88
788.691	913.88
788.949	833.88
789.207	806.88
789.465	676.88
789.723	679.88
789.98	606.88
790.238	633.88
790.496	604.88
790.753	573.88
791.011	611.88
791.268	539.88
791.526	537.88
791.783	548.88
792.041	518.88
792.298	450.88
792.556	483.88
792.813	475.88
793.07	452.88
793.327	431.88
793.584	522.88
793.841	438.88
794.099	453.88
794.356	496.88
794.613	432.88
794.869	459.88
795.126	407.88
795.383	391.88
795.64	421.88
795.897	382.88
796.153	420.88
796.41	408.88
796.667	411.88
796.923	395.88
797.18	402.88
797.436	430.88
797.693	377.88
797.949	436.88
798.206	458.88
798.462	380.88
798.718	430.88
798.974	409.88
799.231	441.88
799.487	432.88
799.743	417.88
799.999	465.88
800.255	446.88
800.511	412.88
800.767	459.88
801.023	445.88
801.279	477.88
801.534	484.88
801.79	500.88
802.046	506.88
802.302	589.88
802.557	632.88
802.813	734.88
803.068	813.88
803.324	1073.88
803.579	1360.88
803.835	1801.88
804.09	2415.88
804.345	3060.88
804.601	3813.88
804.856	4607.88
805.111	5253.88
805.366	5739.88
805.621	6101.88
805.876	6370.88
806.131	6466.88
806.386	6525.88
806.641	6610.88
806.896	6730.88
807.151	6899.88
807.406	6962.88
807.661	7023.88
807.915	7128.88
808.17	7231.88
808.425	7271.88
808.679	7323.88
808.934	7407.88
809.188	7445.88
809.443	7525.88
809.697	7660.88
809.951	7574.88
810.206	7662.88
810.46	7743.88
810.714	7826.88
810.968	7835.88
811.223	7860.88
811.477	7963.88
811.731	7926.88
811.985	7982.88
812.239	7932.88
812.493	8037.88
812.747	8134.88
813	8063.88
813.254	8122.88
813.508	8203.88
813.762	8142.88
814.015	8200.88
814.269	8290.88
814.522	8385.88
814.776	8407.88
815.03	8552.88
815.283	8613.88
815.536	8782.88
815.79	8871.88
816.043	9033.88
816.296	9009.88
816.55	9104.88
816.803	9223.88
817.056	9379.88
817.309	9348.88
817.562	9460.88
817.815	9498.88
818.068	9573.88
818.321	9661.88
818.574	9764.88
818.827	9838.88
819.079	9927.88
819.332	10249.88
819.585	10238.88
819.838	10349.88
820.09	10376.88
820.343	10550.88
820.595	10492.88
820.848	10573.88
821.1	10605.88
821.353	10625.88
821.605	10662.88
821.857	10757.88
822.11	10512.88
822.362	10570.88
822.614	10481.88
822.866	10578.88
823.118	10478.88
823.37	10739.88
823.622	10662.88
823.874	10684.88
824.126	10704.88
824.378	10754.88
824.63	10805.88
824.882	10778.88
825.134	10772.88
825.385	10821.88
825.637	10766.88
825.888	10683.88
826.14	10631.88
826.392	10577.88
826.643	10489.88
826.895	10596.88
827.146	10413.88
827.397	10386.88
827.649	10490.88
827.9	10330.88
828.151	10413.88
828.402	10332.88
828.653	10405.88
828.905	10445.88
829.156	10470.88
829.407	10381.88
829.658	10375.88
829.909	10466.88
830.159	10411.88
830.41	10404.88
830.661	10323.88
830.912	10232.88
831.162	10267.88
831.413	10224.88
831.664	10260.88
831.914	10230.88
832.165	10171.88
832.415	10191.88
832.666	10286.88
832.916	10258.88
833.167	10189.88
833.417	10257.88
833.667	10203.88
833.917	10135.88
834.168	10139.88
834.418	10166.88
834.668	10052.88
834.918	10008.88
835.168	9961.88
835.418	9962.88
835.668	9991.88
835.918	9907.88
836.167	9968.88
836.417	9838.88
836.667	9855.88
836.917	9837.88
837.166	9829.88
837.416	9813.88
837.666	9838.88
837.915	9859.88
838.165	9758.88
838.414	9653.88
838.663	9680.88
838.913	9638.88
839.162	9646.88
839.411	9611.88
839.661	9612.88
839.91	9621.88
840.159	9574.88
840.408	9615.88
840.657	9547.88
840.906	9635.88
841.155	9600.88
841.404	9497.88
841.653	9450.88
841.902	9545.88
842.15	9561.88
842.399	9576.88
842.648	9526.88
842.897	9502.88
843.145	9464.88
843.394	9440.88
843.642	9350.88
843.891	9287.88
844.139	9381.88
844.388	9196.88
844.636	9147.88
844.884	9159.88
845.133	9184.88
845.381	9122.88
845.629	9243.88
845.877	9134.88
846.125	9161.88
846.373	9115.88
846.621	9091.88
846.869	9073.88
847.117	8992.88
847.365	8999.88
847.613	8916.88
847.861	8894.88
848.108	8907.88
848.356	8903.88
848.604	8926.88
848.851	8915.88
849.099	8920.88
849.346	8933.88
849.594	8965.88
849.841	9004.88
850.089	8930.88
850.336	8948.88
850.583	9005.88
850.831	8941.88
851.078	8875.88
851.325	8847.88
851.572	8856.88
851.819	8731.88
852.066	8627.88
852.313	8540.88
852.56	8402.88
852.807	8420.88
853.054	8379.88
853.301	8425.88
853.548	8452.88
853.794	8510.88
854.041	8543.88
854.288	8610.88
854.534	8699.88
854.781	8654.88
855.028	8562.88
855.274	8568.88
855.52	8517.88
855.767	8407.88
856.013	8507.88
856.26	8673.88
856.506	8379.88
856.752	8345.88
856.998	8369.88
857.244	8315.88
857.49	8393.88
857.736	8359.88
857.982	8417.88
858.228	8383.88
858.474	8245.88
858.72	8340.88
858.966	8194.88
859.212	8221.88
859.458	8087.88
859.703	8070.88
859.949	7992.88
860.195	7867.88
860.44	7805.88
860.686	7751.88
860.931	7868.88
861.177	7722.88
861.422	7760.88
861.667	7714.88
861.913	7656.88
862.158	7663.88
862.403	7798.88
862.648	7797.88
862.893	7785.88
863.138	7774.88
863.384	7681.88
863.629	7689.88
863.873	7765.88
864.118	7713.88
864.363	7557.88
864.608	7612.88
864.853	7643.88
865.098	7541.88
865.342	7556.88
865.587	7399.88
865.832	7474.88
866.076	7502.88
866.321	7466.88
866.565	7387.88
866.81	7366.88
867.054	7378.88
867.298	7350.88
867.543	7292.88
867.787	7390.88
868.031	7319.88
868.275	7266.88
868.519	7295.88
868.764	7281.88
869.008	7281.88
869.252	7237.88
869.496	7142.88
869.739	7200.88
869.983	7248.88
870.227	7182.88
870.471	7096.88
870.715	7199.88
870.958	7225.88
871.202	7146.88
871.446	7199.88
871.689	7175.88
871.933	7225.88
872.176	7211.88
872.42	7223.88
872.663	7168.88
872.906	7193.88
873.15	7132.88
873.393	7065.88
873.636	7120.88
873.879	7034.88
874.122	7027.88
874.366	6901.88
874.609	6867.88
874.852	6753.88
875.095	6814.88
875.337	6724.88
875.58	6687.88
875.823	6691.88
876.066	6698.88
876.309	6727.88
876.551	6638.88
876.794	6522.88
877.037	6611.88
877.279	6545.88
877.522	6519.88
877.764	6599.88
878.007	6477.88
878.249	6609.88
878.491	6551.88
878.734	6550.88
878.976	6528.88
879.218	6415.88
879.46	6391.88
879.702	6369.88
879.945	6380.88
880.187	6197.88
880.429	6250.88
880.671	6224.88
880.912	6216.88
881.154	6119.88
881.396	6078.88
881.638	6106.88
881.88	6138.88
882.121	6050.88
882.363	6111.88
882.605	6113.88
882.846	6082.88
883.088	6116.88
883.329	6058.88
883.571	6029.88
883.812	6070.88
884.053	6162.88
884.295	6173.88
884.536	6341.88
884.777	6340.88
885.018	6256.88
885.259	6281.88
885.5	6177.88
885.742	6498.88
885.982	6197.88
886.223	6074.88
886.464	6021.88
886.705	6009.88
886.946	6017.88
887.187	5900.88
887.428	5873.88
887.668	5756.88
887.909	5675.88
888.15	5623.88
888.39	5642.88
888.631	5688.88
888.871	5587.88
889.111	5581.88
889.352	5521.88
889.592	5449.88
889.833	5441.88
890.073	5392.88
890.313	5368.88
890.553	5300.88
890.793	5324.88
891.033	5242.88
891.273	5215.88
891.513	5251.88
891.753	5237.88
891.993	5198.88
892.233	5249.88
892.473	5328.88
892.713	5216.88
892.952	5184.88
893.192	5178.88
893.432	5194.88
893.671	5225.88
893.911	5196.88
894.15	5168.88
894.39	5097.88
894.629	5073.88
894.869	5062.88
895.108	4977.88
895.347	4995.88
895.587	4969.88
895.826	4990.88
896.065	4912.88
896.304	4990.88
896.543	4969.88
896.782	4892.88
897.021	4951.88
897.26	4895.88
897.499	4924.88
897.738	4919.88
897.977	4844.88
898.216	4767.88
898.454	4744.88
898.693	4711.88
898.932	4697.88
899.17	4692.88
899.409	4672.88
899.647	4660.88
899.886	4588.88
900.124	4706.88
900.363	4628.88
900.601	4631.88
900.839	4654.88
901.078	4646.88
901.316	4649.88
901.554	4647.88
901.792	4670.88
902.03	4588.88
902.268	4623.88
902.506	4684.88
902.744	4638.88
902.982	4621.88
903.22	4560.88
903.458	4510.88
903.695	4492.88
903.933	4402.88
904.171	4333.88
904.409	4257.88
904.646	4321.88
904.884	4216.88
905.121	4223.88
905.359	4156.88
905.596	4170.88
905.833	4071.88
906.071	4046.88
906.308	4093.88
906.545	4094.88
906.783	4015.88
907.02	4050.88
907.257	3923.88
907.494	4006.88
907.731	3956.88
907.968	4016.88
908.205	3939.88
908.442	3951.88
908.679	3940.88
908.915	3888.88
909.152	3847.88
909.389	3757.88
909.626	3788.88
909.862	3775.88
910.099	3782.88
910.335	3811.88
910.572	3718.88
910.808	3760.88
911.045	3694.88
911.281	3690.88
911.518	3748.88
911.754	3652.88
911.99	3658.88
912.226	3618.88
912.463	3611.88
912.699	3623.88
912.935	3573.88
913.171	3528.88
913.407	3503.88
913.643	3538.88
913.879	3448.88
914.114	3447.88
914.35	3410.88
914.586	3379.88
914.822	3311.88
915.057	3421.88
915.293	3264.88
915.529	3279.88
915.764	3334.88
916	3288.88
916.235	3280.88
916.471	3291.88
916.706	3207.88
916.941	3248.88
917.177	3211.88
917.412	3298.88
917.647	3273.88
917.882	3189.88
918.117	3286.88
918.352	3238.88
918.588	3260.88
918.823	3164.88
919.057	3148.88
919.292	3048.88
919.527	3127.88
919.762	3026.88
919.997	3097.88
920.232	2999.88
920.466	3015.88
920.701	2903.88
920.935	2995.88
921.17	2901.88
921.405	2848.88
921.639	2953.88
921.873	2924.88
922.108	2896.88
922.342	2938.88
922.576	2835.88
922.811	2847.88
923.045	2881.88
923.279	2883.88
923.513	2798.88
923.747	2853.88
923.981	2802.88
924.215	2767.88
924.449	2757.88
924.683	2712.88
924.917	2705.88
925.151	2713.88
925.385	2753.88
925.618	2728.88
925.852	2739.88
926.086	2656.88
926.319	2697.88
926.553	2678.88
926.786	2694.88
927.02	2689.88
927.253	2696.88
927.486	2719.88
927.72	2642.88
927.953	2676.88
928.186	2620.88
928.42	2672.88
928.653	2620.88
928.886	2589.88
929.119	2638.88
929.352	2596.88
929.585	2601.88
929.818	2545.88
930.051	2585.88
930.284	2538.88
930.516	2429.88
930.749	2460.88
930.982	2534.88
931.215	2479.88
931.447	2397.88
931.68	2446.88
931.912	2441.88
932.145	2413.88
932.377	2458.88
932.61	2573.88
932.842	2399.88
933.074	2454.88
933.307	2411.88
933.539	2510.88
933.771	2499.88
934.003	2432.88
934.236	2483.88
934.468	2544.88
934.7	2439.88
934.932	2419.88
935.164	2414.88
935.395	2387.88
935.627	2369.88
935.859	2402.88
936.091	2341.88
936.323	2393.88
936.554	2409.88
936.786	2377.88
937.017	2287.88
937.249	2344.88
937.481	2294.88
937.712	2365.88
937.943	2307.88
938.175	2299.88
938.406	2324.88
938.637	2379.88
938.869	2254.88
939.1	2343.88
939.331	2274.88
939.562	2328.88
939.793	2310.88
940.024	2299.88
940.255	2306.88
940.486	2259.88
940.717	2259.88
940.948	2265.88
941.179	2167.88
941.409	2215.88
941.64	2213.88
941.871	2219.88
942.102	2193.88
942.332	2209.88
942.563	2253.88
942.793	2229.88
943.024	2152.88
943.254	2174.88
943.484	2226.88
943.715	2272.88
943.945	2245.88
944.175	2147.88
944.405	2121.88
944.636	2149.88
944.866	2194.88
945.096	2193.88
945.326	2132.88
945.556	2190.88
945.786	2198.88
946.016	2148.88
946.245	2130.88
946.475	2083.88
946.705	2077.88
946.935	2093.88
947.164	2112.88
947.394	2065.88
947.624	2077.88
947.853	2148.88
948.083	2062.88
948.312	2051.88
948.542	2009.88
948.771	1975.88
949	2002.88
949.23	2038.88
949.459	2053.88
949.688	2085.88
949.917	2057.88
950.146	2070.88
950.375	2073.88
950.604	1944.88
950.833	2095.88
951.062	2049.88
951.291	2034.88
951.52	1968.88
951.749	1973.88
951.978	1979.88
952.206	1986.88
952.435	1945.88
952.664	2013.88
952.892	1967.88
953.121	1995.88
953.349	1989.88
953.578	1954.88
953.806	1978.88
954.035	1888.88
954.263	1936.88
954.491	1916.88
954.719	1936.88
954.948	1913.88
955.176	1879.88
955.404	1825.88
955.632	1928.88
955.86	1890.88
956.088	1881.88
956.316	1947.88
956.544	1905.88
956.772	1845.88
956.999	1843.88
957.227	1948.88
957.455	1802.88
957.683	1830.88
957.91	1792.88
958.138	1792.88
958.365	1792.88
958.593	1787.88
958.82	1758.88
959.048	1842.88
959.275	1798.88
959.502	1776.88
959.73	1749.88
959.957	1788.88
960.184	1810.88
960.411	1733.88
960.638	1832.88
960.865	1751.88
961.092	1783.88
961.319	1681.88
961.546	1786.88
961.773	1802.88
962	1742.88
962.227	1800.88
962.454	1764.88
962.68	1730.88
962.907	1767.88
963.134	1688.88
963.36	1709.88
963.587	1739.88
963.813	1717.88
964.04	1724.88
964.266	1658.88
964.493	1767.88
964.719	1711.88
964.945	1737.88
965.171	1624.88
965.398	1700.88
965.624	1692.88
965.85	1618.88
966.076	1632.88
966.302	1690.88
966.528	1655.88
966.754	1659.88
966.98	1640.88
967.206	1662.88
967.431	1606.88
967.657	1672.88
967.883	1648.88
968.109	1644.88
968.334	1576.88
968.56	1601.88
968.785	1584.88
969.011	1550.88
969.236	1634.88
969.462	1552.88
969.687	1568.88
969.912	1608.88
970.138	1613.88
970.363	1533.88
970.588	1581.88
970.813	1538.88
971.038	1549.88
971.263	1559.88
971.488	1585.88
971.713	1608.88
971.938	1585.88
972.163	1490.88
972.388	1526.88
972.613	1518.88
972.838	1498.88
973.062	1530.88
973.287	1489.88
973.512	1443.88
973.736	1492.88
973.961	1500.88
974.185	1467.88
974.41	1507.88
974.634	1411.88
974.858	1435.88
975.083	1478.88
975.307	1488.88
975.531	1424.88
975.755	1375.88
975.98	1401.88
976.204	1327.88
976.428	1371.88
976.652	1367.88
976.876	1368.88
977.1	1379.88
977.324	1344.88
977.547	1403.88
977.771	1418.88
977.995	1381.88
978.219	1319.88
978.442	1444.88
978.666	1358.88
978.89	1389.88
979.113	1364.88
979.337	1359.88
979.56	1325.88
979.783	1411.88
980.007	1324.88
980.23	1339.88
980.453	1303.88
980.677	1355.88
980.9	1329.88
981.123	1256.88
981.346	1333.88
981.569	1325.88
981.792	1350.88
982.015	1297.88
982.238	1275.88
982.461	1301.88
982.684	1263.88
982.907	1269.88
983.129	1232.88
983.352	1298.88
983.575	1277.88
983.797	1268.88
984.02	1252.88
984.242	1235.88
984.465	1273.88
984.687	1259.88
984.91	1301.88
985.132	1277.88
985.354	1271.88
985.577	1275.88
985.799	1260.88
986.021	1189.88
986.243	1225.88
986.465	1215.88
986.687	1274.88
986.909	1327.88
987.131	1230.88
987.353	1220.88
987.575	1239.88
987.797	1211.88
988.019	1140.88
988.241	1233.88
988.462	1183.88
988.684	1228.88
988.906	1261.88
989.127	1267.88
989.349	1153.88
989.57	1217.88
989.792	1259.88
990.013	1253.88
990.234	1226.88
990.456	1263.88
990.677	1252.88
990.898	1193.88
991.119	1204.88
991.341	1210.88
991.562	1180.88
991.783	1218.88
992.004	1130.88
992.225	1129.88
992.446	1187.88
992.667	1097.88
992.887	1192.88
993.108	1073.88
993.329	1235.88
993.55	1181.88
993.77	1123.88
993.991	1110.88
994.212	1157.88
994.432	1149.88
994.653	1159.88
994.873	1157.88
995.093	1071.88
995.314	1093.88
995.534	1154.88
995.754	1190.88
995.975	1196.88
996.195	1081.88
996.415	1136.88
996.635	1107.88
996.855	1150.88
997.075	1109.88
997.295	1108.88
997.515	1082.88
997.735	1143.88
997.955	1122.88
998.174	1129.88
998.394	1070.88
998.614	1117.88
998.834	1093.88
999.053	1157.88
999.273	1131.88
999.492	1178.88
999.712	1099.88
999.931	1073.88
1000.151	1130.88
1000.37	1109.88
1000.589	1172.88
1000.809	1103.88
1001.028	1213.88
1001.247	1148.88
1001.466	1061.88
1001.685	1195.88
1001.904	1122.88
1002.123	1124.88
1002.342	1130.88
1002.561	1083.88
1002.78	1101.88
1002.999	1169.88
1003.218	1108.88
1003.436	1095.88
1003.655	1151.88
1003.874	1085.88
1004.092	1127.88
1004.311	1159.88
1004.53	1136.88
1004.748	1157.88
1004.966	1101.88
1005.185	1184.88
1005.403	1166.88
1005.622	1138.88
1005.84	1196.88
1006.058	1122.88
1006.276	1127.88
1006.494	1595.88
1006.712	1135.88
1006.931	1177.88
1007.149	1092.88
1007.367	1079.88
1007.584	1132.88
1007.802	1158.88
1008.02	1086.88
1008.238	1183.88
1008.456	1181.88
1008.673	1047.88
1008.891	1150.88
1009.109	1117.88
1009.326	1164.88
1009.544	1225.88
1009.761	1110.88
1009.979	1198.88
1010.196	1183.88
1010.413	1228.88
1010.631	1287.88
1010.848	1290.88
1011.065	1287.88
1011.282	1250.88
1011.5	1192.88
1011.717	1305.88
1011.934	1237.88
1012.151	1278.88
1012.368	1263.88
1012.585	1195.88
1012.801	1276.88
1013.018	1234.88
1013.235	1170.88
1013.452	1209.88
1013.669	1215.88
1013.885	1156.88
1014.102	1215.88
1014.318	1168.88
1014.535	1138.88
1014.751	1196.88
1014.968	1184.88
1015.184	1244.88
1015.401	1124.88
1015.617	1171.88
1015.833	1132.88
1016.049	1127.88
1016.266	1121.88
1016.482	1122.88
1016.698	1041.88
1016.914	1108.88
1017.13	1054.88
1017.346	1069.88
1017.562	1132.88
1017.778	1038.88
1017.993	1019.88
1018.209	1066.88
1018.425	1045.88
1018.641	1034.88
1018.856	993.88
1019.072	1017.88
1019.288	1089.88
1019.503	1043.88
1019.719	957.88
1019.934	963.88
1020.149	1039.88
1020.365	983.88
1020.58	949.88
1020.795	1008.88
1021.011	942.88
1021.226	930.88
1021.441	975.88
1021.656	876.88
1021.871	834.88
1022.086	855.88
1022.301	846.88
1022.516	856.88
1022.731	921.88
1022.946	815.88
1023.16	807.88
1023.375	796.88
1023.59	771.88
1023.804	762.88
1024.019	870.88
1024.234	751.88
1024.448	768.88
1024.663	684.88
1024.877	733.88
1025.092	743.88
1025.306	752.88
1025.52	674.88
1025.734	761.88
1025.949	679.88
1026.163	646.88
1026.377	618.88
1026.591	678.88
1026.805	611.88
1027.019	606.88
1027.233	566.88
1027.447	511.88
1027.661	635.88
1027.875	573.88
1028.088	577.88
1028.302	520.88
1028.516	512.88
1028.73	530.88
1028.943	508.88
1029.157	475.88
1029.37	461.88
1029.584	-0.12
1029.797	-6.12
1030.011	-0.12
1030.224	-0.12
