Data from QEP037381__60__10-05-39-928.txt Node

Date: Wed Dec 21 10:05:39 EST 2022
User: dcclab
Spectrometer: QEP03738
Trigger mode: 4
Integration Time (sec): 1.000000E1
Scans to average: 1
Electric dark correction enabled: true
Nonlinearity correction enabled: false
Boxcar width: 0
XAxis mode: Wavelengths
Number of Pixels in Spectrum: 1044
>>>>>Begin Spectral Data<<<<<
784.041	11.25
784.3	0.25
784.558	-3.75
784.817	-4.75
785.075	109680.25
785.334	18937.25
785.592	8812.25
785.851	6012.25
786.109	4565.25
786.368	3537.25
786.626	2870.25
786.884	2380.25
787.143	1978.25
787.401	1659.25
787.659	1482.25
787.917	1271.25
788.175	1169.25
788.433	1006.25
788.691	904.25
788.949	840.25
789.207	798.25
789.465	688.25
789.723	667.25
789.98	612.25
790.238	635.25
790.496	598.25
790.753	590.25
791.011	620.25
791.268	544.25
791.526	518.25
791.783	531.25
792.041	519.25
792.298	431.25
792.556	503.25
792.813	482.25
793.07	449.25
793.327	420.25
793.584	510.25
793.841	436.25
794.099	448.25
794.356	506.25
794.613	409.25
794.869	452.25
795.126	408.25
795.383	393.25
795.64	406.25
795.897	358.25
796.153	424.25
796.41	408.25
796.667	376.25
796.923	391.25
797.18	381.25
797.436	417.25
797.693	379.25
797.949	432.25
798.206	456.25
798.462	377.25
798.718	416.25
798.974	403.25
799.231	439.25
799.487	416.25
799.743	427.25
799.999	457.25
800.255	439.25
800.511	412.25
800.767	462.25
801.023	435.25
801.279	445.25
801.534	457.25
801.79	484.25
802.046	478.25
802.302	570.25
802.557	604.25
802.813	680.25
803.068	742.25
803.324	981.25
803.579	1262.25
803.835	1613.25
804.09	2199.25
804.345	2818.25
804.601	3476.25
804.856	4169.25
805.111	4793.25
805.366	5276.25
805.621	5562.25
805.876	5778.25
806.131	5904.25
806.386	5978.25
806.641	6038.25
806.896	6103.25
807.151	6239.25
807.406	6318.25
807.661	6397.25
807.915	6509.25
808.17	6598.25
808.425	6612.25
808.679	6627.25
808.934	6767.25
809.188	6776.25
809.443	6820.25
809.697	6884.25
809.951	6911.25
810.206	6931.25
810.46	7036.25
810.714	7102.25
810.968	7128.25
811.223	7160.25
811.477	7263.25
811.731	7298.25
811.985	7241.25
812.239	7230.25
812.493	7305.25
812.747	7397.25
813	7338.25
813.254	7355.25
813.508	7451.25
813.762	7431.25
814.015	7416.25
814.269	7501.25
814.522	7598.25
814.776	7634.25
815.03	7672.25
815.283	7809.25
815.536	7948.25
815.79	8055.25
816.043	8139.25
816.296	8220.25
816.55	8275.25
816.803	8341.25
817.056	8519.25
817.309	8494.25
817.562	8599.25
817.815	8649.25
818.068	8676.25
818.321	8751.25
818.574	8845.25
818.827	8951.25
819.079	9044.25
819.332	9288.25
819.585	9355.25
819.838	9423.25
820.09	9456.25
820.343	9558.25
820.595	9502.25
820.848	9606.25
821.1	9689.25
821.353	9691.25
821.605	9643.25
821.857	9674.25
822.11	9620.25
822.362	9556.25
822.614	9567.25
822.866	9580.25
823.118	9619.25
823.37	9680.25
823.622	9691.25
823.874	9665.25
824.126	9724.25
824.378	9791.25
824.63	9785.25
824.882	9751.25
825.134	9771.25
825.385	9758.25
825.637	9688.25
825.888	9653.25
826.14	9661.25
826.392	9529.25
826.643	9492.25
826.895	9489.25
827.146	9442.25
827.397	9408.25
827.649	9495.25
827.9	9425.25
828.151	9418.25
828.402	9430.25
828.653	9454.25
828.905	9479.25
829.156	9584.25
829.407	9455.25
829.658	9502.25
829.909	9500.25
830.159	9462.25
830.41	9467.25
830.661	9357.25
830.912	9318.25
831.162	9275.25
831.413	9279.25
831.664	9299.25
831.914	9289.25
832.165	9284.25
832.415	9301.25
832.666	9362.25
832.916	9329.25
833.167	9258.25
833.417	9346.25
833.667	9243.25
833.917	9243.25
834.168	9314.25
834.418	9300.25
834.668	9163.25
834.918	9147.25
835.168	9130.25
835.418	9042.25
835.668	9066.25
835.918	9073.25
836.167	9021.25
836.417	8994.25
836.667	8995.25
836.917	8994.25
837.166	8949.25
837.416	8882.25
837.666	8992.25
837.915	8874.25
838.165	8881.25
838.414	8849.25
838.663	8778.25
838.913	8837.25
839.162	8770.25
839.411	8756.25
839.661	8719.25
839.91	8804.25
840.159	8743.25
840.408	8765.25
840.657	8764.25
840.906	8798.25
841.155	8773.25
841.404	8749.25
841.653	8790.25
841.902	8683.25
842.15	8771.25
842.399	8724.25
842.648	8735.25
842.897	8749.25
843.145	8659.25
843.394	8578.25
843.642	8568.25
843.891	8509.25
844.139	8480.25
844.388	8375.25
844.636	8335.25
844.884	8420.25
845.133	8425.25
845.381	8355.25
845.629	8410.25
845.877	8287.25
846.125	8359.25
846.373	8349.25
846.621	8316.25
846.869	8304.25
847.117	8201.25
847.365	8120.25
847.613	8133.25
847.861	8153.25
848.108	8091.25
848.356	8148.25
848.604	8122.25
848.851	8151.25
849.099	8155.25
849.346	8151.25
849.594	8202.25
849.841	8229.25
850.089	8153.25
850.336	8153.25
850.583	8198.25
850.831	8122.25
851.078	8177.25
851.325	8143.25
851.572	8084.25
851.819	8054.25
852.066	7918.25
852.313	7818.25
852.56	7799.25
852.807	7691.25
853.054	7669.25
853.301	7687.25
853.548	7697.25
853.794	7806.25
854.041	7804.25
854.288	7811.25
854.534	7964.25
854.781	7932.25
855.028	7852.25
855.274	7902.25
855.52	7773.25
855.767	7741.25
856.013	7799.25
856.26	8026.25
856.506	7668.25
856.752	7683.25
856.998	7604.25
857.244	7633.25
857.49	7685.25
857.736	7768.25
857.982	7743.25
858.228	7759.25
858.474	7640.25
858.72	7561.25
858.966	7511.25
859.212	7517.25
859.458	7324.25
859.703	7353.25
859.949	7259.25
860.195	7278.25
860.44	7194.25
860.686	7105.25
860.931	7199.25
861.177	7077.25
861.422	7108.25
861.667	6998.25
861.913	7030.25
862.158	7041.25
862.403	7161.25
862.648	7155.25
862.893	7137.25
863.138	7076.25
863.384	7069.25
863.629	7059.25
863.873	7035.25
864.118	7052.25
864.363	6970.25
864.608	6934.25
864.853	6948.25
865.098	6910.25
865.342	6931.25
865.587	6835.25
865.832	6900.25
866.076	6876.25
866.321	6809.25
866.565	6793.25
866.81	6692.25
867.054	6757.25
867.298	6781.25
867.543	6758.25
867.787	6761.25
868.031	6729.25
868.275	6700.25
868.519	6667.25
868.764	6674.25
869.008	6661.25
869.252	6702.25
869.496	6607.25
869.739	6594.25
869.983	6652.25
870.227	6644.25
870.471	6608.25
870.715	6680.25
870.958	6634.25
871.202	6593.25
871.446	6644.25
871.689	6646.25
871.933	6623.25
872.176	6599.25
872.42	6665.25
872.663	6617.25
872.906	6638.25
873.15	6648.25
873.393	6495.25
873.636	6618.25
873.879	6578.25
874.122	6502.25
874.366	6334.25
874.609	6344.25
874.852	6238.25
875.095	6238.25
875.337	6151.25
875.58	6148.25
875.823	6114.25
876.066	6123.25
876.309	6193.25
876.551	6048.25
876.794	6035.25
877.037	6056.25
877.279	5972.25
877.522	6008.25
877.764	6042.25
878.007	5941.25
878.249	6038.25
878.491	5973.25
878.734	6014.25
878.976	5994.25
879.218	5857.25
879.46	5941.25
879.702	5872.25
879.945	5809.25
880.187	5755.25
880.429	5767.25
880.671	5670.25
880.912	5728.25
881.154	5690.25
881.396	5582.25
881.638	5670.25
881.88	5662.25
882.121	5593.25
882.363	5574.25
882.605	5695.25
882.846	5589.25
883.088	5600.25
883.329	5578.25
883.571	5561.25
883.812	5597.25
884.053	5773.25
884.295	5884.25
884.536	6002.25
884.777	5952.25
885.018	5878.25
885.259	5802.25
885.5	5726.25
885.742	6060.25
885.982	5747.25
886.223	5682.25
886.464	5646.25
886.705	5567.25
886.946	5543.25
887.187	5423.25
887.428	5429.25
887.668	5343.25
887.909	5267.25
888.15	5174.25
888.39	5220.25
888.631	5237.25
888.871	5111.25
889.111	5113.25
889.352	5014.25
889.592	5013.25
889.833	4962.25
890.073	4911.25
890.313	5010.25
890.553	4868.25
890.793	4865.25
891.033	4817.25
891.273	4804.25
891.513	4804.25
891.753	4853.25
891.993	4761.25
892.233	4837.25
892.473	4834.25
892.713	4840.25
892.952	4775.25
893.192	4859.25
893.432	4768.25
893.671	4829.25
893.911	4742.25
894.15	4776.25
894.39	4657.25
894.629	4652.25
894.869	4697.25
895.108	4616.25
895.347	4602.25
895.587	4611.25
895.826	4537.25
896.065	4516.25
896.304	4554.25
896.543	4625.25
896.782	4480.25
897.021	4527.25
897.26	4513.25
897.499	4517.25
897.738	4490.25
897.977	4433.25
898.216	4429.25
898.454	4355.25
898.693	4327.25
898.932	4387.25
899.17	4311.25
899.409	4289.25
899.647	4290.25
899.886	4271.25
900.124	4296.25
900.363	4278.25
900.601	4287.25
900.839	4302.25
901.078	4291.25
901.316	4314.25
901.554	4308.25
901.792	4318.25
902.03	4333.25
902.268	4317.25
902.506	4349.25
902.744	4271.25
902.982	4337.25
903.22	4149.25
903.458	4176.25
903.695	4182.25
903.933	4113.25
904.171	3981.25
904.409	3976.25
904.646	3953.25
904.884	3888.25
905.121	3943.25
905.359	3860.25
905.596	3844.25
905.833	3703.25
906.071	3754.25
906.308	3823.25
906.545	3767.25
906.783	3706.25
907.02	3695.25
907.257	3675.25
907.494	3663.25
907.731	3724.25
907.968	3676.25
908.205	3652.25
908.442	3573.25
908.679	3634.25
908.915	3633.25
909.152	3588.25
909.389	3477.25
909.626	3520.25
909.862	3462.25
910.099	3484.25
910.335	3471.25
910.572	3432.25
910.808	3428.25
911.045	3432.25
911.281	3376.25
911.518	3459.25
911.754	3386.25
911.99	3357.25
912.226	3325.25
912.463	3317.25
912.699	3307.25
912.935	3254.25
913.171	3244.25
913.407	3206.25
913.643	3267.25
913.879	3194.25
914.114	3183.25
914.35	3121.25
914.586	3121.25
914.822	3057.25
915.057	3143.25
915.293	2975.25
915.529	3025.25
915.764	3089.25
916	3046.25
916.235	3023.25
916.471	3043.25
916.706	2979.25
916.941	2983.25
917.177	2966.25
917.412	3000.25
917.647	2990.25
917.882	2977.25
918.117	3011.25
918.352	2986.25
918.588	2974.25
918.823	2951.25
919.057	2911.25
919.292	2814.25
919.527	2859.25
919.762	2805.25
919.997	2885.25
920.232	2798.25
920.466	2824.25
920.701	2701.25
920.935	2730.25
921.17	2687.25
921.405	2673.25
921.639	2731.25
921.873	2703.25
922.108	2681.25
922.342	2677.25
922.576	2641.25
922.811	2626.25
923.045	2661.25
923.279	2684.25
923.513	2547.25
923.747	2666.25
923.981	2596.25
924.215	2584.25
924.449	2553.25
924.683	2478.25
924.917	2525.25
925.151	2500.25
925.385	2570.25
925.618	2529.25
925.852	2523.25
926.086	2473.25
926.319	2536.25
926.553	2513.25
926.786	2467.25
927.02	2470.25
927.253	2513.25
927.486	2470.25
927.72	2438.25
927.953	2497.25
928.186	2457.25
928.42	2473.25
928.653	2423.25
928.886	2378.25
929.119	2469.25
929.352	2376.25
929.585	2449.25
929.818	2345.25
930.051	2409.25
930.284	2395.25
930.516	2313.25
930.749	2287.25
930.982	2339.25
931.215	2315.25
931.447	2246.25
931.68	2298.25
931.912	2269.25
932.145	2276.25
932.377	2269.25
932.61	2383.25
932.842	2206.25
933.074	2264.25
933.307	2183.25
933.539	2307.25
933.771	2286.25
934.003	2257.25
934.236	2305.25
934.468	2327.25
934.7	2265.25
934.932	2272.25
935.164	2208.25
935.395	2210.25
935.627	2254.25
935.859	2254.25
936.091	2170.25
936.323	2268.25
936.554	2221.25
936.786	2199.25
937.017	2155.25
937.249	2186.25
937.481	2107.25
937.712	2224.25
937.943	2183.25
938.175	2170.25
938.406	2112.25
938.637	2189.25
938.869	2102.25
939.1	2190.25
939.331	2143.25
939.562	2170.25
939.793	2158.25
940.024	2145.25
940.255	2157.25
940.486	2104.25
940.717	2100.25
940.948	2103.25
941.179	2043.25
941.409	2072.25
941.64	2076.25
941.871	2084.25
942.102	2068.25
942.332	2025.25
942.563	2101.25
942.793	2045.25
943.024	2011.25
943.254	2071.25
943.484	2104.25
943.715	2103.25
943.945	2074.25
944.175	2038.25
944.405	2008.25
944.636	2019.25
944.866	2041.25
945.096	2069.25
945.326	1977.25
945.556	2041.25
945.786	2078.25
946.016	2004.25
946.245	1940.25
946.475	1990.25
946.705	1988.25
946.935	1948.25
947.164	1954.25
947.394	1941.25
947.624	1943.25
947.853	1965.25
948.083	1973.25
948.312	1935.25
948.542	1868.25
948.771	1861.25
949	1891.25
949.23	1921.25
949.459	1893.25
949.688	1966.25
949.917	1902.25
950.146	1926.25
950.375	1964.25
950.604	1849.25
950.833	1940.25
951.062	1940.25
951.291	1898.25
951.52	1870.25
951.749	1883.25
951.978	1853.25
952.206	1816.25
952.435	1819.25
952.664	1901.25
952.892	1909.25
953.121	1849.25
953.349	1907.25
953.578	1872.25
953.806	1848.25
954.035	1787.25
954.263	1842.25
954.491	1758.25
954.719	1827.25
954.948	1786.25
955.176	1772.25
955.404	1720.25
955.632	1785.25
955.86	1797.25
956.088	1793.25
956.316	1813.25
956.544	1802.25
956.772	1736.25
956.999	1721.25
957.227	1825.25
957.455	1708.25
957.683	1746.25
957.91	1718.25
958.138	1711.25
958.365	1691.25
958.593	1701.25
958.82	1631.25
959.048	1692.25
959.275	1692.25
959.502	1681.25
959.73	1660.25
959.957	1704.25
960.184	1695.25
960.411	1630.25
960.638	1720.25
960.865	1655.25
961.092	1679.25
961.319	1594.25
961.546	1681.25
961.773	1693.25
962	1663.25
962.227	1690.25
962.454	1666.25
962.68	1632.25
962.907	1660.25
963.134	1629.25
963.36	1628.25
963.587	1678.25
963.813	1609.25
964.04	1645.25
964.266	1554.25
964.493	1638.25
964.719	1608.25
964.945	1636.25
965.171	1515.25
965.398	1579.25
965.624	1624.25
965.85	1546.25
966.076	1563.25
966.302	1600.25
966.528	1566.25
966.754	1576.25
966.98	1575.25
967.206	1557.25
967.431	1477.25
967.657	1593.25
967.883	1574.25
968.109	1554.25
968.334	1475.25
968.56	1479.25
968.785	1542.25
969.011	1472.25
969.236	1546.25
969.462	1466.25
969.687	1504.25
969.912	1533.25
970.138	1559.25
970.363	1458.25
970.588	1488.25
970.813	1499.25
971.038	1457.25
971.263	1492.25
971.488	1496.25
971.713	1512.25
971.938	1489.25
972.163	1424.25
972.388	1440.25
972.613	1445.25
972.838	1444.25
973.062	1448.25
973.287	1445.25
973.512	1388.25
973.736	1424.25
973.961	1410.25
974.185	1394.25
974.41	1445.25
974.634	1305.25
974.858	1341.25
975.083	1417.25
975.307	1425.25
975.531	1371.25
975.755	1317.25
975.98	1354.25
976.204	1273.25
976.428	1305.25
976.652	1310.25
976.876	1281.25
977.1	1314.25
977.324	1277.25
977.547	1344.25
977.771	1344.25
977.995	1297.25
978.219	1253.25
978.442	1401.25
978.666	1299.25
978.89	1283.25
979.113	1314.25
979.337	1300.25
979.56	1269.25
979.783	1340.25
980.007	1240.25
980.23	1274.25
980.453	1237.25
980.677	1311.25
980.9	1290.25
981.123	1204.25
981.346	1277.25
981.569	1271.25
981.792	1291.25
982.015	1255.25
982.238	1225.25
982.461	1240.25
982.684	1227.25
982.907	1198.25
983.129	1196.25
983.352	1240.25
983.575	1227.25
983.797	1226.25
984.02	1201.25
984.242	1199.25
984.465	1211.25
984.687	1222.25
984.91	1265.25
985.132	1213.25
985.354	1241.25
985.577	1218.25
985.799	1211.25
986.021	1106.25
986.243	1165.25
986.465	1188.25
986.687	1243.25
986.909	1267.25
987.131	1190.25
987.353	1174.25
987.575	1188.25
987.797	1168.25
988.019	1088.25
988.241	1156.25
988.462	1138.25
988.684	1194.25
988.906	1215.25
989.127	1235.25
989.349	1140.25
989.57	1179.25
989.792	1198.25
990.013	1206.25
990.234	1202.25
990.456	1244.25
990.677	1209.25
990.898	1160.25
991.119	1152.25
991.341	1193.25
991.562	1113.25
991.783	1165.25
992.004	1102.25
992.225	1086.25
992.446	1151.25
992.667	1079.25
992.887	1153.25
993.108	1050.25
993.329	1175.25
993.55	1111.25
993.77	1110.25
993.991	1089.25
994.212	1138.25
994.432	1119.25
994.653	1149.25
994.873	1097.25
995.093	989.25
995.314	1072.25
995.534	1131.25
995.754	1138.25
995.975	1164.25
996.195	1054.25
996.415	1099.25
996.635	1097.25
996.855	1113.25
997.075	1086.25
997.295	1077.25
997.515	1076.25
997.735	1103.25
997.955	1094.25
998.174	1067.25
998.394	1069.25
998.614	1102.25
998.834	1065.25
999.053	1128.25
999.273	1074.25
999.492	1138.25
999.712	1090.25
999.931	1048.25
1000.151	1081.25
1000.37	1066.25
1000.589	1126.25
1000.809	1083.25
1001.028	1193.25
1001.247	1112.25
1001.466	1027.25
1001.685	1138.25
1001.904	1103.25
1002.123	1114.25
1002.342	1122.25
1002.561	1068.25
1002.78	1084.25
1002.999	1139.25
1003.218	1105.25
1003.436	1068.25
1003.655	1117.25
1003.874	1073.25
1004.092	1103.25
1004.311	1128.25
1004.53	1099.25
1004.748	1172.25
1004.966	1086.25
1005.185	1131.25
1005.403	1126.25
1005.622	1099.25
1005.84	1186.25
1006.058	1105.25
1006.276	1120.25
1006.494	1575.25
1006.712	1076.25
1006.931	1159.25
1007.149	1083.25
1007.367	1070.25
1007.584	1115.25
1007.802	1134.25
1008.02	1112.25
1008.238	1215.25
1008.456	1154.25
1008.673	1026.25
1008.891	1135.25
1009.109	1092.25
1009.326	1153.25
1009.544	1229.25
1009.761	1130.25
1009.979	1185.25
1010.196	1185.25
1010.413	1267.25
1010.631	1306.25
1010.848	1305.25
1011.065	1340.25
1011.282	1272.25
1011.5	1201.25
1011.717	1316.25
1011.934	1280.25
1012.151	1286.25
1012.368	1261.25
1012.585	1213.25
1012.801	1254.25
1013.018	1210.25
1013.235	1196.25
1013.452	1222.25
1013.669	1236.25
1013.885	1203.25
1014.102	1252.25
1014.318	1215.25
1014.535	1196.25
1014.751	1202.25
1014.968	1207.25
1015.184	1256.25
1015.401	1170.25
1015.617	1204.25
1015.833	1146.25
1016.049	1134.25
1016.266	1111.25
1016.482	1149.25
1016.698	1053.25
1016.914	1142.25
1017.13	1076.25
1017.346	1099.25
1017.562	1142.25
1017.778	1057.25
1017.993	1028.25
1018.209	1073.25
1018.425	1078.25
1018.641	1012.25
1018.856	1008.25
1019.072	1056.25
1019.288	1084.25
1019.503	1032.25
1019.719	951.25
1019.934	1000.25
1020.149	1062.25
1020.365	998.25
1020.58	978.25
1020.795	1019.25
1021.011	962.25
1021.226	929.25
1021.441	971.25
1021.656	898.25
1021.871	825.25
1022.086	849.25
1022.301	853.25
1022.516	847.25
1022.731	912.25
1022.946	812.25
1023.16	831.25
1023.375	797.25
1023.59	775.25
1023.804	743.25
1024.019	844.25
1024.234	740.25
1024.448	779.25
1024.663	705.25
1024.877	730.25
1025.092	743.25
1025.306	765.25
1025.52	653.25
1025.734	777.25
1025.949	679.25
1026.163	665.25
1026.377	611.25
1026.591	660.25
1026.805	595.25
1027.019	607.25
1027.233	573.25
1027.447	524.25
1027.661	627.25
1027.875	581.25
1028.088	570.25
1028.302	513.25
1028.516	504.25
1028.73	514.25
1028.943	515.25
1029.157	483.25
1029.37	459.25
1029.584	-2.75
1029.797	0.25
1030.011	-1.75
1030.224	1.25
