Data from QEP037381__61__10-05-49-928.txt Node

Date: Wed Dec 21 10:05:49 EST 2022
User: dcclab
Spectrometer: QEP03738
Trigger mode: 4
Integration Time (sec): 1.000000E1
Scans to average: 1
Electric dark correction enabled: true
Nonlinearity correction enabled: false
Boxcar width: 0
XAxis mode: Wavelengths
Number of Pixels in Spectrum: 1044
>>>>>Begin Spectral Data<<<<<
784.041	12.25
784.3	-1.75
784.558	-2.75
784.817	-0.75
785.075	116429.25
785.334	20219.25
785.592	9464.25
785.851	6528.25
786.109	4915.25
786.368	3866.25
786.626	3056.25
786.884	2507.25
787.143	2097.25
787.401	1756.25
787.659	1542.25
787.917	1294.25
788.175	1196.25
788.433	1016.25
788.691	938.25
788.949	859.25
789.207	793.25
789.465	695.25
789.723	677.25
789.98	623.25
790.238	641.25
790.496	608.25
790.753	562.25
791.011	627.25
791.268	549.25
791.526	537.25
791.783	538.25
792.041	520.25
792.298	441.25
792.556	506.25
792.813	488.25
793.07	447.25
793.327	428.25
793.584	536.25
793.841	432.25
794.099	459.25
794.356	508.25
794.613	406.25
794.869	446.25
795.126	425.25
795.383	395.25
795.64	415.25
795.897	363.25
796.153	426.25
796.41	406.25
796.667	386.25
796.923	395.25
797.18	392.25
797.436	410.25
797.693	381.25
797.949	441.25
798.206	462.25
798.462	367.25
798.718	424.25
798.974	393.25
799.231	432.25
799.487	423.25
799.743	428.25
799.999	461.25
800.255	424.25
800.511	420.25
800.767	449.25
801.023	418.25
801.279	449.25
801.534	470.25
801.79	478.25
802.046	484.25
802.302	575.25
802.557	591.25
802.813	686.25
803.068	755.25
803.324	980.25
803.579	1261.25
803.835	1634.25
804.09	2252.25
804.345	2858.25
804.601	3559.25
804.856	4280.25
805.111	4871.25
805.366	5322.25
805.621	5643.25
805.876	5905.25
806.131	5991.25
806.386	6091.25
806.641	6170.25
806.896	6279.25
807.151	6397.25
807.406	6406.25
807.661	6555.25
807.915	6598.25
808.17	6697.25
808.425	6788.25
808.679	6752.25
808.934	6859.25
809.188	6870.25
809.443	6962.25
809.697	7045.25
809.951	6990.25
810.206	7117.25
810.46	7171.25
810.714	7204.25
810.968	7238.25
811.223	7299.25
811.477	7399.25
811.731	7465.25
811.985	7426.25
812.239	7395.25
812.493	7503.25
812.747	7466.25
813	7473.25
813.254	7502.25
813.508	7593.25
813.762	7534.25
814.015	7593.25
814.269	7651.25
814.522	7724.25
814.776	7829.25
815.03	7930.25
815.283	8009.25
815.536	8149.25
815.79	8156.25
816.043	8265.25
816.296	8440.25
816.55	8469.25
816.803	8503.25
817.056	8638.25
817.309	8721.25
817.562	8724.25
817.815	8872.25
818.068	8852.25
818.321	8905.25
818.574	9032.25
818.827	9131.25
819.079	9209.25
819.332	9409.25
819.585	9529.25
819.838	9687.25
820.09	9693.25
820.343	9743.25
820.595	9715.25
820.848	9861.25
821.1	9761.25
821.353	9875.25
821.605	9804.25
821.857	9882.25
822.11	9755.25
822.362	9735.25
822.614	9695.25
822.866	9744.25
823.118	9750.25
823.37	9860.25
823.622	9905.25
823.874	9924.25
824.126	9944.25
824.378	9959.25
824.63	9931.25
824.882	9946.25
825.134	10020.25
825.385	10007.25
825.637	9867.25
825.888	9847.25
826.14	9776.25
826.392	9816.25
826.643	9655.25
826.895	9707.25
827.146	9681.25
827.397	9558.25
827.649	9599.25
827.9	9555.25
828.151	9523.25
828.402	9559.25
828.653	9659.25
828.905	9696.25
829.156	9772.25
829.407	9602.25
829.658	9640.25
829.909	9769.25
830.159	9712.25
830.41	9613.25
830.661	9571.25
830.912	9547.25
831.162	9446.25
831.413	9481.25
831.664	9462.25
831.914	9559.25
832.165	9428.25
832.415	9496.25
832.666	9458.25
832.916	9470.25
833.167	9445.25
833.417	9541.25
833.667	9378.25
833.917	9399.25
834.168	9453.25
834.418	9318.25
834.668	9370.25
834.918	9287.25
835.168	9265.25
835.418	9259.25
835.668	9224.25
835.918	9218.25
836.167	9255.25
836.417	9089.25
836.667	9136.25
836.917	9169.25
837.166	9096.25
837.416	9161.25
837.666	9104.25
837.915	9040.25
838.165	9127.25
838.414	8964.25
838.663	8951.25
838.913	9011.25
839.162	8926.25
839.411	9011.25
839.661	8956.25
839.91	8883.25
840.159	8937.25
840.408	8951.25
840.657	8918.25
840.906	8910.25
841.155	8937.25
841.404	8873.25
841.653	8894.25
841.902	8838.25
842.15	8868.25
842.399	8891.25
842.648	8885.25
842.897	8858.25
843.145	8701.25
843.394	8752.25
843.642	8715.25
843.891	8710.25
844.139	8595.25
844.388	8562.25
844.636	8488.25
844.884	8527.25
845.133	8491.25
845.381	8526.25
845.629	8532.25
845.877	8559.25
846.125	8501.25
846.373	8440.25
846.621	8407.25
846.869	8544.25
847.117	8404.25
847.365	8327.25
847.613	8322.25
847.861	8327.25
848.108	8288.25
848.356	8268.25
848.604	8263.25
848.851	8269.25
849.099	8253.25
849.346	8245.25
849.594	8351.25
849.841	8391.25
850.089	8369.25
850.336	8352.25
850.583	8341.25
850.831	8272.25
851.078	8231.25
851.325	8183.25
851.572	8260.25
851.819	8237.25
852.066	8109.25
852.313	7962.25
852.56	7936.25
852.807	7853.25
853.054	7855.25
853.301	7816.25
853.548	7800.25
853.794	7988.25
854.041	7923.25
854.288	7927.25
854.534	8099.25
854.781	8049.25
855.028	7955.25
855.274	8059.25
855.52	7884.25
855.767	7837.25
856.013	7896.25
856.26	8180.25
856.506	7852.25
856.752	7777.25
856.998	7768.25
857.244	7801.25
857.49	7820.25
857.736	7929.25
857.982	7913.25
858.228	7797.25
858.474	7773.25
858.72	7743.25
858.966	7638.25
859.212	7700.25
859.458	7527.25
859.703	7460.25
859.949	7361.25
860.195	7401.25
860.44	7333.25
860.686	7292.25
860.931	7305.25
861.177	7166.25
861.422	7239.25
861.667	7155.25
861.913	7184.25
862.158	7184.25
862.403	7224.25
862.648	7224.25
862.893	7236.25
863.138	7245.25
863.384	7201.25
863.629	7248.25
863.873	7190.25
864.118	7135.25
864.363	7090.25
864.608	7097.25
864.853	7115.25
865.098	7063.25
865.342	7062.25
865.587	6987.25
865.832	6987.25
866.076	6980.25
866.321	6898.25
866.565	6921.25
866.81	6818.25
867.054	6878.25
867.298	6918.25
867.543	6825.25
867.787	6842.25
868.031	6748.25
868.275	6749.25
868.519	6801.25
868.764	6774.25
869.008	6741.25
869.252	6783.25
869.496	6713.25
869.739	6685.25
869.983	6756.25
870.227	6706.25
870.471	6706.25
870.715	6759.25
870.958	6715.25
871.202	6699.25
871.446	6764.25
871.689	6762.25
871.933	6789.25
872.176	6770.25
872.42	6704.25
872.663	6680.25
872.906	6719.25
873.15	6685.25
873.393	6639.25
873.636	6691.25
873.879	6614.25
874.122	6567.25
874.366	6447.25
874.609	6400.25
874.852	6379.25
875.095	6300.25
875.337	6331.25
875.58	6206.25
875.823	6241.25
876.066	6271.25
876.309	6211.25
876.551	6100.25
876.794	6108.25
877.037	6177.25
877.279	6102.25
877.522	6086.25
877.764	6157.25
878.007	6109.25
878.249	6097.25
878.491	6084.25
878.734	6139.25
878.976	6078.25
879.218	5958.25
879.46	6057.25
879.702	5955.25
879.945	5969.25
880.187	5850.25
880.429	5806.25
880.671	5831.25
880.912	5791.25
881.154	5793.25
881.396	5720.25
881.638	5767.25
881.88	5749.25
882.121	5670.25
882.363	5706.25
882.605	5750.25
882.846	5672.25
883.088	5723.25
883.329	5650.25
883.571	5672.25
883.812	5697.25
884.053	5879.25
884.295	5926.25
884.536	6053.25
884.777	6034.25
885.018	5974.25
885.259	5890.25
885.5	5886.25
885.742	6134.25
885.982	5854.25
886.223	5742.25
886.464	5757.25
886.705	5651.25
886.946	5644.25
887.187	5533.25
887.428	5540.25
887.668	5430.25
887.909	5280.25
888.15	5312.25
888.39	5308.25
888.631	5300.25
888.871	5197.25
889.111	5140.25
889.352	5107.25
889.592	5076.25
889.833	5013.25
890.073	5007.25
890.313	5096.25
890.553	4899.25
890.793	4993.25
891.033	4887.25
891.273	4890.25
891.513	4889.25
891.753	4918.25
891.993	4828.25
892.233	4860.25
892.473	4961.25
892.713	4872.25
892.952	4809.25
893.192	4908.25
893.432	4857.25
893.671	4859.25
893.911	4782.25
894.15	4781.25
894.39	4697.25
894.629	4706.25
894.869	4728.25
895.108	4680.25
895.347	4629.25
895.587	4631.25
895.826	4612.25
896.065	4594.25
896.304	4637.25
896.543	4626.25
896.782	4581.25
897.021	4572.25
897.26	4556.25
897.499	4617.25
897.738	4596.25
897.977	4539.25
898.216	4508.25
898.454	4400.25
898.693	4417.25
898.932	4405.25
899.17	4357.25
899.409	4342.25
899.647	4379.25
899.886	4328.25
900.124	4381.25
900.363	4358.25
900.601	4346.25
900.839	4354.25
901.078	4365.25
901.316	4308.25
901.554	4381.25
901.792	4362.25
902.03	4374.25
902.268	4392.25
902.506	4425.25
902.744	4345.25
902.982	4380.25
903.22	4299.25
903.458	4195.25
903.695	4224.25
903.933	4177.25
904.171	4088.25
904.409	4018.25
904.646	4053.25
904.884	3994.25
905.121	3954.25
905.359	3909.25
905.596	3921.25
905.833	3819.25
906.071	3829.25
906.308	3814.25
906.545	3772.25
906.783	3720.25
907.02	3778.25
907.257	3753.25
907.494	3752.25
907.731	3747.25
907.968	3761.25
908.205	3716.25
908.442	3670.25
908.679	3628.25
908.915	3640.25
909.152	3665.25
909.389	3539.25
909.626	3585.25
909.862	3498.25
910.099	3509.25
910.335	3541.25
910.572	3444.25
910.808	3510.25
911.045	3513.25
911.281	3448.25
911.518	3510.25
911.754	3439.25
911.99	3421.25
912.226	3391.25
912.463	3326.25
912.699	3332.25
912.935	3314.25
913.171	3297.25
913.407	3279.25
913.643	3286.25
913.879	3242.25
914.114	3198.25
914.35	3176.25
914.586	3175.25
914.822	3139.25
915.057	3208.25
915.293	3027.25
915.529	3044.25
915.764	3082.25
916	3094.25
916.235	3078.25
916.471	3084.25
916.706	3001.25
916.941	3034.25
917.177	3029.25
917.412	3051.25
917.647	3047.25
917.882	2979.25
918.117	3028.25
918.352	3010.25
918.588	3049.25
918.823	2984.25
919.057	2941.25
919.292	2836.25
919.527	2947.25
919.762	2861.25
919.997	2900.25
920.232	2841.25
920.466	2857.25
920.701	2724.25
920.935	2778.25
921.17	2786.25
921.405	2697.25
921.639	2773.25
921.873	2713.25
922.108	2753.25
922.342	2723.25
922.576	2676.25
922.811	2673.25
923.045	2700.25
923.279	2724.25
923.513	2608.25
923.747	2665.25
923.981	2607.25
924.215	2558.25
924.449	2589.25
924.683	2558.25
924.917	2565.25
925.151	2556.25
925.385	2592.25
925.618	2589.25
925.852	2535.25
926.086	2472.25
926.319	2561.25
926.553	2521.25
926.786	2528.25
927.02	2530.25
927.253	2552.25
927.486	2549.25
927.72	2477.25
927.953	2549.25
928.186	2485.25
928.42	2511.25
928.653	2462.25
928.886	2472.25
929.119	2497.25
929.352	2435.25
929.585	2432.25
929.818	2364.25
930.051	2399.25
930.284	2428.25
930.516	2283.25
930.749	2341.25
930.982	2390.25
931.215	2359.25
931.447	2288.25
931.68	2345.25
931.912	2259.25
932.145	2315.25
932.377	2318.25
932.61	2422.25
932.842	2248.25
933.074	2294.25
933.307	2239.25
933.539	2361.25
933.771	2339.25
934.003	2279.25
934.236	2342.25
934.468	2352.25
934.7	2282.25
934.932	2338.25
935.164	2258.25
935.395	2240.25
935.627	2273.25
935.859	2243.25
936.091	2212.25
936.323	2259.25
936.554	2269.25
936.786	2213.25
937.017	2176.25
937.249	2205.25
937.481	2135.25
937.712	2262.25
937.943	2216.25
938.175	2196.25
938.406	2156.25
938.637	2222.25
938.869	2121.25
939.1	2229.25
939.331	2196.25
939.562	2176.25
939.793	2185.25
940.024	2234.25
940.255	2219.25
940.486	2184.25
940.717	2131.25
940.948	2111.25
941.179	2085.25
941.409	2089.25
941.64	2061.25
941.871	2109.25
942.102	2074.25
942.332	2105.25
942.563	2126.25
942.793	2099.25
943.024	2057.25
943.254	2105.25
943.484	2171.25
943.715	2132.25
943.945	2107.25
944.175	2028.25
944.405	2024.25
944.636	2033.25
944.866	2096.25
945.096	2082.25
945.326	2011.25
945.556	2110.25
945.786	2118.25
946.016	2019.25
946.245	1982.25
946.475	1993.25
946.705	1977.25
946.935	2007.25
947.164	2003.25
947.394	1979.25
947.624	1972.25
947.853	1978.25
948.083	1981.25
948.312	1948.25
948.542	1907.25
948.771	1878.25
949	1899.25
949.23	1901.25
949.459	1894.25
949.688	1967.25
949.917	1911.25
950.146	1953.25
950.375	1960.25
950.604	1872.25
950.833	1972.25
951.062	1993.25
951.291	1901.25
951.52	1897.25
951.749	1895.25
951.978	1864.25
952.206	1851.25
952.435	1856.25
952.664	1871.25
952.892	1903.25
953.121	1882.25
953.349	1938.25
953.578	1856.25
953.806	1876.25
954.035	1830.25
954.263	1851.25
954.491	1812.25
954.719	1843.25
954.948	1782.25
955.176	1821.25
955.404	1755.25
955.632	1801.25
955.86	1821.25
956.088	1780.25
956.316	1825.25
956.544	1816.25
956.772	1771.25
956.999	1744.25
957.227	1832.25
957.455	1733.25
957.683	1738.25
957.91	1735.25
958.138	1723.25
958.365	1716.25
958.593	1686.25
958.82	1667.25
959.048	1740.25
959.275	1708.25
959.502	1702.25
959.73	1680.25
959.957	1704.25
960.184	1696.25
960.411	1669.25
960.638	1765.25
960.865	1682.25
961.092	1699.25
961.319	1620.25
961.546	1699.25
961.773	1722.25
962	1683.25
962.227	1719.25
962.454	1687.25
962.68	1674.25
962.907	1675.25
963.134	1653.25
963.36	1664.25
963.587	1666.25
963.813	1588.25
964.04	1677.25
964.266	1613.25
964.493	1645.25
964.719	1634.25
964.945	1638.25
965.171	1555.25
965.398	1622.25
965.624	1626.25
965.85	1590.25
966.076	1562.25
966.302	1588.25
966.528	1591.25
966.754	1626.25
966.98	1581.25
967.206	1600.25
967.431	1524.25
967.657	1592.25
967.883	1589.25
968.109	1593.25
968.334	1519.25
968.56	1495.25
968.785	1526.25
969.011	1502.25
969.236	1565.25
969.462	1481.25
969.687	1514.25
969.912	1551.25
970.138	1574.25
970.363	1476.25
970.588	1500.25
970.813	1490.25
971.038	1473.25
971.263	1499.25
971.488	1494.25
971.713	1541.25
971.938	1505.25
972.163	1439.25
972.388	1444.25
972.613	1429.25
972.838	1460.25
973.062	1458.25
973.287	1432.25
973.512	1398.25
973.736	1426.25
973.961	1391.25
974.185	1427.25
974.41	1424.25
974.634	1379.25
974.858	1368.25
975.083	1430.25
975.307	1428.25
975.531	1371.25
975.755	1312.25
975.98	1338.25
976.204	1285.25
976.428	1299.25
976.652	1295.25
976.876	1289.25
977.1	1305.25
977.324	1315.25
977.547	1365.25
977.771	1364.25
977.995	1337.25
978.219	1249.25
978.442	1360.25
978.666	1311.25
978.89	1320.25
979.113	1298.25
979.337	1298.25
979.56	1274.25
979.783	1390.25
980.007	1270.25
980.23	1297.25
980.453	1257.25
980.677	1312.25
980.9	1257.25
981.123	1202.25
981.346	1312.25
981.569	1293.25
981.792	1287.25
982.015	1260.25
982.238	1233.25
982.461	1277.25
982.684	1214.25
982.907	1224.25
983.129	1213.25
983.352	1263.25
983.575	1227.25
983.797	1235.25
984.02	1194.25
984.242	1194.25
984.465	1206.25
984.687	1234.25
984.91	1258.25
985.132	1259.25
985.354	1276.25
985.577	1213.25
985.799	1222.25
986.021	1126.25
986.243	1178.25
986.465	1190.25
986.687	1243.25
986.909	1256.25
987.131	1199.25
987.353	1175.25
987.575	1221.25
987.797	1174.25
988.019	1138.25
988.241	1180.25
988.462	1128.25
988.684	1200.25
988.906	1222.25
989.127	1246.25
989.349	1147.25
989.57	1184.25
989.792	1194.25
990.013	1214.25
990.234	1213.25
990.456	1257.25
990.677	1220.25
990.898	1169.25
991.119	1178.25
991.341	1198.25
991.562	1128.25
991.783	1146.25
992.004	1118.25
992.225	1103.25
992.446	1160.25
992.667	1051.25
992.887	1183.25
993.108	1031.25
993.329	1207.25
993.55	1137.25
993.77	1083.25
993.991	1093.25
994.212	1150.25
994.432	1127.25
994.653	1126.25
994.873	1129.25
995.093	1018.25
995.314	1059.25
995.534	1129.25
995.754	1147.25
995.975	1167.25
996.195	1051.25
996.415	1147.25
996.635	1094.25
996.855	1109.25
997.075	1092.25
997.295	1075.25
997.515	1068.25
997.735	1115.25
997.955	1091.25
998.174	1086.25
998.394	1057.25
998.614	1122.25
998.834	1074.25
999.053	1135.25
999.273	1088.25
999.492	1136.25
999.712	1087.25
999.931	1078.25
1000.151	1097.25
1000.37	1094.25
1000.589	1138.25
1000.809	1057.25
1001.028	1184.25
1001.247	1108.25
1001.466	1053.25
1001.685	1167.25
1001.904	1112.25
1002.123	1104.25
1002.342	1127.25
1002.561	1054.25
1002.78	1094.25
1002.999	1156.25
1003.218	1099.25
1003.436	1086.25
1003.655	1133.25
1003.874	1077.25
1004.092	1106.25
1004.311	1154.25
1004.53	1085.25
1004.748	1167.25
1004.966	1115.25
1005.185	1152.25
1005.403	1139.25
1005.622	1106.25
1005.84	1190.25
1006.058	1078.25
1006.276	1134.25
1006.494	1607.25
1006.712	1113.25
1006.931	1157.25
1007.149	1088.25
1007.367	1086.25
1007.584	1126.25
1007.802	1151.25
1008.02	1123.25
1008.238	1189.25
1008.456	1166.25
1008.673	1042.25
1008.891	1145.25
1009.109	1114.25
1009.326	1161.25
1009.544	1249.25
1009.761	1140.25
1009.979	1228.25
1010.196	1201.25
1010.413	1275.25
1010.631	1303.25
1010.848	1315.25
1011.065	1304.25
1011.282	1274.25
1011.5	1196.25
1011.717	1339.25
1011.934	1279.25
1012.151	1313.25
1012.368	1270.25
1012.585	1226.25
1012.801	1298.25
1013.018	1246.25
1013.235	1204.25
1013.452	1227.25
1013.669	1252.25
1013.885	1201.25
1014.102	1277.25
1014.318	1208.25
1014.535	1201.25
1014.751	1210.25
1014.968	1216.25
1015.184	1252.25
1015.401	1162.25
1015.617	1189.25
1015.833	1144.25
1016.049	1156.25
1016.266	1150.25
1016.482	1157.25
1016.698	1083.25
1016.914	1116.25
1017.13	1077.25
1017.346	1082.25
1017.562	1138.25
1017.778	1071.25
1017.993	1044.25
1018.209	1101.25
1018.425	1087.25
1018.641	1054.25
1018.856	1010.25
1019.072	1065.25
1019.288	1087.25
1019.503	1040.25
1019.719	951.25
1019.934	991.25
1020.149	1071.25
1020.365	1017.25
1020.58	989.25
1020.795	1021.25
1021.011	938.25
1021.226	933.25
1021.441	964.25
1021.656	914.25
1021.871	850.25
1022.086	863.25
1022.301	874.25
1022.516	855.25
1022.731	918.25
1022.946	814.25
1023.16	837.25
1023.375	809.25
1023.59	774.25
1023.804	751.25
1024.019	867.25
1024.234	753.25
1024.448	779.25
1024.663	719.25
1024.877	732.25
1025.092	741.25
1025.306	765.25
1025.52	688.25
1025.734	766.25
1025.949	706.25
1026.163	657.25
1026.377	612.25
1026.591	661.25
1026.805	599.25
1027.019	591.25
1027.233	576.25
1027.447	531.25
1027.661	633.25
1027.875	584.25
1028.088	588.25
1028.302	519.25
1028.516	510.25
1028.73	522.25
1028.943	524.25
1029.157	471.25
1029.37	441.25
1029.584	0.25
1029.797	-1.75
1030.011	-1.75
1030.224	-3.75
